-4.955762535185613e-05,-0.0063708431400135435,-0.011133555506577672,-0.013397848349135169,-0.013154025187924426,-0.01118736031114377,-0.008603323055738521,-0.006294566105049096,-0.004630412371483657,-0.0034851048088853018,-0.0025122728526773587,-0.0014549893265934748,-0.0003093595945254605,0.0007127863898755186,0.0013492614332250748,0.001456269094154923,0.00108827943532196,0.0004692560751659511,-0.00010537490187144394,-0.00037761107673355693,-0.00020320289605076092,0.0004211617423186091,0.0013753093502645239,0.002462564707175055,0.0034682741776412736,0.004213760132296823,0.004594446962035745,0.004596282037453412,0.004288531713732467,0.0037943859150905545,0.0032457571545284197,0.0027348337143214066,0.0022786655449943283,0.0018110829623383955,0.0012087386176308757,0.0003472530894880724,-0.0008287751942199816,-0.0022490177100060716,-0.003704136843026046,-0.004893834723401523,-0.005526334995268974,-0.005429701599271934,-0.004623447502913796,-0.003315136661629508,-0.0018230019663239491,-0.000460951936159781,0.0005622454179794673,0.0011882384805672868,0.0014864634392198093,0.0015843895646795378,0.0015925975251943384,0.00156391443723018,0.0014996398158265154,0.0013831551012260688,0.0012058809776254915,0.0009644937669101065,0.0006395172560350593,0.00018673043485379704,-0.00043504908271417477,-0.0012082276327740151,-0.002011687339193178,-0.002629220876156431,-0.0028233823659271915,-0.0024432169950077656,-0.0015078475419663551,-0.00021794634046113986,0.0011133398090861835,0.0021757649354744875,0.0027687262781148332,0.0028542301314801915,0.0025416469439702226,0.002022336499397367,0.0014894984689194926,0.0010750845215811162,0.0008190321970895547,0.0006702390150639751,0.0005126217654298741,0.00021108425419574708,-0.0003288652908186615,-0.00110384690965711,-0.0019848509367107873,-0.002743301858838472,-0.0031314497599327674,-0.0029850632676922282,-0.002298548963233892,-0.00123407632695185,-6.0413419034504624e-05,0.0009477821287199827,0.0016034898517809705,0.001855917828485915,0.0017816123018635967,0.0015315831644241269,0.0012625097615710328,0.0010796520101081584,0.0010081122324406624,0.000995278677691701,0.000937166510386826,0.0007178904620977318,0.00025306896042925355,-0.0004704001797938851,-0.001368091898123664,-0.0022594443707085275,-0.002908630611370205,-0.003101535921881683,-0.0027323675300565653,-0.0018587638897554588,-0.0006926119827528809,0.000475937752646376,0.0013886857169949174,0.0019120276222978861,0.0020682573559279607,0.001993860177703683,0.0018522662639251489,0.0017510730906209718,0.0017048878477104595,0.001652109190757074,0.0015021641401102132,0.0011802517886620994,0.0006503862285740904,-8.159521060460305e-05,-0.0009717077372506581,-0.0019373279606960977,-0.0028531080248945114,-0.0035551300017178772,-0.003867683934224624,-0.0036562884625929615,-0.0028902806762199427,-0.0016816579741196342,-0.00026906891558523113,0.0010583405372019117,0.002066047511534183,0.0026544182106502073,0.0028705144195914425,0.0028482244472689444,0.0027176759499228887,0.0025407257326350964,0.002305398855310323,0.0019684116672495397,0.001505309358128499,0.0009314827434964216,0.00028622683650675047,-0.00039833349036461074,-0.0011119622818750777,-0.001848378512116048,-0.002566717027880648,-0.003165368319994857,-0.003497862644478743,-0.0034322891638175995,-0.0029218193547957926,-0.0020407754649064773,-0.0009607727139760751,0.00011910802783484192,0.001045204154884189,0.00174471519350612,0.0022125821927734554,0.0024713393878728483,0.0025386042207813098,0.002423920138151547,0.00214908539248386,0.0017647532655721554,0.0013379763239571717,0.0009110079184569608,0.00046204107213193286,-9.223794218630446e-05,-0.0008364097801960113,-0.0017662804906703078,-0.002729105275539493,-0.0034474352121097954,-0.003632261846750081,-0.0031309187498159627,-0.002024291279779516,-0.0006112577329128833,0.0007167247458134678,0.001643896990208252,0.002052070832888282,0.0020373410101288767,0.0018239826894772414,0.001632410404375286,0.0015760318666613127,0.0016355870414396403,0.001707822505294306,0.0016821243160826584,0.0014911519906910412,0.0011115289770108304,0.000534047611979776,-0.00025358995298662356,-0.0012427909978330342,-0.0023509448221260784,-0.0033856975438874702,-0.004072315073096597,-0.004150967497091768,-0.0035000756653991555,-0.0022156327919517662,-0.0005949702171632303,0.0009736130398474166,0.002160339444525831,0.0028069135824653653,0.0029510444335768024,0.0027620976838185905,0.0024343085055971757,0.0020989372443226614,0.001794223409904087,0.0014907687566874269,0.0011390436340975524,0.0007030216311939516,0.0001654250148021572,-0.0004834600808068996,-0.001248789054764465,-0.0021102698067297972,-0.002985888319938931,-0.0037110693221694725,-0.004065405506069716,-0.0038527237909098096,-0.003001144604522521,-0.0016266696903217697,-1.681518427144174e-05,0.0014662534861005104,0.00251870802603478,0.0030008450945948626,0.002968566590368117,0.0026227491442575726,0.0022080814640877897,0.0019119730663957205,0.0018055148561706498,0.001841135246100918,0.0018938063612255903,0.0018191931027790739,0.001505247300760903,0.0009048404500487371,4.651587991796771e-05,-0.0009745543165079311,-0.0020203625355353126,-0.002941029974659854,-0.003604572352523084,-0.00391927760235458,-0.003846337982964708,-0.003403166814994719,-0.0026581535126025996,-0.001716693400280608,-0.0006991091444119549,0.00028483449571929523,0.00115540677637807,0.0018673601418680954,0.002398601451276176,0.0027335719883369936,0.002856486962278052,0.0027619189747941125,0.002474146366628067,0.002054471977906071,0.0015798443430543579,0.0010983689431237433,0.0005928905265515165,-1.0505396091404747e-05,-0.0007784087067593391,-0.0016838642836783432,-0.0025601643440282132,-0.0031424430372240866,-0.003190025084990816,-0.002622901181507675,-0.0015858169425311429,-0.00039230011100257144,0.0006241912581863632,0.0012640536137018565,0.001528582762906579,0.0015664188390382295,0.0015453663882986498,0.0015409989325707158,0.0015131014026420616,0.0013723202554664423,0.0010745775545674807,0.0006665209836782605,0.0002486159910320686,-0.00011152973491781407,-0.0004432655582295483,-0.0008563855463546664,-0.001444314562518983,-0.0021701836232393594,-0.0028221624642358416,-0.003087251349325342,-0.0027152776659958404,-0.0016785241983429248,-0.00022497967908395968,0.001216831987013846,0.002233892939450524,0.0026165235893709023,0.002434140102165981,0.0019623802607350136,0.0015115031308280552,0.0012590177754940443,0.0011791816710968036,0.001097724422961211,0.0008239713571252241,0.00027273201701138224,-0.000492556479713563,-0.001304486208584194,-0.0019784104242067924,-0.002382038830413459,-0.002458013288600998,-0.0022107882931885437,-0.001687459017091588,-0.0009687091639480267,-0.00016210822662508589,0.0006170688166942759,0.0012766549755093004,0.0017700557003899311,0.002090640885564931,0.0022408549559685756,0.0022032336845532446,0.0019425893714136145,0.0014435465324928874,0.0007551481110468126,1.943931482889863e-06,-0.0006589326888433236,-0.0011157650959185117,-0.001366136203684835,-0.0015194672660374367,-0.0017267351849401308,-0.0020740488175579838,-0.00250561615652103,-0.0028292402191386614,-0.0028084012104573845,-0.0022901573018764515,-0.0012942730825364734,-1.2409056540572038e-05,0.0012786975023501767,0.002335457269697877,0.0030284577774461626,0.0033480649820581774,0.00334942723121787,0.003090063070465323,0.002609145249223799,0.0019549165336387093,0.001220601490115053,0.0005393449891033316,2.5054988506900515e-05,-0.0003018427765696072,-0.0005423262325180568,-0.0008669236861794845,-0.0014072666121037135,-0.0021561211258916144,-0.002939186863320815,-0.0034803392125826835,-0.0035283366250509632,-0.002978421219551529,-0.0019249063742734127,-0.000618827870287727,0.000643043624251101,0.001635324381339199,0.0022665814059779042,0.0025647869865966983,0.0026115588085526592,0.002477164726473266,0.002196413404967902,0.0017879708953898784,0.001285786482845149,0.0007457602302942062,0.00021644002652904538,-0.0003010950957846234,-0.0008619867710565664,-0.0015322941591169566,-0.002311100439927844,-0.00307555518024239,-0.003598175338818316,-0.003640006538125114,-0.0030706968516169843,-0.001945941407966976,-0.0004984575447848224,0.0009494602747380167,0.0021026292091825775,0.0027838084988249905,0.0029685246606875678,0.002765510585236612,0.0023622455009745867,0.0019564469304904734,0.0016901094836066913,0.001601976439401809,0.0016151584296957224,0.0015700742481557788,0.0012952968347888822,0.0006884645460668256,-0.0002294964883056607,-0.0013126018687498009,-0.002340156788571588,-0.003093240727369528,-0.003421973499795426,-0.003279148154479566,-0.002716521496563416,-0.0018559815932011094,-0.0008525303276567661,0.00013805489928753537,0.0009819598835866489,0.0015826647139729265,0.00189281533292861,0.0019217189825993348,0.0017312453883014632,0.0014132859091192287,0.0010518022122816694,0.0006855938401060663,0.0002935495773652478,-0.000184144722574969,-0.0007946891023762161,-0.0015165909055256592,-0.0022314606937261085,-0.0027452158682505575,-0.002855420445817415,-0.0024364578323274057,-0.0015031298406311673,-0.0002222231303866159,0.0011347933716042715,0.002279218840652287,0.00299805662900283,0.0032162927198378997,0.003004654540183198,0.0025314419219254333,0.00198203245022957,0.0014848533139855454,0.0010772989961415794,0.0007206483032682107,0.00034526885836706945,-0.0001049301732518426,-0.0006502256754986359,-0.0012751963520604534,-0.0019363786971513335,-0.0025646121298005613,-0.0030639284795189,-0.003320642141500418,-0.003232443682055241,-0.00275022171843486,-0.0019105902294247082,-0.000838307416507894,0.0002859028141520111,0.001278137892847274,0.0020022804860231245,0.002400563532271078,0.0024956650650420353,0.00236729616747272,0.00211476822411767,0.001821224264702572,0.0015329524567049748,0.0012581779428858862,0.0009784643806915606,0.0006605182778990073,0.0002621951865808087,-0.0002605505829508254,-0.0009327995270860071,-0.0017242100859344038,-0.0025180515236169006,-0.003118932962693955,-0.00331578870260457,-0.0029777898544271204,-0.002129624846718391,-0.0009572238579995874,0.0002640914734115605,0.0012792653428039718,0.0019413227728345187,0.002237531800433755,0.0022551131763906313,0.00211885314004064,0.0019362533543577256,0.0017674584322854812,0.0016174734237890216,0.0014420118636927681,0.0011640434815071556,0.00070311255276662,1.4931794832248667e-05,-0.0008719021704611296,-0.0018412746750548362,-0.0027105017327110495,-0.0032843710421403384,-0.0034216138566038378,-0.003083538482960634,-0.0023415533192989724,-0.0013423773441411217,-0.00025337009829762573,0.0007815147854082954,0.001658293759120896,0.0023086467281300694,0.0026941162826054745,0.002809976618471758,0.0026908054952096494,0.0024003529505072286,0.0019993974561782184,0.0015076911643436314,0.0008895887515791984,8.406838217205883e-05,-0.0009280838820339433,-0.0020570387026815646,-0.0030850041441691845,-0.0037243527567153547,-0.0037369947781311285,-0.003055503217254736,-0.0018351624144084323,-0.000400592933933632,0.0008880774847874263,0.0017770524563051034,0.0021949960570615277,0.0022338509522601678,0.0020617500599614627,0.0018270861159802036,0.0016031816373368616,0.0013865584250923933,0.0011282392716516685,0.0007683340667212699,0.00025893012290661164,-0.0004196533421408265,-0.0012388470848705496,-0.0021009376412336493,-0.002836787231138827,-0.0032417249841459835,-0.0031475365239444207,-0.0025003051802911015,-0.0014018160921696918,-8.732057231678522e-05,0.001154595547748472,0.0020842905904531212,0.002588994756126009,0.002702121799479754,0.0025583394503302754,0.0023108748734111373,0.0020565291114734334,0.0018068478470584328,0.0015128711736188858,0.0011163921135629432,0.0005883907182523376,-6.586581781185634e-05,-0.0008231425431812886,-0.0016510405285697996,-0.0024929964784606846,-0.0032426192627065167,-0.003739245365177668,-0.003807107002658801,-0.0033293799371251847,-0.0023194608624319745,-0.0009464580983208121,0.000506270452904377,0.0017356331900188196,0.0025244073855273316,0.002809399871744187,0.0026816687357377666,0.0023222340725309208,0.0019091493216405668,0.0015444571187327068,0.0012343781163070687,0.0009222904974777278,0.0005436144093717817,6.493293533636773e-05,-0.0005096995548417029,-0.0011516757471302132,-0.0018124495563848395,-0.002408508740325027,-0.0028069992809968075,-0.0028468502950149558,-0.002407903231746061,-0.0014959072424170728,-0.000283029096494373,0.0009391585889339962,0.0018813449964782331,0.002385187624123158,0.0024803701128805426,0.0023355012667155358,0.002137538760397951,0.0019790279239934646,0.0018217790689618592,0.0015500826193521663,0.0010672169107940523,0.00036640382320669417,-0.0004658934828229122,-0.0013031709648895543,-0.0020390039404072262,-0.0026091892219202066,-0.0029709975363706523,-0.0030733429610063402,-0.002856485839068042,-0.0022898633764253462,-0.0014200986538069342,-0.0003886037385131285,0.0006024609345272869,0.001362542072214942,0.0017853308888646801,0.0018834338931453727,0.0017682857735255226,0.001587313435251327,0.0014509054521456067,0.0013845546134429684,0.0013264953266894873,0.0011670790915293732,0.0008065750230512212,0.00020373773844811034,-0.000601286085303369,-0.0014901470612561055,-0.0022881266902887148,-0.002800165795465559,-0.0028607965090132826,-0.0023920744905098455,-0.0014495747941193095,-0.00022825718084319154,0.0009888941886537674,0.0019272942356228038,0.0024205563954914247,0.0024643108304770083,0.0021973063742938416,0.0018223666565198413,0.0015100991910918262,0.0013317016916439743,0.0012454917615891798,0.0011320126777418736,0.0008532413094218474,0.00031014613882579626,-0.000516489321554433,-0.001546843432578639,-0.0026069088652874318,-0.003461919407642258,-0.00387966270060946,-0.003711343721197184,-0.0029598783419487133,-0.0017986657293022053,-0.0005198341628393625,0.0005740951113442775,0.0012873111212440276,0.0015987766523040004,0.0016461993576010034,0.0016350184761873142,0.0017223204656414358,0.0019387666214291219,0.0021877263843221996,0.0023133486035347493,0.00218885988645629,0.0017703968002207196,0.0010931489799035782,0.0002304744867924199,-0.0007408024492791335,-0.0017402260038635873,-0.0026573826095520107,-0.003336394869590723,-0.003603559188110883,-0.0033361731067023588,-0.002534038573203175,-0.0013452900375441272,-2.3120895953082404e-05,0.001167799431511276,0.0020454743405488264,0.0025559674814945024,0.002751933629345671,0.0027273413012432897,0.002554658642430107,0.0022611864890851375,0.0018481694297812323,0.0013255906234392835,0.0007290322611149207,0.0001049735879664924,-0.000519694930957143,-0.0011524624809647003,-0.001813531751446413,-0.0024870425556730814,-0.00308133315578783,-0.003435688608757545,-0.0033826816540228556,-0.0028359138760402467,-0.0018511612865823755,-0.0006214974375330565,0.0005937808817467324,0.0015674525660832337,0.002177977584154209,0.0024264456756331954,0.002401464528033573,0.0022235537014608357,0.002001284752727656,0.0018102028165281748,0.001683284419936833,0.0015979838735038152,0.0014620633611514126,0.0011212358688979835,0.000413098691898287,-0.0007358283231972441,-0.00221486624764174,-0.0037031986327179488,-0.004756872806365306,-0.004987503820956772,-0.0042461125339983774,-0.0027089484645815413,-0.0008117992587332565,0.0009351539616153494,0.002154326064548947,0.002726491512569232,0.0027849636404669222,0.002601157497684971,0.0024340585925603756,0.002419027040960112,0.002536039774228618,0.002651676069077544,0.0025986627548031456,0.002251350610757435,0.0015690483963995735,0.0005993334779955421,-0.0005491743041247866,-0.0017445493773815223,-0.0028582859797729866,-0.00376974426540026,-0.004356848704460953,-0.004497716675221956,-0.0041034691147617645,-0.003175337649573943,-0.0018496381734484924,-0.0003888453202228983,0.0008954344655150968,0.0017585157609708805,0.0021192120600879764,0.0020836038242510106,0.0018807211037987755,0.0017430349428494455,0.0017938059197266537,0.0019966821008411506,0.0021863038262033034,0.0021558313562454866,0.0017537352727018812,0.0009480591898031,-0.00015890013691284772,-0.0013592853543990667,-0.0023959513770909968,-0.0030311821474844763,-0.003113388634383042,-0.0026243219477637813,-0.0016886148875870535,-0.0005366293359972869,0.0005694667585008628,0.0014178012487445464,0.0019034017614272892,0.0020393385305752646,0.0019258076968200245,0.001697042417627833,0.0014670576437886653,0.0012876016420896906,0.0011270017105466856,0.000879108244701638,0.0004087096010749393,-0.0003739625248486604,-0.0014377444866429203,-0.0025952238120235684,-0.0035396339683624665,-0.003952927372375162,-0.0036424853418233066,-0.002639262654042353,-0.0012015391367813317,0.00028546534939082155,0.0014674226006707349,0.0021566483159513334,0.0023785554791554684,0.0023126220171646563,0.0021698997038053966,0.002078657446542422,0.0020351024987104805,0.0019316591020085185,0.0016326674244728102,0.0010512751285345942,0.00019396870239035636,-0.0008355898422622628,-0.001862887718553665,-0.002684441534170905,-0.0031163392355446073,-0.00304432015830387,-0.002465309229899651,-0.0015022354451950284,-0.00037578201534079934,0.0006653355175824831,0.0014293388229887148,0.0018423593642207699,0.0019559702020521233,0.0018994296851092055,0.0018034095011437508,0.001734927383563227,0.0016737873820735832,0.001535735686002545,0.0012227368742260235,0.0006713832175220165,-0.00011995129330803127,-0.0010865820201332453,-0.0021060401734524117,-0.0030131923789108047,-0.003625586696179838,-0.0037856852109431024,-0.0034151391127382634,-0.0025580867492018206,-0.0013836414437585908,-0.0001341117152743698,0.0009621957923333463,0.0017692699665064057,0.0022703468728658923,0.002531746475121278,0.002631459630631679,0.002601688611492137,0.0024221756210431574,0.0020631303464524946,0.001540020601368512,0.0009345476095206733,0.0003627994227038884,-8.775323921538409e-05,-0.00040699673643558896,-0.0006612770792070845,-0.000942532573875948,-0.0013011547610512046,-0.0017058377701456007,-0.0020539316356650264,-0.002222547354826381,-0.002127331229966442,-0.0017560575677359024,-0.0011640797112429052,-0.00044298438068354957,0.00031290982002766957,0.0010226736390327733,0.0016164973031371993,0.002030642255481447,0.0022156403826205087,0.0021576379566195856,0.001894944435043169,0.0015093750882966956,0.0010887883502937001,0.0006802162748133459,0.00026359598863204064,-0.00023382226763134348,-0.0008855654976662949,-0.0017017632531869695,-0.0025870968709291093,-0.003347027448028639,-0.0037463664735470203,-0.0035987716633403824,-0.0028495082375978543,-0.0016144556871421035,-0.00015489362564700894,0.001206905614268255,0.0022005198237059482,0.0027015157335224787,0.0027628735410308754,0.0025667360117437987,0.002320168464024895,0.0021494444736556307,0.002048048093192158,0.001902914907851361,0.0015798053595789615,0.001016884914747389,0.00027262569754702,-0.0004984620247205206,-0.0011261044583885484,-0.0015113125721364778,-0.0016678620846403507,-0.0016950038902505654,-0.001701449170283944,-0.0017306583863909912,-0.001735005192419569,-0.0016133414551929774,-0.0012852808492516664,-0.0007538559372045366,-0.00011902665900569745,0.00046279683054659343,0.0008475256894481796,0.0009641984201444308,0.0008414081297564985,0.0005914851884739408,0.0003608149356369129,0.0002653807866265671,0.0003368025054503571,0.0005039519930565423,0.0006238415836091538,0.0005529520219412073,0.00022685231762622853,-0.0002930296435036241,-0.0008330163099244388,-0.0011779075791190894,-0.0011645191376649974,-0.0007514001626021713,-3.2800967556450905e-05,0.0008033716538099591,0.0015470375368729587,0.0020336665064419157,0.0021859276131823116,0.0020218721274070798,0.0016325889719692513,0.0011388994251911961,0.0006422233564350726,0.00018759081018829564,-0.00024641921144860743,-0.0007256259163635074,-0.0013140051845292847,-0.00202311695578588,-0.002781725398492834,-0.0034426050039308466,-0.0038256465122411196,-0.0037784324020146863,-0.0032288305995807455,-0.0022115018439848853,-0.0008636855856388216,0.0006048087489400114,0.001959491933365442,0.002997448821462219,0.003597912807456154,0.0037493075316823257,0.0035397020943187933,0.003113009097787717,0.0026106476090618086,0.002125207285060425,0.0016835147740594377,0.0012582965332287594,0.0007938644599040715,0.00023098812601120104,-0.0004733280867165304,-0.0013260962626536455,-0.0022759443621092647,-0.0031979420798831995,-0.0039047041483007226,-0.004195558954401031,-0.003932757763047601,-0.003110943702729587,-0.0018811771977347387,-0.0005097643710983,0.0007148766938525747,0.0015858879826658192,0.002043572328778007,0.0021726449082041153,0.0021355066361416542,0.002078824068134792,0.002063648094430723,0.002053713320450943,0.001960658638795488,0.0017111074632239515,0.0012908955200387061,0.0007419077341726781,0.00012232126581550253,-0.0005331127328069294,-0.001218076300097648,-0.0019193109967434513,-0.0025702215052349747,-0.003036394519206288,-0.0031557736650417224,-0.002816590506307061,-0.002026958876278709,-0.0009322027789674242,0.00023348790758354027,0.001236668680788689,0.0019287380831172506,0.0022826021145563903,0.002368418498381721,0.0022899014874305087,0.0021227362489241184,0.0018895780041679536,0.001577951745349034,0.0011784533739384916,0.0007105408011628114,0.000216822296023248,-0.0002674373945407573,-0.000743065623433395,-0.0012465878347727617,-0.0018125437521387775,-0.002418662915358999,-0.0029527571710539014,-0.003233785500407945,-0.003088038389058619,-0.002443707365362785,-0.00138925847046643,-0.00015686554572946852,0.0009670097601796359,0.0017604178058101506,0.002152573510760464,0.0022326889825224237,0.0021777858501784474,0.002142502964300966,0.0021756386108638674,0.0022094876866536658,0.0021197555261971072,0.0018093416963297741,0.0012601723335014694,0.0005279039327755646,-0.0003011714426151466,-0.0011478020551266219,-0.00194197475383343,-0.0025970540912499535,-0.0029934196195769125,-0.0030054042318522116,-0.0025683092733669237,-0.0017418988291353658,-0.0007185796267219248,0.0002417705927211908,0.0009181506375281502,0.001215825808880797,0.0011883788729761303,0.000990085313363527,0.0007927754807989498,0.0007125984319600607,0.0007757395844338883,0.0009255455135092536,0.001055177789687654,0.0010472187914013734,0.0008096727391561365,0.00030612651562582534,-0.000421189904358243,-0.0012427769551815215,-0.0019601378788041894,-0.0023581413515292803,-0.002281107102776842,-0.001702426625610921,-0.000751174385666755,0.0003250369331931735,0.0012501620304829694,0.0018228281257279856,0.0019838690330523695,0.0018180847136017742,0.0014951067754976038,0.001184760958791354,0.000989823949690664,0.0009211233403414204,0.0009119365533305856,0.0008515740961897746,0.000621251462710236,0.00012954251556473518,-0.0006484815509099982,-0.0016342603184332717,-0.0026337425397356825,-0.003376368244981871,-0.0036080439133501846,-0.003202892740929809,-0.002233899564192678,-0.0009554579661946543,0.0003013708411359508,0.0012677277384385462,0.0018357777156410614,0.0020680265398033706,0.0021213534119740923,0.002137788233675167,0.0021670694013153228,0.00215923198634172,0.0020190502452363387,0.001678371360404094,0.001137993549066936,0.0004577062901324892,-0.00028797668645639163,-0.001047096138112737,-0.001788229056201044,-0.0024626749968445763,-0.0029689392600357805,-0.0031614327553303695,-0.0029125822025583355,-0.0021932635357288844,-0.00111656491582388,8.90757170104137e-05,0.0011654892155186203,0.001920831803536332,0.0022852474067734875,0.002304991556966683,0.002092186284837343,0.0017677225526384547,0.0014264851524280313,0.001128430930115342,0.0008991480650794713,0.0007249341840088781,0.0005457046359931398,0.00026431659706072585,-0.0002140295909116522,-0.0009223938107240618,-0.0017858129861116532,-0.0026225115892052186,-0.0032021381711504894,-0.0033358709172283713,-0.002952855256204832,-0.002125158085687355,-0.0010331765374843689,0.00010510651177839044,0.001103728044547646,0.0018489081963066556,0.002303288276117549,0.0024863612907363953,0.002448754825984222,0.002252244346089562,0.001958493553720846,0.0016234253848500003,0.0012916919311557631,0.0009868432528571775,0.0006985326523664432,0.0003765489657453066,-5.4986573710864546e-05,-0.0006585470369532733,-0.0014326715292965204,-0.0022779388032372477,-0.0030055514344584405,-0.003394759105412426,-0.0032781942985497794,-0.0026159664582372224,-0.001522157570189148,-0.00023092678032595316,0.0009806057473613489,0.0018780522056114292,0.002332528005920008,0.002344711017564823,0.002029256963399959,0.0015674013962566453,0.0011416360878002002,0.0008720779019051879,0.0007761915558332057,0.0007676498179654575,0.0006967463435612474,0.00041874565499213333,-0.00013592983206920845,-0.0009190662949610257,-0.0017698444195289819,-0.0024684627238298557,-0.0028166407681972485,-0.0027099089801779818,-0.0021700783355847915,-0.0013263709807926317,-0.0003593914477797258,0.0005618764239783314,0.0013219254886535931,0.0018673281760557812,0.0021889166829095644,0.002296776700995774,0.0022077635029778076,0.0019525238236122902,0.0015894775265249757,0.0012018744767471402,0.0008642304577027024,0.0005927126736920165,0.000317833828080825,-8.697602407314767e-05,-0.000723453280323506,-0.0015785173940612036,-0.0024870771307745256,-0.003181583642935965,-0.0034092012781255666,-0.0030538651667920995,-0.0021952019302232343,-0.0010721857746555227,2.6567990061321682e-05,0.0008846983489519726,0.0014286580628338746,0.001716958507389893,0.0018658798564770915,0.001963114842161201,0.0020214926638375125,0.0019934903070656417,0.0018250488111564577,0.0015033832424181848,0.0010637711660071891,0.000554986067439133,-4.322598388505376e-06,-0.0006381667861714996,-0.001376607479529186,-0.0021898633982355272,-0.0029413930156701783,-0.0034048875301061097,-0.0033526280805899937,-0.002673701756143292,-0.001454051432553467,3.342552752289669e-05,0.0014302177745002395,0.002433654449846585,0.002904674502415286,0.002889470840654899,0.0025542409753632443,0.0020819872687573315,0.0015964662812457892,0.001150637854744111,0.0007653083079133001,0.0004669843131015078,0.0002816189416546361,0.0001874006378101273,7.58142496293272e-05,-0.000225449228662926,-0.000858873334587352,-0.0018234774964857102,-0.0029188379859873496,-0.003796524016156568,-0.0041041878328325265,-0.0036494887512810723,-0.0024963575168679107,-0.0009427108850959763,0.0006068920441698144,0.0018062242809822606,0.002488299504716771,0.0026902470347192685,0.002583894329878967,0.002360998016405316,0.0021385632435976425,0.0019290272693141188,0.001676505667222627,0.0013214231983516918,0.0008459357664671311,0.0002757399412904669,-0.0003491933297576805,-0.0010002025514556214,-0.0016555263958127854,-0.0022702062970799564,-0.0027514146843017452,-0.0029704618239129246,-0.002815105662461737,-0.002252558785350831,-0.0013617969058066842,-0.0003124472008554305,0.0006985800528917762,0.00151711291875457,0.0020723198540311787,0.002372443659077605,0.0024673659636726053,0.002406896283002973,0.0022210494268620766,0.0019286065515284074,0.001557393507771015,0.0011511179920380156,0.0007501756218020002,0.0003581852178881422,-7.680959003178596e-05,-0.0006419156485147773,-0.0014002291442976643,-0.0023230373616317398,-0.0032568341003937178,-0.003954314395910137,-0.004163381753798345,-0.003733669664692775,-0.0026879517000359195,-0.0012234401942275716,0.000356018493008253,0.0017429665227101673,0.002718439637162038,0.0031990026870456546,0.003230323431409302,0.002942221242005402,0.0024898553604383914,0.0020017242542013686,0.0015457404430686346,0.0011181930870163598,0.0006583414646144342,8.806778037587714e-05,-0.0006339038288641523,-0.001466659572940108,-0.0022776741290116264,-0.0028815783697663366,-0.0031123206623956297,-0.002893117514636626,-0.0022689575219912634,-0.0013870032635020482,-0.0004370626192877667,0.000417536840056242,0.0010864217231724828,0.0015576251490307935,0.0018664323681010734,0.002051844297759937,0.0021295597161127104,0.0020959590074346437,0.0019534392889561767,0.0017311125091526891,0.0014788409223474063,0.0012341199417202024,0.0009843055556908104,0.0006541741987196691,0.00013551621749070066,-0.0006496937281690313,-0.0016826386056706757,-0.00281395947366152,-0.003787587795775079,-0.004321514894991971,-0.004216417930277914,-0.0034442407253113616,-0.0021718531966862797,-0.0007031294655612417,0.0006360642243737962,0.0016150883469411407,0.0021629108356060575,0.0023552096568498428,0.0023418983999069446,0.002260866402190014,0.002182621763792433,0.002104371177062641,0.0019803115824317467,0.0017584113464744588,0.0014007100307415169,0.000885036276627648,0.00020324948825456164,-0.0006281576196080944,-0.001544387345499346,-0.0024134872089077567,-0.003047216830949432,-0.003254078752823254,-0.002919907657635803,-0.0020762003825586556,-0.0009123327826427735,0.00028669421124280996,0.001252464801666092,0.001837995027292909,0.0020589206226152607,0.0020513539100108992,0.0019759790191944495,0.001927526638488767,0.0018997683872522967,0.0018163878156944137,0.0015958142152495674,0.0012015604870625805,0.0006477689757560377,-3.2577922064495974e-05,-0.0008200833091591754,-0.0017063526187277344,-0.002652063169741782,-0.0035397204889140235,-0.004169736567477009,-0.004323983924815224,-0.003871662906227144,-0.002854232189363421,-0.001490603371096136,-9.140639626998822e-05,0.0010709642741470226,0.0018628639277596469,0.0023084087419826325,0.002527480383640912,0.002640280840736622,0.0026992333744515584,0.0026845288265260493,0.002555748074356963,0.0023157782350553277,0.0020356344590428434,0.0018146709045987345,0.0016959009537195644,0.00159370568987768,0.00129535242693239,0.0005599776799802463,-0.0007238980663293666,-0.0024114946279990557,-0.004095191745694966,-0.005247653407808124,-0.005453978186817786,-0.004610580602946468,-0.002980154573239233,-0.0010726354530778844,0.0005802883800632291,0.001636331728268425,0.0020385661541535297,0.001968835701227849,0.0017087459275816866,0.0014947424924518751,0.001436054928705081,0.0015139425720322845,0.0016341449565869621,0.0016874201239577514,0.0015871302906366566,0.00128018634503695,0.0007468126552836992,4.836690245929077e-06,-0.0008796430990776966,-0.001787037377179885,-0.0025579978601351513,-0.00302880309114747,-0.0030774135532339146,-0.0026625691808213514,-0.0018410805976679008,-0.0007567004422692939,0.00039654272097313476,0.001424901921334059,0.0021819473802153384,0.002595769769868203,0.0026698392672045027,0.0024645174279229205,0.0020732969309087378,0.0016025791075904238,0.0011522343422133434,0.0007897964964069994,0.0005207261092832025,0.0002724400231635148,-8.562845803210423e-05,-0.0006790656464021217,-0.0015444700003884127,-0.002569524822886499,-0.0035010347371578106,-0.004033171733439939,-0.003940768279734286,-0.0031889035760900536,-0.001956079481013753,-0.0005554328080374995,0.0007017552054365669,0.001623885690102732,0.002179392116220232,0.00245368455061262,0.002565753555799327,0.0026001110373017233,0.0025844499590162544,0.0025064177403154946,0.0023430093101653505,0.002081475442182059,0.001727140930878304,0.0013027140397256125,0.0008411376407371734,0.0003700326907747103,-0.00010961590389442627,-0.0006371252587136617,-0.001280217778554957,-0.0020909529454356006,-0.003046305076482859,-0.004009282775902104,-0.004743907638783825,-0.004990103980232865,-0.004568823867496328,-0.003467493283165414,-0.001864036036214671,-7.73512659235289e-05,0.0015354224440324317,0.0026943384586338463,0.003281015014927015,0.0033601961227318553,0.0031306774902353984,0.0028271216015364224,0.0026168729472086324,0.0025387210173679815,0.0025096271639729224,0.0023906940377851193,0.0020739799757622055,0.001543240986793399,0.000877921488731037,0.00020096025534551977,-0.00039868906038815805,-0.0009226098692576746,-0.0014602612638064173,-0.0021197949246618167,-0.0029268544941318717,-0.003754564854107696,-0.004339944797791155,-0.004394229663054219,-0.0037538197245615577,-0.0024859250667632364,-0.0008834511354059708,0.000653783939778837,0.0017893686422981742,0.002382514693995397,0.0025168706124556644,0.002419319022116349,0.0023201744453322983,0.0023325773748510917,0.0024121586078340355,0.00241007577200174,0.0021807350406620714,0.0016779094559840509,0.0009834240674305573,0.00025420615963108237,-0.0003771807501008245,-0.0008843466455405841,-0.0013560627699486013,-0.0019212209626713137,-0.002632980829583833,-0.003386587129612154,-0.003930925793886942,-0.003978979256680974,-0.003359925877859082,-0.002126213353800616,-0.0005524309052088745,0.0009757602836027785,0.0021235912926984603,0.002736149851276449,0.002872501219841043,0.002736371057670946,0.00254922797887695,0.0024386104923863473,0.0023998550340194945,0.002341391675811374,0.0021718087898888695,0.0018644912479145385,0.00145727527708278,0.0009945277332988134,0.0004624276115468323,-0.0002248562618286924,-0.0011650702403259005,-0.0023648803787574705,-0.003663036221045439,-0.004743636956973285,-0.005253278393148653,-0.004968325793634942,-0.003917448325553204,-0.002381934382027582,-0.0007669780349407055,0.0005831292895588551,0.0015186641822369153,0.0020954886173974252,0.0024726988640802854,0.0027757627727694007,0.0030165213073690394,0.0031128973142260158,0.0029787077826535593,0.0026080039948957337,0.0020887439572923184,0.001537637870413881,0.0010093592262684678,0.00045385561760520414,-0.00023956030314352763,-0.0011368932882907096,-0.002165145353744673,-0.0030982438305710326,-0.0036430583747603744,-0.003582029479974942,-0.002891211073422108,-0.0017639254638327415,-0.0005246157684239347,0.0005183919445236264,0.00119871061886524,0.001530769724517178,0.0016514352544801103,0.0017112560763428545,0.0017856512919591455,0.0018536574621120276,0.0018414455030600636,0.0016858292419549776,0.0013678974938567464,0.0008994349203022278,0.00028780588005269914,-0.0004761962687566368,-0.00138408675744107,-0.002350397721271408,-0.003181860177035461,-0.0036192210439218984,-0.0034475544162374597,-0.002617341308894217,-0.0013000406333970468,0.0001648936775050147,0.0014094530552659786,0.002187225973992352,0.002453133561397567,0.002337876580307603,0.0020469303654927005,0.0017523925148828633,0.0015356901865010463,0.001394169555722311,0.0012812902264832588,0.001138734726217373,0.0009022396807515406,0.0004971369976103926,-0.00014643648528852053,-0.0010469759276062333,-0.002116498321992121,-0.0031407123277483115,-0.003826614836178504,-0.003910456890876896,-0.0032775379155888544,-0.0020298698144517735,-0.0004610525179001612,0.0010530268883631952,0.002194376444262236,0.0028073784844128424,0.0029240274799962134,0.002708985676980389,0.00236138346105127,0.0020253774975987084,0.0017485471868932852,0.0014953443937442599,0.0011917277887904761,0.0007661830320400998,0.0001671847149485045,-0.0006354133182102308,-0.0016408631292261925,-0.002785607347812233,-0.0039054866128059138,-0.004733768684945087,-0.004968579057917746,-0.0043987743568170805,-0.0030263236826868233,-0.0011078525804298486,0.0009232618140436046,0.002622809705771935,0.003704523142038779,0.004125075942530002,0.0040486516596382905,0.0037225676795639463,0.003340691236096322,0.0029692739073062095,0.002564358958495323,0.002050557675782168,0.0013959904607000265,0.0006304111050840914,-0.00019656066490078322,-0.0010701106484312108,-0.0020197062028390763,-0.003063252101151335,-0.004124157738683236,-0.004991826334776668,-0.005374363327471082,-0.005029611137663571,-0.003901784205756795,-0.002179395600520226,-0.00023546033897688145,0.0015182452939795402,0.002783236725110002,0.0034572368567660416,0.0036197140633401305,0.003447089719286648,0.0031147826930359537,0.0027361853456097473,0.0023557173749414644,0.0019780861633043895,0.001599704546229209,0.001217294858701726,0.0008130137862981278,0.000336757391224979,-0.00028913188128877533,-0.0011313465561290361,-0.0021852139793579507,-0.0033246083087026678,-0.004300061525956703,-0.004806547272769639,-0.004605657208755274,-0.0036470173289661137,-0.002119190187277946,-0.0003899408339431182,0.0011421541384789109,0.002207972030058871,0.002754195713764554,0.0029141114486678065,0.0028899308329399295,0.002823556424102212,0.0027337272616653873,0.002550283245497341,0.0022105106705405677,0.0017400217649954672,0.0012513739039748172,0.0008547811400076537,0.0005469273547910856,0.00017205359424908557,-0.0004936337013336788,-0.001572656022508509,-0.0029423314972531925,-0.004224774929770296,-0.004939527972286712,-0.004741571715131922,-0.0036074679592094,-0.0018596358994123663,-1.5710085547394035e-05,0.001447121693886918,0.002280073592488581,0.0025115848697967605,0.0023575274680769564,0.002070761755089636,0.0018231311060941868,0.0016683022408632096,0.0015727517955682255,0.001469088244951938,0.001293572308070045,0.000998748821968883,0.0005546739854031078,-4.533597784346459e-05,-0.0007708102110233277,-0.0015416412963500745,-0.002230892393256822,-0.002690949137865376,-0.002799113736887842,-0.002506331988055012,-0.0018661973183963009,-0.0010258310440922382,-0.00017608859061850248,0.0005204218710326734,0.0009897948049401386,0.0012636003025113642,0.0014416524036401535,0.001622187413823598,0.001841525623012344,0.002058422392864829,0.0021871572592069115,0.002150785707120188,0.001916564900948527,0.0014949131557896156,0.0009132945443015301,0.00019267959727397286,-0.0006527333495300973,-0.0015922543752543731,-0.002549240009859794,-0.003387930632826691,-0.003931364102260603,-0.004009788176791222,-0.003523264161514343,-0.002492946573028179,-0.0010770163690985394,0.00046078472611467804,0.0018237971716156306,0.002771913489323637,0.0031931439938852556,0.0031268558457126284,0.002728797947966676,0.0021961551354854293,0.0016901409751566123,0.0012910096926302842,0.0009976156540916351,0.000757218398997319,0.0004993595646480627,0.0001562101704926269,-0.00032899546056820435,-0.0009907798172556755,-0.001816924490830489,-0.002718164567755021,-0.00351649790287168,-0.00397643475032068,-0.003882277367604379,-0.0031339854181457825,-0.0018147867753927393,-0.00019001849133084571,0.001372907485368787,0.002534755476302111,0.003108533587757533,0.003118726091658459,0.002765076621065177,0.0023088560764695965,0.0019432271153143653,0.001719164361410184,0.0015635358294690902,0.0013663524189389841,0.00107008658922509,0.000697453221542238,0.0003038019056995338,-0.00010000902586943211,-0.0005839064791869244,-0.0012539382917940904,-0.0021497290133135026,-0.00315666213061064,-0.0040042081963266325,-0.004368835582443991,-0.00403036063040141,-0.002991706082642905,-0.0014909029200799325,0.00010148161297005798,0.001439628778955897,0.0023285124612008835,0.0027600336134080586,0.0028581749526041013,0.002780936028635523,0.002639077105047514,0.002466781028512042,0.0022403671763048163,0.001916161612966748,0.001459833215535079,0.0008576671576978421,0.00011701281120476953,-0.000732441049768462,-0.0016315714256337375,-0.002484267304686741,-0.003161392517876102,-0.003525749475898627,-0.0034751494585051577,-0.0029853683053668732,-0.002128673655142936,-0.0010544156166523225,5.9616495006176314e-05,0.0010589877669990634,0.0018428072259300432,0.0023666143563310055,0.002632512851948933,0.002683596207584857,0.0026013242140082815,0.0024849890474787206,0.0023982402419826365,0.002302937277202664,0.0020351853871625096,0.001371604440803947,0.00017566033270949798,-0.0014572314000896622,-0.0031613152391149505,-0.004421590489131384,-0.004806735445662407,-0.004186971881126354,-0.002808824287417068,-0.001179207625298835,0.00017751075116691196,0.000953891654599225,0.0011605315183036127,0.0010529843032404216,0.0009452469900749342,0.00102701411981475,0.001282899494900075,0.0015375825169152727,0.0015754170701723716,0.0012545039011436178,0.0005621534479808744,-0.00039072017947863237,-0.0014062197745596985,-0.0022405171263562805,-0.002646508376654644,-0.0024294579709626413,-0.0015163813401622896,-1.549871833437708e-05,0.0017717488688366414,0.0034118417072507568,0.004466786732757727,0.0046464087979924545,0.003923552716506892,0.0025562262579753585,0.0009944446415906404,-0.0002986435131383646,-0.001035760418789591,-0.0012169616474591812,-0.001109620361750787,-0.001106005855575935,-0.0015252453553729047,-0.002450130892240352,-0.003671376398757189,-0.004764237373689517,-0.005265380399044591,-0.004873327217303075,-0.003582520170920057,-0.0016886559292300849,0.0003365943397592774,0.0020382993254989394,0.003142452228954238,0.0036167615178553042,0.0036159146901104306,0.003362797578083645,0.003041095552503595,0.0027481750810857556,0.0025056748377901956,0.0022894449793972402,0.0020442114426854553,0.0016815943391125265,0.0010896951619855833,0.00018027195150740758,-0.001034949238716874,-0.002386110756598908,-0.0035602259175868374,-0.004206772065787418,-0.00409061474474973,-0.003209787306595156,-0.0018093021986588143,-0.0002809263058299902,0.0009971085972979776,0.001797489367287929,0.0020952854642738382,0.0020227693932526043,0.0017685580194619324,0.0014835706242066278,0.001237859259165158,0.0010302697676535986,0.0008194363423875584,0.0005440009763553444,0.00012802593727833777,-0.0005050613096813292,-0.0013884618799306118,-0.0024488079942209477,-0.0034694253473723357,-0.0041283219791088555,-0.004118545794026848,-0.003299258008210016,-0.0017916627230560598,4.5583433535968275e-05,0.0017600034000399144,0.002995080189061426,0.003624173496051049,0.003759750951406805,0.0036435488153989497,0.0034904243814757874,0.003376299498207968,0.00322244509510329,0.0028659000223199274,0.0021616631387719487,0.0010591356352207414,-0.00037495811711402117,-0.0019786916983406283,-0.0035348867196630315,-0.00480781577508086,-0.0055751915746971685,-0.005666712356586367,-0.005013486393315681,-0.00369215478612815,-0.0019336804662292485,-7.555183844713538e-05,0.001535173655395006,0.0026506649081905094,0.003194042668384367,0.0032597531858978646,0.003042763661483339,0.0027339078287608523,0.0024372782914064907,0.0021514616481844314,0.0018155296009922503,0.001379763250857343,0.000849278309037552,0.00027396669949341984,-0.0002993135040114725,-0.0008680415406384352,-0.0014703612210288375,-0.0021332602818247615,-0.002808853673259005,-0.00334966693864708,-0.003551733218818429,-0.0032498258725775237,-0.002412634743643176,-0.001181538983525121,0.00017294657670454045,0.001357219097193918,0.002169098004644648,0.00256284812476126,0.002634589309457055,0.002541952665557753,0.0024074193299045647,0.0022611215560234144,0.002051459886825291,0.0017074016606489974,0.00120403109305722,0.0005849627526937811,-7.02339136050718e-05,-0.0007038110113091845,-0.0013145663430333577,-0.0019389556224056832,-0.0025889266886529165,-0.003191916926494064,-0.003582623460087867,-0.003564805605394261,-0.003014271504262212,-0.0019630824892345232,-0.0006119445523697486,0.000740862142690446,0.0018169768617908911,0.002460143464228408,0.0026742429088824353,0.0025871380709512333,0.0023692475370661985,0.0021534457054844316,0.001993488073703118,0.0018708705022376943,0.0017318850245978245,0.0015238761566715798,0.001208910236361574,0.0007561025096850548,0.00013292066194727002,-0.0006834101901595179,-0.0016714006763921473,-0.002728687918718632,-0.003665922611396677,-0.0042515950664892355,-0.004297139277515866,-0.0037415848733054983,-0.0026882160752479058,-0.0013697573732908402,-5.8970909759239825e-05,0.0010287541216899467,0.0017940696654492987,0.0022534568406177083,0.002493598441281917,0.002613388942774137,0.002683192104489463,0.0027310965677762424,0.002746229894508155,0.0026841923630905274,0.002470639518716496,0.002013234569765658,0.0012341797766160108,0.00012083443338508542,-0.0012287960743749204,-0.002598138577123694,-0.0037013053868542047,-0.004279087585694318,-0.004201285811469464,-0.00352396810099846,-0.0024677668531160593,-0.0013232956372584257,-0.00033087168951303494,0.0004024230887303062,0.0009081485554139826,0.0012927225695408505,0.001653454321602059,0.0020270084364771017,0.0023891828511092257,0.0026836405921142324,0.0028429028808192114,0.0027865636800650084,0.0024161701615866274,0.0016397472929529481,0.000436533998773019,-0.0010696095939205323,-0.0025864332652379435,-0.0037218714553884516,-0.004132915853840997,-0.0036838500636485324,-0.0025236389454904727,-0.0010316793546496044,0.0003440667467291901,0.0012720862073540497,0.0016530097549014983,0.0016176495112006466,0.0014228012843555322,0.0013065824539010762,0.0013746568902001624,0.0015642091875351257,0.0016911247407144314,0.001548719169208086,0.0010091585604528,8.503860395551836e-05,-0.0010691560060100548,-0.0022097420926802725,-0.003084616746078163,-0.0035084551143959603,-0.0034053849096337594,-0.0028098039699564984,-0.0018360545302283993,-0.0006394157412225704,0.0006128735279589891,0.001757939423065966,0.0026527886639454066,0.003199644802891615,0.0033748366783096896,0.003238792388407866,0.0029075817704727032,0.002490631406951053,0.0020272434647189202,0.00146346039631874,0.0006908134283361343,-0.00036918289979782156,-0.001681487629056567,-0.003064351845580494,-0.004229198059881398,-0.004877783692124767,-0.0048129928551651395,-0.004014759726272357,-0.002649837641998721,-0.0010135924508982428,0.0005695334384593955,0.001844865883726681,0.002687447897883825,0.0031049438762232235,0.0031914689473968973,0.003060719185452058,0.0027929365690806916,0.002419195422236059,0.0019429132991980195,0.001375224962986324,0.000753193899322142,0.00012464208467596828,-0.00048798086517385227,-0.0011104547969625238,-0.0017962519532270188,-0.0025639894798980233,-0.003331763555301557,-0.003900905813123823,-0.004017379972112643,-0.0034905972209537603,-0.0023085515273798375,-0.0006821491184319568,0.0010140808941715043,0.002382323291764746,0.0031559028493219517,0.0032927974130316077,0.0029653861550040005,0.002457246444004322,0.0020233674095157285,0.0017834442755997348,0.0016935679658294151,0.001596330768587318,0.0013114266259834752,0.0007189229696765517,-0.00019506612308353287,-0.0013340521919965064,-0.0025157882355358986,-0.003512937790271804,-0.004103103985214891,-0.004123265786428876,-0.003518600242645743,-0.0023702567710203546,-0.0008880609767008143,0.0006361936253685696,0.0019052098200411283,0.0027000081839038013,0.002942193305042225,0.002709585664212852,0.002196126013323851,0.00163083442258143,0.0011905537682282365,0.0009441343827074863,0.000848227118802426,0.0007877841357011525,0.0006349497312998316,0.000298652912982003,-0.000249373466147166,-0.0009706655828736518,-0.001769316849342585,-0.002507990249549964,-0.003030188340265196,-0.0031912637232806634,-0.0028976059210675175,-0.0021456359368532347,-0.0010444422580499792,0.00019544123128962588,0.001315180007063313,0.002091705510636992,0.0024206775310953977,0.002356330427304705,0.0020792411093504192,0.0017988443832277537,0.0016376161884656022,0.001561365390458869,0.0013995042427497346,0.0009496188071510217,0.00011128203877878117,-0.0010251010123081394,-0.0021860842374141617,-0.0030203475265136934,-0.0032509154723250563,-0.002799247073299003,-0.0018193481870240591,-0.0006253040848285894,0.00044934462832222407,0.0011868395638226772,0.0015477467479845534,0.001638158078440264,0.0016137550132795714,0.0015834792432134373,0.0015649828275272155,0.0015034062607491606,0.0013243426249566984,0.0009786497014750064,0.00045614594004993235,-0.00022321779726447335,-0.0010159000596987877,-0.001844579888870501,-0.0025816623572751194,-0.0030535584344396046,-0.003085873613349712,-0.002581152113142518,-0.0015895551140479637,-0.0003233982022327673,0.0009083907632180006,0.001822037888488125,0.0022741395339744117,0.0023063887403699337,0.002096188834683187,0.00184544543249858,0.0016739052122629078,0.0015740405417602674,0.0014412424378045618,0.0011481391289846412,0.0006147950149878196,-0.00015699489541651937,-0.0010864960536470436,-0.002035998195687722,-0.002836809017067805,-0.003317995708029215,-0.0033432163885470092,-0.002853099668566754,-0.0018974860410118607,-0.0006380009238952013,0.0006876135155494019,0.0018294875204720108,0.0025944297311746925,0.0028949333852290138,0.0027633522753490493,0.002328960823345311,0.001765783058581184,0.0012265536966472243,0.0007845662280869254,0.00040779644695113234,-1.7646816927886734e-05,-0.000617302861860696,-0.0014389203588166938,-0.0023882508209570556,-0.003231044393761887,-0.0036745542649830594,-0.0034990924711059677,-0.0026741717391017936,-0.0013905140606482987,1.963176184076993e-05,0.0012347598279014238,0.002081337095975796,0.0025753984979797924,0.002850003972080984,0.003025419730402534,0.0031141270315753113,0.003022660929793908,0.0026393387541626765,0.001935376288288114,0.0010019896668378193,-4.0602245509040874e-07,-0.0009356803450584796,-0.0017520403491650817,-0.002462857377578694,-0.003068606063657965,-0.003489032427593554,-0.003567865369898195,-0.003156736293741977,-0.0022247024726168877,-0.0009194409812613792,0.00046304106488163227,0.0015871375197917157,0.002208442183797305,0.0022628602034806293,0.0018761933418639414,0.0012959221542809393,0.000779334369634818,0.0004862445199869935,0.00041965130311067805,0.00043821287111457414,0.0003359061311855357,-4.516547641946682e-05,-0.0007206556389075357,-0.001535129786559419,-0.0022158468817628663,-0.002486588670007789,-0.002188737025312953,-0.0013521956783722716,-0.00018293511078065137,0.0010243996902780808,0.002002857873765772,0.0026007591537484673,0.002804092371043617,0.002697566997782388,0.0023996181520606783,0.002009717398749398,0.0015848625724115028,0.0011385388057083073,0.0006490422986250048,7.373445362176103e-05,-0.0006255688265461889,-0.0014463016547314482,-0.002313075837326847,-0.0030731204742607053,-0.003533010881937919,-0.0035277254395475327,-0.0029924460824379885,-0.0020027034791252184,-0.0007622740451834981,0.0004575829369217251,0.0014024249531843843,0.0019090525117129136,0.0019446363512184768,0.0016030797569622154,0.0010673658075635965,0.0005527243820097464,0.0002429801377621713,0.00023042721293181027,0.0004742580489145499,0.00079917819052929,0.0009515375835996082,0.0007073192731730368,-7.069115372186803e-06,-0.0010422868972729867,-0.002053154739899605,-0.0026317266785655037,-0.002492700820893013,-0.0016182140973136987,-0.0002804002170988595,0.0010774201141464448,0.0020413140359181493,0.002403527837184641,0.002225826376912724,0.001766469166921368,0.0013232627291226088,0.001084285203466691,0.0010615139724527802,0.001126496113031972,0.0011091100809247733,0.0008941156763001725,0.00046512154522692327,-0.00011445401573566255,-0.0007562831255139205,-0.0013960075449066627,-0.002006106669602508,-0.002570274781432538,-0.003042947718944931,-0.003328058304195912,-0.0032998730538898752,-0.0028613718735705533,-0.0020083556661031317,-0.0008589412376859987,0.00037415766080778996,0.001457969508646452,0.0022228269691537948,0.0026139856278395187,0.002689661433352528,0.002572675828949278,0.0023841131824366667,0.002191587965490674,0.0019929644718908604,0.0017366531470988126,0.0013617706221528926,0.0008339387383226673,0.0001593845436043493,-0.0006228234034367753,-0.0014553551573016543,-0.0022677109052224977,-0.002969140853601957,-0.0034433961292407306,-0.003564181770733202,-0.003237219107928703,-0.002452119989906466,-0.0013123476713952597,-1.8350118190740708e-05,0.0011946302442926225,0.002134644842896824,0.002707962073435751,0.002926539096059459,0.0028719695967942623,0.0026424723595118143,0.0023129888382217557,0.0019234180010999045,0.001489309717952583,0.001017599270978747,0.0005132911275891561,-2.3767066833428824e-05,-0.0006011468080135133,-0.0012234611769462416,-0.0018688655363495292,-0.0024668337727905745,-0.002897774431368419,-0.003025442717439964,-0.0027528919145522806,-0.0020760075716359607,-0.0011067627813237636,-5.147225798369842e-05,0.0008507304480767667,0.0014066849043907854,0.0015348944860218213,0.001292396055819214,0.0008522987203234214,0.00043994287604076404,0.00024907268270232385,0.000364936843106261,0.0007213406383756922,0.0011138753169775354,0.0012766253909115481,0.0010019644055183083,0.00025354058433604745,-0.0007872359466160896,-0.001776480579861496,-0.002349210950011338,-0.002281519955676042,-0.0015910863029113518,-0.0005228666298414801,0.0005714405213056099,0.0013933478700173432,0.0018115343863156492,0.0018770340157185242,0.0017484490417482474,0.0015849266387346563,0.0014704574057992884,0.0013985350508397268,0.0013026892924586225,0.0010981193385158619,0.0007105861992455278,9.302600299668706e-05,-0.0007563299487994205,-0.0017686220004708261,-0.0027859883469434302,-0.003575817561768831,-0.00389219218803492,-0.0035694660772726183,-0.002605519659017662,-0.0011884575137197481,0.00035475800313728464,0.0016705222883046421,0.0025037409492935842,0.002780869637703612,0.0026148942310754973,0.0022322834085812837,0.0018579295367977216,0.001612760919879633,0.001470549321117704,0.0012895312855270395,0.0008974826979268018,0.00018590104833558207,-0.0008292096735349855,-0.00200075681628327,-0.0030930169965467627,-0.003851679441214204,-0.004076942681279042,-0.003679791134142222,-0.0027078896389013452,-0.0013346136356569842,0.00018563946172126282,0.0015820891952151538,0.002632298613519386,0.0032093447100491742,0.0033019341464540003,0.0030060263428786163,0.0024910690984905593,0.0019466633859314701,0.0015200251247066044,0.0012618774032543652,0.0011039050189057369,0.0008864739223778185,0.00043606437937725623,-0.0003359388832823141,-0.0013608988128034163,-0.0024099627651906668,-0.003172235960496872,-0.0033833385333177164,-0.0029436690512517428,-0.0019672673174581544,-0.000736792502536301,0.0004111549091477042,0.001212025341946272,0.001552151801760133,0.0014732227676731357,0.0011165082823309585,0.0006471188006316641,0.0001967456532350315,-0.00015952419646468922,-0.000400396698666353,-0.000545459813614193,-0.0006398487125808199,-0.0007336340511473934,-0.0008534773101647965,-0.0009759335760374285,-0.00102251573444585,-0.0008914679050924799,-0.0005174767417790533,7.55588861377598e-05,0.000767616594731227,0.0013926186777270112,0.00181570948226879,0.0019877529116076463,0.0019452234364801895,0.0017646131404053947,0.0015101352299229126,0.001210118550024153,0.000868279890281512,0.00048766713385507167,8.002546647369925e-05,-0.000347034705020896,-0.0008072230540087811,-0.0013307090703267945,-0.0019277400798098374,-0.0025411806855172685,-0.003027021929496165,-0.003191578006792516,-0.002878021846159949,-0.0020567799790069193,-0.0008630031692779169,0.00044765949761920994,0.0016029547762717205,0.00241783703233629,0.0028415306131871214,0.0029321291327452205,0.002790325512208085,0.002502530138286133,0.0021229981734133033,0.0016860488603877945,0.001217138060605622,0.0007227523255054366,0.00017068067643956494,-0.0005066515943428076,-0.0013643625994950517,-0.002369515283973654,-0.003349797309356511,-0.004019432250438952,-0.00409287715396643,-0.003435236535767445,-0.0021610476422570237,-0.0006122975306351005,0.0007840922293517964,0.0017038607222672859,0.0020532361048991596,0.0019696601142844424,0.0017071225642001663,0.0014848989797752446,0.0013904499367581773,0.0013808783273360347,0.0013587990952862875,0.0012555057144484423,0.001062907003978446,0.0008039112973195008,0.00048004737212653206,4.947074641782807e-05,-0.0005390453883071921,-0.0012766757470965857,-0.0020411764603257775,-0.0026063502959833276,-0.002724314760397421,-0.0022447962151905935,-0.0012087639944709128,0.0001380227829237031,0.0014266816740344038,0.002308162606818411,0.0025907315323430253,0.00230607327792002,0.0016736166219470231,0.0009854052725732044,0.00047416032508700284,0.00023017369033700823,0.00019732036588455352,0.0002309394503893507,0.00017366536154612327,-8.73754382695578e-05,-0.0005921887346898034,-0.0012991909612818948,-0.002087763793110164,-0.0027758287861474875,-0.0031612440676819496,-0.003085001756649341,-0.0024956049034512663,-0.0014837808074598235,-0.0002649221024656676,0.000889844458347216,0.0017475529171994454,0.002192493084118846,0.002256412483481785,0.0020875844594139886,0.0018743901879566696,0.001759650554955422,0.001784203924699375,0.001880476544744931,0.0019101853141570654,0.0017222063942610314,0.001206730434390669,0.00033411765539139565,-0.0008233871885950557,-0.002090009865548276,-0.0032135873555975,-0.003927208249704826,-0.004033658957097799,-0.003480019311869441,-0.0023846767600638275,-0.000999122441286328,0.00037938584719005865,0.0015036775663978034,0.002239868596091361,0.002577590043642156,0.002594946684386478,0.0024054347982070184,0.002115289868633597,0.0018036167125075869,0.0015171889864839592,0.001264239736127066,0.001003386525133565,0.000642858667627212,7.051638636385466e-05,-0.0007829674240270721,-0.0018750359903272626,-0.0030203028617166003,-0.0039290381838095806,-0.00430929482826359,-0.003988403575891467,-0.0029941831310149793,-0.001553852692013427,-9.402581716168009e-06,0.0013107029897717435,0.002204075011038596,0.0026427374147570027,0.0027424959170293498,0.0026766611945363,0.0025812286162851866,0.0024975581433570922,0.0023745787478926224,0.0021192379003076764,0.0016600334759769534,0.000986918229807773,0.00015086641380791105,-0.0007659055062847345,-0.0016809101483831637,-0.002519923873785126,-0.0032019440004347143,-0.003622804714605257,-0.003665127680070792,-0.0032436790929894245,-0.0023650361662330313,-0.0011614641572676792,0.00013255712502676775,0.0012594038290721255,0.002034668738170126,0.0024086132187289286,0.0024603722878043127,0.0023332676252044967,0.002153204001026139,0.00197650513835953,0.0017883054723321352,0.0015381212108324005,0.0011800873175784143,0.0006923063675131134,7.36798173711966e-05,-0.0006629391803164265,-0.0014818578024434438,-0.0023003498454330687,-0.0029732461767287767,-0.003315889466354722,-0.0031728520985776776,-0.0025029984247224944,-0.0014280666830473047,-0.00020405579884305545,0.0008803765126984031,0.001625485249944195,0.0019919130869924945,0.0020818213998903233,0.0020471069189845806,0.00198724839406509,0.0019003219741971502,0.0017089719266530313,0.0013313480254403718,0.0007431044041852245,-5.9566433851067965e-06,-0.0008175099584483976,-0.0015817348452692786,-0.002198133026596984,-0.002577723173923881,-0.0026451786239352,-0.0023574002514528806,-0.0017336927190100709,-0.0008732965266169026,6.231535479459758e-05,0.0009017301696562374,0.0015235963678255438,0.0018899964582771535,0.0020366214416974626,0.0020319829560652815,0.001935190538151423,0.0017757045377450528,0.0015569277148564091,0.001268104048546325,0.0008895708825496499,0.0003919337753727309,-0.00025624628894814976,-0.0010605890427470258,-0.0019612971238423763,-0.002810708237159774,-0.0033973676208130556,-0.003520804557353622,-0.0030854456462014487,-0.0021611454735696776,-0.000969154544786411,0.0002071885137455748,0.001141803990065497,0.0017489457677558084,0.002084237556366925,0.002269450541308436,0.0023954536253262184,0.0024686787202802974,0.0024305432041023707,0.0022230933992732163,0.0018412401670120059,0.0013282907647000188,0.0007233787641601346,1.398730987985802e-05,-0.0008533480796184775,-0.0018977627298613132,-0.003015831757038237,-0.003955516761347174,-0.004394341501854504,-0.004093550858338506,-0.0030412319774081337,-0.0014932988296519115,0.00012257410232622353,0.0013943096944484055,0.0021038749332826156,0.0023006755634692594,0.002233269182247221,0.002183517624521036,0.0023020895385267243,0.0025391189485856423,0.0027016871385310134,0.0025913155232550524,0.002130210352760762,0.0013997924936066434,0.0005755954518287511,-0.00019080889475140013,-0.0008606633507674604,-0.001507717731769748,-0.0022298913961078257,-0.0030340407023925786,-0.003774731654794701,-0.004194733347549717,-0.004050478861472225,-0.003251119057405223,-0.0019289229997458384,-0.0003977224366146937,0.0009793312006348008,0.0019401208386417886,0.0024117441884502168,0.002496057390614653,0.002374184458117233,0.0021963164580430807,0.002022236300823589,0.0018346893491173254,0.0015952036086932144,0.0012889922190797267,0.000926506146344552,0.0005132368513627912,2.849409416555296e-05,-0.0005556247753539618,-0.0012229117176687614,-0.0018722686111665129,-0.0023307661124325743,-0.0024266980049478435,-0.0020821560824077104,-0.001365462143942341,-0.00046799831083592033,0.0003804267430460626,0.0010056959493918427,0.0013413349418015096,0.0014208490527469015,0.0013318593156715203,0.0011683046375216917,0.0010025964661725146,0.0008751507324859055,0.0007876870974382947,0.0006958431475643817,0.0005125673368055949,0.00013738558808716345,-0.0004888557002059723,-0.0013275706518862584,-0.0022200373318094274,-0.002923249407121413,-0.0031976126161118775,-0.002907812556330289,-0.0020851220218679528,-0.0009169636261514447,0.0003303852725696687,0.0014128253454304789,0.002180829045073025,0.0025946665793765236,0.0026920856081835438,0.002543000733871535,0.0022219580849632205,0.0018036050384026162,0.0013622225997427435,0.000954456631783756,0.0005865146136374756,0.00019366375835968414,-0.00033528948884118575,-0.0010833371384549471,-0.002017723246113922,-0.002949768053906423,-0.0035825523388519267,-0.0036344054911558723,-0.0029769461206728054,-0.0017138383429845779,-0.00015697536214507994,0.001290270322237903,0.0022882416340553194,0.002684566233603881,0.0025532943846837486,0.0021360889541926897,0.0017157427358499293,0.001482311299898272,0.0014542962119402974,0.0014887195990293612,0.0013683091107786352,0.0009167582534775673,8.514793475476474e-05,-0.0010243779646378764,-0.0021960383142914275,-0.003172278664676645,-0.003729491641092984,-0.00373735147523624,-0.003191969640297086,-0.002216735693872779,-0.0010269858163254035,0.0001358028626392878,0.0010788200382402635,0.0017105840804724037,0.002048101964407412,0.0021785222318085416,0.002199415015378425,0.0021708456478024257,0.0021010554201909767,0.0019642710229484978,0.0017300281351177104,0.0013811701965024733,0.0009124296649352307,0.0003203675499078033,-0.00039681315226611864,-0.0012200561714733628,-0.002079949778836701,-0.002840683359090473,-0.0033203040532224677,-0.003351088462400542,-0.0028565139993363166,-0.0019038647239510318,-0.0006982833258020461,0.0004862087019546253,0.0014079477382499023,0.0019414752352876535,0.0021039576898501796,0.0020166464036913603,0.0018291177727183035,0.001650362432349913,0.0015194412465819823,0.0014190722862018298,0.0013088551234657316,0.0011484466239603934,0.0008976930004926935,0.0005064498922252921,-7.976910422286985e-05,-0.0008837444244855246,-0.0018450058101366009,-0.0027917767653131993,-0.0034718105589268645,-0.003643634308061879,-0.0031871654329703267,-0.0021724907838169298,-0.0008445357968831613,0.00047165742726253194,0.0014960917773024585,0.0020868196598366057,0.002261084748325772,0.002146881227897179,0.0019016209378139685,0.001643112181175807,0.0014203013692650637,0.0012225024133013956,0.0010059376119627725,0.0007165455878956005,0.00030366230201702555,-0.00026584423396370046,-0.0009835953321140137,-0.0017719212152337376,-0.002474162524435837,-0.0028846069055925,-0.002819566376691664,-0.0022036401509881558,-0.0011284132632428734,0.00015362596681953365,0.0013096251435872441,0.002053200301405316,0.0022605235802616915,0.002017141898303294,0.0015681882272117805,0.0011937031392117983,0.0010703050155058769,0.0011878946774656958,0.00136147636463413,0.001329688861322612,0.0008898614157373827,5.566034662374676e-06,-0.0011599189168506662,-0.002295768915450537,-0.0030581227245292733,-0.0032005305456732714,-0.002667993207965914,-0.001616568466963615,-0.00035222823210698186,0.0007819768916624548,0.0015213272928006267,0.0017534558680665658,0.0015306328607543151,0.0010262879897966358,0.00045909800227473527,1.3478372168291772e-05,-0.0002185612398485574,-0.000258391993151539,-0.00021953109508992348,-0.00025037732459240697,-0.0004593171867714132,-0.000851476848921399,-0.0013085255585035497,-0.0016289521148040143,-0.0016173255304001955,-0.001181025171133706,-0.0003823507022860587,0.0005848451839736106,0.0014813536077873768,0.002122023796555337,0.0024347278853365678,0.002455596894465393,0.0022779091721779835,0.0019942020515028073,0.0016636635263031123,0.0013107391727089283,0.0009378307853627711,0.0005313246820412758,5.673771051592654e-05,-0.0005400897950404468,-0.0013044767215104759,-0.002217216970947946,-0.003144304070265532,-0.0038388222602943993,-0.0040192309410136086,-0.0034994898535471272,-0.002304633362779131,-0.0007014424860875633,0.0008858828480596683,0.0020428490507962108,0.0025343892149585776,0.0023919544562731416,0.00187486176524444,0.0013288273535682852,0.001017079149714424,0.0010087020089786986,0.001171782994276974,0.0012608558899012885,0.0010448536036623012,0.0004141551574953108,-0.0005719903142740045,-0.0017045400208476062,-0.002693989905435773,-0.0032636707074739394,-0.0032385192324846106,-0.0026021817501856136,-0.0015022655222098574,-0.00019971603845736377,0.0010195985369064822,0.0019359524855950088,0.0024529884100934407,0.0026010056651160616,0.002492200217156411,0.00225576151963011,0.00198682804389791,0.0017299231447053108,0.0014930111474152313,0.001269232320430903,0.0010433076941613161,0.0007785047590360232,0.00040308387216587407,-0.00017668493060976056,-0.0010254455401545299,-0.0021092674465343687,-0.0032527022481539693,-0.0041650736691247175,-0.00454294494423437,-0.004205696191047236,-0.003191565711475384,-0.001756592652265055,-0.00027177896158019326,0.0009292268928694204,0.0016740146409972303,0.0019881836584558113,0.002036183234481671,0.0020080182540212596,0.00201751342566692,0.0020639049243693025,0.0020668470339662895,0.0019408803665222794,0.0016554902544006107,0.0012428995006077098,0.0007565923477209787,0.00022084341614150372,-0.00038218556909428456,-0.0010719867843897134,-0.001805755050705806,-0.0024457463160321904,-0.0027953697142195483,-0.0026926013288370333,-0.002105066912010793,-0.0011649116426564736,-0.00011835981937229458,0.0007818740850832552,0.0013801979771081068,0.0016634611530039114,0.0017313010109445068,0.0017172125702688704,0.0017092443547062157,0.0017132285833196912,0.0016719053904613874,0.0015181300336407715,0.0012214583500435765,0.0007973402560143766,0.0002796205102889792,-0.0003136987949166139,-0.0009869942825410719,-0.0017351688457975106,-0.0024962856287796533,-0.003129069334169569,-0.003443460534305329,-0.0032785156612656534,-0.0025890978635643783,-0.001492203872011827,-0.00024189763386606275,0.0008617618769202961,0.0015893363870848648,0.001868239007761031,0.001795760006019134,0.001572910581720974,0.001395043884103232,0.001357894337373081,0.0014263438890371027,0.001474799145377659,0.0013677892080180526,0.0010323445989522363,0.0004869540779393385,-0.00017764395132582563,-0.000843772187252655,-0.0014076625882083703,-0.0017966189198288698,-0.0019640464156050513,-0.0018790596363692997,-0.0015272977991903796,-0.0009263977825725199,-0.00014446242597471938,0.0006961646835738722,0.0014408980443592835,0.0019472112726438855,0.0021339332417388973,0.002012323503277684,0.0016805591224132916,0.0012779113382524797,0.0009154237900305133,0.0006176735499522912,0.0003120209225814296,-0.00012084215087008126,-0.0007592393624627862,-0.001567737418418056,-0.0023864345148440847,-0.002993016643738179,-0.0032040516606117743,-0.0029584637673303244,-0.002337473541748582,-0.001513745620911722,-0.0006636393592103619,0.00010540888730584922,0.0007749807117535742,0.0013810131828917325,0.001954147987510931,0.002475330789398624,0.0028720607213788573,0.003051471312569319,0.002942767682223772,0.0025203329701743507,0.0017998373062807795,0.0008238999099295485,-0.0003402257605082404,-0.0015853318352565086,-0.0027491964375108862,-0.003625845620476705,-0.004013576449198817,-0.003783221256103958,-0.002933713886913697,-0.0016076427773384712,-5.971193301243874e-05,0.0014099752240819164,0.002536460562681149,0.003160681038215277,0.003268163318351853,0.0029803301464973197,0.002498154571733814,0.0020171457779440604,0.0016465985595413856,0.0013668291267237885,0.001044403163677384,0.0005022248618252027,-0.00038230124065036827,-0.001592525404883248,-0.0029414972279875285,-0.004115853658201666,-0.0047843141731269325,-0.004728793974498876,-0.003940122468274511,-0.0026308472892201265,-0.0011533100605303805,0.0001431793750998544,0.0010498418950794922,0.0015641663557342737,0.001852414460336945,0.002130918579090992,0.002531642869249318,0.0030256132518997145,0.0034439457291908426,0.0035788061072382885,0.0033006281003727634,0.0026223760425740355,0.0016791914237547988,0.0006465857373943445,-0.00034373404727135073,-0.0012366403456446496,-0.0020220023112228628,-0.002672667075556547,-0.003106487957960837,-0.003208088753009363,-0.00290167494912882,-0.002226174430085761,-0.001355527643910328,-0.0005381260403977046,1.7701900177699917e-05,0.0002458500484157958,0.00024911025806522704,0.00023303167878132875,0.0003868583124689355,0.0007807846317723733,0.001332626189227987,0.0018510892338942425,0.0021212153651193706,0.0019856605856931097,0.0013932105594482553,0.0004123951138369114,-0.0007791073562128428,-0.0019245163732803307,-0.002742289382501594,-0.0030039726564151078,-0.002613127032200919,-0.0016466085731097536,-0.00033058806783411543,0.0010406127825155211,0.0022019795025226443,0.002986259754622409,0.00334212982736681,0.003311182156367276,0.0029880659559416117,0.0024836567721665762,0.0018976569454938442,0.0012977179586751003,0.0007026893717645902,7.4699513016937e-05,-0.0006690301554302357,-0.0016152929718729035,-0.002788448801244665,-0.004083438722681862,-0.005240921486856661,-0.005902045840594835,-0.005742775082477216,-0.004633519465397012,-0.0027368310224251094,-0.0004759426363196409,0.0016237354363058763,0.003142210472679642,0.003913281797336279,0.004041783470589988,0.0037954698645216002,0.0034445200905923743,0.00313847891926728,0.002874134792279639,0.002548642079173354,0.002048514766140007,0.0013187100758397,0.0003827751789045171,-0.0006777765318076502,-0.0017543884269503299,-0.002727062820806964,-0.003463198706854753,-0.003820243041029929,-0.003673846784096379,-0.002971777547541089,-0.001786485967718985,-0.00032810477747135223,0.001104159191182129,0.002219094598561812,0.002834145417435265,0.0029285458705856195,0.0026234608939476557,0.0021056269331165556,0.0015409202186218174,0.001022375512515151,0.0005681519231481716,0.0001526654560294546,-0.0002593027261695827,-0.0006955957336156385,-0.0011755113891134194,-0.001708661889788833,-0.002281085857056198,-0.0028327912477098672,-0.0032468461545510433,-0.003370679956622003,-0.0030725173756412996,-0.0023106649275716133,-0.001178209778819294,0.00010720902904653511,0.0012718737225774972,0.0020849040918969526,0.0024429185399240327,0.0024021651921376105,0.002145307204371538,0.0019005412228616787,0.0018502275524035691,0.0020653406564215154,0.0024840987501755065,0.002932044675953231,0.0031703997643316257,0.002961863989498643,0.002147411671791656,0.0007216895247844661,-0.0011207656620538804,-0.0030039426922086852,-0.004470650993572983,-0.005139715875954676,-0.004854825407411021,-0.0037519100710372132,-0.0022066142766429945,-0.000682719414244309,0.00044746978217351523,0.0010275190702237877,0.0011348078729587932,0.000997087578290993,0.0008604453434460756,0.0008764355187091494,0.0010555686087283165,0.001294113991773534,0.001444537853062791,0.001385621353853866,0.001061306924400337,0.00048538761053831185,-0.00026961551858490436,-0.001081942734057584,-0.0017897027539981103,-0.002216501498137116,-0.0022243769703602545,-0.0017784417370409738,-0.0009836494013591144,-5.7921944985898536e-05,0.0007576447891803926,0.0013054667819474145,0.0015708338547525268,0.0016570188347063285,0.0016950596180304017,0.0017508267960895277,0.0017908806805885978,0.001723948031781393,0.0014804310099829632,0.0010682401819478158,0.0005654471453909152,5.9955684049564e-05,-0.000414125089000993,-0.0008923202330009015,-0.0014327223670830063,-0.0020381223338684007,-0.002605357772676391,-0.0029460910471417866,-0.0028768725596866017,-0.0023271949663536545,-0.0013967083606832762,-0.00032153751829540306,0.0006334704340496032,0.0012938153388618503,0.0016382973254864793,0.0017749843237958277,0.0018509000445939032,0.0019513627808068462,0.002045875847240379,0.0020068702471799874,0.0016854297182548974,0.0009995859022699043,-9.7817131772906e-06,-0.0011777735536896105,-0.002263105586583975,-0.0030207495136203,-0.003272958754004582,-0.002958676550945139,-0.002149691879919559,-0.0010295064672081215,0.00016014590344530586,0.001189272363206122,0.0019021586040924683,0.0022500058197521848,0.0022840695497012716,0.0021175656850049717,0.0018762746831715708,0.0016563460698609438,0.0014973655736900504,0.001370528274884391,0.0011827435096951843,0.0008032248128198435,0.00011780007572125879,-0.0008992622171657393,-0.002128148200681466,-0.0033023939199318974,-0.0040853698764992535,-0.0042023418928783685,-0.003565535223181064,-0.0023232473134084464,-0.0008020207099108395,0.0006288516098814959,0.0016982959936683024,0.002309741806458439,0.0025256453123714924,0.0024870379622746424,0.002325256286268904,0.0021139506708367783,0.0018721997355112092,0.001593378843756057,0.0012651423964496677,0.0008666354141626388,0.0003588290804920587,-0.00030465585757948104,-0.0011364798574715026,-0.0020663034597082053,-0.002923179612174618,-0.003475858494669778,-0.003520236090790858,-0.0029701619869788786,-0.0019030950444914449,-0.000538093068137965,0.0008392095131961432,0.0019663872852341436,0.0026720450811061887,0.002904342054945997,0.0027233050819436954,0.0022691515550330526,0.0017166961389675638,0.001221878363511916,0.0008692269652747523,0.0006378001530541262,0.0004073590693186662,1.566077081172697e-05,-0.0006481765478989104,-0.0015567397149401456,-0.0025154856049013703,-0.003221625895268338,-0.0033931339125924174,-0.002904743906627244,-0.001856440912455687,-0.0005353080597555915,0.0007074166912196924,0.0015963483667851951,0.0020193248314183307,0.0020305219989894528,0.0017862554002990392,0.0014588032221845484,0.001170428841120334,0.0009657735705728918,0.0008167695860014588,0.0006452424009552671,0.0003544188375568994,-0.0001308399769736901,-0.0008171342947761106,-0.0016047178945575353,-0.002286918881242456,-0.0026082953274984763,-0.002372132482231493,-0.001549466685129247,-0.00032565151355987035,0.0009545510007825352,0.0019266022599362632,0.0023617924773295215,0.0022564653583933775,0.0018081378198648386,0.001295871557214397,0.0009347960295476975,0.0007829466918780417,0.0007404095292329329,0.0006254711877389614,0.00027694032830271443,-0.00036757699306980867,-0.001242617648915152,-0.0021740939936928686,-0.0029324912255406293,-0.0033026564314523653,-0.0031515439829593803,-0.0024734224368691804,-0.0013953523429677444,-0.0001388386341450215,0.0010483852662213841,0.001964325520782705,0.002502688807133755,0.002666081009600114,0.002542884958193951,0.0022610257184314847,0.0019374002175590317,0.001639250534579367,0.0013668842399494094,0.001060542800469977,0.0006292035845707847,-5.8838844887092005e-06,-0.0008655463718007676,-0.001881034876833412,-0.002891079254439485,-0.003674963523715039,-0.004016645336343553,-0.003780801762234745,-0.0029714319260233358,-0.0017447498144377484,-0.00036456811825866665,0.0008852018150248673,0.0017942525327952767,0.002285418330637177,0.0024171951699538787,0.0023342469866730583,0.002192903792956922,0.002094827743793108,0.002053349950356301,0.0020010271794437874,0.0018310085754325862,0.0014531765340037963,0.0008415147094219411,5.37209285770765e-05,-0.0007833009860939326,-0.0015136086196354806,-0.00200026792752997,-0.0021633033370499653,-0.0019961613345033046,-0.0015586334420066232,-0.0009536477109992161,-0.0003015710480625635,0.00027635014090989386,0.0006652870865649899,0.0007679034610841582,0.0005338699228438694,5.421615166919819e-06,-0.0006504429257551702,-0.0011659879457653105,-0.001273765850062177,-0.0008508529689263077,-2.2575276452147137e-05,0.0008562877949987674,0.0013580702052576929,0.001200824530404483,0.00040454813225276193,-0.0007078275092283785,-0.001666244700251469,-0.0020776069435995857,-0.0017968564021489143,-0.0009634173963759941,9.744747773846426e-05,0.0010386282434023263,0.0016302722129235066,0.001815817960723309,0.0016824469499581946,0.0013857771703048045,0.0010767701292116252,0.0008574306075679523,0.0007634973285625532,0.0007598110990765059,0.0007438213087354775,0.0005702337242635199,0.00011199542251036886,-0.0006513663002750708,-0.0015634950780764293,-0.0023005171118378426,-0.002490792001763986,-0.0019062178709297467,-0.0006223381331488258,0.0009607971671950848,0.002274869670146748,0.002847073870221772,0.0025278068999983385,0.001551639680844623,0.0003976892263022093,-0.0004659496181694182,-0.0008066515925913322,-0.0007042688666591941,-0.00045977695290594107,-0.0004078777199931835,-0.0007431346262755786,-0.0014411523132735154,-0.0022925424034932577,-0.0030096113078890495,-0.0033424187848296047,-0.0031553899298804285,-0.0024492880673400016,-0.0013412535895899315,-2.444952330984272e-05,0.0012777220478841483,0.00235747012706832,0.0030661094373213805,0.0033479711762615457,0.0032517225348989882,0.0029081424636717215,0.002476219799784114,0.00207642006264666,0.0017398497175782875,0.0013978729998830864,0.0009203131322789022,0.0001895176771064557,-0.0008193215648802511,-0.001988151071909093,-0.00306614030031381,-0.0037477102154341146,-0.0037935662812689304,-0.003140860643347179,-0.0019444179875506516,-0.000522286679906493,0.0007689163241650465,0.0016647635998457272,0.002067937130356942,0.0020443691889824684,0.001762018201466379,0.0014128239995530101,0.001147767688950209,0.0010345048935715224,0.0010378502958295513,0.0010280840242171073,0.0008260244524268847,0.00028276198176687014,-0.0006321505242209121,-0.001778807905211871,-0.0028693421209932428,-0.003567590538904798,-0.003625017027110236,-0.002987188710281315,-0.0018171714935793183,-0.0004252671934034315,0.0008566504852769791,0.0017922286977954758,0.0022967906778602323,0.0024194886677673436,0.0022791034803919374,0.0019985559396094492,0.0016699658047076532,0.0013517763706269684,0.001076229715290493,0.0008460481061063109,0.00062022123609108,0.0003106033519115275,-0.00018656975829607235,-0.0009228839145444525,-0.0018264366987474213,-0.002679091252502973,-0.00317812309536724,-0.003069129188558912,-0.0022847482483874483,-0.0010061759474413769,0.00039922488395505564,0.001538572275114811,0.0021651256908393987,0.0022661281005061603,0.0020249195421437743,0.0016921583620494545,0.0014489717579186743,0.0013353034274795074,0.001264575236283881,0.0010937698559461487,0.0007000524406514685,3.187175623734943e-05,-0.0008706811317384341,-0.001878103068377632,-0.0027917623347608477,-0.0033851056377553128,-0.0034660893943916837,-0.002947065305132132,-0.0018939738110679684,-0.0005259926163765642,0.0008450368504268233,0.0019170187726082828,0.0024998446726921804,0.0025720697342793333,0.002267503845026564,0.0018017422663764698,0.0013765680811307747,0.0011049645980703616,0.0009814824988981495,0.0008983919774074838,0.0006944578049034691,0.00022240710634461718,-0.0005785661488238312,-0.0016268016660249355,-0.0026893547171414553,-0.0034436066872045893,-0.003600029655695588,-0.0030347706704729107,-0.0018609981303577192,-0.00039246794920999833,0.0009880769873812601,0.001986646655459457,0.002497550358836708,0.0025974863269578974,0.0024522273943537154,0.0022043027657315715,0.0019125619001590793,0.0015696236142652338,0.0011648304407608345,0.0007310561716461145,0.00033339929527662787,9.367910946230917e-06,-0.0002864322609195064,-0.000677689232018756,-0.001287728963061338,-0.0021294698634231183,-0.003038844599134176,-0.003708737969836783,-0.0038205596618138687,-0.003206733294583217,-0.0019525821790687594,-0.00037764000636854376,0.0010958824617404407,0.002118553618447503,0.002545121083968885,0.002463555635421895,0.0021194049875824126,0.001782401114141637,0.001622146697117922,0.0016465606811489992,0.0017219011347034683,0.0016544864864539858,0.0012892574375725674,0.0005797246818526228,-0.00039460904016243656,-0.0014584782769581067,-0.0023955519906371393,-0.0030043275797790765,-0.003143475224903956,-0.0027646766965444347,-0.001930950217474995,-0.0008120149343038422,0.0003531428311542236,0.0013243721630961526,0.0019365381841390332,0.0021487759455787493,0.0020412335924894485,0.0017617466600314392,0.0014522841722449354,0.0011926669239152533,0.000983657884939797,0.0007666895739251585,0.0004611731477386196,6.976431731158645e-07,-0.0006395104595681811,-0.001422799616298137,-0.0022399175503012084,-0.0029162841281555273,-0.003250373075493694,-0.0030828898208218715,-0.002372758402145239,-0.0012399644871612236,5.6556954726586016e-05,0.0012062268518819664,0.0019629193362357164,0.002234653200319541,0.002103133440605534,0.0017655331514565473,0.001431023597188279,0.001225236404604796,0.001146429256036399,0.0010864403006998632,0.0008977242938556394,0.0004713553718684458,-0.0002064581895463506,-0.0010374597132840643,-0.0018362594166204706,-0.002387283405072393,-0.0025154147319390308,-0.0021462628910202297,-0.0013329208861580996,-0.0002382095467585889,0.0009185574729922764,0.001925522827492484,0.0026273751737582616,0.002947130771838723,0.0028841655062912604,0.002499904795099626,0.0018994152822278739,0.0012088803294806774,0.000544675253214178,-2.5149723108144678e-05,-0.0005140912066515946,-0.0010225497420341617,-0.0016963522417962292,-0.002640525154736612,-0.0038208051821908263,-0.005006944966097751,-0.005806421748345184,-0.005799042932998561,-0.0047266345295233795,-0.0026483213217364334,2.8034645574270172e-05,0.0026735506719480708,0.004675788242114546,0.005671019374867305,0.005655418841205096,0.004928016336257597,0.003912110886215921,0.002959196599750754,0.0022291074569805594,0.001681425902256785,0.0011530257712020606,0.00046888206077744287,-0.0004610886642856006,-0.0015875922363599007,-0.002722868164934278,-0.0035980314081894664,-0.003961811141046912,-0.003685108054891223,-0.0028239855763388965,-0.0016059074472916802,-0.00034066218909089836,0.0007011480898404623,0.0013800313108947569,0.00170562674008421,0.0017813963966795496,0.0017197737531373441,0.001583991109037971,0.0013860084875610469,0.0011242438834155233,0.0008159754220958381,0.0004906662281887731,0.0001519313632529465,-0.00024926933795381824,-0.00079115480959699,-0.0015092400980190241,-0.0023234863926351,-0.0030246144683794395,-0.003346452002610377,-0.0030931491577695152,-0.002248172097303579,-0.0009977039955322963,0.0003475522066089036,0.0014866602054787587,0.0022435932247861926,0.0026065071631336326,0.0026833851265113426,0.0026122527957446744,0.0024821425289261747,0.0023056673802967506,0.002047752577824769,0.0016797321975708175,0.0012147393322693293,0.0006978111420739177,0.0001615204807851791,-0.0004111465243119564,-0.0010756154417789127,-0.001861323624860993,-0.002696352471067789,-0.0033840474734368265,-0.0036672978581720173,-0.0033558700465485675,-0.002442458506147969,-0.001132825881090068,0.000232959942950253,0.0013241015743493722,0.0019472631240555534,0.002095439919661591,0.0019060794439465507,0.0015679893589377921,0.001234549061433414,0.0009807497572528042,0.0008052950983276834,0.0006554724361192641,0.0004544365365167551,0.0001266331921683084,-0.0003733620520931383,-0.0010296761721586174,-0.0017460435976034033,-0.0023568560324123884,-0.002672933421087493,-0.0025451026027025836,-0.0019167964567436096,-0.0008443519055994118,0.0005163937048312775,0.0019430131708746468,0.0031848555105071165,0.004004658362371649,0.004229078937734212,0.003805262479473422,0.0028397687444114373,0.0015839764919025954,0.00034758377139945695,-0.0006320670097252098,-0.0012937698782287876,-0.0017584719163618772,-0.002222702881333995,-0.002801701789803427,-0.003424666896188473,-0.003854112164341859,-0.0038197184205495194,-0.0031820105654274135,-0.002024241473117562,-0.0006203406759245648,0.000694622362898139,0.0016703137908746107,0.002223096859092733,0.0024225199010467543,0.002410199728830122,0.002310777043871032,0.0021839139816585518,0.002027845275502391,0.0018096918259350118,0.0014898959951308065,0.0010286173932590745,0.0003889273219230472,-0.0004411360392876547,-0.0014064526331937326,-0.0023521350065518875,-0.003039986643881309,-0.0032284548523103425,-0.002784913668829651,-0.0017680229794591457,-0.0004269803860092773,0.0008896560429306657,0.0018701683839506206,0.002350820638502641,0.0023505042468789108,0.002024533100852474,0.0015755643152172891,0.0011712433891297807,0.0008986696625153641,0.0007566565292270839,0.0006709863023238036,0.0005214086738561341,0.00017973052347238308,-0.00043987577499484857,-0.0013283408198413358,-0.002350756111057184,-0.003262825939352028,-0.003783612348182637,-0.003703394398267765,-0.0029788371673214256,-0.0017640026625167261,-0.00035423482202917486,0.0009319514203973663,0.0018711341498444194,0.002393440149033644,0.002561275801892631,0.0024971311589528436,0.0023122342567162496,0.0020729858731244107,0.001806403889488808,0.001518863418645766,0.0012028651565783998,0.0008294159765264716,0.0003461946166398459,-0.000297413110052546,-0.0011004865265407937,-0.001966113410940661,-0.002700404041398291,-0.003070985468621862,-0.0029029633205348,-0.0021636568065867747,-0.0009912196764621075,0.0003469773435271775,0.0015447722391136057,0.002356506448343389,0.0026688917262275144,0.0025244317131332306,0.0020909697464299446,0.001585880621662855,0.0011785187835715864,0.0009082050364839022,0.0006577969181525716,0.00020643115383136288,-0.0006491445144231034,-0.001953566066329191,-0.003503322337730059,-0.004869086378476515,-0.005543285751774816,-0.0051597717624264775,-0.0036811761159415137,-0.001450272551317635,0.0009341789059339556,0.002860931048997279,0.0039457420667930645,0.004149431120774562,0.0037303308541890142,0.003077262680948167,0.002520842064206844,0.0022111120061642886,0.0020974131084853863,0.00199220044373456,0.0016738908182037356,0.00098707840600455,-8.595037592534576e-05,-0.0013975501982068862,-0.002661980146988678,-0.0035405627652205607,-0.0037661649796579674,-0.003260210118707389,-0.0021828880169196285,-0.00087967146018919,0.0002600205066859084,0.0009642336041181955,0.0011772229056593664,0.0010475894516451289,0.000820566472848967,0.0006995582030090031,0.0007507655501291185,0.0008917161055256213,0.0009546719620943309,0.000780321203107584,0.00029331579830333787,-0.0004663740427372216,-0.001354909283569388,-0.0021636280725810743,-0.002672174973478708,-0.002707614868147216,-0.002199986660660542,-0.001217623952907954,3.713973465061394e-05,0.0012811121433767068,0.002239811460612645,0.0027394838435290227,0.0027608547146082884,0.002429395579905483,0.0019476145029749853,0.0015025673905265918,0.001190243668961424,0.0009859228404868962,0.0007675921648852256,0.00038061551505239353,-0.00027976155112947453,-0.0011978289052901761,-0.002209580486995264,-0.0030388408094024206,-0.0033940008941821336,-0.003089633721416602,-0.0021365345459222144,-0.0007530487670903106,0.0007105148302108792,0.0018973288256532498,0.0025602321991587003,0.0026227724887456765,0.002173904691995371,0.0014153352351663493,0.000589926982564392,-8.825872792416584e-05,-0.000491567079592433,-0.0006145310318657249,-0.0005742843644251033,-0.0005647392389321734,-0.0007704608841115608,-0.0012706722045204158,-0.0019789575379005227,-0.0026553213914618456,-0.0029944864146162395,-0.0027544811860695175,-0.0018658046035451925,-0.0004688678915673409,0.0011365773087157454,0.002601846382755027,0.0036446543599654418,0.004120385755660614,0.004031842217045825,0.0034933620220196906,0.0026781242151160236,0.001767185485888932,0.0009037041540669749,0.0001554439104046101,-0.0004990174836177425,-0.001141717528119607,-0.0018462599114439414,-0.0026021842405361314,-0.003281693397727885,-0.003678712321724169,-0.003606683971605281,-0.0030017198861947486,-0.0019695261344106186,-0.0007462885914596089,0.00040379498130238686,0.0012941426826762938,0.0018674558821189825,0.0021749711417399457,0.0023093345137881645,0.0023382867488980523,0.0022755243530204316,0.0020949267572653242,0.0017665481677117893,0.001284306149853865,0.0006688760305012238,-4.732432604344361e-05,-0.0008312207095781097,-0.001639366307266891,-0.0023922225626373857,-0.0029588424314781593,-0.003180244623018959,-0.0029351326075184605,-0.0022156540371016933,-0.0011621799364453607,-2.373430962426923e-05,0.0009435049719552589,0.0015848448259331315,0.0019001710826345684,0.002012030255283269,0.0020711779492119413,0.0021583860164063207,0.002239656013011186,0.002195729518453596,0.001900836451116059,0.0012992925806141814,0.0004366958959139504,-0.0005634493728788343,-0.0015520751357681751,-0.0023985941728362696,-0.0030059946077689794,-0.0033044466758944692,-0.0032461392738759955,-0.0028154752981828946,-0.002047756945056516,-0.0010375527521237847,7.512590508250352e-05,0.0011364742026445211,0.0020140772607384404,0.00262277515805626,0.0029348632815295217,0.002973620705349603,0.002793333732781563,0.002453395375510505,0.001996541700068186,0.001439043209493054,0.00077520659819358,-5.842893185403747e-06,-0.0008950879253978655,-0.0018369251442583038,-0.0027130973287630097,-0.0033532962935146154,-0.003581483976597779,-0.0032866717760834663,-0.002484934157676974,-0.0013348316829013814,-9.010073332539907e-05,0.0009905642628667975,0.0017313970957434025,0.0020826662507575757,0.002104568847694389,0.0019108209192843148,0.001608079132786952,0.001260099152382149,0.0008832029066257947,0.0004609209921540892,-3.679640958761921e-05,-0.0006341967458040404,-0.0013266524232205593,-0.0020555332688258856,-0.0026956147965132076,-0.0030735048438511763,-0.003019975906645307,-0.0024338460673055283,-0.0013234940606642526,0.00019229964044168942,0.0019125001445057823,0.003583891257069603,0.004921387426786238,0.005637225010653988,0.005507565594574599,0.0044743405196107375,0.002728919870599515,0.0007013474772453727,-0.0010806467440605833,-0.0022121553740907527,-0.0025917090391360184,-0.0024506346436431927,-0.0022067237888256652,-0.0022248766007425566,-0.002621597941810574,-0.003218578877707188,-0.0036592810875437243,-0.0036118244008817102,-0.002943015435388472,-0.001776353849761739,-0.00041771013688746573,0.0007970442813817706,0.0016456688018665294,0.0020855779048517343,0.002224330795124848,0.0022278767486788188,0.0022244105873532403,0.002251673103397012,0.002262502273698985,0.002169600677786499,0.001895299521864252,0.0014010194465338263,0.0006933493807727313,-0.00017926798293902237,-0.0011257447129709238,-0.0020091299607080714,-0.002656909431360584,-0.0028989438509792066,-0.0026279539962658994,-0.0018554235250172945,-0.0007296352659517642,0.0005006747407911051,0.001564484677492603,0.0022539412518542477,0.002480932405580771,0.0022859955524593164,0.001804107108099369,0.001206792241968244,0.0006415549677433426,0.00018450514521926392,-0.00018114870935760738,-0.0005496101427141843,-0.0010367864680091272,-0.0016997400809898458,-0.002467996672231323,-0.0031305402173160274,-0.0034024643247227704,-0.003052842238040197,-0.0020340898999981626,-0.000541464347159593,0.0010386031488386432,0.0022756856102996628,0.002870740467608596,0.002775151023955054,0.002195710149060104,0.001484577535665603,0.0009698748055145581,0.000809233458847721,0.0009327162850893948,0.0010949423149706114,0.0010058996777489158,0.000479333653322574,-0.0004652313693125382,-0.0015906163721798629,-0.002528839517830718,-0.002933512787066306,-0.002630835139426157,-0.001696704769610567,-0.000421195749956077,0.0008194942724275135,0.001714823553226936,0.002119644306631379,0.0020641090168188334,0.0016908955616386865,0.0011710266289499977,0.0006439693660189698,0.00019513142107246886,-0.00014488543032134668,-0.0003981336870968852,-0.0006347435813020921,-0.0009495877606105088,-0.0014095834141420508,-0.001988891295685863,-0.0025353791240343144,-0.002807634336505956,-0.002581418113376332,-0.0017739286512400447,-0.0005126672917971299,0.0008974641739122449,0.002096337406316211,0.0028158947409328726,0.002976939226964818,0.002692805082404289,0.0021899972040593913,0.0016944162454597205,0.0013378039238701506,0.0011186629643605327,0.0009239076679423636,0.0005960064068895284,1.8544641231262808e-05,-0.0008115284568495443,-0.001755117114750192,-0.0025648892299013587,-0.0029777735475772123,-0.0028311232066066524,-0.002146248145638457,-0.0011307182467898932,-9.122715208852226e-05,0.0007000577590909006,0.0011149241876309722,0.0011988187890250594,0.0011133691117264986,0.0010329699988495524,0.0010555091699729967,0.0011683504300356255,0.0012722393026675847,0.0012362547088217851,0.0009525235156279061,0.0003743183384181546,-0.00046319739841017946,-0.0014372140291369845,-0.002350997363756068,-0.002974850356963691,-0.003112332473989806,-0.0026719581303253433,-0.0017134201715157745,-0.00044327045605420585,0.0008441256122797237,0.0018600494428336123,0.0024134357316616816,0.002466234887791076,0.0021328643703099432,0.001627173019946412,0.0011789144264253658,0.0009494209316475004,0.0009732759410769203,0.0011439453596752778,0.0012504855241053626,0.0010599488275850521,0.0004243340021120465,-0.0006264018609027737,-0.001852990223539687,-0.0028715778359963296,-0.003306878249418664,-0.0029708043340844438,-0.001970973406333568,-0.000676200679819564,0.00045688270156632655,0.0011052025893604515,0.0012219070783551647,0.001019046974855423,0.0008086585566284408,0.0008068930156021677,0.0010198182649949817,0.0012659466802207738,0.0013006602326067328,0.0009557118216470006,0.00021890735687456978,-0.0007693737578980482,-0.0017785694303644934,-0.002567459525653907,-0.0029491808632264747,-0.0028298150425911427,-0.002221939540810621,-0.0012369944644285338,-5.797508088908757e-05,0.001104777393532459,0.0020648167649276713,0.0027012205992799137,0.0029757871557899115,0.002922746342617416,0.0026213946437522663,0.002166644352046983,0.001645830305416706,0.0011208285975382233,0.0006130597040859153,9.632233355353769e-05,-0.0004907462851378506,-0.0012048976009671674,-0.00204048998802679,-0.002883512743159705,-0.0035148954478573936,-0.0036824190359346027,-0.003219883268965876,-0.0021531202083286253,-0.000725914598033069,0.0006826564193245693,0.001714869952762333,0.0021837186700644864,0.002135506296949735,0.0017962595847698937,0.0014385421719088664,0.0012453364030678732,0.0012393519610075284,0.0013005912015380313,0.0012459606671588314,0.0009219004429603648,0.0002703222898592628,-0.0006470988979786524,-0.001662366805690743,-0.002543517707838563,-0.0030581768998780927,-0.0030464215311136176,-0.0024807594009494133,-0.001485526367489453,-0.0002986596198212405,0.0008145925098209203,0.0016582607129580818,0.0021645748003001576,0.0023856005191940817,0.0024267719951165446,0.0023666144856201838,0.002213604307241187,0.0019227839855727007,0.0014511039352369222,0.000804523103269521,4.184412033563856e-05,-0.0007603334463762541,-0.00154378462607308,-0.002269656414933428,-0.0028834151229456748,-0.0032812933756872537,-0.0033220312843870187,-0.0028934062171714703,-0.001995291483998409,-0.0007796216368869377,0.0004886659429950281,0.0015341711970613646,0.0021799690258395782,0.0024027729519023548,0.0023095417281442424,0.002058747273094003,0.0017777617735222776,0.0015198334714090745,0.0012703893408420228,0.0009811756361536507,0.0006041042289414016,0.00011250530548407895,-0.00048524290886563655,-0.0011336319344670794,-0.0017263229158843677,-0.0021266814513171686,-0.00221817190967064,-0.001964339876000371,-0.001439224480017497,-0.0007995044234412658,-0.00020776466704219246,0.0002467344744385105,0.0005786505054372109,0.0008700920518865417,0.0011937582444630276,0.0015464308596267302,0.001832110717259926,0.001900483602670186,0.0016168132862109871,0.0009296559405830146,-8.990095462197331e-05,-0.0012506556512636895,-0.0022861350298792396,-0.00293077913049332,-0.0030046314379838252,-0.002476096547608032,-0.0014756892792281218,-0.00025128442058501294,0.0009184066902510135,0.001814310992392412,0.002331806586318244,0.002481346623899462,0.0023475229577175393,0.0020387287273182153,0.0016542764254848755,0.0012727207647536829,0.0009456683280223967,0.0006827402422343643,0.00043346783407936145,9.06140337115655e-05,-0.00046439800850937537,-0.001282491369108706,-0.0022768685893625852,-0.00321357395986235,-0.0037854923432909197,-0.0037421102674948937,-0.0030100909613780813,-0.0017411004035365082,-0.0002612099602504615,0.0010539643156096774,0.001920067315702796,0.002238900698757538,0.002110623691785619,0.0017654318899665044,0.0014507204893789434,0.0013244938600211861,0.001398046312950343,0.00154656368499753,0.0015762460132304396,0.0013138950777281566,0.0006803211893157569,-0.000276694746559361,-0.0013922959091909079,-0.0024255846749846725,-0.0031191347733775217,-0.003268175342029615,-0.002787704001547713,-0.0017558249348136271,-0.0004077134272494238,0.0009308691514495404,0.0019519061261232455,0.002470469088015938,0.002478884257669278,0.0021259887381514164,0.0016359301207575807,0.0012090049925151483,0.0009486519607919973,0.0008374840079713444,0.0007599110719066274,0.0005554858365202137,8.604478501856767e-05,-0.0006992293939529113,-0.001719666866229868,-0.002760860372185273,-0.0035274588243817285,-0.003743456247154112,-0.003266128997605961,-0.0021626668635769445,-0.0007054817567060737,0.0007230053338698372,0.0017779075948298638,0.002282277185266347,0.002277700989468616,0.0019745067486740563,0.0016324239711219297,0.0014337122279659007,0.0014076936328516574,0.0014349689087579276,0.0013206761083722003,0.0008983161037614538,0.00011846175344938488,-0.00091226952774272,-0.001955848965773197,-0.00272222193442305,-0.0029748332729551074,-0.002621762630248735,-0.0017539394145326859,-0.0006112032349985818,0.0005115131773848904,0.0013763053444697047,0.0018807556539583335,0.002067312220620221,0.0020643229947538743,0.001995260134387556,0.001907132091383261,0.0017539206726597581,0.0014366396031931846,0.0008705756207040508,4.095663486805917e-05,-0.0009769669825833865,-0.0020329742286978986,-0.0029365044682382463,-0.0034975907236028062,-0.003571074311112671,-0.003102916352562979,-0.002165704658248401,-0.0009586332420708025,0.0002457210779466734,0.0011965188466949148,0.001759112714375545,0.0019586228833779187,0.001947236683821272,0.0019117293673261006,0.0019699069381832494,0.0021083257473915686,0.002189157639496717,0.0020186456060253856,0.0014436136853492123,0.00043557604501086723,-0.0008696067376101451,-0.0021931170067081705,-0.003193739157669989,-0.0035845662256700495,-0.0032430777023201357,-0.0022653392335426456,-0.0009338283483106067,0.0003906905997678637,0.0014027258218555355,0.0019484651299714688,0.002046669987426799,0.001838572047716514,0.0015044457790183725,0.001190256209374787,0.0009690210765773976,0.0008363739348278543,0.0007266090946592699,0.0005389391764479143,0.00017292210186668397,-0.0004271561195761859,-0.0012296329716508442,-0.0020963930947618223,-0.002807571776835895,-0.0031317126100454135,-0.0029166524398035786,-0.0021589553222435337,-0.0010151561769993372,0.0002532039550287254,0.0013733153055035586,0.0021475720741855574,0.002497090044521572,0.002455806436142302,0.002133643303494375,0.0016722162549145615,0.0012052757167252555,0.0008245256365224407,0.0005516594936573955,0.0003270849135470433,3.158436744555215e-05,-0.00045280893981002155,-0.0011612146267990994,-0.0019859353925762093,-0.00268265250475962,-0.0029581311897698944,-0.002606631638060186,-0.0016254400427360952,-0.00024247190779699818,0.0011659951153182315,0.0022283959746791167,0.002724265282306536,0.002653539060902663,0.0022035469086571858,0.0016416560885844146,0.0011922047663685757,0.0009522635356344904,0.0008716370213803486,0.000790090599026863,0.0005073033784021213,-0.00013819049930582895,-0.001197052293863957,-0.0025586871313392273,-0.00394301466616467,-0.004956325800748076,-0.0052144011353818034,-0.004498029520401197,-0.0028712981628814757,-0.0006927549921035373,0.0015034558010000576,0.0032080653897380556,0.004121481548222969,0.004234523337197026,0.003777737910618642,0.003082514351938936,0.0024321119726980903,0.001966227750325868,0.001661016472935221,0.0013710560444662938,0.0009072056843095777,0.00012670087812532245,-0.0009872670586784087,-0.00228403666906838,-0.003468308349286843,-0.004193799364064402,-0.004199098455472382,-0.0034268558426825456,-0.002065082947510342,-0.00048279957511556667,0.0009142267623553034,0.0018393638362318835,0.002218338901213979,0.002179559893772931,0.0019557127248539105,0.0017549736195317715,0.001669452732679439,0.0016591786713632544,0.0016029014059020426,0.0013735922195258986,0.0008955381533994309,0.0001649568312992027,-0.0007564216799802385,-0.0017555317179198668,-0.0026804428959202164,-0.00335696866419837,-0.0036203672972174297,-0.0033632017554323266,-0.002583517638843717,-0.0014075013363066486,-6.73502972594808e-05,0.0011640220677778393,0.0020575866626809636,0.002498220123794406,0.0025128161737863995,0.00224685223960097,0.001899604410206575,0.0016426518486626941,0.0015511913076394564,0.0015727838985779591,0.001546329099037309,0.0012684622393804848,0.000587568324156331,-0.0005089061148030157,-0.0018530159616578484,-0.00312790257770451,-0.003970309844634335,-0.004106691741019609,-0.0034635909050205376,-0.0022000236170457857,-0.0006457201168663974,0.0008244614702317463,0.0019197978775612227,0.0025107600667971137,0.0026316709968038374,0.00242601813663333,0.0020714528432485275,0.001715461160383268,0.0014346438784225426,0.0012190726669894362,0.0009832838990099105,0.0006067192955134112,-2.453016310470903e-06,-0.0008431562664731366,-0.0017903555012785616,-0.002621393838016884,-0.003095840955736041,-0.0030537758948820243,-0.0024835228407151383,-0.001524317205857041,-0.00040530095241585206,0.0006426445576669132,0.0014549054244813826,0.0019541069937612197,0.0021322963117617207,0.0020246227262810212,0.0016979752026743647,0.00125169418517807,0.0008073517105168049,0.00047023091210030607,0.00027318657217290413,0.0001403782727121338,-9.097384617584516e-05,-0.0005841487764080441,-0.0013899713394315567,-0.0023727717858551957,-0.0032288389904601596,-0.0036029449936866393,-0.0032512033352720513,-0.0021670507384134543,-0.0006025118659162276,0.0010289612943604784,0.0023208808032080465,0.003032359631244731,0.003164532412019792,0.0029247772004129726,0.0026021953563559273,0.002417271069717179,0.002417338406530725,0.002464655061535926,0.002317622405628577,0.0017604609375317154,0.0007156222120515629,-0.0007124514958886457,-0.00227364511061122,-0.003660229358116672,-0.004601931717579366,-0.004933651448216447,-0.004623284454408745,-0.0037632975399901863,-0.00253536103722073,-0.0011588633536488001,0.0001626713594602963,0.0012809552611802,0.0021169695971902103,0.0026512783257900702,0.0029036561953081665,0.002915997212659863,0.00274294812445897,0.0024437898783783835,0.0020667892319675752,0.0016266227918884859,0.0010897851537825993,0.00038895537389395255,-0.0005252501832188967,-0.0016147864735762585,-0.002711145978509903,-0.003540860130380819,-0.0038255449537272952,-0.003412160735546851,-0.0023605849834337986,-0.0009337290900678888,0.0005082185792471877,0.0016512812617233803,0.002332686248527335,0.0025613554184777954,0.0024618233020236484,0.0021891006739927737,0.0018643067068613629,0.001552205928061715,0.0012688982990544276,0.0009954728321140034,0.0006854573946262009,0.0002735173320979909,-0.0003005877863578392,-0.0010514132022170248,-0.001909246093334655,-0.0027118483764260867,-0.003244543570048937,-0.0033202917232831187,-0.0028639037283254435,-0.0019548458348603403,-0.0008020101227098823,0.00033760908581001274,0.0012525310771626208,0.00183664762912666,0.002095668583387771,0.0021125156337525367,0.0019986789141124644,0.001851968483748127,0.001727159218407749,0.0016194694065810732,0.0014636711037235152,0.0011550627329657444,0.0005941762031856479,-0.00025521821616866796,-0.0013182499797009092,-0.002398851162805502,-0.0032241610399820326,-0.003535887474581385,-0.0031944126454178335,-0.0022480193561555174,-0.0009300634531885699,0.00042123170983388426,0.0014878305093410644,0.002085549109045008,0.0022145411270452935,0.0020267640612470945,0.0017326817696722702,0.0014969283075747706,0.001370724134703157,0.001283681385821885,0.00108904908782641,0.0006395257641406745,-0.00013391791175044717,-0.0011672572067052032,-0.002256327411080782,-0.0031096924792713755,-0.0034507114258437816,-0.0031306729136716515,-0.0022001944141905724,-0.0008988606914672641,0.000437915219619036,0.0015111997478481419,0.0021642089531725647,0.0024112784532744833,0.00238446365011787,0.0022369834116402762,0.0020606678163857988,0.0018571081149226572,0.0015642430177743292,0.0011087759708909046,0.00045009874136781047,-0.0003988038049214407,-0.0013658969933693552,-0.0023197161537689727,-0.0030791735978391074,-0.0034497039722420036,-0.0032893699801337904,-0.002579438743378448,-0.0014560071474275238,-0.0001736591053055252,0.0009877067205352904,0.0018251993765100625,0.0022711113050017852,0.0023824065565408946,0.002278465465384079,0.0020695857978220815,0.0018140860131777357,0.0015154311643646202,0.0011446211975550348,0.0006650866736426776,4.893536783962411e-05,-0.0007098014778843913,-0.0015748498682734559,-0.0024435440347625025,-0.0031404252109059148,-0.0034529794439699395,-0.003211691229529851,-0.002381773644001491,-0.0011133244975233304,0.00028975565237227094,0.0014784851615014711,0.0021958970273539807,0.0023747279318485177,0.0021474578906937386,0.001765543271972121,0.0014700229103912013,0.0013778344606735105,0.0014369027810835365,0.0014661753053732622,0.0012553880045527374,0.0006747043842932319,-0.00025439217070131147,-0.0013539847927114305,-0.0023486442533469064,-0.002962621724852555,-0.0030170880600288203,-0.0024907234440911803,-0.0015216834465052451,-0.00035238763329274313,0.000757863726795856,0.0016143325278642746,0.002129132691278417,0.002312859375638866,0.0022310519063455615,0.0019571542114388543,0.0015487990492095804,0.0010523462577890553,0.0005180076212283427,1.4917755788955434e-06,-0.00045746824725316796,-0.0008651751668649857,-0.001283122828840243,-0.001794571427866606,-0.0024354111026495054,-0.0031273859101082647,-0.003662575215172937,-0.00376639484774629,-0.003221264669424709,-0.001991211576412856,-0.0002772140450354897,0.0015356552624906773,0.003021236051427063,0.003877625920813351,0.004034042478217071,0.00364974099467159,0.0030121066351547748,0.0023896439880452306,0.0019115146636193379,0.0015265748091520897,0.0010567751775050094,0.0003191213266473196,-0.0007411190694897206,-0.0019743497834644763,-0.0030557656990643934,-0.0036171947448014378,-0.00342149325049764,-0.002489303405829502,-0.0011078965307613437,0.00028667494733006097,0.0012950328620449218,0.0017139342832670974,0.001593993253840392,0.0011772638164180586,0.0007580731150509401,0.0005427560872297015,0.0005735475361566137,0.0007404362404337671,0.000858164161837937,0.0007587866374992307,0.0003548838426693677,-0.00034316126148547675,-0.001242564958366917,-0.0021922445208586404,-0.0030033757205331574,-0.003473124036633711,-0.003425216889496785,-0.002768934736366543,-0.0015562961654406434,-3.192694973300648e-06,0.0015526347891850405,0.0027553462862526202,0.0033592988750141954,0.003323132610147666,0.0028197207653450533,0.0021511846474993016,0.0016079395351542276,0.0013415796690685888,0.001313165202373123,0.0013357995865093692,0.0011804779931664292,0.0006873082870870579,-0.00016735475996784471,-0.0012654228246613943,-0.0023896138334764533,-0.0032877166847846977,-0.003738356720059198,-0.003608965169363214,-0.0028987360137299966,-0.001752702276090918,-0.0004312971572563354,0.0007656157950094397,0.0015958274055409344,0.0019518661915169933,0.0018838842906204183,0.0015608853273151378,0.001191376796945797,0.0009388662046694964,0.0008643819154026914,0.0009139599983129681,0.0009516751414207399,0.0008233369233735275,0.0004260129289590356,-0.00024269085654199103,-0.0010733069296480946,-0.0018743074321965639,-0.0024315933111989834,-0.002576901777870844,-0.002242555753465574,-0.0014850737715592557,-0.0004700435874843874,0.0005772823518587291,0.0014400660239251937,0.0019742226558876878,0.002146812831911514,0.0020341791786697328,0.001779435241565361,0.0015250392191918968,0.001348466104964232,0.00123019492759398,0.0010695001864321685,0.0007399966256305267,0.00015699140131782792,-0.0006750883150202459,-0.0016532579934995751,-0.0026021992804448747,-0.003320354565230472,-0.0036294098060014723,-0.003417632203040621,-0.0026726649333752538,-0.0014982822158320086,-0.00010596149104543338,0.00122680609344834,0.002229381807041335,0.002723079892501678,0.00268530880998979,0.0022594137996202984,0.001696371334493105,0.0012469631682394042,0.0010511931779536618,0.0010776422497633248,0.0011434032159281147,0.0010064594218986652,0.0004878160221784714,-0.00043242708371133754,-0.0015880037906048938,-0.0026802701250054294,-0.003389514399509125,-0.0034957701788327364,-0.0029577277384235457,-0.0019184892665303891,-0.000641288734206519,0.0005905157442401629,0.0015628454001972887,0.002175622738681694,0.0024362901630059063,0.002420885367753911,0.0022299664928790187,0.001956870046335311,0.0016689975440237874,0.0013938776444584135,0.0011072139001974644,0.0007330623373804595,0.00017168282574716795,-0.0006418178798556612,-0.0016702958892793715,-0.0027401757312388707,-0.0035743585115735146,-0.0038918105290690636,-0.003530735744589419,-0.002532375017655702,-0.0011402300585566904,0.0002868918697011855,0.00140779912912711,0.0020193767042619467,0.0021157419591687644,0.0018655309174085723,0.0015209786107236102,0.0013004096878419776,0.0012961572794448523,0.0014463525397910158,0.001576971244985212,0.0014879707666297062,0.0010429086211797458,0.00022933770024641438,-0.000824669162678545,-0.0018789654527896931,-0.0026492219718432077,-0.002900327559245537,-0.002536670412821158,-0.0016498266821887407,-0.0004934917551892415,0.000611557132071769,0.0014008095059556212,0.0017580800655881631,0.0017336854623052904,0.0014875137649606488,0.0011947317473206558,0.0009654719410044555,0.0008131861456442965,0.0006735878068861015,0.00045030667787959223,6.031646036672828e-05,-0.000532337884141,-0.00129197244098332,-0.0020959073212559946,-0.002741716979188802,-0.002994279745348131,-0.002671662424189985,-0.001738514571248437,-0.00035721651458388987,0.0011416177857773951,0.0023691705318172425,0.003024430987819515,0.003007766784439557,0.002446483690566853,0.0016214502225855628,0.0008350466433210948,0.00028776113611792237,1.8670470947272698e-05,-7.494661739662964e-05,-0.00016360628402262248,-0.00039931901102978026,-0.0008512831558514257,-0.0014789258251114439,-0.0021426283122496755,-0.002645668436415318,-0.002796834849123951,-0.0024767436230368547,-0.001685133623109296,-0.0005494195747023993,0.0007103761873963081,0.0018459903854867413,0.002649107733800416,0.00300094198984035,0.0028929498204527757,0.0024193932812680754,0.0017465727267521282,0.0010636792626995681,0.0005231504448044562,0.0001866436655888334,9.42406583179429e-08,-0.0001827698041386047,-0.0005289819523407805,-0.0011343428907997326,-0.0019549036278850526,-0.002799747839372117,-0.003394947784043747,-0.0034930195397053446,-0.002978163702698287,-0.001918590710224411,-0.000543054580096546,0.0008450730810165247,0.0019756539827453226,0.002695032593992271,0.0029931844887189467,0.0029703111173112803,0.0027653969822578318,0.0024844590344638333,0.0021622674142117086,0.001770102904255159,0.001255934331416961,0.000588197001040345,-0.00022107380041994803,-0.0011186570432980723,-0.002024534046808061,-0.0028416274458066344,-0.0034579223942526175,-0.0037541315448212185,-0.003631160495364637,-0.0030541054912358733,-0.002088517542433907,-0.0009003527895671281,0.00029023559540870635,0.0012823988502250984,0.0019588102216334525,0.0023093990026913725,0.002407249346900702,0.002355417322144987,0.002235911767928302,0.002085276549142532,0.0019016195618525476,0.0016686819759198597,0.0013750739469136632,0.0010148977203634085,0.0005739948127150259,2.1448034567218854e-05,-0.00067395230235042,-0.0015013489540757184,-0.002364871987967621,-0.0030779789020053917,-0.0034170332431234652,-0.0032178276198247973,-0.0024642437661388144,-0.0013148046013498106,-4.6830064890594536e-05,0.0010527249984077004,0.001790455870748213,0.0021135011926991286,0.002089113339825492,0.0018447175833258154,0.001509555414906334,0.0011824588458120345,0.0009227321913592837,0.0007465715285713812,0.000619394237374328,0.0004536584457942691,0.00013173422214403553,-0.0004379915273342029,-0.0012504462422693989,-0.0021598109247067303,-0.0029014640085208644,-0.0031877948665131567,-0.0028399511404635608,-0.00188688522085169,-0.0005717460079519543,0.0007460451123740797,0.001744388155044299,0.002265638211328754,0.002351739073897233,0.002178298742026924,0.0019372206219569774,0.0017400849682669517,0.001589644060025196,0.0014167927218914822,0.0011422338938899047,0.0007193087514810399,0.00014179655417550152,-0.0005681831275196518,-0.0013662400081222033,-0.0021746598899391517,-0.002868066748974098,-0.003282204820490562,-0.003260431622858442,-0.002723973108544275,-0.0017284222305845478,-0.0004691495758489503,0.0007763731433828221,0.0017466940826795633,0.0022890586543129303,0.002402229149900595,0.002211238877223294,0.0018926371754576475,0.0015936098725959958,0.0013850660442127575,0.0012611708519449244,0.0011676444380086652,0.00103048566680123,0.0007705014287007431,0.0003119307851137112,-0.00039643550323073063,-0.001341808204707452,-0.0024084348900837655,-0.003372943383931946,-0.003957982707460922,-0.003935646671991845,-0.0032357369686869396,-0.001998723625210506,-0.0005349466740824335,0.0007977318068992525,0.001736801763087981,0.002204004987813712,0.0022981614218612833,0.0022068619650673603,0.0020960255497553064,0.002040077715606927,0.002020184684845197,0.0019711238769722023,0.0018321278874375178,0.0015677187773087279,0.0011574547560250013,0.0005802717363532466,-0.00017972797468784288,-0.0011010240396666427,-0.0020872938896793476,-0.002958157184598372,-0.0034902965636212117,-0.0035018139541887136,-0.0029409145419394254,-0.0019272702051832138,-0.0007145777069969934,0.00041178848464814763,0.0012469533670809421,0.0017272201684695042,0.001912644664353487,0.001915320176976962,0.0018267949194496085,0.0016878466831894254,0.0015053284208849447,0.0012848384770528542,0.001041040813465264,0.0007731984873175497,0.0004309076475444652,-8.649329806945084e-05,-0.0008719323302262424,-0.0019153935563593358,-0.0030338408568623978,-0.0038902728822295483,-0.004119194599893046,-0.0035064856724899922,-0.002125285266753421,-0.00034116212809277624,0.0013314223378831562,0.0024531235818123914,0.00284639945620351,0.00264694088148904,0.0021995607230783885,0.0018645489501274734,0.0018423383922529265,0.0021008665078467307,0.0024240600630756684,0.0025366275411980634,0.0022336347077195283,0.0014574250867089803,0.0003013193835626767,-0.0010430304160470904,-0.0023558077656378384,-0.003439811652664226,-0.00413854079634138,-0.004337157449929649,-0.00397310489280361,-0.003066625780554518,-0.001751933542444328,-0.00027485068245472184,0.0010627541541451471,0.0019977773780932625,0.0023980903338354565,0.0023069515052864123,0.0019166241394536865,0.0014817391415279514,0.001209695090274566,0.0011739830102598528,0.0012858101808981422,0.001336063707886014,0.0010921943940058547,0.00041195371312056564,-0.0006732900804466707,-0.001943250768482063,-0.003052674899651388,-0.0036530461644396503,-0.00352481537928046,-0.002665289467879646,-0.0012932084038730393,0.00023336875295637563,0.0015493671476938817,0.002405989901839971,0.002734029391479448,0.002629879657061647,0.0022842395323055403,0.0018931408316366187,0.001587291708953967,0.001398668842141963,0.0012659876247192372,0.0010697829314060365,0.0006833943014658215,2.6001222460233825e-05,-0.000894477779614209,-0.0019600731235580046,-0.002955011492245561,-0.0036196754121575877,-0.0037388776596604277,-0.003232668811212854,-0.0022029182681428117,-0.0009027817284614284,0.00036247291438204943,0.0013529446651301053,0.0019686764033937394,0.002248672556727783,0.0023079300789363966,0.002257442464998187,0.0021513014500574037,0.0019792722344316106,0.0016940397406776777,0.0012479951017879568,0.0006192836690017572,-0.00017808104722887393,-0.0010931361263610388,-0.0020376460079723742,-0.0028862021251443953,-0.0034858536051187456,-0.003686126951331181,-0.003389337346537198,-0.002602151315153712,-0.0014569058270153198,-0.00017935381316292107,0.000991465220632818,0.0018930662698112876,0.002488982538366258,0.002848702170662701,0.003071990155320418,0.0032079636655848844,0.00322229540540251,0.003031430135541688,0.002574611739458582,0.0018681612856352831,0.0010019444646179748,8.389169467570672e-05,-0.0008206450735248195,-0.0017041402120125337,-0.0025726150361832212,-0.003376135635085354,-0.003972291420135583,-0.004162329755962554,-0.003790217824871874,-0.002847287006121402,-0.0015130948587080602,-9.878752363581857e-05,0.0010792229378778755,0.0018230486672935996,0.002107039461048784,0.0020431048992126813,0.0017957203896363434,0.0015072635254178657,0.0012702386393404906,0.0011368473660333257,0.0011288725897223408,0.0012233870785408663,0.001326900940259698,0.001275719346410894,0.000889570007541326,6.692893296360784e-05,-0.0011264097987577475,-0.0024326052761422215,-0.0034712581891081008,-0.003884397989547409,-0.003492309729652145,-0.0023803415343517185,-0.000867148112591951,0.0006316826645846269,0.0017720913494897392,0.0023951277211389965,0.0025378255622002543,0.002357353533918098,0.002028679846965937,0.001675074100769202,0.0013536536026969687,0.0010768506560505568,0.0008343240322938915,0.0005951984251777652,0.000300245109785948,-0.00012884309007311825,-0.0007463279657454534,-0.0015203191198405143,-0.0022945615427925115,-0.002816163189675541,-0.0028356580926076356,-0.0022360359484134016,-0.0011183392932390306,0.00021302293691457868,0.0013678281797465802,0.0020332084391709217,0.0020982005055826094,0.0016784794465470277,0.0010371205549718542,0.0004513697325478107,9.547077579640808e-05,-1.0285182920414561e-05,2.4573908150743798e-05,3.27271109944276e-05,-0.0001314545191095491,-0.0005352511830642569,-0.001143805996882106,-0.0018251719234070062,-0.0023790703920643992,-0.00258871268576391,-0.002291901020603551,-0.0014529152297755022,-0.00020220199895285782,0.0011856862944470976,0.0023784904044651255,0.0031038378661887626,0.0032449020025030187,0.002870961466479401,0.0021926661444878954,0.001466705394900923,0.0008928951304080114,0.0005438135593494001,0.00035031298291103704,0.00014525274501218238,-0.00025144044191973005,-0.0009378302675393082,-0.0018631078239593711,-0.0028207944388207113,-0.0035131367957114638,-0.0036665777671531256,-0.0031500753890036,-0.0020403532932781374,-0.0006000282613189047,0.0008226555199215248,0.0019238009687683624,0.002541842604597035,0.0026836527885642095,0.0024807006319913683,0.0021112033828066695,0.0017301473020190261,0.0014293058512686119,0.0012247633301999505,0.0010599157507190518,0.0008203506725929955,0.00036893687815931224,-0.0003929773596394276,-0.0014533243228873752,-0.0026445826107518305,-0.0036666877102578144,-0.004186819759315076,-0.003977899120898271,-0.0030267463699334544,-0.0015531143112299888,7.20236923931277e-05,0.0014671085947381398,0.002371644768398051,0.002714268832010997,0.002600665499625677,0.0022414606884010903,0.0018578891019048838,0.00160039785126013,0.0015022443710896716,0.0014768944977847464,0.0013582742991315104,0.0009739605615165835,0.0002302107780257183,-0.0008228178424719457,-0.0019782858271479337,-0.0029285651982369067,-0.003375079248275646,-0.0031473633256742404,-0.0022768409083272993,-0.0009901232932889856,0.000374308156222659,0.0014861182033228863,0.002127579415722184,0.0022455240798956683,0.0019422983948106732,0.0014197782867086987,0.0008992990401672729,0.000541142291424727,0.00038745184410679697,0.00035055181337212415,0.00025715105013379767,-6.377929070655207e-05,-0.0006854250446906636,-0.001525152141529086,-0.002355838642562129,-0.002887041811931144,-0.002883341418288279,-0.0022681355386890705,-0.001165236600539361,0.0001430300236999206,0.0013243644946115778,0.0021223543784506093,0.0024412745597231604,0.0023531117017910755,0.0020320167104229377,0.001658701853185712,0.0013465451013866554,0.0011181807132468354,0.0009257051843135624,0.0006868319774193908,0.0003155451607178793,-0.00025335841888267645,-0.001034842673676877,-0.001958731349311159,-0.00285079173570418,-0.0034602694877083617,-0.0035441996512968806,-0.002979009489801035,-0.0018403246524928958,-0.0003987612872605361,0.0009768577207926478,0.0019643902375680727,0.0024093227502906024,0.002364505662899419,0.0020371263984030417,0.00167884676715207,0.0014773973417993012,0.0014960733142904217,0.0016735171067153505,0.0018640448636256077,0.0018886328364899549,0.0015805628029832406,0.0008299133287694735,-0.00036564185046056253,-0.0018564702493598692,-0.0033390269106939098,-0.004427761038491952,-0.004791211755504332,-0.004292446557892782,-0.0030567731571978698,-0.0014240950839125163,0.00019191344926171782,0.0014640015369429416,0.00225114289068737,0.002598328706984174,0.0026547519195601736,0.0025687555558442797,0.0024187551499226657,0.002205996292723233,0.0018931067907970202,0.00144965586091658,0.0008731950558162574,0.0001808355696680558,-0.0006087876652642838,-0.001476809219014753,-0.002377654364565813,-0.003200818091882874,-0.0037568989080483117,-0.003819384000191879,-0.003221438641164328,-0.00196436718977165,-0.0002715808324388136,0.0014593238311668988,0.002798901467380399,0.0034570634842044064,0.0033949148707280363,0.002818595043491073,0.002061503603193091,0.0014220655094245097,0.0010437213575494933,0.0008910892646436478,0.000814285549963569,0.0006453341996934038,0.00026834863420578886,-0.0003567747753141985,-0.0011970772257056171,-0.0021481066531349523,-0.0030321491682723865,-0.0036173414480862704,-0.003679068941648986,-0.003092871545369748,-0.0019141216698853754,-0.0003933467387295859,0.0010951069553117637,0.002186828059782592,0.002663581216423352,0.002528419831319034,0.0019862678230191675,