-2.423319550181364e-05,-0.0023830110481414604,-0.003956073098021814,-0.00434772947950759,-0.0037134140937398787,-0.002620432991566904,-0.001710387834299866,-0.0013723511613855655,-0.0016007685821423923,-0.00208079500428672,-0.002412769438069645,-0.002331611161712141,-0.001810016535441477,-0.0010188878326316854,-0.00019867694398947172,0.0004702994538890639,0.0009310157563840375,0.0012314893433853441,0.0014586332642970781,0.0016748280507220305,0.0018906816660824964,0.002075035081315065,0.002180687010965285,0.0021641159071621105,0.001992717752227237,0.0016469857067525628,0.0011267389387150106,0.0004619259941619387,-0.00028045895788299767,-0.001002835710345885,-0.001598696107611772,-0.0019814057359332365,-0.002107613144685108,-0.0019859532444904916,-0.0016689443024809113,-0.0012323970420429929,-0.0007506185677642255,-0.0002773931450126485,0.00015914604175111449,0.0005467460115848389,0.0008729412114417152,0.0011157450231188458,0.001248721319344938,0.001256672730807493,0.0011506503451307916,0.000972137003925469,0.0007824882350862261,0.0006397786699923113,0.0005703796032402115,0.0005480065752040998,0.0004957196301477321,0.00032000033495432033,-3.183323216548149e-05,-0.0005206995277613497,-0.0010089035294147844,-0.0013166575555063334,-0.0013214336715380113,-0.0010428282394029306,-0.0006521025411832227,-0.00038665937083266224,-0.0004131075616847922,-0.0007233543700504949,-0.001132099207526916,-0.0013783494194633426,-0.001265977111021832,-0.0007591262861915346,1.3187387357480734e-05,0.0008290790672444886,0.0014718016006773768,0.0018055564515951916,0.001805670568754616,0.0015437758693463636,0.001142330427108193,0.0007188363490037832,0.0003419309379597505,1.7529757858251484e-05,-0.00028939658111578346,-0.0006102334796901517,-0.000932603986687248,-0.0011915426955388985,-0.0013000137288641052,-0.001199668168611159,-0.0008967256237635555,-0.0004576291793421054,3.0521196066391355e-05,0.0005027805553082737,0.0009297731065056134,0.001295673180125957,0.0015660854256801038,0.0016805634461971458,0.0015834512056734718,0.001271829854697869,0.0008193352303109875,0.0003479045557007658,-4.1290851862210796e-05,-0.0003310122454590796,-0.000596431765836531,-0.0009463130130481314,-0.001432869949862095,-0.001990752508939883,-0.0024481017697850064,-0.002606638683961185,-0.0023451680281788793,-0.0016878464600332624,-0.000800036301263033,8.491828544952037e-05,0.0007685724408044116,0.0011667265006325193,0.0013261592339933203,0.0013744336177989112,0.0014357566056014887,0.0015635367948948187,0.0017259760178814875,0.0018439687206102656,0.0018474069456768413,0.0017103245893188683,0.0014481839187295543,0.0010906509394415392,0.0006567701041996609,0.00015026591848636863,-0.00042674613694418617,-0.0010560015681311645,-0.0016940414090983093,-0.002274493568209839,-0.0027170474487443865,-0.0029399959747374886,-0.0028784929093285546,-0.002509904669341877,-0.0018778025620568885,-0.001096181833277931,-0.0003188660792149984,0.00032030822043989404,0.0007660415121029829,0.0010608838846560829,0.0013083313189188417,0.001599898573660584,0.001951962326524656,0.00229211760552391,0.0025015369291338605,0.002483941999105162,0.0022180715652551724,0.0017658394601285311,0.0012383240245261067,0.0007435961965982906,0.0003422388080589997,2.517515044334691e-05,-0.000281281504035231,-0.0006819124842860405,-0.0012555060217910436,-0.0019939061135870687,-0.002770909600414491,-0.003369842738623379,-0.003568892317998373,-0.003245289576416522,-0.0024410516747452116,-0.00135059220719898,-0.0002352592534472838,0.0006871809513392748,0.0013176255715760593,0.0016803617993046114,0.0018671805910981988,0.0019639058780904976,0.0020046191707980194,0.001973040234997426,0.0018373041445279787,0.0015863073853101281,0.001241812173663445,0.0008421645326193816,0.0004144604452962568,-4.042052165690243e-05,-0.0005351796995503874,-0.0010622716071244983,-0.0015642012264376706,-0.0019353858143294276,-0.002063641473153636,-0.0018899140740047389,-0.0014473298293917827,-0.0008508101114698277,-0.00024119261467770998,0.00028100823313888186,0.0006907465757072986,0.001023181398421074,0.0013220838061676172,0.0015882664702718137,0.0017633179447551675,0.0017612121936446037,0.001528431891442377,0.0010913112780496599,0.0005544934918150346,4.709961330683424e-05,-0.0003486699861937814,-0.0006376597119211922,-0.0008935073236410354,-0.0011959855820120435,-0.0015671255053962651,-0.0019466069903094183,-0.0022179540157665377,-0.0022653142429817823,-0.002026819116451614,-0.0015189748796419309,-0.0008263847875670167,-6.796498800932648e-05,0.0006425186584660919,0.0012257931104719337,0.0016472252208573697,0.001908009817077064,0.002026947390087023,0.002026110135606267,0.0019276684223710591,0.0017572238348916999,0.0015421611114023138,0.0012995513482172167,0.0010221456003860563,0.0006784438882223591,0.00023399896144293575,-0.0003174006564537551,-0.0009346852825984736,-0.0015367547520814511,-0.0020309645006571916,-0.0023443334964523524,-0.0024412260626334014,-0.0023240610333776306,-0.002024144424111561,-0.001590684109923661,-0.001080831151281023,-0.0005500424404235492,-4.3109809864533234e-05,0.00041169144360581034,0.0008033332864692125,0.0011337900862832906,0.0014102132983942368,0.0016352321578539208,0.0017982218414458128,0.0018723606537893538,0.0018225541451787662,0.00162501917065524,0.0012905126772939405,0.000875132430432073,0.0004644197705609207,0.00013259598237141108,-9.998546402505152e-05,-0.00028026882627769705,-0.0004921326663630204,-0.0007980820894685819,-0.0011905213013839045,-0.0015857842362830346,-0.0018661012238702724,-0.0019426068106612434,-0.001798693141507694,-0.001487099451585538,-0.0010864737721577385,-0.0006511924252801254,-0.00019174831577629383,0.00030129282826841944,0.0008115851854113806,0.0012700594474407065,0.0015740402140153045,0.0016434067665970508,0.001473534888201439,0.0011440970431376015,0.0007743783375114761,0.00045517804158530105,0.0002039152976483627,-2.8380713885134325e-05,-0.0003061681270326577,-0.0006502368676203508,-0.0010078632114296614,-0.0012692066530749066,-0.0013195118468265906,-0.001098283697066479,-0.0006347762381956137,-4.2079672406672214e-05,0.0005276281271532144,0.0009451280605522302,0.0011524994939370063,0.0011730270136471204,0.001079366988351689,0.0009418555553534575,0.0007907360453631811,0.0006150095690690056,0.00039368464935073203,0.00013205934492880342,-0.00012674736598270397,-0.00032535386029503303,-0.00043458267103213175,-0.00048383153931617255,-0.0005547162571749582,-0.0007362678953745096,-0.0010651164155108487,-0.001486214004152971,-0.0018607337941946008,-0.0020219278577552693,-0.0018519018620885622,-0.0013396768958033596,-0.0005912817370330298,0.0002115853171815161,0.0008830702095478512,0.0013024648395909045,0.0014529245245221852,0.0014152075679469333,0.0013207289605807098,0.001286169076344752,0.001360742405735475,0.0015101877444168934,0.001641599735434622,0.001652703053978093,0.0014794802039871133,0.0011202273045827667,0.0006280376911243627,8.014944882680218e-05,-0.0004565224854277941,-0.0009448532301070927,-0.0013745351502265515,-0.001743792291500977,-0.002040967927586461,-0.002238330712120866,-0.0023003092632359035,-0.002198743894843737,-0.0019248364873967845,-0.0014922468475464478,-0.000933533704827925,-0.00029595771596119063,0.00036044086685357206,0.0009656057215675241,0.0014483476522002044,0.0017523693934393815,0.0018535748630778316,0.001769299240732685,0.0015528176809393556,0.0012735804638602422,0.000990984632720762,0.0007336276532725092,0.0004946951421378044,0.00024676409955228917,-3.16238263648079e-05,-0.00033334246027411476,-0.0006182301997011621,-0.0008293079314968405,-0.0009184096326953899,-0.0008651547488894853,-0.0006809002450509369,-0.0004018696323692462,-8.126084630243996e-05,0.00021581050195701456,0.000420779430857276,0.00048145856499527933,0.0003897481284029791,0.00019881865645289326,9.070428453766084e-06,-8.024609114412324e-05,-3.0064992198267776e-05,0.00010658626687092975,0.00020444478416247207,0.00012957634145240818,-0.00018901094755574067,-0.0007181211832095179,-0.0013272596653035014,-0.001835224634060883,-0.0020730572238369703,-0.001940118301163724,-0.0014376891155607906,-0.0006713981003934029,0.00018074411589223053,0.0009287243184606644,0.0014391092028451697,0.00168103501654455,0.0017241783906942392,0.001687157205600821,0.0016643241200563553,0.0016740463963508027,0.0016599533329990032,0.0015433796052728085,0.001290861634820753,0.0009483352702430916,0.0006143104876881584,0.0003669518254829584,0.00019630547731309391,-5.231851886402638e-06,-0.00037918701877163205,-0.001001549579545759,-0.001812971220742212,-0.0026257524069240555,-0.0032043447876604473,-0.0033708922699336834,-0.003077347377330618,-0.002412252258219787,-0.0015499516786694019,-0.000676262029974608,7.345016456800611e-05,0.0006431516712133039,0.001049941736608809,0.001353190932366623,0.0016143149245748329,0.0018623899824207648,0.0020779573539512573,0.002201826149042321,0.002166660063715146,0.001937829683355007,0.0015420180834817892,0.0010649526452012987,0.0006153953021913231,0.0002727728124551304,4.71184476312093e-05,-0.00012538951759343876,-0.0003468871718106531,-0.0006995739677297622,-0.0011947124933161892,-0.0017551957293442902,-0.002239983036956806,-0.0024975163298420855,-0.002423493768588531,-0.002000272895443995,-0.0013050987293231836,-0.0004852240268067039,0.00029212165216967737,0.0008975609547927824,0.0012817462926739864,0.0014813368066188641,0.0015830868998126981,0.0016626471765412189,0.0017320580248294305,0.0017286057860551444,0.00155407260696485,0.001140934295441696,0.0005037464058055543,-0.00025596683359720217,-0.0009915841425157468,-0.0015706118105574419,-0.0019148805827090176,-0.00200414857453338,-0.0018539409792814046,-0.0014940381454691338,-0.0009659378895899447,-0.0003349897504252475,0.0003035439524667126,0.0008412945474129072,0.00119304894905384,0.0013304661637151272,0.0012897881604314368,0.0011464955553882844,0.0009714818886297901,0.000795041521510902,0.0005993599665479482,0.00034160370667871154,-8.834606152662559e-06,-0.0004416114173632334,-0.0008997692671926725,-0.0012974934036420944,-0.0015509169065254299,-0.0016075407652564773,-0.0014613813982416745,-0.0011478662860323365,-0.0007236268149202825,-0.0002450608968423613,0.00024217918636782983,0.0007018731931798998,0.0011029301369757383,0.0014199251694989041,0.0016374709383387672,0.0017516378645763223,0.0017649746368529695,0.0016794621689385338,0.0014949300281689897,0.0012153554515260962,0.0008566610725336209,0.00044574637273165675,6.918875260134705e-06,-0.00045499603216035277,-0.0009575780335856122,-0.0015196267678590815,-0.0021251580198921767,-0.002697974053334226,-0.003110122620266554,-0.0032268290254806476,-0.0029656668666305955,-0.002336832539083504,-0.001442503174280724,-0.0004385053662666935,0.000517622865984894,0.001306172270778516,0.001861489772891448,0.0021704790530661954,0.00226362634894716,0.00220261181066755,0.002062585573168236,0.0019092674283618983,0.0017782506114764336,0.0016671596103960472,0.0015455557420157038,0.0013765800073419561,0.0011369575792220948,0.0008239153607860217,0.00044736575942945684,1.639063724994923e-05,-0.0004668880619856262,-0.0009988021189432,-0.001556201736306094,-0.0020844892361559014,-0.0025057056024096365,-0.0027464815132763622,-0.0027687124263802956,-0.0025813282535846463,-0.002225463338695303,-0.0017466449877103034,-0.0011770237463763103,-0.0005395669857912681,0.00013438603006870882,0.0007936589506445452,0.0013743327252842084,0.0018213203607693046,0.002108543614005681,0.002243066807083628,0.002250848473821579,0.0021554714081268326,0.001965560958303969,0.0016782075703380725,0.0012921922899033127,0.000818302123021373,0.0002796065731660894,-0.0002943068697629867,-0.0008696288599468652,-0.0014027534316414653,-0.0018330093898989376,-0.00208574323622235,-0.00209267192893647,-0.0018233802885394951,-0.00131081324022878,-0.0006533199311324081,1.2651224108437128e-05,0.0005586217144393163,0.000907162318699705,0.0010513908440837796,0.0010429747343780552,0.0009570294282674923,0.0008526219906930825,0.0007468987367354081,0.000611953191236893,0.00039375180975334176,4.5898691601162244e-05,-0.0004338392415462331,-0.0009805354054935821,-0.0014679912575780783,-0.0017479777415938449,-0.0017095264744642982,-0.0013310158690041075,-0.0006977641876436501,2.6582457781241067e-05,0.0006635514222117567,0.001089058037862396,0.001275752863972197,0.00128875838633913,0.0012386432785264016,0.0012183842610095615,0.0012594003684778183,0.0013282096453748743,0.0013578423735436252,0.0012868155664027415,0.0010792407152792453,0.0007204917532973977,0.00020516832473729655,-0.00046144736173626814,-0.0012436773321002489,-0.0020542793781552506,-0.0027555276162501787,-0.003192633581088751,-0.0032473099794397735,-0.00288556303579032,-0.0021765586141118116,-0.0012734721119856867,-0.0003626952883039659,0.00040061439425377165,0.0009455155870203048,0.0013016815902047191,0.0015669130526304942,0.001838623838036918,0.0021461836457974475,0.0024251577912195723,0.002551738994473817,0.0024188962740703613,0.002008863633350084,0.0014172722076570797,0.0008125408222299474,0.0003529301902232393,0.00010887167251233461,3.373070864640213e-05,-4.363191965013938e-06,-0.00015211085581645563,-0.0005016400146202369,-0.0010539968910512044,-0.0017252868800712497,-0.0023837877881337658,-0.0028954475917445277,-0.0031575836654533537,-0.003113101769609064,-0.002751332052322913,-0.002106437351502512,-0.0012572052792885293,-0.0003210707096144806,0.0005669927841497723,0.0012891705749968688,0.0017771883509739538,0.0020238146001724114,0.002068699581244572,0.0019719123247475493,0.0017940392985390163,0.0015903052168312472,0.001410328314860286,0.0012907572503810176,0.0012388448051832367,0.0012195469155495662,0.0011618555773662402,0.0009874511140604684,0.0006471162089064595,0.00014354689392667605,-0.000470699342846177,-0.0011136904732135578,-0.001696851194657443,-0.0021388040634087355,-0.0023717924725467293,-0.0023493561420885674,-0.0020598598258626476,-0.001540505729091425,-0.0008802960648663774,-0.0002032265200947814,0.0003670593208714005,0.0007486443183341773,0.0009299541073860664,0.0009699995860551153,0.0009671029704714012,0.001008666867700182,0.001124678147918169,0.0012668028467127395,0.0013241611006312058,0.0011712955697081087,0.0007293530832326004,1.3899535228545563e-05,-0.0008533586670885121,-0.0016767196730154746,-0.002251068781698079,-0.0024331888905929867,-0.0021907325979892006,-0.001608647446104775,-0.0008510300839184937,-9.64940197543277e-05,0.0005232349130943608,0.0009557966635191543,0.0012230691052665954,0.0013884002004525718,0.001515695067640522,0.0016381929763708359,0.001746961173822561,0.001800324306256887,0.0017478089760786992,0.001556853308909538,0.0012293530126165164,0.0007998495742702763,0.00031720619660700216,-0.00017798439235458562,-0.0006649273547604867,-0.0011360363094539627,-0.0015796599193718002,-0.001968242317618749,-0.002262606413861693,-0.002427970281451952,-0.002446718662419043,-0.002316894769589067,-0.0020397705884014437,-0.0016109584877246497,-0.001027402324540183,-0.0003092784971083465,0.00047819178786410565,0.0012227211434084242,0.0017936833588039925,0.002093734230687566,0.0021072319278441437,0.001914962797923196,0.0016602239483424603,0.0014791853557968213,0.0014316535429092225,0.001471741315889557,0.001477412866629321,0.0013236537606545467,0.00095655720133204,0.000423501303761533,-0.00015885154209912926,-0.0006774418342290324,-0.0010880688899364515,-0.0014285467780562962,-0.0017699483292726796,-0.002139427327077551,-0.002470201952630695,-0.0026184272831150453,-0.0024422102533611097,-0.0018947127810737812,-0.001070967983542796,-0.00017569528141472628,0.0005712805492832738,0.001037042145924672,0.0012267911101563763,0.001258270907790941,0.0012796414681177876,0.0013824491295104761,0.0015594588624998598,0.0017250144321593265,0.0017757596210956858,0.0016484874879167518,0.0013414072079293636,0.0008950680572089849,0.000356873227615704,-0.000239749391919144,-0.0008665535663725658,-0.0014732912203659185,-0.0019700632870070763,-0.002241935180554294,-0.0021952668405586656,-0.0018106334806920442,-0.0011686500262509008,-0.00042863121493411853,0.00023271000521264386,0.0006918887994998989,0.0009228983987650265,0.0009942981896485716,0.0010224692273000427,0.001104266432312125,0.001260321997707085,0.0014153622286578087,0.0014268964392363769,0.0011534856761630154,0.0005349318100341273,-0.00035350466172382107,-0.0013052081602111854,-0.00205278292849485,-0.0023780261918162956,-0.0022072917687922266,-0.0016400631595437126,-0.0008936368058734129,-0.00019547133246845556,0.0003152279984538252,0.0006243591154882777,0.0008072611406060217,0.0009539865762692903,0.001107072426455574,0.0012462983066213334,0.0013187565109098996,0.0012845309181371018,0.0011452914986514165,0.0009411000565678451,0.0007227793123976054,0.0005193175356611507,0.0003188597920715158,7.28323512689511e-05,-0.000278081735230489,-0.0007665297225486977,-0.0013659371573016721,-0.0019795324480051547,-0.0024602731228824007,-0.0026573250342578334,-0.0024715864158949535,-0.0018975196595847356,-0.001033616234774617,-5.603573877425061e-05,0.0008358557211379999,0.001482130056962338,0.0018092885682180003,0.001843500590882373,0.0016859207441716501,0.0014623905587194325,0.001271077892435172,0.001151470211147776,0.001086044337988543,0.0010283308132461228,0.0009379842277205104,0.0008020625665003083,0.0006321722938327698,0.00044303879697206336,0.00023006332504623797,-3.603030131854319e-05,-0.00039142099860000517,-0.0008494389161149923,-0.0013797099814314366,-0.001911029160439667,-0.0023552951117291293,-0.0026353955189946064,-0.0027003516215347743,-0.0025246823471410666,-0.002102968790547039,-0.0014526877000237254,-0.000626971416947622,0.0002757738473134507,0.0011227761476161212,0.001783714372183437,0.0021781961321316588,0.00230569282221874,0.0022366033587122034,0.0020672852866652908,0.0018666245090841619,0.0016481140718461696,0.0013834031502708444,0.001043673747036026,0.00063641185914203,0.00021097655751265863,-0.0001691616946478579,-0.0004661305199292802,-0.0006913466661198965,-0.0008968791413882245,-0.0011382168089358639,-0.0014291649988527049,-0.0017156266023844002,-0.0018869681502224384,-0.001824676898773165,-0.0014669756651180426,-0.0008554071950158167,-0.000133174552493606,0.0005120659604238441,0.0009344108739975203,0.0010950460769101238,0.0010657147372426983,0.0009694247520119589,0.000899658189301813,0.0008705108668270217,0.0008239073066539231,0.0006800475923176594,0.00039329614730488575,-2.026281818636854e-05,-0.0004941946063761042,-0.0009475536480469794,-0.001318091089484267,-0.001571403367767855,-0.0016844811314185976,-0.0016232039921431688,-0.0013400015602848835,-0.0008029499245525678,-4.0377679697585185e-05,0.0008330947333416799,0.0016362272218894483,0.0021851225245063783,0.0023699935408458056,0.00220239719606336,0.0018059894115166036,0.0013556277295725728,0.0009977671764526928,0.0007921157305718413,0.0006980859770523513,0.0006039418817599396,0.0003792821823423363,-7.110700079327202e-05,-0.0007679025309087413,-0.0016414188990021188,-0.002543109945636454,-0.0032825802713471533,-0.003680917926392519,-0.0036242439417849747,-0.003099373517870958,-0.002199169128434262,-0.0010963356371168922,5.030207876060438e-06,0.0009254367226726612,0.0015580119082644482,0.0018939943414232976,0.002014592612139256,0.002047708676531585,0.002104147430313163,0.0022227011933317097,0.002354345994256335,0.0023965203103894117,0.0022582157586288473,0.0019161060887693208,0.0014274622252040759,0.0008945553318819772,0.0004069064379400571,-7.419602625559525e-07,-0.0003523633604140794,-0.0007025274734076754,-0.001100690026133571,-0.0015685948615259838,-0.002093659898897187,-0.0026287238390500104,-0.003092402871947728,-0.003376716595228923,-0.003372498476419802,-0.0030110324730215606,-0.0023026420979350266,-0.0013471721072161997,-0.0003052908202762889,0.000656163254912869,0.0014159203323125232,0.001923156911310537,0.0021912317080977606,0.0022729722809067027,0.0022329542473942246,0.0021251025816689194,0.0019788610571859853,0.0017979505068325477,0.0015748161733246287,0.0013146563303484031,0.0010512100173346724,0.000836029036345172,0.0007002114943388608,0.0006123306057460732,0.00046815480955565784,0.00013311467360945504,-0.00047644859791968986,-0.0013189513806960247,-0.002210455690719932,-0.002885919497164699,-0.0031134379434474366,-0.002801759192371068,-0.0020424634017939193,-0.0010652503860781076,-0.00013393517259949173,0.000559615836528384,0.0009526718991787815,0.0011021548726026838,0.0011263714740946836,0.0011341947917812918,0.0011749294774092277,0.0012259781333511888,0.0012164023294701234,0.0010694893650919422,0.0007413831256837715,0.00023870624601890093,-0.0003868675859912614,-0.0010550270649650922,-0.0016699683681545376,-0.0021272913437821103,-0.002325098377247232,-0.0021904455469009335,-0.0017165021586928607,-0.000986693441952332,-0.00015963734545607208,0.0005892024485475748,0.0011408100609277328,0.0014766318760903994,0.001665562039639217,0.0018041210105878105,0.0019505591342923235,0.0020944291989741593,0.0021757714949118654,0.002133831590762157,0.001948227906747463,0.001645817431681764,0.0012740924706478615,0.0008647471558815376,0.0004132401315836895,-0.00011527373949352382,-0.0007603273778215108,-0.0015344051217319726,-0.0023968138881646558,-0.003242075480112201,-0.00391096154660231,-0.0042292859888794715,-0.0040689165936930154,-0.0034087125873798777,-0.002362067292927364,-0.0011468343419441876,-4.0605980406024575e-06,0.0008945745171001396,0.0015002252000045706,0.0018736466997751812,0.00211875052671382,0.002307613839615327,0.002442801896410612,0.0024752078561083714,0.002358690951136299,0.0021004528194642916,0.001771251377507669,0.001467295883317158,0.0012477763950288513,0.0010887984402916217,0.0008862538815629477,0.0005115729515432629,-0.00010845727055536944,-0.0009339220241210669,-0.0018117032866599475,-0.0025351360407578232,-0.0029300461241220026,-0.0029203808133218176,-0.0025429399647916157,-0.0019132862178820609,-0.0011708942576994599,-0.0004357715307811499,0.00020760976084805284,0.0007056949496322049,0.0010290244890199555,0.0011757338225665715,0.0011812297282007538,0.00111784010285556,0.001071592648021918,0.0010997783442712634,0.0011903713052912764,0.0012504963946281084,0.001140557819711271,0.0007464441734816496,5.614926146310824e-05,-0.0008037883577853959,-0.0016008330241499996,-0.0020895326717443453,-0.002119870596413952,-0.0017036604429948293,-0.0010040011673776543,-0.00025609567998268075,0.00033543040282891763,0.0006700774524443375,0.0007669167877731118,0.0007280088725097277,0.0006780964421596513,0.000709305534949188,0.0008476354943981739,0.0010468749306922775,0.0012087421762267776,0.0012216941484846423,0.00100436669164028,0.0005377970711669019,-0.00012384793100865066,-0.0008651725020769961,-0.0015382976167175985,-0.0019998795911737614,-0.002147447621299165,-0.0019465689580569936,-0.0014417144821685167,-0.0007464853889992632,-1.3309928095578231e-05,0.0006111123811194802,0.0010313448533995676,0.0012318700440981521,0.0012738177717001374,0.0012575685062160913,0.0012674912100718411,0.0013275818118851936,0.001392392642832993,0.0013764175550882158,0.001200974745470651,0.0008289679567692538,0.0002716568585579991,-0.0004246755740242242,-0.0011920963275583256,-0.001943558225063489,-0.002572362150162894,-0.002963983726317178,-0.0030250260451912666,-0.002716810826336038,-0.002074167113490049,-0.0011983549886773318,-0.00022772644238822147,0.0007006574088777113,0.001483809307174962,0.0020688617410612453,0.0024477599305691745,0.0026357001922290802,0.0026477298063638504,0.0024891577400138775,0.0021651343830684185,0.0016997683701481113,0.001147550473891849,0.0005857090827013033,8.97637175312539e-05,-0.00029526317133472466,-0.0005743454770216426,-0.0008035300959027279,-0.0010688019739877354,-0.0014455155720934016,-0.0019510764174811568,-0.002513110427488802,-0.002975312965391498,-0.0031480461367848975,-0.0028867158485740047,-0.0021628051662779344,-0.0010921717704991955,9.654433067008707e-05,0.0011433686082649947,0.0018546329063681998,0.0021729317817871883,0.002184408636040391,0.0020566273391015725,0.0019382120298037271,0.0018776688266867918,0.0018114506937329754,0.0016284384990655288,0.0012659776934296455,0.0007690793006381556,0.0002688299899543125,-0.00010661159827175934,-0.0003248759840906515,-0.00047655678402929065,-0.0007122020303459884,-0.0011298992905530284,-0.0016915173219088412,-0.002226137472041545,-0.0025178481599551694,-0.0024190210050956612,-0.0019195367968716352,-0.0011392745800046639,-0.00026273866937643524,0.0005367985939995429,0.0011447620345907848,0.0015153102876174316,0.0016588846521148287,0.001625080941378172,0.001486075183865239,0.001315004115345871,0.0011568769581124035,0.0010035189006048387,0.0007928967433267369,0.00044370609312885997,-8.793675992670624e-05,-0.0007622816989733402,-0.0014505071636462053,-0.0019769940703158488,-0.0021886577313812564,-0.002016841333632079,-0.0015033835828616037,-0.0007818338024917643,-2.543655897550742e-05,0.0006138452528056232,0.0010500605963237783,0.0012763491640816966,0.0013466805830990164,0.0013401248464616079,0.0013254067466405704,0.0013369676688900884,0.00136452281538919,0.0013548084688941556,0.0012267637009490823,0.0009013797633143853,0.00033951787871394775,-0.0004289112248346041,-0.0013014379372853508,-0.002129481559890006,-0.002762239085845679,-0.0030876285496466106,-0.0030553462568419032,-0.0026790894196320647,-0.0020239941495548146,-0.0011874928022894875,-0.00027950580325709993,0.0005948786709640898,0.0013484928327797785,0.0019200122555319526,0.0022772568461343658,0.002417853614954709,0.0023683885550354966,0.002179926934648153,0.001916077438594959,0.0016335155784267144,0.0013624186384387739,0.0010987353716041919,0.0008156381017995653,0.0004887972171715286,0.00011827479897337935,-0.00026998813713306606,-0.0006451734514438466,-0.0009983428107957026,-0.00135169451395586,-0.001739125986567773,-0.002168207363470597,-0.0025884153896641006,-0.0028892897571988953,-0.002936531231105965,-0.0026326111947403853,-0.0019721302075669184,-0.001060398219352814,-8.010401925975936e-05,0.0007809448141661367,0.0014039576468543244,0.0017746225138186235,0.0019615892909153345,0.0020551811196761055,0.002108425788707389,0.002117930966972904,0.0020502348657044644,0.0018844854801243673,0.001632901571610234,0.0013237716511202734,0.0009668427752818275,0.0005373541763233132,-7.899387136797134e-07,-0.0006465998021990415,-0.0013270601988001763,-0.0019087660396143388,-0.002255495367674786,-0.0022949252422652692,-0.002049068038651258,-0.001610001186107269,-0.0010826025324731329,-0.0005364472120315953,3.892907661540677e-06,0.0005324783424314633,0.0010259942623419495,0.0014263552722185103,0.001653916572763054,0.0016430039314638356,0.0013785605896656113,0.0009117784442619198,0.0003435169349262099,-0.00021736526572021706,-0.0006976449392702465,-0.001079479927017497,-0.0013847110615770395,-0.0016352475818056933,-0.001817112000091829,-0.0018729933821365204,-0.0017286519220255008,-0.001336551898126879,-0.000710481454831415,6.801982757977869e-05,0.000873750993824661,0.0015790628463900305,0.002092115348796061,0.002376366076666382,0.002446914186236591,0.0023508079470526654,0.002143480627728561,0.001870478232328203,0.0015568905582405686,0.001202790672076667,0.0007842627127023113,0.00026308193180301113,-0.0003920410806543615,-0.0011762757425193937,-0.002024380418833948,-0.0028080976869815357,-0.003365021306900226,-0.0035525906011626193,-0.003304823619598829,-0.00266416233861077,-0.0017709965012295903,-0.0008138478535949212,3.773835346129154e-05,0.000687865490797834,0.00113335213589046,0.001440695556641357,0.0016936838159949301,0.0019383235528024699,0.002153864260590238,0.0022662784063516767,0.0021973821676977024,0.0019201091290930487,0.0014832396759895282,0.000986099771089388,0.0005178050726242777,0.00010295473111985974,-0.0003062419394023232,-0.0007835505404483088,-0.0013589301950715199,-0.001972770328342151,-0.0024848320526947186,-0.0027328670855576763,-0.0026065568852122432,-0.002096551836876583,-0.0012958791197820187,-0.00035885754253692166,0.0005555910083631754,0.0013255597304186533,0.0018774102669478945,0.002174688543859562,0.0022066185672995177,0.0019917839382494595,0.0015915998419732337,0.0011112063181449524,0.0006695418092404975,0.0003455248484710771,0.00013373359830162312,-5.375018433665226e-05,-0.0003301681987392226,-0.0007525706117902393,-0.0012690031399299364,-0.001732409448945938,-0.0019756889210176833,-0.0019010886262645836,-0.0015282634540287289,-0.0009747931929088451,-0.0003880629702161458,0.00012429076100061213,0.0005242735568374062,0.0008251680497977817,0.0010498758068978255,0.0012015793945595007,0.001264607880395507,0.0012244641987702253,0.0010814469984019458,0.0008437583292347003,0.0005107413836166952,7.015936883148681e-05,-0.0004782622703245671,-0.0010871970020247621,-0.0016451502659830225,-0.0020016902599190732,-0.002028599541425425,-0.0016835432363717776,-0.0010368023401091141,-0.00024244588131703323,0.0005300385508953797,0.0011626250328908112,0.0016158378391728648,0.0019067968939014742,0.0020628588649506995,0.0020887914995018466,0.0019692259394105543,0.0016972718934808336,0.0013002656199614976,0.000839038641450404,0.0003801007114563481,-3.946249032036502e-05,-0.00043065553675645575,-0.0008423351333643098,-0.0013257643138100132,-0.0018903302507192808,-0.0024729822553209877,-0.002941811945917737,-0.0031407565852041497,-0.0029593288414208386,-0.002391101495605879,-0.0015448311866035835,-0.000598252850848425,0.00027911534467378834,0.0009881167840054843,0.001513089589078673,0.001886611894364655,0.0021379144905187227,0.0022634340230218036,0.0022369900571799642,0.0020462130926067056,0.0017241896476009155,0.0013515261735398921,0.0010260988986655797,0.0008181670973727449,0.0007350906714955068,0.0007126428459688014,0.0006367745975116655,0.0003879064813384267,-0.000107937895325399,-0.0008400162442899612,-0.0017019360182224331,-0.002515814201061513,-0.003085133351237495,-0.0032580085321390418,-0.002977567106426391,-0.002300572182294697,-0.0013776123749238284,-0.0004030184438064074,0.00044597329680931596,0.001058039117115408,0.0014080280643651612,0.0015449840319133273,0.001557382653490959,0.001532019424159265,0.0015216340038403287,0.0015298666962016766,0.0015155491437300358,0.0014138416681910798,0.0011678599680364412,0.0007597275680576822,0.0002269899784702234,-0.00034568354102569067,-0.000857243158359819,-0.001227629795375913,-0.0014219615135768133,-0.0014509782036224964,-0.0013522152783939057,-0.0011660541030837604,-0.0009203234507502261,-0.0006296173807737903,-0.0003063948502393737,2.5983439239944802e-05,0.00032993928148460387,0.000565954022665862,0.0007142935657888354,0.0007896828458879303,0.0008334735050394343,0.0008825064115310643,0.0009328030641315385,0.0009247706114715791,0.0007662615994343801,0.0003858069427474459,-0.0002130361737371102,-0.000928680687071407,-0.0015854467633389785,-0.001994682818147328,-0.0020251225806388728,-0.0016520993371524416,-0.0009668414379755331,-0.00014457152949584774,0.0006148920786756694,0.0011523733692129078,0.0013981090363106774,0.001387202270151425,0.0012356801326510948,0.001085513935447127,0.0010404862825888926,0.001120632348940853,0.0012561366936186854,0.0013231791361906367,0.001203068255468702,0.000834516850811209,0.00023486738501694512,-0.0005141486709809228,-0.001300448703879977,-0.0020129815718827196,-0.0025576332550418497,-0.002861040475959782,-0.002874226067885552,-0.002582812592757939,-0.0020187378139865163,-0.001261930476081493,-0.0004245999514023958,0.0003787615429048732,0.0010633523899006082,0.0015924409261028239,0.001971527020346839,0.0022208906685202904,0.0023447966678006417,0.0023214632959144884,0.0021248726776513555,0.0017638111580251124,0.001305538141395645,0.0008583912607512385,0.0005166049757616655,0.00030035898466021515,0.0001325797686267795,-0.0001254340508998534,-0.0005933467349520066,-0.0012900320824864881,-0.0020993596982160014,-0.0028065825498001526,-0.0031878379324296424,-0.0031057782331295495,-0.002563938502634436,-0.0016983505755548377,-0.0007180228357228787,0.00017316651838494395,0.0008393522044928194,0.0012400508741448298,0.0014197692054185318,0.0014715477443071146,0.0014921641037053475,0.001545147622654462,0.001641160732747126,0.0017374645424255632,0.001752998146880489,0.001594696851880472,0.001191646730646072,0.0005319066413527664,-0.00030934472594305743,-0.001167387038618271,-0.0018249381431012643,-0.0020855046019210106,-0.0018566740516039204,-0.0012024847808405458,-0.00033218359964340524,0.0004770877597199293,0.0009906206828215248,0.0011073160896770938,0.0008884826018221404,0.0005127170141819098,0.00018195699794757748,2.6075705951893267e-05,5.0892139737485336e-05,0.00014992390986925605,0.000167231984191339,-2.4661528593441194e-05,-0.000468887081127039,-0.0011084392407532374,-0.001805755612437336,-0.0023825366109140106,-0.002667901085545314,-0.00254767314181986,-0.0020043272185901913,-0.0011307501192767357,-0.00010437154919779523,0.0008741150617806409,0.0016518366196331498,0.0021699848852680084,0.002461897752065545,0.0026061944770902055,0.0026647816036172566,0.0026447408263860607,0.002506471177155963,0.0022076238911812596,0.0017469986093973404,0.0011743894362474423,0.0005602568432294354,-4.880953687808054e-05,-0.0006517087069506057,-0.0012726440952713393,-0.001913574560473967,-0.002516479438884705,-0.0029671225887850927,-0.0031417613979166413,-0.002966267943551966,-0.002449107613006744,-0.001672052196023311,-0.0007549971981499137,0.00017546882765408938,0.0009995054791776944,0.0016100584116069709,0.0019294461448264547,0.0019377119249966244,0.0016917886197008623,0.0013106949832565069,0.0009227351118498484,0.0006004578225066344,0.000324586359020367,5.696734008653792e-06,-0.0004426350454789633,-0.0010217556622331924,-0.0016116233737968107,-0.0020108092208041767,-0.0020352572722140113,-0.0016179293288685831,-0.0008482561018444057,7.155014299781203e-05,0.0009227710311394955,0.0015576791705199536,0.0019301113449570401,0.002065927969429366,0.002010838096278813,0.001799363016459639,0.0014603130228287044,0.0010383803949318364,0.0005987781193664253,0.00020101440093157755,-0.00013948377976011925,-0.0004660403759136492,-0.0008498980861164182,-0.0013274211960569906,-0.0018476838818720803,-0.0022712913069718303,-0.0024286558735357585,-0.0022056308651617583,-0.0016059995484128972,-0.0007561148290858598,0.0001469841659050761,0.0009126865970188953,0.0014204887806658234,0.0016450416724520078,0.0016396665333682395,0.0014944558995355992,0.0012928650729984023,0.0010853017721771478,0.0008848097582927314,0.0006778259955507876,0.00043913397209583593,0.00014457928268038988,-0.00021841713448002005,-0.0006411173344203454,-0.001087533279358896,-0.0014985193424854773,-0.001807137850946371,-0.0019567865255086725,-0.0019105298749771717,-0.0016493770912605376,-0.0011698390430802015,-0.0004923467002296228,0.00032096276996446864,0.0011552288219212172,0.0018563134262349038,0.0022727465196475797,0.0023114631314761483,0.0019809723359999845,0.001397626419625639,0.0007458067974658684,0.00020483481814327154,-0.00012545541661094595,-0.0002628418097977743,-0.0003216560263979083,-0.0004411040852608653,-0.0007018137611329324,-0.001077111320651977,-0.0014439398279871918,-0.0016429105556713393,-0.0015521950151116315,-0.0011393942302526045,-0.00047363846343564573,0.00029917005890025975,0.0010036908903705327,0.0014887959442067052,0.0016723309259933134,0.0015630784800560312,0.0012508843711046649,0.000866958982393636,0.0005294349700347636,0.0002964028026355629,0.00014579438369691276,-9.020271748268953e-06,-0.0002726321144407083,-0.0007078167237520592,-0.001288906041060479,-0.0018926106909317223,-0.0023354265353192627,-0.0024445899818521604,-0.0021325106051280057,-0.0014416959841802315,-0.0005388446509127847,0.0003428107195960925,0.000992151180650509,0.0013034493346810116,0.0013157522800395075,0.0011860865044342472,0.0011055295692719196,0.0011988625318047823,0.0014607667218981058,0.001763348856505581,0.0019292333235583386,0.0018260750510042446,0.0014275637382949223,0.000810613301113912,0.00010112165800345557,-0.0005891753028356429,-0.0011946739772446466,-0.0016857157519813018,-0.002036442948865954,-0.0022025277637536464,-0.0021287916890269385,-0.0017832741724282464,-0.0011952128589672252,-0.0004701929763663896,0.00023234390783932008,0.0007530243132366418,0.0009931671039783091,0.0009520629024820438,0.000722524419242836,0.000448156266121167,0.0002641387288296608,0.000247707593043673,0.0003951920373867538,0.0006283816242441996,0.0008232910855841677,0.0008517567052923958,0.0006265997397427183,0.00013919912950036899,-0.0005248722941035766,-0.0012039542160043049,-0.0017112251833798166,-0.0019001529772195058,-0.0017162250956355442,-0.0012121425971523025,-0.0005216925008073585,0.00019286237487045426,0.0007949951618629288,0.0012084316698574532,0.0014233458040102016,0.0014789442944131703,0.001434825670472902,0.0013438285706681716,0.0012342508865860271,0.0011034123518774948,0.0009211311830601672,0.0006416276863025956,0.00022343236795204185,-0.00034432660572331157,-0.001016207007397528,-0.001679270685836445,-0.0021717262645031448,-0.002335354155938505,-0.002084102645485377,-0.0014536733991306603,-0.0005995925276886379,0.00026221437902361857,0.000943207360963288,0.0013502741578773727,0.0014983270587398357,0.0014678809089935015,0.0013419156342950973,0.0011636007000811438,0.0009339662928226403,0.0006367753888007878,0.00026283939323820714,-0.00018306533781835884,-0.0006872430159212931,-0.0012277542861155906,-0.0017638283198290025,-0.0022247684064771816,-0.0025153055054960155,-0.002542004296999865,-0.002246679543732485,-0.0016265148600711078,-0.0007325365336688531,0.00034442111065330957,0.0014855231905455705,0.002549002623349398,0.0033778871239250286,0.0038231669520364256,0.0037848493646925056,0.0032570628404322076,0.0023522383111150543,0.0012821061152199303,0.0002923024280469988,-0.0004252517903439363,-0.0008000980112272035,-0.0008961405126954741,-0.0008653699782035717,-0.0008715178167396536,-0.0010251480987766553,-0.0013561223216466659,-0.0018211429299263742,-0.0023266572077076655,-0.0027516777448639827,-0.002970789478178572,-0.002884907815673237,-0.002457424462092045,-0.0017375453170793947,-0.000850283962856903,4.9424260669041534e-05,0.0008359819220776898,0.001452150309498948,0.0019069000891593175,0.0022386832240504605,0.0024729084260003745,0.002603049926932394,0.0026039861326985795,0.0024606913485489585,0.0021855624088869385,0.0018102110266579353,0.0013605461379042933,0.0008380032670914864,0.0002246836811243803,-0.00048817020638921335,-0.001266147044027859,-0.002015189018976912,-0.002597259147000741,-0.002875457399955997,-0.0027688288677571297,-0.00228995293655164,-0.0015460406184199238,-0.0007025421074341702,7.364315699440118e-05,0.0006660464396113161,0.001034664631335645,0.0012084830128408401,0.0012525374605112907,0.0012285629903216102,0.0011686101630392738,0.0010705859136123028,0.0009113531141582529,0.000666306801707484,0.00032643347516419586,-9.096009963432039e-05,-0.0005393144336584521,-0.0009495740466908245,-0.0012472151531479647,-0.001374676432927151,-0.0013086284083291403,-0.0010624542401999949,-0.0006738627852636574,-0.00018882952558813655,0.0003445158852707032,0.0008687545990984818,0.001308393101047879,0.0015765755881487421,0.001603715001866267,0.0013746087188711885,0.0009478579226693316,0.00043812945166871544,-3.446026499110799e-05,-0.0003996940993624646,-0.0006636040986675504,-0.0008894985362560837,-0.0011451970926259027,-0.0014474974708286346,-0.0017352921257689133,-0.001886521655413535,-0.0017718353649693154,-0.0013203357511631303,-0.0005667976279258352,0.0003433022048695102,0.0011976400915411347,0.0017953648648480593,0.0020280265277431066,0.001925694660727392,0.001642317000413737,0.0013810019319268334,0.0012910742973601067,0.0013879449853374548,0.001540013690130884,0.0015333619869068867,0.0011823148598670257,0.000428052812250544,-0.0006253949854619366,-0.0017531071271959736,-0.0027026439604977467,-0.0032881704400065117,-0.003440922734454553,-0.003201910565974575,-0.0026757353350470954,-0.001979093637716695,-0.0012087422722978347,-0.00043366273221403097,0.0002984889214282252,0.0009526332876007647,0.00150109928732709,0.00192182945172622,0.0021982042595194845,0.002320716171559977,0.0022918629477499714,0.0021325736111530618,0.0018834983926664462,0.0015944360962792624,0.001303208803040187,0.0010152698439184506,0.0006976965216442001,0.0002937150090419328,-0.00024681234909366696,-0.0009323438432252392,-0.0017034584090424058,-0.0024284449063327277,-0.0029302064553234273,-0.0030438508662288043,-0.002687168395076628,-0.0019109183873361555,-0.0008967524485799514,0.00010540153795185437,0.0008728787435849103,0.001289029110076565,0.0013663691969957854,0.0012122113803859937,0.0009676530743659084,0.0007547526821374964,0.0006463919728788266,0.0006542362578792491,0.0007287513777003013,0.0007739526340727969,0.0006816514399126747,0.0003799825081611545,-0.0001223601773954891,-0.0007198529865613274,-0.0012367487100942826,-0.0014913763381479179,-0.001371549821199904,-0.0008851841677085833,-0.00016078389725070338,0.0006021543886194219,0.001207915829554146,0.0015298129420148192,0.001540476634633952,0.0013019761408908635,0.0009280660731437261,0.0005367790399107828,0.00020798512844678744,-4.366013381347186e-05,-0.00027041734476694547,-0.0005605727492659033,-0.0009809226335676315,-0.0015189091547316562,-0.0020607842942112473,-0.002426765837511936,-0.0024490654641863585,-0.002050082755314797,-0.0012788007310284158,-0.0002911787511092085,0.0007083517762090222,0.0015332448649075497,0.002063577248563206,0.002265564790415059,0.0021826155750001713,0.0019069646412697124,0.001545175512316207,0.0011896010727279554,0.000901207864540727,0.0007017232954192752,0.0005712732541830439,0.0004523947932496794,0.0002658145459884753,-5.9765514531647684e-05,-0.0005520440784652278,-0.0011707024851027755,-0.001809613903428761,-0.002328261057909682,-0.002599105224609729,-0.0025494380664512948,-0.002180884606346521,-0.0015631237718773735,-0.0008101882021511243,-5.033662843142777e-05,0.0006037663408127354,0.0010806048612311773,0.001364847065480487,0.0014939028073645698,0.0015340691475971473,0.0015464053948668613,0.00156033004168971,0.001568346714331822,0.0015408563521755463,0.001446866481687279,0.001264771384951416,0.0009784100962055872,0.0005683866465718103,1.4751635097655369e-05,-0.0006814204262491021,-0.0014675937133508403,-0.0022237546816486096,-0.0027818001395439797,-0.002982137673979966,-0.002743547397277427,-0.002107345991513683,-0.001226317058122918,-0.00030060636211115625,0.0005035792445205315,0.0011060188097896145,0.0015100431342256549,0.0017575666380413063,0.00187891071091609,0.0018716077332360647,0.001716862891409581,0.0014151756059577654,0.001011480347928273,0.0005891544204646723,0.00023340239661448449,-1.4859331533313973e-05,-0.00018481056659781949,-0.0003605728346262934,-0.0006281298555997147,-0.0010122789683736672,-0.0014411796765088595,-0.001762830521920401,-0.00180979207683783,-0.00148269373991009,-0.000812437884434345,3.1573979620731774e-05,0.0007980293399624908,0.0012562630943073626,0.001299512713044411,0.0009955966640870584,0.0005525619948567023,0.0002106326386462523,0.0001149871386085773,0.00023872621334081483,0.0003997251140116976,0.0003630695295401133,-2.5747430838908396e-05,-0.0007458148673655735,-0.0015904583529533526,-0.0022459378000542125,-0.0024238127071472297,-0.0019886295945781163,-0.00102305146705714,0.00020195113292088222,0.0013405806741250024,0.002115494202017255,0.0024201504433787246,0.00233181574460771,0.0020374603437149285,0.0017225670258782188,0.0014874796855783425,0.0013300744162193386,0.0011878923038614775,0.0009993258684220401,0.0007413710450391654,0.0004262493589592574,6.999726429304727e-05,-0.00033725096351144737,-0.0008345195941321804,-0.0014620437466882857,-0.0022185205224358622,-0.003029737532189241,-0.003748850681640441,-0.004192158154411393,-0.0041972763706018415,-0.003681255732823927,-0.002676906823111764,-0.0013341473322946206,0.00011504861457467671,0.0014187583583710629,0.002377043623196257,0.0029014214005157433,0.0030387820119401198,0.002944498465099597,0.002808833833580932,0.002765775484764763,0.0028287583431120945,0.002889262640486463,0.002782542614715916,0.0023869479259912797,0.0017018949010971568,0.0008584929950122735,5.357346490739525e-05,-0.0005570358548685062,-0.0009437478121618944,-0.0012149929017239995,-0.0015462947218450327,-0.0020672479615284085,-0.0027726624785174366,-0.0035087922753619296,-0.004039523038866757,-0.004151893992972379,-0.0037445154342597748,-0.0028615992917456123,-0.0016695897176330309,-0.00039749489104463237,0.0007334167274476415,0.0015707292371735146,0.0020672900146039576,0.0022801042386863157,0.002328803806988138,0.0023303121888031343,0.002343151121170401,0.0023519800694062863,0.0022976269251350876,0.0021277699809263625,0.0018319555572724772,0.001439743097007009,0.0009891764366357363,0.0004931668004387452,-6.878506066653237e-05,-0.0007244762000625312,-0.0014636548533802382,-0.002204130163154595,-0.002797046107640885,-0.003077483716212944,-0.0029378780522413064,-0.002383981393760459,-0.0015397309161958345,-0.0005963063639665093,0.0002663333951664954,0.0009418812484103502,0.00141262924724974,0.0017161853067473056,0.0018921371909067677,0.0019457343299006417,0.0018500145310814363,0.0015792806069798116,0.0011451520751328088,0.0006061861454132913,4.2941575783611444e-05,-0.000482929152865374,-0.0009541476035612121,-0.0013873779039113928,-0.0017935089839003194,-0.002138339172029652,-0.002334855958190515,-0.0022769542669904756,-0.0018961808953845962,-0.0012079869754084002,-0.00032069796060904977,0.0005981171720053783,0.0013813511369015325,0.0019199972241491995,0.0021924193998538012,0.002252690860981251,0.002185921671317388,0.0020561179518596684,0.0018762070477489224,0.0016163856288479443,0.0012429529907050738,0.0007600349533089666,0.00022431017758482242,-0.00027961152231197506,-0.0006890109340964816,-0.0010053247970472287,-0.0012973021900255608,-0.0016552021171367395,-0.002117788972162534,-0.0026171977095175553,-0.0029839623675885257,-0.003021167622589177,-0.002610813786576706,-0.001789247084278082,-0.0007434716523937283,0.0002720063470412654,0.001050057227151928,0.0015131296749153283,0.0017216420657421416,0.0018125439746959553,0.0019094993774100395,0.002055620772583542,0.0022006935025070777,0.002242316626056922,0.002092903539382569,0.0017346226121744265,0.001234172334661872,0.0007111622244818268,0.00027662588466493155,-2.695089474452579e-05,-0.000251278392875993,-0.0005155088334239727,-0.0009362473643390276,-0.0015500935053648955,-0.00227308119536793,-0.0029231299179710846,-0.0032953187556193373,-0.003248445486795131,-0.002756712012654829,-0.0019059444998170095,-0.0008497609333194602,0.0002403690625103368,0.001207577756915816,0.001925373371388323,0.002311430485806249,0.002347275429019129,0.0020945919757100143,0.0016890914839454807,0.001300224800768251,0.0010654861756640632,0.0010277974960282846,0.001109364376545743,0.0011408431468253218,0.0009382224276560846,0.00039552108527011055,-0.00044884622510959885,-0.0014057526299705197,-0.0021986286779562413,-0.002574428747606556,-0.002414366525167854,-0.0017901964567835571,-0.0009339358673670427,-0.00013259423516898833,0.0003989932803129201,0.0006014809427844927,0.0005707467514732445,0.0004827930347070672,0.0004920806953783565,0.0006584483576498213,0.0009325306703311549,0.0011934195466028225,0.0013085961555173826,0.001184797298787922,0.0007937867585045258,0.00017525238924610874,-0.0005723312474562579,-0.001306782369168369,-0.0018670851983241758,-0.0021135273973038335,-0.001976485713102315,-0.001491416824231229,-0.0007950040542941341,-7.536502154898166e-05,0.0005029279520351249,0.0008610102316569977,0.0010235318150139182,0.0010861129526772808,0.001153678003375624,0.0012836201049137746,0.0014608766374321265,0.0016119569244521835,0.0016442683418210382,0.001487161294924395,0.0011158731584127311,0.0005533701686670706,-0.00014240054169827932,-0.0008942322175691342,-0.0016168346971352342,-0.002223163864265534,-0.0026306404045002693,-0.0027719956147797906,-0.0026108252811329587,-0.002156046796945468,-0.0014668743519917202,-0.0006430850597084687,0.00019739417662267361,0.000945005019683422,0.001519335720288891,0.0018788298569909615,0.0020202844320995586,0.001972104946450408,0.0017843962445195872,0.0015168781293415589,0.0012251636323824468,0.0009475874579269263,0.0006968961839811376,0.00046117281087275364,0.00021467660623851204,-6.646790754577243e-05,-0.00039156210343632854,-0.0007500959143260559,-0.0011126020827443145,-0.0014343886954370855,-0.001662216764319766,-0.0017465020641661776,-0.001658438898291093,-0.0014050779185922342,-0.001032718452672256,-0.0006135362740067909,-0.00021937843825996619,0.0001056679726225561,0.00036047074591912713,0.000581536553073215,0.0008187148492811124,0.0011027606984654026,0.0014196620837626315,0.001704028301397775,0.0018561988613335911,0.0017779748891252382,0.0014137209625833848,0.0007808317830696094,-2.2690034038141352e-05,-0.0008381286455581645,-0.0014894197200944715,-0.001837417860073349,-0.0018255453070130244,-0.0014969555269258785,-0.0009739207409419589,-0.00040827323628316785,7.357964803026383e-05,0.00040632394309914575,0.0005901952621422497,0.000669746859574291,0.0007026159724916456,0.0007323904947287851,0.0007718386739855079,0.0007973282647485394,0.0007551547479303241,0.0005811291659061963,0.00023069795611918478,-0.00029085400310522864,-0.0009128726394051569,-0.0015089041209187695,-0.0019310541816908696,-0.0020582406436793375,-0.001841200412283062,-0.0013258914084465115,-0.0006418587162891945,4.4887405906929385e-05,0.0005967382077970558,0.0009562154124154456,0.0011568447038043553,0.0012867467780695058,0.001426362057382883,0.001597881206182147,0.0017563455721874644,0.0018248875373485655,0.0017477701633537355,0.0015249100715788815,0.0012067543425265989,0.0008565677492228722,0.0005078720233670208,0.00014502006849348458,-0.0002824864862660157,-0.0008224286115244895,-0.0014809368132925956,-0.0022014700921410123,-0.002869856870920606,-0.0033426806226871195,-0.0034899823222388675,-0.003239689300957996,-0.0026082440293422027,-0.0017025864088798463,-0.0006880707103948517,0.0002662956668941759,0.0010403888618577865,0.0015893669211082325,0.0019358118632089001,0.002138448292218455,0.0022573090652923756,0.0023306332631883556,0.0023674157374107543,0.0023513176142767513,0.002251075763277988,0.0020357202991080595,0.0016926971669674793,0.00124179379585209,0.0007341334887628862,0.0002308688784234303,-0.0002300316582420542,-0.0006579432740215956,-0.001103871061015606,-0.0016209029383183256,-0.0022113913513231867,-0.002795752973978157,-0.00322878091876637,-0.003360495264403613,-0.0031087988018564452,-0.0025016413126829114,-0.0016645613823697797,-0.0007631060753207023,6.449684343831584e-05,0.0007475575923186464,0.0012804993093341525,0.001689636723824097,0.0019960941551734022,0.002197449209657665,0.0022739612794894152,0.0022095234035340817,0.002011629639553629,0.0017185503795763828,0.0013899262529976871,0.0010840528934607724,0.000830033525692867,0.0006069377510899735,0.00034411708374212143,-4.827106924591262e-05,-0.0006251953760155911,-0.0013552689203520818,-0.0021050149046890365,-0.0026758821786675314,-0.0028800733977274277,-0.0026180400749359458,-0.0019212006965179209,-0.0009443153645217013,8.414980638064991e-05,0.0009322936845748884,0.0014333573549190123,0.0015341258828617565,0.001308240116053381,0.0009256831825410442,0.0005838551189083388,0.00042499977007987716,0.0004765862318485232,0.0006439921716760791,0.0007598631117150477,0.0006660948744012757,0.00028907377124756943,-0.00032555147383290893,-0.0010305887488845794,-0.0016349039637160476,-0.001973143387217175,-0.0019591927456993202,-0.0016060811442440513,-0.0010106861284537175,-0.00031442831538119474,0.0003431279651496537,0.0008621326190282718,0.001201553045046339,0.0013761466934202634,0.0014349982327999397,0.0014319618055970947,0.0014023235906836246,0.0013571576084335075,0.0012952930847974326,0.0012187925583490907,0.001134171169479125,0.0010350511254761706,0.0008824625526340762,0.0006066583640393875,0.00013967428611592816,-0.0005374213423384947,-0.0013631248441568521,-0.0022025431627175807,-0.0028916387346198226,-0.0032949597666613595,-0.0033467058758547812,-0.0030573312540134244,-0.00248974329738035,-0.0017260857905925704,-0.0008473411485658299,6.663630739887574e-05,0.0009279044908736023,0.001640994977342833,0.0021226927204258525,0.0023324797803416825,0.0022938254237023442,0.0020902289141111986,0.001834717562895526,0.0016266645595755286,0.0015161839008794266,0.0014912936715525437,0.001490606207453366,0.0014322120982216016,0.001244138675011797,0.0008849378914745141,0.00035107289805297185,-0.00032532744556532534,-0.0010833973459170691,-0.0018430068435169953,-0.0025162708804727218,-0.0030187014248596322,-0.003276647107344666,-0.003232338038378068,-0.0028540530593729636,-0.0021563635980526553,-0.0012215474106327573,-0.0002006721823436565,0.0007220485569017277,0.0013936109316250414,0.0017516933690956017,0.001841840607078204,0.0017797783626381874,0.0016826717652526934,0.0016129069497623455,0.001565679741805465,0.0014982652886670097,0.001371420257762677,0.0011714913046052306,0.0009031365781392857,0.0005679513993017055,0.00015407211178614447,-0.0003499384896393982,-0.0009261542848568347,-0.001507467270791656,-0.0019865831840113796,-0.002253122728158927,-0.0022377807576935546,-0.0019379424605235989,-0.0014128810491385053,-0.0007565387476258126,-6.674032667065301e-05,0.00057412546193551,0.0011043790493806328,0.0014821436836041542,0.0016869999878671624,0.0017244723903405926,0.0016243858031683679,0.001424846176989694,0.001146401641229596,0.0007749950450364447,0.00027274865321142,-0.0003818604130491777,-0.0011465233741118127,-0.0018936779976955797,-0.0024371314009414206,-0.002600801851029409,-0.0022970422893997307,-0.0015736102698101332,-0.0006031610738495593,0.0003815892069754445,0.0011761174168743024,0.0016731370175419064,0.0018807039081502705,0.0018858978908084473,0.0017902401325522715,0.0016560995372408936,0.0014917899019482473,0.0012747885985395578,0.0009870101533162425,0.0006315929142454195,0.0002204881638046187,-0.0002495724305466751,-0.0008022588975731033,-0.001452401043844252,-0.002158683331802015,-0.0027970052681379805,-0.0031855169324956816,-0.003158095294571921,-0.0026475525507380342,-0.0017295998359596167,-0.000600673295576537,0.0004988602992495768,0.0013753928979750897,0.0019422945853344318,0.002225453094120952,0.002319361996581287,0.0023220082060914546,0.002283825424896028,0.0021951079501300918,0.002013282445240537,0.0017083217487412032,0.0012943874934985746,0.000825135349286532,0.00035469567816287344,-0.00010796581557090141,-0.0006141279925996618,-0.0012392358941693288,-0.0020105010512889198,-0.0028440892224550654,-0.0035404903460383485,-0.003855056505476687,-0.00361328037263978,-0.0028080434874280967,-0.0016210659745789023,-0.0003517186976458355,0.0007112250786953744,0.001407113716390857,0.0017494033791659877,0.0018807058794564444,0.001968695900527619,0.002105839020432483,0.002269160298590224,0.0023563486933358972,0.002266648666987047,0.0019698337449687107,0.0015197931129113484,0.0010103834227038985,0.0005106308404753343,2.6877264952714628e-05,-0.0004839942946982069,-0.0010636572098800781,-0.001700809037666231,-0.0023117581675668737,-0.002761821116091368,-0.0029125242946335494,-0.0026710211655296095,-0.0020246676613455772,-0.0010546902265788514,7.141813073794213e-05,0.0011295566371576403,0.001891323311973374,0.0021921439313924737,0.001994576837105249,0.0014159063938882855,0.0006950223742064045,9.940160614596582e-05,-0.00019233998658542124,-0.00017438165457235924,-1.402227840596901e-05,4.132720566871515e-05,-0.00019324621283908685,-0.0007254754200921367,-0.0013660090554006624,-0.0018178353322581922,-0.001827101810778091,-0.0013134547181213128,-0.0004117983014146648,0.0005923516590846748,0.0013957567092411855,0.001808651724112096,0.0018206484748025283,0.0015757514590344019,0.0012788440934018036,0.001088168928268618,0.0010485450534157155,0.0010910512117694984,0.0010863471366906242,0.0009142776668334716,0.0005139040274365495,-0.00010084823241391814,-0.0008526380963772803,-0.0016240326293964827,-0.0022838058267923922,-0.002715395605152351,-0.0028458735009584753,-0.0026662199144237633,-0.0022306983077952655,-0.001631937690026795,-0.0009638347578655052,-0.00029325116231833744,0.0003452182575317288,0.0009345563544908241,0.0014571386991776498,0.001887857687571274,0.002200338235829956,0.0023768112004991194,0.0024121213341931885,0.0023107675401987608,0.002082852913709657,0.0017437181085477745,0.0013153016172139007,0.0008232190136031779,0.00028780037679206646,-0.0002835447547192805,-0.0008915341082082141,-0.0015252701846598837,-0.002140386268907825,-0.002654918029797517,-0.0029716561585246626,-0.0030147593718229085,-0.002757338688483284,-0.0022260124371883917,-0.0014876780468282668,-0.0006337690646967193,0.0002293967473856076,0.0009890942147535284,0.0015438426998957344,0.0018322726940493048,0.0018607021243635248,0.0017095557457499997,0.0015066301039613718,0.0013743265075582991,0.0013753499134651235,0.0014849478856931396,0.001604673258393649,0.0016102031061390517,0.0014070260027137893,0.0009648950001011584,0.0003176985507111654,-0.00046096725605947517,-0.0012826046867534153,-0.002051737220224303,-0.0026601786262026453,-0.0029873026551291166,-0.002924075332766894,-0.0024193709253658353,-0.0015253050825445391,-0.00041060120344970166,0.0006761782520325168,0.001485539653179184,0.0018559457994811509,0.001772294574497348,0.001366019555747854,0.0008553844716180131,0.0004517054184367574,0.00027216943599007266,0.0002967176305589286,0.0003875580909281674,0.0003631331225009118,9.377606808169334e-05,-0.0004257914128160387,-0.00106369110148136,-0.0016062832667720528,-0.001854951141846765,-0.0017149545079783773,-0.0012310656052178092,-0.0005539191544983353,0.00014063153907602766,0.0007313652918158489,0.0011861281205049513,0.0015368218685593987,0.0018192560680668978,0.0020228242719820804,0.002085090793741646,0.0019341676683936652,0.001549008917175462,0.0009948315771691999,0.00040534568788066214,-8.323768493846673e-05,-0.0004092474024447474,-0.0006253809609363752,-0.0008712327042895863,-0.0012868944090321018,-0.0019132914090923194,-0.0026384189820035896,-0.0032273399047806533,-0.0034269016373672063,-0.003090818126546124,-0.002256148899693424,-0.0011287463584439758,1.330889993898755e-05,0.0009442413397563051,0.0015761308166340267,0.0019634055752474405,0.002231407158575533,0.002476747299715137,0.0027010460170306845,0.0028164980619006645,0.00271511129418856,0.0023526436770455075,0.0017899996799631201,0.0011644011860198213,0.000609660939503494,0.0001779330587677176,-0.0001866161289601721,-0.0006058203999727144,-0.0011831632707552451,-0.0019265668400207073,-0.0027209832587689574,-0.0033646836712128867,-0.003650698158200831,-0.003454498419009293,-0.0027880491465384493,-0.001797132161928232,-0.0007048732246321635,0.0002720316116152464,0.000997168592668795,0.0014475862709130937,0.001695251595334743,0.001849221291406199,0.001988579599740754,0.0021205368621541303,0.0021852404388207473,0.0021025210668087933,0.001830099232073255,0.0013952541345482064,0.0008795876480197491,0.00036830763190847065,-0.00010022796714165803,-0.0005487256174920312,-0.0010271307137739044,-0.0015520156618324859,-0.0020609051526682028,-0.002416890941348915,-0.0024680610655189276,-0.002130021357842798,-0.0014421977095180314,-0.0005621287444789089,0.00030142707661452066,0.0009788868209147587,0.0014020406834692886,0.001604508693668845,0.001666314728452469,0.0016435218741172866,0.0015310219499747727,0.001280863482414988,0.0008580310887165201,0.0002894106638569223,-0.0003311926640825922,-0.0008846364792161888,-0.0012824393858671182,-0.0014966702373010227,-0.0015466695928427218,-0.0014606685320837792,-0.001248327509372713,-0.0009072063065978162,-0.00045425186833736135,5.018739612786102e-05,0.0005135306748783487,0.0008552193861007471,0.0010516047369620281,0.0011443460782468585,0.0012018743091746643,0.001260563181042807,0.0012894336912022868,0.0012054640509424608,0.0009293744054881812,0.0004429997915726564,-0.00019016279360977313,-0.0008522556808788275,-0.0014243564578147233,-0.001829061096442648,-0.0020379534446063503,-0.0020482573501861565,-0.001855634947739824,-0.0014496515876342095,-0.0008365251694945457,-6.907936911351351e-05,0.0007438326074583257,0.0014617378683528897,0.0019599098421191194,0.0021731396283465056,0.0021122738396588928,0.0018476405719662753,0.0014730730729363168,0.0010725957130527217,0.0007042903321590004,0.00039952322326990445,0.00016463991474282137,-2.3768491533265445e-05,-0.00022355265575572863,-0.0005141390788922083,-0.0009563122072886977,-0.0015394291042871175,-0.0021523365738938998,-0.002610226405461308,-0.002736004544618615,-0.002453162411615971,-0.0018308132721440156,-0.0010480431630934773,-0.0002982194294306064,0.0003049898580501149,0.0007609530982045391,0.0011404191387597634,0.0015068454047058287,0.0018599668561193562,0.002137554278512186,0.00226453302438593,0.0022057673057272417,0.00198303109030092,0.0016499808960510265,0.0012516443106225174,0.000801846500125959,0.00029220905554883754,-0.0002796153590450853,-0.000885835983517811,-0.0014638951585945305,-0.0019313665938423138,-0.0022107445759304628,-0.00225355496887207,-0.002056160215089004,-0.0016621774200302445,-0.0011494970399181326,-0.0006057526325776066,-0.00010246037057717452,0.0003209055088438627,0.0006580557986440459,0.0009260071810819339,0.0011510946612962006,0.001354069331760343,0.0015336981931302943,0.0016514862623074255,0.001628225639059715,0.0013656723955978605,0.0007957834432243984,-6.0735017812413566e-05,-0.001060800555661408,-0.001960734336158781,-0.0024973243371266894,-0.0024961546939878555,-0.0019528352260652804,-0.001041117384313588,-3.958301402394817e-05,0.0007861761564424833,0.0012852342172115499,0.0014588118344896035,0.0014238507581645565,0.0013310319420909416,0.0012826304729999796,0.0012877552872968033,0.0012693312158413611,0.0011122830117101293,0.0007267232371119843,9.813494984785417e-05,-0.0006941635827315436,-0.0014954676107842477,-0.0021239071853876197,-0.002431760294545703,-0.0023572644544555816,-0.0019451522821858512,-0.0013248736687554912,-0.0006541861196569813,-5.400387116639394e-05,0.0004325286520235007,0.0008343235606326089,0.0012033341474638952,0.001553454449435868,0.0018297831717453,0.0019336907673250278,0.0017914268133514002,0.001420608855245774,0.0009449547917691201,0.0005384949010922202,0.00032666318277916717,0.00030265724415757666,0.0003133396463203808,0.0001319928063166011,-0.00041393855336188077,-0.0013266892650612423,-0.0024003449244111835,-0.0032903143943730723,-0.0036612231820941313,-0.003339185319335681,-0.0023904249378851766,-0.0010886754712080369,0.00020708722289900948,0.0012006611257059708,0.0017628918511190003,0.0019501245533553048,0.0019375733995878643,0.0019074415554752233,0.0019510404454169405,0.002034172959960259,0.0020388967364079313,0.0018516561209592278,0.0014429548453118648,0.0008914658260566731,0.0003398321203830991,-9.017064205728276e-05,-0.0003714154385070504,-0.0005879299945829542,-0.0008805406135364631,-0.0013504028831981907,-0.0019765985017293855,-0.0025986798260271057,-0.0029787261723549186,-0.002912144356209353,-0.0023295912627624665,-0.0013380885835080772,-0.0001815389756433007,0.0008589205502951068,0.0015753687649407225,0.0019009376750686651,0.0019053080734563062,0.0017280606115125988,0.0014936285072772453,0.0012578085891667818,0.0010103723084470542,0.0007190228833450257,0.0003751348171381593,8.3634601479427e-06,-0.00033309565763909015,-0.0006129340927543164,-0.0008205591294198618,-0.0009596236664748612,-0.0010249695177535502,-0.0009900808917216828,-0.0008177568960436592,-0.0004889313712306783,-3.0931629728571256e-05,0.0004751895307225975,0.000917379497665607,0.001196128123576262,0.001264923611195402,0.0011433938597279042,0.0008951227650220439,0.0005848960267760771,0.00024360976326801345,-0.00013637353735655597,-0.0005733512208198621,-0.0010559630041736127,-0.0015196134277543555,-0.0018587750920964242,-0.0019711929846044,-0.0018086918312298157,-0.0014038972370521172,-0.0008563678082379498,-0.0002860440531281583,0.0002191716890072197,0.0006327888278628198,0.0009817895582222443,0.0013086978519093527,0.0016274096533011968,0.0018998887304101065,0.0020494926821035724,0.0020054207887018265,0.0017521503687212457,0.0013506682824771196,0.0009122358013908326,0.0005348221901923546,0.000239551514628913,-4.932038104738987e-05,-0.0004593364286637566,-0.001078027642033363,-0.0018674218192935156,-0.0026431913089172048,-0.00314333474819907,-0.0031558914931360017,-0.0026336985127684816,-0.0017269521872169086,-0.0007121517121114105,0.0001418984329083909,0.0006941953649125308,0.0009723771562022302,0.0011183684381918786,0.0012786073280782846,0.0015078474609803107,0.0017429651547545635,0.001857812266696411,0.0017593616662317144,0.0014600837731277919,0.0010778439633066606,0.0007625280674840363,0.0005968541490709938,0.0005360166989707587,0.00042671558051283863,9.722120964512134e-05,-0.0005328153174841768,-0.0013858657727879409,-0.0022417152633445988,-0.002827379765035332,-0.0029348509875877444,-0.0025068393770478724,-0.0016509765170397456,-0.0005838103872099797,0.0004575814133100614,0.001288478086821412,0.0018063834912198685,0.0019837741671367573,0.0018502013458361276,0.0014837478529902272,0.001007454320870481,0.0005691632576740242,0.00029248653096366567,0.00021678199306605326,0.0002673739045190033,0.0002881988842900679,0.00012914842292161628,-0.00026088386384421117,-0.0007940564474316352,-0.001284626767808164,-0.0015477671048574069,-0.0014961323982632506,-0.0011764898972156232,-0.000728704532267038,-0.0002996126189619492,2.998013109497947e-05,0.00026259066140196287,0.00044621404269859434,0.0006192719063925194,0.0007814189696722269,0.000906167969743982,0.0009756771050368216,0.0010014111494642585,0.0010082033853966593,0.0009923184605285583,0.0008909173678604272,0.0005986875649468964,3.5222591666890946e-05,-0.0007744555691417394,-0.0016631673436651407,-0.0023656007559033866,-0.002630867556421974,-0.002344852567410412,-0.0015916426159396004,-0.0006157546103461767,0.00029536450850146825,0.0009421621954511304,0.0012847110244855202,0.001421467656873635,0.0014980893868543205,0.0016071998713221018,0.0017373998699295027,0.0017942039606043925,0.0016725504919465428,0.001333679045654529,0.0008391657664438021,0.0003201373235762053,-0.00010137551591388931,-0.0003897649360809138,-0.0006190570953487903,-0.0009213329329772932,-0.001389203775462235,-0.0019943295454837987,-0.0025767938925164314,-0.002916642396473999,-0.0028473283690945497,-0.0023440627537667583,-0.0015350880044139232,-0.0006315738368962951,0.00017830879961294992,0.0008064280249079514,0.0012717873958879898,0.0016448005499638428,0.001974027315453165,0.0022446625893506535,0.0023905156005835423,0.0023449876005145775,0.0020948568001548096,0.0017024955035958988,0.001282091817884617,0.0009414627449848552,0.0007205277957087976,0.00056109854948804,0.00032820640914775056,-0.00012238358056877404,-0.000860222816913239,-0.001821073453280655,-0.0028060903811152017,-0.0035470071883044077,-0.0038119367756834703,-0.003502653096495509,-0.0026947688854840816,-0.0015999685174061496,-0.00047051100544188117,0.0005032445080735298,0.0012499992239709283,0.0018051340719813422,0.0022446465957653033,0.0026094434979811016,0.002865052030777166,0.002917152736326497,0.0026689065263421647,0.0020827586975529864,0.0012108487055760852,0.0001813774804224587,-0.0008444995852884216,-0.0017181681110340235,-0.0023315775559503114,-0.002624666503506311,-0.0025812725246279725,-0.002224145208607111,-0.0016136531588719092,-0.0008470469061162975,-4.992249023646046e-05,0.000647633051402032,0.0011482256755366233,0.0014211590298050221,0.0015094857609899805,0.001497688475553892,0.0014538029102935863,0.0013810782510894838,0.0012119132312966487,0.0008510356835678928,0.0002442473937016689,-0.0005661917423380506,-0.001430941173956035,-0.0021357968916196624,-0.0024791629310558214,-0.0023509600828052713,-0.0017782682946963948,-0.0009169920209164856,7.820093705775306e-06,0.0007869311514125193,0.0012986104230170476,0.0015349952699486675,0.001574775543818642,0.0015220271097836481,0.0014470590044590782,0.0013598840496276813,0.0012246097308482912,0.0009981076193483138,0.0006640896521871538,0.0002410039662863201,-0.00023678203443676903,-0.0007446932286423453,-0.0012753518611760683,-0.0018171006129280246,-0.0023186290477851604,-0.0026717630000979,-0.0027371449337871894,-0.00240795475084485,-0.0016761048293420066,-0.0006577548668775884,0.00044172852881468774,0.0014050295779113502,0.0020787753587524598,0.002410142486010636,0.002436237775312247,0.0022472538242426943,0.0019504613882043126,0.0016457948578405017,0.0014054989463797088,0.0012494517650339667,0.0011242509341945009,0.0009088752634405033,0.00046309578386344503,-0.00029359997966558197,-0.0013133909114461193,-0.002406035797989282,-0.0032955716059494223,-0.0037235433685420378,-0.0035493145251309036,-0.0028027579001734556,-0.00167164806496259,-0.00043523611370131375,0.0006279880688351677,0.001327159129619307,0.0016128765750970928,0.001578381991385696,0.001404736934734738,0.0012712247356184514,0.0012731032496510059,0.0013887021021028432,0.0015107479779565927,0.0015182268032435386,0.0013422615149665292,0.0009887543995818042,0.0005136025573455977,-2.1938595370569677e-05,-0.0005791988781195683,-0.001134315312082613,-0.0016457324193573388,-0.002029231486009141,-0.002169851185557271,-0.0019736644747431562,-0.0014302484898469862,-0.0006429409421917422,0.0001987703070389327,0.0008928344612731591,0.0013023602612522761,0.0013959790610812075,0.0012376239509708543,0.0009437813017394792,0.0006367219855009436,0.0004099750359100728,0.00030549720983893416,0.00029848161905129153,0.0002960481176940571,0.00016443372064228236,-0.00020986159641664555,-0.0008450165455170059,-0.001616877463747236,-0.0022781760307734582,-0.002549123201039066,-0.0022420044920457185,-0.0013581256157660156,-0.00010515938696363872,0.001178257464592586,0.0021567419047000625,0.0026272259057137813,0.002582715507317607,0.002186127187009815,0.0016754955519479098,0.0012516272736786936,0.0009995122011461173,0.0008716160752536958,0.0007309110702053857,0.00042798966425817384,-0.00012342371904638965,-0.0009033826256601037,-0.0017890321294474374,-0.0025973694574846352,-0.0031457042408074717,-0.003305697255565342,-0.0030349958944190358,-0.0023818756169500625,-0.0014668984746405967,-0.0004497538083717658,0.0005096652046253936,0.0012872185652670772,0.0018187505568880184,0.0021046068944082057,0.0021917763441556904,0.0021417933235290754,0.0020022438987834044,0.0017985493324128798,0.0015479803192943735,0.0012792149617621466,0.0010338613031472814,0.0008397631800606364,0.0006720327849610176,0.0004364473698649394,3.0618284035192336e-06,-0.000714817082991089,-0.0016788255164955123,-0.0026971197633085617,-0.0034805378398940464,-0.0037638053430448016,-0.003428957890187666,-0.002562386836041327,-0.0014138736317391106,-0.0002819782772750237,0.0006107006260288655,0.0011895548839805708,0.001520069776414939,0.0017370822663061707,0.001955354347411705,0.0022067224506564114,0.0024306700733419135,0.0025176304425696084,0.0023778892521235974,0.0019956406637822964,0.0014369255721300381,0.0008087382820926051,0.00019734621346631834,-0.00037308927703471467,-0.0009339036250827805,-0.001521475757908219,-0.0021174385365741824,-0.0026229236877508126,-0.002890283423405885,-0.0027984923749873637,-0.0023278052819059713,-0.0015860381141330681,-0.0007665115960901805,-5.940069260613616e-05,0.00043261906481667256,0.0007260701338023125,0.0009203416366351916,0.0011198495503858359,0.001364449195194601,0.001608321118776171,0.0017540405368716592,0.0017146217633338756,0.0014628780384489965,0.0010404170298296412,0.0005276970004329582,1.9633096531325705e-06,-0.00048584061202597924,-0.0009033657930325725,-0.0012135285759064265,-0.0013633218648922926,-0.0013007620063818412,-0.0010103771034642986,-0.0005396732010509173,7.016021303913483e-06,0.0005082580500510844,0.0008755210542369185,0.0010822120657265726,0.0011550302806543843,0.0011370299010438462,0.0010497022965727134,0.0008785105356182494,0.0005872899125865811,0.00014804123855951629,-0.00043300250599889257,-0.0011043567632230433,-0.0017734334818204347,-0.00232105423558335,-0.0026238356282519025,-0.0025844526093408643,-0.002165729840101755,-0.0014154296715170643,-0.00046421943207039604,0.0005114284825219542,0.0013487895796063761,0.0019505009589446823,0.002299578615913671,0.002432858378295235,0.0023964340137102432,0.0022167969094313996,0.0019047493784995345,0.0014803765775172916,0.0009906897610685954,0.0004997304842083484,5.568831068207284e-05,-0.00033947839718904954,-0.0007311267602687483,-0.001176154090419634,-0.0016895524617524887,-0.0022084961632991332,-0.0026022079394379086,-0.002728391243594204,-0.0025061364276391697,-0.0019620328121212408,-0.001221060751398904,-0.00044770141951085645,0.00022721811838744718,0.000752052843197001,0.0011502676731328322,0.0014760431670993474,0.001761350145921261,0.0019880085488280627,0.002100213682645995,0.0020467414364181073,0.0018230363756423585,0.001483151983969123,0.001110938089547912,0.0007677036878495347,0.00045190542472056515,0.00010148095646201239,-0.00035785777138435987,-0.0009474046944518367,-0.0015966831603141465,-0.0021591454143430784,-0.002475295446062735,-0.002446268474480367,-0.002076677525909977,-0.0014674325172588237,-0.0007691863297201557,-0.00012470173108055553,0.0003736067812561048,0.0006989894110066104,0.0008808575773629227,0.0009799753984364972,0.0010582127149500829,0.001150501448107988,0.001245828983791641,0.0012849370079348007,0.001180802315991784,0.0008599936677106575,0.0003104301527505427,-0.0003880961424316755,-0.0010717040232341352,-0.0015435119700559123,-0.0016505204067948959,-0.0013520085164379788,-0.0007445508062337596,-2.6963475955157305e-05,0.0005820430040619213,0.0009351393940693906,0.001011364273735257,0.0009071217228968742,0.0007695073406587161,0.0007102177335490096,0.0007483564745134169,0.0008110146434373822,0.0007841214510909248,0.0005778723498091596,0.00016942142442065173,-0.00039229819285197475,-0.0010091940518683618,-0.001564158662872021,-0.001947159881480246,-0.0020772832037149135,-0.0019221612137768945,-0.0015089605699314034,-0.0009173581674003371,-0.00025272222036609596,0.00038827438368101304,0.0009406482455511188,0.001372346244682474,0.0016706265255577225,0.0018302554391249881,0.0018533126590642146,0.0017547744834569045,0.0015604001148361826,0.0012916258086458953,0.0009478091225430987,0.0005038588268125836,-6.714264497215995e-05,-0.0007559807832938246,-0.0014894666532731615,-0.0021372438209215617,-0.0025576026540795214,-0.002659219326702217,-0.002441216409200198,-0.001985665915795833,-0.0014082567519755518,-0.0008008804584732801,-0.00020266277197001877,0.00038756816266291723,0.0009741358289676498,0.001532823599802397,0.0020056225416120402,0.002322678797287825,0.002435969883175208,0.0023442170526898924,0.0020941639113596137,0.0017559671609895977,0.0013847563906327852,0.0009896310304084873,0.0005299581517548189,-5.3970685738144626e-05,-0.0007881922729824161,-0.0016189479187728906,-0.0024044111503879156,-0.0029579501239594616,-0.003125749505045307,-0.0028569980232046738,-0.002225672319312512,-0.0013915504641903611,-0.000525807924665176,0.0002530733703766171,0.0008983872726032949,0.0014078993339422595,0.0017795253816545364,0.0019863954484474165,0.0019886718071238305,0.0017702101090732007,0.0013694359274748198,0.0008774642801777947,0.0003992568505216863,3.8492219341627757e-07,-0.0003249018612947437,-0.0006389044847367341,-0.0010029142619809599,-0.0014116027261984268,-0.0017652288832629955,-0.0019059938505548598,-0.0017040091062911818,-0.0011424474915890945,-0.00034639384110187783,0.0004679978349410428,0.0010973611639931813,0.001445926035196827,0.001553224034783253,0.0015394471217737207,0.0015073750639391435,0.0014682136512056167,0.001340818482566479,0.001021777575405984,0.0004748807489843542,-0.00022281376201949512,-0.000908768521794023,-0.001416331517560748,-0.0016558616874273791,-0.0016459939170762657,-0.001481201498251,-0.001263035537949455,-0.001041581112819309,-0.0008006626817820127,-0.0004881419140498416,-6.538958012335862e-05,0.00045603824050125604,0.0010085716938785247,0.0014913878572719104,0.00180630549760273,0.0018899468727324154,0.0017315323047968172,0.0013728768910802169,0.00089199261986008,0.0003750562966660385,-0.00011467919763233543,-0.0005585698328099157,-0.0009819950174634663,-0.0014260387339230579,-0.0019014391075104769,-0.002350568660581505,-0.0026463431858259833,-0.0026399355673870644,-0.00223899130703264,-0.001473740039343626,-0.0005079301266848343,0.00042118613722538583,0.0011084206160079108,0.0014759137679048729,0.0016031220252918552,0.0016712736258111234,0.0018512670046593608,0.00219802447650855,0.0026122264780223383,0.0028927379699638877,0.0028508043294540675,0.0024196919626471624,0.0016937253400394244,0.0008715693481604588,0.00013796817840566126,-0.0004411931715966842,-0.0009421345462201446,-0.001508300709606955,-0.002225373350978572,-0.0030285445335399676,-0.003705338013859951,-0.003996924520938652,-0.0037387197456126794,-0.0029566599260311024,-0.001862807069110971,-0.0007541059858309595,0.0001263949620936471,0.0006885383287959235,0.001004913891359359,0.0012362196985204257,0.0015226171430452304,0.0019036236249689175,0.002304829584815233,0.002587668002333561,0.0026247454841444745,0.0023563601025214645,0.0018041874256149097,0.0010485778721229413,0.0001948914228056351,-0.0006483883569568569,-0.0013747683406911306,-0.001880131419518947,-0.002074127690408131,-0.0019071272198612462,-0.0014006036071064257,-0.0006597946389326047,0.00014615704275009194,0.0008331257254178116,0.0012590397001658925,0.001363799349130962,0.0011778659177390446,0.0008018221607076505,0.0003689386021532323,2.5910573879304837e-06,-0.00022258092301620947,-0.00030570416392569784,-0.00031843284563697516,-0.0003707193615213934,-0.0005535807373324077,-0.0008861791838907687,-0.0012971896551254528,-0.0016527849968004586,-0.0018160099977217745,-0.0017039537687445067,-0.001313249347135045,-0.0007075887672851075,1.5111461075685605e-05,0.0007516902862825955,0.0014077762620603727,0.001903577932752056,0.002183418705183754,0.002230900714182433,0.002078469306230067,0.0017978224571817607,0.0014687182909251212,0.0011395664952511863,0.0008020686546299299,0.0003975712915511953,-0.00014339647077941527,-0.0008461710308153671,-0.0016510969451683838,-0.002412768673492865,-0.002945900147954183,-0.0030979877620177483,-0.002811877441310569,-0.002146206113781561,-0.0012462744069923508,-0.0002854898954909612,0.0005902124366555534,0.0012915268353306845,0.0017855021175509985,0.0020785335349564186,0.002197172856461118,0.002173292295104124,0.002032820338085745,0.0017867113611137687,0.0014267205015016902,0.0009312660491868696,0.000284822255604419,-0.0004923029689887625,-0.0013164302149764832,-0.0020351953661018767,-0.002461281471733294,-0.00244309958631615,-0.0019432553266142635,-0.001080119003948968,-9.996795283558632e-05,0.0007163110593227393,0.0011690675334708905,0.0012189750235448563,0.0009875499985392182,0.0006798969326122555,0.0004735672943584056,0.00043443579521392005,0.0005007148971630802,0.0005338758466233461,0.00039952136988932816,3.358790975148667e-05,-0.0005319586271839002,-0.001183639046884608,-0.0017652380301747513,-0.00212328421216633,-0.0021466557494826165,-0.0017925671938659477,-0.0010954589576696676,-0.00016012518940841257,0.0008567512465691779,0.0017743683207069507,0.002425551857840176,0.002701622204834618,0.002590715778821046,0.0021880971526215182,0.0016636375439655349,0.001192540852585015,0.0008779493092983441,0.0007034620966621333,0.0005427144962711797,0.00022590169206758068,-0.00036697496038437267,-0.0012319943699571185,-0.002223065036411418,-0.0030979449169339286,-0.0036070482688227695,-0.0035873089962647547,-0.0030240244771041714,-0.0020566759167893398,-0.0009259741140321247,0.00011593703572432003,0.0008924700213533325,0.0013486414810985068,0.0015406936568686073,0.0015838214827390274,0.0015904466792039152,0.0016276919426726258,0.001704045759743279,0.0017777615737148693,0.0017749062996258063,0.0016116872015443605,0.0012225685361229059,0.0005932026035931192,-0.00021344287656204026,-0.0010566615283676556,-0.001754581219122023,-0.0021473662568787175,-0.0021564407219666886,-0.0018079190644613046,-0.0012096898094028745,-0.0005002434279244689,0.0001981987499624898,0.0007995093175398619,0.0012479699274795223,0.0015064879567026463,0.001556124159644114,0.0014073142702763013,0.001108036975216592,0.0007340803481241043,0.0003605369598691753,2.9390252530240874e-05,-0.00026692082784559733,-0.0005747383265440251,-0.0009452684687952754,-0.00139366169539028,-0.00187096463204256,-0.0022642462029236025,-0.0024294059998936843,-0.00224696930725216,-0.0016785553650938841,-0.0007974606484005524,0.00022460632665115992,0.001173263270912611,0.0018670969322187453,0.002218984996428601,0.002254368313743221,0.002079306797404967,0.0018179795758915325,0.001555386371583583,0.0013149588641569341,0.0010756209096381957,0.0008064968695184963,0.000489937465919845,0.00011991493338991179,-0.0003118393552379709,-0.000817804618079378,-0.001392713040332129,-0.0019809687379255606,-0.002463213043998931,-0.002684491484398789,-0.0025192637347554725,-0.0019405828719811476,-0.0010522383338995285,-6.033965301975445e-05,0.0008056238534217256,0.0013829080155945844,0.0016303307783855302,0.0016216184369155604,0.0014870874669173201,0.0013418541794365231,0.0012409810680044718,0.0011784370979569907,0.0011161252043497129,0.0010135065328114715,0.0008370356280653283,0.0005527257989027734,0.00012385185469820752,-0.00046783667751565394,-0.0011835208059993844,-0.0019023632739264078,-0.0024427153530319178,-0.002633446216791297,-0.002399812706663511,-0.0018094696727920501,-0.0010444565169587308,-0.0003120609399650851,0.0002526056957401436,0.0006349993292178529,0.0009158407896888367,0.0011938735444416426,0.0015083942348966778,0.0018092539202560576,0.001988628344057182,0.00194865694559578,0.0016581837638850955,0.001163384581488513,0.0005521348075105784,-9.504583309174531e-05,-0.0007282086912096426,-0.001310766383892449,-0.0017831495151209263,-0.0020465795111486848,-0.0019914954839124594,-0.0015594360012457986,-0.0007984636343533363,0.00012803747708244317,0.0009920037965356601,0.0015880025051928088,0.0018126329136564443,0.0016950800420578005,0.0013644370261386416,0.0009743078195561499,0.0006281425835150138,0.00034514742632514605,7.886242038837815e-05,-0.00023191784569138953,-0.0006154715629170637,-0.0010491528966198919,-0.0014743699813221326,-0.0018276312699364058,-0.002064550804975888,-0.002162783866512055,-0.002107219273668432,-0.0018746016718747028,-0.0014353502461302396,-0.0007773130174569109,6.122750608718655e-05,0.0009724583219275938,0.0017938544527516564,0.002359946439020196,0.002570381671996975,0.0024375001974501972,0.0020822679789481214,0.0016757134471105228,0.0013566173840674682,0.00117133480944629,0.0010672312022492999,0.0009376399459148877,0.0006866603754639823,0.0002752641162807,-0.000271881181990322,-0.0008913305508727396,-0.0015119719951588871,-0.0020701781686753213,-0.0025058520720104066,-0.00275372221294147,-0.0027468389596190064,-0.002437394091853954,-0.001824975128033332,-0.0009751557201888148,-1.5135759286284356e-05,0.0008958099564935582,0.0016111565484359012,0.002039354997915005,0.002165490446170617,0.0020431639725302696,0.0017616180749563304,0.00140525485212556,0.0010252129481335838,0.0006339246174980751,0.00021973754643745693,-0.00023081345720937915,-0.0007153774321276065,-0.0012076726901944855,-0.0016561934175955354,-0.0019857991297438037,-0.0021042081270455505,-0.001921758852198108,-0.0013893251174547502,-0.0005431435471339649,0.00047177703106590055,0.001427465233292292,0.0020905351503938555,0.002318603186687373,0.0021234453859067188,0.0016618728439238277,0.0011543299023149477,0.0007725786026257461,0.0005568655045468233,0.00040824479871806943,0.0001607606021947973,-0.0003067064145758787,-0.000982531867124944,-0.0017094673490137455,-0.002255296861266955,-0.0024273767382399277,-0.0021666899660458773,-0.0015706043965318726,-0.0008361404205288799,-0.00016059187514923332,0.0003428312129730249,0.0006706747596236409,0.000890688367462466,0.0010715780742983423,0.0012292700377933773,0.0013231535524989965,0.0013003309112559114,0.0011518775459940424,0.0009352413893450224,0.000740015891206923,0.000616810458703054,0.0005213262803886994,0.00032256919434102307,-0.00011665587114542708,-0.0008317513077953421,-0.0016930857637023288,-0.0024382811648366687,-0.00279062861431211,-0.0025958696965533304,-0.0018955166317847511,-0.0008962142837607924,0.00013894804443892288,0.001007227204039717,0.001626431164768263,0.002017747339762463,0.002239311490116789,0.0023226377234834123,0.0022529647027861783,0.0019992827486748433,0.0015642099506550172,0.0010111845740090714,0.00044460923718639184,-4.545078660182471e-05,-0.00043459658485280647,-0.0007731716148805161,-0.0011443926846092455,-0.0015985024948857996,-0.0021054055178509824,-0.0025544692453499107,-0.0027998673746706653,-0.0027246518740257786,-0.0022908255585468024,-0.0015553266856341904,-0.0006512038475216523,0.00025342051681364675,0.0010033057081177985,0.0014986255190085718,0.0017214437250423304,0.0017360112385548165,0.0016583293379723964,0.0016035882685456135,0.0016336915843656462,0.0017301020918931425,0.0018053461635079012,0.0017463058184887066,0.0014667643339950542,0.0009449366390184684,0.00023277441584496197,-0.0005616415310750837,-0.0013077192567180326,-0.001888360302031766,-0.0022267074426477415,-0.0022967156047271503,-0.002117239820824787,-0.0017363182573933694,-0.0012160349368166023,-0.0006248964946100705,-3.537641622042601e-05,0.0004822602796059739,0.0008745304018101783,0.0011204808886547026,0.0012346159307676375,0.001250115855545131,0.0011910120973007972,0.0010519469869782324,0.0008001378555498586,0.000400369873520697,-0.00014925659703166148,-0.000789055075309118,-0.0013939243453584872,-0.001803229962577757,-0.0018789717785500444,-0.0015688493494417587,-0.0009409944647819845,-0.0001663162343599208,0.0005490490571964426,0.001049986999218227,0.0012930151327391864,0.0013482780709555625,0.0013415273558485727,0.0013700321208766119,0.0014435839077587196,0.0014868400048682283,0.001398869125434162,0.0011266226965964713,0.0006999967628110497,0.00020543733230915236,-0.0002783349785228336,-0.0007306855024284786,-0.001186108981784706,-0.0016814147184495021,-0.002195496725275352,-0.0026294290688635806,-0.0028443108766641437,-0.0027329051588350565,-0.0022785267839501014,-0.0015647543689538614,-0.0007331290420179647,8.110707496155429e-05,0.0007951020367684542,0.0013838000227295727,0.0018523117993742872,0.002202805359012787,0.002420453611335915,0.0024831957795812378,0.002381603875256795,0.002131880659702137,0.001775395004670028,0.0013690720898236494,0.0009724816924273072,0.0006324647331677775,0.00036464889818775027,0.0001374665906414994,-0.0001282860088771092,-0.0005327364434855662,-0.0011449035572304487,-0.0019458153359567783,-0.002798874786575217,-0.003474122483640198,-0.00372901432983314,-0.003415734074301954,-0.002562495563032711,-0.0013809801082820647,-0.00018685129209025913,0.0007322300326806173,0.0012351747035764314,0.0013718362437354387,0.0013321631739596396,0.001330243014724428,0.0014868136026769574,0.0017722547062974576,0.002037729943978492,0.0021133867720996183,0.0019146763189587645,0.0014925556059109803,0.0009967606416916707,0.0005762753683441217,0.0002830347791859865,4.4118790709850027e-05,-0.0002774639039703874,-0.0007729716618907306,-0.0014023363111112614,-0.001991283452112597,-0.002316755887278905,-0.0022295452075339205,-0.001738733560209527,-0.0010064447686221225,-0.0002586375842915361,0.00032939089987002804,0.0007014652700272103,0.0009074009186168758,0.0010301297434481614,0.0011121773433322095,0.0011327469596239912,0.0010432769536298904,0.0008247831526561107,0.0005169488524532682,0.0001944420519601771,-9.036973543435494e-05,-0.0003504882180677409,-0.0006537205605097389,-0.001059403070787517,-0.001546131692792018,-0.001986403735001357,-0.0021941886200161223,-0.002020201733246212,-0.0014353175598005225,-0.0005508061460997146,0.00043274601234683327,0.001311616565605367,0.0019496015383444463,0.0023026658260479472,0.002400822525758708,0.0023118428065703723,0.0021098989664950145,0.001857068874451475,0.0015935142191175861,0.0013312975611283202,0.0010523346670669041,0.0007141336577027972,0.0002649684805398221,-0.00033404074344749483,-0.0010857955876625212,-0.0019405519620003192,-0.0027930290288060624,-0.003498091398834175,-0.0039047319241824483,-0.0039007561467802004,-0.003452883734562163,-0.002623722002457423,-0.0015537665057382113,-0.0004133589805516534,0.0006527156991269936,0.0015597407217741667,0.00228101647969534,0.0028167542532643542,0.0031593507543291374,0.0032809860471878557,0.003152598532374154,0.0027806082909927737,0.0022340556024852635,0.0016383911258427161,0.001130655915080636,0.0007940672502379136,0.0006060089074225924,0.0004328703773585293,8.518628430009443e-05,-0.0005856453553385813,-0.0015946306273362364,-0.0027836163346292822,-0.0038603896080712788,-0.0045041662353042375,-0.00449318787537736,-0.0037981802092078953,-0.0025983479143364963,-0.001210362819845299,3.82448955591429e-05,0.0009326019082065131,0.0014349560063688204,0.0016655461121301018,0.0018165218012170807,0.0020443892307623304,0.0023915238326135107,0.002770427355188426,0.0030149336641079106,0.0029716167996279757,0.0025836847181149748,0.001920111158105094,0.001130545593698634,0.0003519111056259428,-0.00037162406043812074,-0.001096072485103875,-0.0018997949043038005,-0.0027707665958230814,-0.003543095250877713,-0.003941596721694158,-0.003721078742834681,-0.002817984765293601,-0.001417380660972756,0.00011020755070496917,0.0013670803177484024,0.002093191274191894,0.002253623110094061,0.0020156744901390204,0.0016415862869642338,0.001357695342036267,0.0012608543059566912,0.0012966542245471623,0.0013079289716588383,0.0011226552406807997,0.0006383954548547098,-0.00013183943515194076,-0.0010655417248545118,-0.001976710928429677,-0.002674673533896851,-0.003010262413121544,-0.0028997984521636835,-0.0023341555140685036,-0.0013843526809233764,-0.00020413155868993175,0.0009844772741146551,0.0019380388394216721,0.002468154056458631,0.002517211209510341,0.0021891452111204852,0.0017067865688697834,0.0013082985104380957,0.0011346391635575037,0.0011687734501116677,0.0012571970788507712,0.0011957237247055574,0.0008282928978191732,0.00011029408667230533,-0.0008815693390073416,-0.00197964226483235,-0.002971945728565113,-0.003650081047118457,-0.0038553783672899294,-0.003521220690744767,-0.002700566709724906,-0.0015616608115243567,-0.0003425426097894572,0.0007251628961926723,0.001492960084389954,0.001936759290792349,0.002141178677907702,0.002234226555978388,0.0023075845245969463,0.0023670801707320953,0.002340840377441597,0.002137871462177887,0.0017187234184638548,0.0011323664836337512,0.0004948106430758464,-7.744039537657568e-05,-0.0005356807432996798,-0.0009223791948522486,-0.0013304706923223707,-0.0018215849311771608,-0.002356150978196395,-0.002784967964056034,-0.0029151465412531434,-0.0026157911556806837,-0.0019012010532566811,-0.000940254301426012,1.630406091822893e-05,0.0007507130419881962,0.0011713866359381732,0.0013345649555120149,0.0013867477361702704,0.0014655440268796743,0.0016185378654595141,0.0017856496566706196,0.0018496234376039681,0.0017177224984632113,0.001381082284116024,0.0009156115813558389,0.0004279264545822158,-1.3941822185507997e-05,-0.00041603158495793547,-0.0008349449037303754,-0.001311146166695598,-0.0018056978467881062,-0.0021874278931304763,-0.002286510528214116,-0.0019871240408843925,-0.001304190612683204,-0.000396166030374867,0.0004964173743543998,0.0011530796219212079,0.0014605525175625316,0.0014414860839255049,0.0012177100311374705,0.0009372630670310429,0.0007076024816723798,0.0005629540814106155,0.0004679108253927241,0.0003435854777308449,0.00010347488682297373,-0.00030745211820239654,-0.0008775944342178899,-0.0015111383664705284,-0.002042559373577506,-0.0022861578651789498,-0.0021053311590094313,-0.0014732756748323302,-0.0004971230594986053,0.0006086330508676412,0.0015920794500815657,0.0022499723055017054,0.002493977307127667,0.002368840511244321,0.0020160281224889678,0.0016017873334260861,0.0012448385285359278,0.0009775335377493293,0.0007555613712218702,0.0005046835997908445,0.0001734508286759123,-0.00023958538933250732,-0.0006964583138521322,-0.001154260476640502,-0.0015940383345144312,-0.002020356627296976,-0.002431196201423829,-0.0027828352942809538,-0.0029819002633542165,-0.0029187915715231513,-0.002525191309565438,-0.001818455603152568,-0.0009039699068922914,6.477155799528077e-05,0.00094336563184935,0.0016409272891476203,0.002134375520488957,0.0024526738759404094,0.002643771393371856,0.002742152460251984,0.0027525749426713458,0.002656417504899364,0.0024343937287452746,0.0020898505472835326,0.0016568186688443616,0.001187232721380025,0.000725508455924935,0.0002862294385392553,-0.00015234953997188229,-0.0006357606375019554,-0.001207175689084028,-0.0018776349551060333,-0.0026041911513844706,-0.0032867815962844367,-0.003789714185214686,-0.003983456365795672,-0.003790933322774088,-0.0032174571672692574,-0.0023496643417337043,-0.0013238602048536174,-0.000279447627176229,0.000680063418136971,0.0015014298878013677,0.0021690742844580344,0.002678610604461502,0.003016621093077921,0.003160844901006943,0.0030994161610726875,0.0028529026218319965,0.002479520268163408,0.002055283257216052,0.00163888004535926,0.0012424050450936693,0.0008262638749763171,0.0003227647818775059,-0.0003227895613640937,-0.0011138460376046266,-0.001985746683068568,-0.0028173289858261885,-0.00346357967433454,-0.0037935829537642297,-0.00372049355543981,-0.0032195734142463064,-0.002336935738988589,-0.0011898523502485092,4.67162448032092e-05,0.0011737021596199544,0.00201843657159141,0.0024842766788568853,0.002574723188844512,0.0023776193814147506,0.0020181048995482364,0.0016083056559533177,0.0012211155910248116,0.000894181034437895,0.0006459447219908277,0.00047977896624532706,0.0003702674796933824,0.0002507464600399853,2.8514644207587115e-05,-0.0003661571158401722,-0.0009232620283640617,-0.0015302416795294396,-0.002008063541769551,-0.0021927252372692728,-0.0020167954625359675,-0.0015431855552445097,-0.0009319052861352684,-0.0003604217187481596,5.648510980224043e-05,0.00030500624115900946,0.0004534409610124834,0.0005933760517908171,0.000777866065695412,0.0009915067113977535,0.001165778724927847,0.0012247003108889593,0.0011280991843262906,0.0008847037714763768,0.0005318280997201865,0.0001047306495415803,-0.00037416555778141186,-0.0008750958149483713,-0.0013292831389833508,-0.0016212593743653231,-0.0016264292999552698,-0.001279321398756044,-0.0006281925033864222,0.00016674184076349217,0.0008991376401701255,0.0014103492268735611,0.0016553322229924197,0.0017031083507708714,0.001676495609632282,0.001671650560782497,0.0017049988378728313,0.001712783028195347,0.0015948124192293237,0.001271297165762084,0.0007213648369591691,-1.1318722984604167e-05,-0.0008413149469082079,-0.0016772113627868009,-0.002452519428727387,-0.003135779736502336,-0.0037116524272039902,-0.004140934366790605,-0.004326820721946431,-0.0041216998032788206,-0.0033898505296901214,-0.002101885407072819,-0.00040355945971144535,0.001395455254592118,0.0029224777462878485,0.0038844937274535233,0.004176687781313061,0.0039025913804783194,0.0033047207264808192,0.002650754843238035,0.0021329957822039365,0.0018192002908201934,0.0016608289683722284,0.0015402152425782675,0.0013294890931827364,0.0009386644778600806,0.0003409289509657002,-0.00042613657062410973,-0.0012768297866973528,-0.002100755666363251,-0.0027843283272441545,-0.0032267995236022295,-0.003353250675554156,-0.0031284948281681563,-0.0025713336746176364,-0.0017620074075054282,-0.0008333652683836076,5.824218972516398e-05,0.0007755790497858095,0.001240445872039461,0.00145271791167752,0.0014780227137887278,0.0014086381898005206,0.0013175296211127355,0.0012307308286056235,0.0011317394077785727,0.0009890776642736325,0.0007823409564896111,0.0005072390808201993,0.00016222089238038793,-0.00026173135925759445,-0.0007683491310513262,-0.0013229748709039364,-0.001826438245134864,-0.002127855350426253,-0.0020844798097693277,-0.0016396972387421153,-0.0008692375072680912,3.970333936059863e-05,0.0008691879138323733,0.0014638082175144485,0.0017814083546572063,0.0018763420982903095,0.0018355741967169936,0.0017152052420249947,0.0015171350132834865,0.0012123388200105296,0.0007846953788766134,0.000259605810025382,-0.00030124240074545143,-0.0008288247678180274,-0.001271788935174164,-0.001597334707177573,-0.0017731563942832672,-0.0017557576448146632,-0.0015058493620878498,-0.0010250389841191133,-0.0003835647719087038,0.0002899246871966821,0.0008575040301431797,0.001229665803989143,0.0013937955661673517,0.0013979485979591078,0.0013064624238063832,0.0011596370113395242,0.0009600125360723055,0.0006848565290774719,0.0003080976330845259,-0.00018392512897518252,-0.0007850395059882115,-0.001462122971647516,-0.002144637245830247,-0.0027209004144535852,-0.003057055750227444,-0.003041511403939213,-0.002634154166604876,-0.0018884385612070033,-0.0009295976267825421,9.668174397123587e-05,0.0010704137219067632,0.0019118007254870885,0.0025664559457590614,0.0029873829341967324,0.0031378810956795736,0.0030155368742658213,0.0026741584933738854,0.0022189591245342826,0.001770856917462608,0.0014193476682723516,0.0011905565997093724,0.001044975740023747,0.0009008704796561475,0.0006684403913594051,0.00028046913466848924,-0.0002881954977851627,-0.0010143231291888555,-0.0018322390246743045,-0.0026488079508597915,-0.0033617874699456217,-0.0038757050432964837,-0.004113006405517511,-0.004022663560511324,-0.003589283706026303,-0.0028422992663209024,-0.0018606431782054805,-0.0007670910952372527,0.0002912972356924156,0.0011757794354817336,0.0017946476134568237,0.0021341745456131558,0.0022642572242773814,0.0023075174788868497,0.0023786030065458615,0.00252122431425845,0.002678938915547514,0.002722408225887688,0.0025251978569820702,0.002048663365586927,0.001384039562161939,0.0007186904032058952,0.00023751294849004437,1.4155297587497466e-05,-4.03562282220609e-05,-0.0001342272623497603,-0.0004758890317729591,-0.0011455321946899765,-0.0020308422391414503,-0.0028644614368956846,-0.003344174464100338,-0.003273503644354715,-0.0026525824152985648,-0.0016770202052272538,-0.000648634396788888,0.00015645384054512436,0.0005983516050002522,0.0007114836933178265,0.0006575328550328281,0.0006244421548565085,0.0007279189371231466,0.0009646797489845857,0.0012332157310574491,0.001399940307319224,0.0013685465263961968,0.0011171034810215617,0.000692739988161414,0.00017957188783729002,-0.00033439973311811665,-0.0007750921461975387,-0.0010863403508720394,-0.0012315133046914629,-0.0011990917797903764,-0.0010066103253935745,-0.000693278945493134,-0.0003013392339335796,0.0001399633422380454,0.000612180908766119,0.0010871401512655642,0.001507335926640563,0.0017900423706594041,0.0018601384976613803,0.0016920458991692721,0.0013306668034528443,0.0008736025295485655,0.0004228247122883386,3.4488810645303e-05,-0.00030309782688232634,-0.0006508879330760131,-0.0010714299922874463,-0.0015794691527047401,-0.0021178176753204056,-0.0025707860471055203,-0.0028074459098742645,-0.002732873077698521,-0.0023243373072371343,-0.0016396594383046646,-0.00079832790727056,5.524802246164684e-05,0.0007940996414474528,0.0013441545440785734,0.001700675552718387,0.0019170388097072776,0.0020670565474424623,0.002196507871657012,0.002289905054433143,0.002275029149215135,0.0020684668094281917,0.001639637558905551,0.0010543619783492763,0.00046459952023735916,3.9706702261872815e-05,-0.00012771687869537172,-8.568095422698845e-05,-1.189114858486857e-05,-0.0001262928867358343,-0.0005732267696503601,-0.0013396422360265968,-0.002253879694720051,-0.0030609741710007922,-0.003528883498824035,-0.0035310722124966424,-0.0030742863452557626,-0.0022744755887611173,-0.0013053327891764002,-0.00034466954184994575,0.00046767689329352486,0.0010568187324300504,0.0014232822531925812,0.0016336204189043855,0.0017893196540468806,0.001980287960207642,0.0022398199631480714,0.002522559584636233,0.002719555024193915,0.00270686438733577,0.0024058231589315264,0.0018250900467464365,0.0010624725939123178,0.0002647522106098307,-0.0004345066003020599,-0.0009676793332705298,-0.0013498178579001248,-0.0016517255913560446,-0.0019445113433961682,-0.0022456702386722204,-0.0024962871259011643,-0.002583276859946069,-0.0023967873528353656,-0.0018929582699941717,-0.0011280801753847567,-0.0002454443182484229,0.0005782893890440029,0.0011999499506441308,0.0015577287943109308,0.0016787879789670348,0.0016455645631768374,0.0015400134995325132,0.0013960279492520968,0.0011858619275282654,0.0008476049441824324,0.00033714908421862407,-0.00032647307795198783,-0.0010493322043742734,-0.0016906564854139937,-0.002113507328192263,-0.0022303543741842217,-0.0020233398498626922,-0.0015364010050075293,-0.0008508478408581279,-6.026296325823701e-05,0.0007446134999461161,0.0014800718064815568,0.0020698908699259165,0.0024508092975012007,0.00258580843514594,0.0024790726439519947,0.002181366539161854,0.0017774079562528206,0.0013564812795302146,0.0009783314391446668,0.0006511511345539812,0.00033317519518978253,-4.320661492371899e-05,-0.000537417385271517,-0.0011722534977778422,-0.001920288000816462,-0.0027051120079440976,-0.003412413296165302,-0.003907553971827335,-0.004060586589222481,-0.0037798801892220115,-0.003048861482210379,-0.0019512724914376462,-0.0006673444088439286,0.0005683039316971448,0.0015388018031685716,0.0021209800109729146,0.002330393837002207,0.0023088965715234873,0.0022536763969263802,0.00231882991482199,0.0025399333011140533,0.0028226000917991323,0.0030000881330503686,0.0029252180917808653,0.0025444468191762994,0.0019165693267650388,0.001172671713076486,0.00044497628219457254,-0.00019598242904722,-0.0007655978830772112,-0.0013417308880468255,-0.0020063343352404997,-0.002780221735813413,-0.003583573796912757,-0.004245371324310862,-0.004562202521151416,-0.004380734708188203,-0.003664685096120374,-0.002515541109240071,-0.0011400041582694444,0.00021936875367765517,0.0013612438787356934,0.0021805717741340477,0.002680759619800353,0.002939392961474946,0.0030462444068415466,0.003048727478202211,0.002936925245052205,0.002674940759038384,0.002252925582867963,0.0017188928033386877,0.0011640937845597814,0.0006699008740779287,0.0002526956413337071,-0.0001531916280193544,-0.0006568703687643253,-0.001332957643195303,-0.002147241450889914,-0.0029332728885357495,-0.0034442466617583315,-0.003462664132990595,-0.0029120949448422514,-0.0019071064004482097,-0.0007096501518321983,0.0003848584423850536,0.0011673974278551785,0.0015775387256510586,0.0016848123138069565,0.0016161565406823486,0.001482271062237141,0.0013434240629750344,0.0012183423505530684,0.0011080042132945885,0.0010033558069634906,0.0008715018138988682,0.0006439561337703811,0.00023567665979411017,-0.00040097532278763324,-0.001217103947588593,-0.0020471515303570873,-0.002653247781726201,-0.0028195029729816265,-0.0024484419439987967,-0.001608215053272047,-0.0005066422050846028,0.0005925749138917649,0.0014684654771030979,0.0020100086633406847,0.002225536908927684,0.0021992954327058234,0.0020271449543534472,0.00177113325927979,0.0014556874032884606,0.0010970881448628211,0.0007342342822240313,0.00042903992749123094,0.00022871593311369525,0.00011406249843227533,-2.3386437266178367e-05,-0.00034308371099421,-0.0009630577756495697,-0.001864546307254798,-0.002858995524555177,-0.003649864830568954,-0.003961595862795842,-0.0036639282095994657,-0.0028228738546936696,-0.001656134623900594,-0.0004272992404330416,0.000657026671928862,0.001495966181429955,0.0020800485020005858,0.0024443949961341586,0.002630261094206705,0.002674970995610635,0.0026199463337018103,0.002512233172877553,0.002386249896989401,0.0022372628160311422,0.0020132437131717023,0.0016421707972774757,0.00108362679866916,0.00036999434530454647,-0.00039539725348111524,-0.0010875341001799661,-0.0016265114554361308,-0.0020169035917980984,-0.0023305780419837375,-0.002641189854346967,-0.00295283042622938,-0.003172292159167478,-0.0031477654405811985,-0.002753715107355229,-0.001971244911907446,-0.0009156318983143525,0.00020456060415591736,0.001171745456890427,0.0018396203112614603,0.0021705484500980188,0.002221055173665896,0.0020957229645711265,0.0018996011033262114,0.0017083115076567952,0.001557370030532659,0.0014426226285055104,0.0013255088049071873,0.0011431991291723472,0.0008267379563002604,0.00032789667529774377,-0.0003503409325951276,-0.0011310632030762063,-0.001863783165724155,-0.0023598661103391098,-0.00246035447199478,-0.0021110018557448183,-0.001403690547567603,-0.0005515745288946504,0.00020009086983816004,0.000683910274649054,0.0008789667295547965,0.0008972383697058833,0.000897094242828899,0.0009790972178010848,0.0011290907393716263,0.001240084538010307,0.0011916731542830161,0.000930331660268796,0.0004984461465068807,-1.511144398234248e-06,-0.0004763344917712226,-0.0008926481778158383,-0.001273026549205323,-0.0016442592932373332,-0.0019812235062115643,-0.0021931756651250058,-0.00216623650148885,-0.0018326260466996328,-0.0012180794201779393,-0.0004371077838919873,0.00035670771032632554,0.0010321703627511635,0.0015212357855233594,0.0018253902460294608,0.0019928846695461753,0.0020819707426514887,0.002127195779835077,0.002122835646111225,0.002030269958524255,0.0018052563081468135,0.0014307347783004349,0.0009368652473421835,0.0003955825527826534,-0.00011011644856091676,-0.0005278613327038303,-0.0008659818758510521,-0.0011915881553255083,-0.001590205393975364,-0.002102615822119675,-0.0026742669333762194,-0.0031542732369883413,-0.003355869513621427,-0.0031497953411971286,-0.002535565362288871,-0.0016460365333767599,-0.0006829151867494004,0.00017601384255450737,0.0008436445012543279,0.0013324166599114422,0.0017121268565845628,0.0020507114965449117,0.0023723881740325254,0.0026474911171315025,0.0028080856569134465,0.0027775422674913564,0.0025064652361113686,0.0020069159125215242,0.0013677031457587927,0.000730226817388209,0.00022262070950635014,-0.00011640211185168507,-0.00037155910132363447,-0.0007067753511396406,-0.0012564529750084138,-0.002015438111811986,-0.0028015718676026543,-0.003324344548038961,-0.0033270770721272954,-0.0027231687789057205,-0.0016503188065158654,-0.0004153152549064027,0.0006380488857791644,0.0012697534429792056,0.0014279115608241842,0.0012443993870113344,0.0009521239650200548,0.000767783837442641,0.0007954246080277062,0.000991972949008413,0.0012039229756120652,0.001250781290813364,0.0010125522724859473,0.00048299580540590034,-0.0002283975885444883,-0.0009390247872321376,-0.0014590520558911404,-0.0016560894836952227,-0.0014980854565355797,-0.00106049771088286,-0.0004931521278888018,4.356660541634502e-05,0.0004467061532730163,0.0007076695403374338,0.0008946241698353356,0.001088807698515857,0.0013150675183004844,0.0015134742573386117,0.001571986978414721,0.0013980700954306577,0.0009800488592604656,0.00039638720369555803,-0.0002316202048385608,-0.0008071880700034663,-0.0012948950923581761,-0.0017020952101879567,-0.0020261652133516214,-0.0022180441855059827,-0.0021991809945364647,-0.0019228651392246454,-0.001430024516579218,-0.0008489022195655104,-0.00032988345916394493,4.1807600405465784e-05,0.0002930270633153963,0.0005345354424523066,0.0008768991816453763,0.0013487403129009371,0.0018718223263324042,0.0023057875636367134,0.0025279947198138136,0.0024945636346799553,0.0022477558303333283,0.0018740808207108055,0.001447533843668975,0.0009951942708355786,0.0005015682594105455,-5.865629755439413e-05,-0.0006849647915346718,-0.0013352284766608392,-0.0019371439727700998,-0.0024171590963680675,-0.002727940947585457,-0.00285847214812765,-0.0028231812967219405,-0.002639639833770718,-0.0023104518273177554,-0.0018219456957238632,-0.0011628906850352694,-0.00035473407880664285,0.0005245991537835969,0.001342690213708484,0.001949003053512408,0.0022343909927904724,0.0021845956671914506,0.0018956184508102242,0.0015358355386114097,0.0012688665874339847,0.0011757012270637052,0.001218918494621903,0.0012711330079829,0.001193701638665562,0.0009209488204054605,0.0004999504703539642,6.150258088344861e-05,-0.00026069549642670267,-0.0004138284746702007,-0.00046106946377792724,-0.0005444399831372325,-0.0007948602263479592,-0.0012414532751084532,-0.001774288023862033,-0.002184454046121383,-0.0022614314297048246,-0.0018969685585433869,-0.001143337554870893,-0.00019890014533913928,0.0006705509118155313,0.001237605900962408,0.0013989211532949046,0.001204351862299758,0.0008192447354470314,0.00043980506869504773,0.00020313597542932982,0.00013588956586314187,0.00016448485569026052,0.0001748340548792162,8.191141158355266e-05,-0.00013146157854576753,-0.00042137903789297645,-0.0007178995727738005,-0.0009572831168917944,-0.0010922959794660045,-0.0010854086252376238,-0.0009043068681968069,-0.0005336935403058746,1.5266099359289242e-06,0.00062210087780436,0.0012081605692511042,0.0016409437275783452,0.0018509485921159381,0.001843715378022671,0.001687907061703545,0.0014744932178518378,0.00127260555985342,0.0011058437682428491,0.0009562982790129391,0.0007858925240632772,0.0005572885776857781,0.00024211902361869798,-0.00018263227435003342,-0.000737973073101307,-0.001432922372570806,-0.0022398124709285478,-0.003069869594566862,-0.003771680701348168,-0.004165689654589965,-0.004105989227668055,-0.0035412639508214457,-0.002543769336958189,-0.0012909138714511578,-7.393645187607403e-06,0.0011072855096445732,0.0019371398243367723,0.0024720572981477753,0.002786176229457785,0.0029823787821145697,0.00313002502255458,0.0032290557423574288,0.003220502784534376,0.003035650593556636,0.0026514880754169245,0.002116704974446937,0.0015326787099127325,0.0010023021054837195,0.0005766972607635109,0.00022784333624671692,-0.0001399660661909627,-0.000644593308996624,-0.0013650239776152797,-0.002290371948979061,-0.003301880864978353,-0.004198200702666511,-0.0047563498078192715,-0.004806024110547569,-0.004289471615945564,-0.00328435341618003,-0.001980443002630484,-0.0006181232341344126,0.0005883291088632392,0.0015125935623452153,0.0021383380786113137,0.0025338196724945757,0.002794069038335541,0.0029813402974559235,0.0030935997244434755,0.003074120758474132,0.0028530163030288727,0.0023956949347833465,0.0017310501440046284,0.0009445003350090092,0.00014177463835672263,-0.0005931228587241743,-0.001219514551737271,-0.0017296283565196374,-0.002117428219089259,-0.0023531022331110757,-0.0023853400556273947,-0.0021718467653391595,-0.0017155658404019933,-0.0010784702575262375,-0.0003618188390094705,0.000332427550620025,0.0009315486049108217,0.0013962899454795542,0.0017053208819262618,0.0018407914824940922,0.0017910614712319099,0.001568306326245151,0.0012228556912231383,0.0008352468519176403,0.0004819337320421649,0.0001911611519834107,-8.254010158653853e-05,-0.00044237501593808837,-0.0009903917578832741,-0.0017508935577288385,-0.0026186882323746097,-0.0033697113050331347,-0.0037410805803505644,-0.0035460586397861138,-0.0027639617101188154,-0.0015557910485277627,-0.00019793857160404647,0.0010288289549583135,0.0019377937048764885,0.002478435191992053,0.00271353873172428,0.0027562881471056623,0.0027068433524345442,0.002618475271407716,0.002499965279986462,0.002340053982786745,0.002132300729681233,0.0018848627976797727,0.0016122224167731194,0.0013170986567502922,0.0009759823885924519,0.0005395818960580959,-4.831397929325621e-05,-0.0008197050217063624,-0.0017526604040979,-0.002758592730390943,-0.0036959148262873253,-0.004406607761260649,-0.004760007717801892,-0.004685167391095419,-0.004181586378111017,-0.003311339208131767,-0.0021835491653188696,-0.000938931674427985,0.00026814368471896055,0.0012976880429591737,0.0020608595422047585,0.002547566927823928,0.0028214829727421266,0.0029760802528017607,0.003074642425838951,0.0031137631741096016,0.0030366724927490454,0.0027872568655612686,0.002364766890503598,0.0018380974521867658,0.0013095417092982853,0.0008565544039899431,0.0004942650381355093,0.00018031547511954604,-0.0001518849421481686,-0.0005619603749801107,-0.0010888084105110014,-0.0017432235924403432,-0.0024895011306779536,-0.0032204754225006703,-0.0037558014197095345,-0.003890793172485963,-0.0034879813361518293,-0.0025633350000340287,-0.0013089488718964208,-2.63418165065601e-05,0.001000764299395212,0.0016251886509066392,0.0018796654387798928,0.0019226018257815485,0.0019236436877108612,0.0019623037436451224,0.0020003875581598145,0.0019366076765372155,0.0016965591585012105,0.001291599312248431,0.0008077662799714754,0.00033833508493949564,-8.683337812900199e-05,-0.000520871167620024,-0.0010497625371896934,-0.0017024209735243402,-0.0023823555161164513,-0.002875744900397624,-0.002945997457563593,-0.0024664714219218833,-0.0015099029486791496,-0.00033276938008405745,0.0007429365034972253,0.001481852181082105,0.0018308405035508098,0.001905407372835361,0.0018853734108415568,0.0018938554211283425,0.0019368631430576738,0.0019321980355491352,0.001793162223001751,0.0015003493679326668,0.0011125478313507818,0.0007165598406665204,0.00035772201663795554,1.610724826740708e-06,-0.00044674099220617003,-0.0010766370307922063,-0.001896592848308649,-0.0027943580538785165,-0.003559051097629216,-0.003959744258209738,-0.0038428731797681037,-0.0031986234727021867,-0.0021631296503919497,-0.0009589835176119206,0.00019189132356159746,0.0011399837795946378,0.0018362073217757827,0.0023130114310424884,0.0026365702981368724,0.002857073443462003,0.0029798750880746577,0.002967008630880346,0.0027641900351661193,0.002339150214887552,0.001713780675803014,0.0009736832686204137,0.00024543891656972155,-0.00035382651035512867,-0.0007720869750743748,-0.0010506246055499548,-0.0013011526292592845,-0.0016364417968835606,-0.0020908811175132784,-0.0025802820217604833,-0.002931406583671352,-0.00296977575724145,-0.002615792203880714,-0.001931085413758637,-0.0010868235774262268,-0.00027451390986519175,0.00038520292852084936,0.0008819443426853321,0.0012851459221635017,0.0016707335921359663,0.0020561771363733286,0.0023843774439186397,0.0025611093072470596,0.0025162308941885253,0.0022473416812720717,0.0018194627503325062,0.0013230396615942506,0.0008178736131205775,0.0002994414050072377,-0.0002883098259756599,-0.000997577306736489,-0.0018108476436188134,-0.002607290355461132,-0.0031882157251057293,-0.003354091236066978,-0.002994391521923309,-0.0021437632816673816,-0.0009776130623368106,0.00024738812434548576,0.001278009205310506,0.0019394618061647508,0.002176622180480974,0.0020530236092209738,0.0017119818589981873,0.001313886484807443,0.0009718440412129447,0.0007117972926679037,0.00047674518737661877,0.00017530459176117428,-0.0002497795143719773,-0.0007719908014039779,-0.0012810307154290886,-0.0016344779432319097,-0.0017305673578547546,-0.0015568787631522031,-0.0011850750818744502,-0.0007188773133947534,-0.00023496122973864467,0.00024106878050418027,0.0007115251056317108,0.0011622755302457652,0.0015383352568861567,0.0017618745997948616,0.0017793804845553755,0.0016009114686048585,0.0012999047180021627,0.000970825876340066,0.0006717902040514355,0.0003893440501742311,4.794331254417202e-05,-0.0004405930955101178,-0.0011142218249224347,-0.001916657826834405,-0.0026947456873110914,-0.0032415254963135197,-0.0033695773246227145,-0.0029847139868602267,-0.002127641651770923,-0.0009642438773894038,0.0002711243404097364,0.001352931585043649,0.002128319756520889,0.0025441978042002504,0.0026354332582461002,0.002489688144895017,0.002209235794975147,0.0018831094571833658,0.0015727474476597665,0.0013083335479204517,0.0010919806081706289,0.0009042740549402423,0.0007109844826539277,0.00046863619364219503,0.00013130067948250064,-0.00033718271816282445,-0.0009448987616629749,-0.0016540634515908612,-0.0023751961262441917,-0.0029820840302451114,-0.0033464784741561275,-0.0033796138330792155,-0.0030614780363292416,-0.00244387553473366,-0.0016280313322721716,-0.0007317128229996849,0.00013666004875756866,0.0008903929958981289,0.00147032569035073,0.001853231820028012,0.0020606620790498,0.002154244567009547,0.0022069891918041025,0.0022603158247460568,0.0022954906420791007,0.002244732456777836,0.0020393244935772692,0.0016618236112171329,0.001163798221349072,0.0006358071198405923,0.00015242096600062358,-0.00026691767921319803,-0.0006540468847270105,-0.0010514259026160062,-0.0014673172903649947,-0.0018596669205105298,-0.002157359200021122,-0.0022990868264464136,-0.0022595096594407514,-0.002046726470472871,-0.0016810126499602089,-0.0011799677724166836,-0.0005671014316563328,0.00010339789502828681,0.0007327095622245571,0.0011984309578268407,0.0014086849384301451,0.0013567458078151357,0.0011340570833351282,0.0008827795082805834,0.0007115633644621867,0.0006286770321438772,0.0005394568571820767,0.0003128177411825802,-0.00012521131210155854,-0.0007303342133889334,-0.001347963272157148,-0.001782573920538569,-0.0018850631929813511,-0.001609645725378243,-0.0010170623780335478,-0.0002358536380298196,0.0005872004014782408,0.001322778453561588,0.0018763706018762657,0.0021964155149318135,0.0022801413584972972,0.0021735188519595,0.0019565904259195577,0.0017122819550996966,0.0014903775214584795,0.001286429641487133,0.0010493410382093108,0.0007141830667364501,0.00024106894647623472,-0.00036198634419053145,-0.0010429292577603954,-0.0017299131975444587,-0.0023583744865759643,-0.002884688793571698,-0.0032816384375186696,-0.003523683248440425,-0.003575868487895332,-0.003396786968159949,-0.002956410074557348,-0.00225945258672597,-0.0013600070323357251,-0.00035671393575592293,0.0006318373771021585,0.0015004365856760501,0.002183104757392003,0.0026600900592830554,0.002946599690105354,0.003074268688630434,0.0030771581915155386,0.002985673836562683,0.002823472568159282,0.0026029203346126933,0.002322281599849173,0.0019719227763717066,0.0015502682658739815,0.0010784678217265107,0.000598355380367468,0.00014814733442858699,-0.00027122152932077914,-0.0007131638064168795,-0.0012644851469290638,-0.0019880932731579396,-0.0028592064794479228,-0.0037374385318193325,-0.004401539796425758,-0.004636902361375258,-0.0043316323757526,-0.0035286766289860595,-0.002405945706016069,-0.0011978860881808173,-0.0001030711214014677,0.0007756098227748858,0.0014357295052882168,0.00193422914843823,0.002330415645313888,0.0026452256808229876,0.002854973473731425,0.0029166408251974584,0.002804997113929877,0.0025378795780597136,0.0021751220632224536,0.0017920529797150293,0.0014418221606883178,0.0011264470915086278,0.0007926909503224451,0.0003576894882616902,-0.0002448900925307602,-0.0010189154554866562,-0.0018838132991532087,-0.0026905396875685278,-0.00326991222763906,-0.003490003813653607,-0.0032959791364674832,-0.002718790571878959,-0.001857695328538939,-0.0008517428370097989,0.00014791954745117287,0.0010030263898309984,0.0016135086444018232,0.0019408257252288997,0.0020178044957637324,0.00193273713188426,0.0017886769825105223,0.0016573321077232197,0.001554014291864845,0.0014466969163008732,0.0012875789084968543,0.0010405124218805446,0.0006856995700779329,0.0002072832547156294,-0.00041210172797045703,-0.0011712407597722215,-0.0020130286713622107,-0.002803069727655038,-0.0033551043562380445,-0.0035022611021428987,-0.0031760040495644646,-0.002443252775322251,-0.00147691033556238,-0.000477563307614859,0.00040660409760105265,0.0011178564965144647,0.0016716981714606555,0.002106185638238515,0.0024358471929888693,0.0026382792669516803,0.002675715253340206,0.0025310042361452777,0.0022310116887199667,0.001841903554232218,0.0014406506779153878,0.0010817284962435967,0.0007784016051054887,0.0005057218061752075,0.00021778784138795821,-0.0001340156521683751,-0.0005889447321229646,-0.0011673408678991714,-0.0018562322109177496,-0.0025913235545922553,-0.00324996137284388,-0.0036729236741389845,-0.003718049500734983,-0.003324397217955219,-0.0025512927914735275,-0.0015656512970216594,-0.0005787577691610023,0.00023792911851843249,0.0008165850757271428,0.001205091063028759,0.0015214504666536972,0.0018736049675468353,0.002287184448643754,0.0026825295303671507,0.002917134466322628,0.0028713176657288236,0.0025260242927077118,0.00198284147359487,0.0014103363439542736,0.0009474928141705869,0.0006232961468971705,0.00034221736865486436,-5.431753164899286e-05,-0.0006841333231856715,-0.001534948499409848,-0.0024391525720928757,-0.0031306137296086105,-0.0033598733544105428,-0.0030123641056012357,-0.002169357901137931,-0.0010782052654923257,-4.4795910126381574e-05,0.0006976094035630218,0.001076258771347799,0.0011803045008055393,0.0011802822716750093,0.0012154004911253925,