3.6338758505621346e-05,-0.002204776068567865,-0.003981012423513828,-0.004982892812002872,-0.0051512542745909395,-0.004665957442696845,-0.003848316121836226,-0.003031464551219092,-0.002457444886856897,-0.002233049701545863,-0.0023401154331375864,-0.0026735498807273534,-0.00308148608802813,-0.003398209415648215,-0.0034742172602451977,-0.003207471343733952,-0.0025696222684863787,-0.0016142885878800074,-0.00046012329944632884,0.000744615743977447,0.001859157846179492,0.0027746609317379663,0.003423959191812388,0.0037846565788432736,0.0038820817792588366,0.0037881426073998886,0.0036051415156468977,0.003430022902120051,0.0033112350072077006,0.003223119985388629,0.0030783005627371654,0.0027767924566769655,0.0022659720898914612,0.0015762000700390712,0.0008102579356791274,9.206114315170854e-05,-0.000496199712283363,-0.0009533661096940695,-0.001354212228998735,-0.0018039808367358986,-0.0023769449893983117,-0.0030685918979751303,-0.003781485494883808,-0.004349250640743954,-0.004589834385261318,-0.004370842769426167,-0.003665105276506421,-0.0025740853427381532,-0.001304171695276471,-9.88584156439396e-05,0.0008471368063253428,0.0014518872704374591,0.0017568458543224651,0.0018816585353554057,0.0019522819521137365,0.0020430791501980733,0.002158646905277821,0.002253672661575507,0.0022700513540097602,0.0021692724137534654,0.0019481344626330506,0.0016357930827739485,0.0012757706876469466,0.0009007076820453678,0.000512001627505201,7.733706525890681e-05,-0.0004482168518493369,-0.0010858312848723351,-0.0018012605980601065,-0.0024979896629944986,-0.003042287029344445,-0.0033092419008400563,-0.003227266498991542,-0.0028003550769140533,-0.0021008704892691993,-0.0012415605098318849,-0.0003433925231175988,0.00048816809297820834,0.0011758392454134482,0.001676365924369661,0.001983319416056624,0.0021263014606246904,0.0021630068306465492,0.0021615170761308104,0.00217477155610691,0.0022156629721050295,0.0022460944940107296,0.0021912825951029527,0.001978457944856764,0.0015817637600261032,0.0010453700478486763,0.000465788209409242,-6.014919294953708e-05,-0.0004904608552093464,-0.0008606414030713716,-0.0012582975523630904,-0.0017645915144469692,-0.0023963644009910197,-0.0030803510415759886,-0.0036721254981127334,-0.004010079270865894,-0.003979420750244832,-0.003557669576460491,-0.002821534313335535,-0.0019123763278774332,-0.0009771810029646825,-0.00011458167072611364,0.000647022258813214,0.0013301462924146406,0.001962488914639139,0.002535133231611064,0.002992010651070392,0.003257233358085229,0.0032812157055983524,0.0030735492973293726,0.0027007419426174676,0.002253215003886418,0.001807280675188437,0.0014068900821225245,0.001069653736083847,0.0008017253130110832,0.0006033527962240905,0.00046033666982980126,0.00033193146306675187,0.00015019987481618906,-0.0001618533296599829,-0.0006583770509217892,-0.0013390323438938999,-0.0021336051964918785,-0.0029133065296753314,-0.0035277314170554805,-0.003853626089576848,-0.0038342510063317002,-0.003491393889078713,-0.0029055242179412233,-0.0021763623390580827,-0.0013861577546963758,-0.0005842419912573972,0.00020378708825868398,0.0009546096779880232,0.0016311815803585362,0.00218305018273266,0.0025618764445177905,0.002742400239348437,0.0027371584929089658,0.002596583785253693,0.00239228004921711,0.0021888988508026595,0.0020170038939528005,0.0018613485907154458,0.001672423003403881,0.0013957178669695902,0.0010012129155571317,0.0004946310709550926,-9.525894233472162e-05,-0.0007404577519810866,-0.001425762214491888,-0.00213463176362935,-0.0028177964324292964,-0.003373529143354611,-0.003666332985974482,-0.0035841594967435664,-0.003102555378341862,-0.0023131443837840007,-0.0013935614618746032,-0.0005323903245322789,0.00014970919284973275,0.0006400550647413367,0.0010161334287574,0.0013835437361777421,0.0018060229314116483,0.0022652599050869975,0.0026693999390492505,0.0029017923480688735,0.002880936630530967,0.0025994109655888744,0.002124352952507894,0.0015647114432938087,0.0010261945229877213,0.0005749031419344445,0.00021967118156550466,-8.649751309468745e-05,-0.00042740288959946756,-0.0008882043487012936,-0.001510536899145878,-0.002255895735772855,-0.002999369943598633,-0.00356480172874365,-0.0037901470286125566,-0.0035929714442621257,-0.0030038326918831655,-0.002151623105825589,-0.001209854024463869,-0.00033176751397391937,0.0003950507457447447,0.0009571499442123531,0.001389792518134875,0.0017369739974768122,0.002020847346920101,0.0022358710454225663,0.002366037149592672,0.002408374463605334,0.0023828260207892156,0.0023203495479349944,0.0022391530693033268,0.0021290417728038803,0.0019576031714957725,0.0016944464676367198,0.0013350567565838288,0.0009054769523946771,0.0004431704537171754,-3.247260783289553e-05,-0.0005377418613277856,-0.0011151925564892697,-0.001800034347264588,-0.0025811763895159058,-0.00337953285018304,-0.004057060459218954,-0.004455124083223736,-0.0044477881448189704,-0.003988854907313141,-0.0031330890493678643,-0.0020222930937306097,-0.0008417845981233058,0.00023511672070475234,0.0010935806674616773,0.0016991123154953415,0.002089388321320319,0.002341818282361456,0.002531415494913389,0.0026971135920289967,0.002830680149845353,0.0028915292165184693,0.0028373995723467464,0.002652099191451163,0.0023538416358275128,0.001981361642322697,0.001570674736068543,0.0011402602308857514,0.0006925224558602227,0.0002242219173210849,-0.00026749794095213663,-0.0007886262720692323,-0.0013526289094184375,-0.0019717715315809496,-0.0026319439849243906,-0.003265786418295827,-0.003748696849329832,-0.00393256372381922,-0.0037075904562501156,-0.003060664084936911,-0.0020956211978868473,-0.0009999336995442942,2.7473203271819596e-05,0.0008499304935084416,0.0014302224903297363,0.0018152584284592437,0.002083060869642438,0.0022869084046453947,0.0024286067171527203,0.002471047465558168,0.0023755225279361324,0.0021372505137858323,0.0017977235812192442,0.0014280373895458325,0.0010929959276096304,0.0008146448773516345,0.0005543775368862145,0.0002260140381953718,-0.00026058067110236785,-0.0009424033082042921,-0.0017626688597317246,-0.0025740233820137994,-0.0031904648481848284,-0.003462412577479611,-0.003333637515590035,-0.002850883705259831,-0.0021279955603315786,-0.0012926277292255365,-0.00044712253894130206,0.0003425799700356978,0.0010377707885083033,0.0016143757146913483,0.0020577887471068938,0.0023646424844852116,0.0025444143514404796,0.0026149385681910283,0.002592102054196002,0.0024802707756391134,0.0022714148320971293,0.001955543260554825,0.0015362144582910155,0.0010392347742945963,0.0005053334605643343,-3.166815706179965e-05,-0.0005671023273390595,-0.0011289325117806903,-0.001752351150517709,-0.002435974597005075,-0.0031084693672093775,-0.0036342890785595683,-0.0038643551176523972,-0.0037064525500268937,-0.003173727628621814,-0.002380893856732305,-0.0014896447322110006,-0.0006359689401578689,0.0001182483039431977,0.0007846992863176948,0.0014065727008463346,0.002006368859607106,0.00255672932011202,0.0029888545954766055,0.0032286727054093326,0.0032359415145760376,0.0030233080833315567,0.0026475650440852504,0.0021827590898139296,0.001692923587149549,0.0012169794759914682,0.0007662003439878771,0.00032721687376858837,-0.00013328141282996023,-0.0006582626316920478,-0.0012793802568894814,-0.001988834311687572,-0.0027184012831830747,-0.0033425363840938233,-0.003712491109100197,-0.003710520690161866,-0.0032987671401375866,-0.0025375849443833517,-0.0015647770832367051,-0.0005489971669642626,0.0003586165404636729,0.0010568006464876693,0.001507023308104971,0.0017316390066221658,0.0018004091372711977,0.0018049249272371881,0.0018239027088652118,0.0018911978406765983,0.0019828789221366895,0.002032440600157041,0.0019671551121498245,0.0017451019568610732,0.0013719905004582827,0.0008902234999360549,0.00035040128250944566,-0.0002143340067844454,-0.0007942551618429983,-0.0013866022607348944,-0.0019691388868396617,-0.002482761434976857,-0.002837074627312609,-0.002939667480602134,-0.0027358444292355116,-0.002237915251945985,-0.0015267361176215114,-0.0007228155135243005,5.78787400539505e-05,0.0007392056340314907,0.001293556965839585,0.00172409811915873,0.0020372468707992976,0.0022260570418255856,0.0022744805750328093,0.002176051341752004,0.001950721436147337,0.0016459647267446328,0.001318998712615128,0.0010085778369042344,0.0007117584024489327,0.0003805486796394944,-5.5124223833545675e-05,-0.0006453808291969549,-0.0013788550538845548,-0.002164747297111387,-0.002852502679900895,-0.003284307830921124,-0.0033562955060632126,-0.0030568040745377893,-0.002461619323739754,-0.001691701202942816,-0.0008616190438022858,-5.005455108536116e-05,0.0006954377504929142,0.0013341451759558754,0.0018168587787358267,0.002097692791335878,0.0021654521194314543,0.002067177880637626,0.0018997383757621313,0.0017688833737231008,0.0017392313767149812,0.001804491792564445,0.0018928724844721287,0.0019015086041214058,0.0017408180432653825,0.0013699767482493273,0.0008127444363147209,0.00015046839514442533,-0.0005064893736915383,-0.0010625893037921126,-0.001480843275631509,-0.0018027433225335455,-0.0021243739540133346,-0.002530684577299061,-0.0030208142856714545,-0.0034743125273860413,-0.003691792300121892,-0.003497617862134245,-0.002846385727283349,-0.0018647523432681469,-0.0007975195814788316,0.00011237599510497664,0.0007386996367984579,0.0011154788413891437,0.0013889623697318466,0.0017124265506588457,0.002148656172119315,0.0026352916682762365,0.0030272585416447756,0.0031844972661761155,0.0030499824762485975,0.0026746963626300287,0.002182355004645144,0.0017024317576986548,0.0013133578456711872,0.001023547314004759,0.0007894865238444447,0.0005486322246183895,0.00024372793417793478,-0.00016874614652233886,-0.0007158436443754238,-0.0013975502905791129,-0.0021675893827339966,-0.002921780066067109,-0.003514105653735675,-0.003804758327838615,-0.003718920633432131,-0.003281041496204058,-0.0026012767119729463,-0.0018219454808925321,-0.0010582184489281367,-0.0003679055141362538,0.00023901921339559594,0.0007687902820654269,0.0012185018880476034,0.001573760185860613,0.0018246971562143814,0.0019820301050984934,0.002077420541130406,0.002146553193411457,0.002206912636478085,0.002245377123174374,0.0022228960448897016,0.002092372769430339,0.0018198783074033999,0.0014003779927544858,0.0008629856787621281,0.0002637981372551839,-0.0003323860059804598,-0.0008749742867302878,-0.001343816590563169,-0.001747988488907942,-0.0021047170596398376,-0.0024092043504647543,-0.0026158503256066877,-0.002648710091708581,-0.00244164993030172,-0.0019862508617379034,-0.0013550103882088843,-0.0006795237612412385,-9.199949295957837e-05,0.0003361068686275432,0.0006210765497168418,0.0008438786449394815,0.0010930433240771726,0.001409121319323719,0.0017620465366670834,0.002069870297603299,0.0022430357024809033,0.0022275325119079873,0.002026206974963548,0.0016924490903790545,0.0013036826282811966,0.0009277811848725247,0.0005949769194110366,0.0002850799208402727,-6.353441819212202e-05,-0.0005226526998120115,-0.001130256136215947,-0.0018540108420928131,-0.0025844076945653422,-0.003166837287728426,-0.003459366806068778,-0.0033866834176683527,-0.0029633326294946326,-0.002278665042197365,-0.0014570495103245643,-0.0006162385512912052,0.00015844110423668552,0.0008192090970904666,0.001346841390528024,0.0017389471137930967,0.0020042679232097375,0.0021640831624091593,0.0022538679848491117,0.0023160905330816836,0.0023815771077633956,0.0024483185154680442,0.00247337315412935,0.0023883499184569608,0.0021340253284194465,0.0016955271071608872,0.0011166510717183999,0.0004827824763314547,-0.00012006275616029427,-0.0006482177665634098,-0.0011210398986783495,-0.0016055526473506105,-0.0021696671161714,-0.0028262412011393805,-0.003498578163418961,-0.0040308885779303935,-0.004245269227283311,-0.004020199681450605,-0.0033506696298539313,-0.002357772332673911,-0.0012422340892242387,-0.00020573256680005126,0.0006208716870211151,0.0012092822720152117,0.0016151109929754906,0.0019253767677209646,0.00220501473970582,0.002471040610487719,0.00270123563890646,0.0028610709343341763,0.002925452832764996,0.002883815788151282,0.002734429387114837,0.002480250697191163,0.0021310874579639357,0.0017061497094388702,0.0012292661076229703,0.0007172141713050265,0.00017033380603714236,-0.0004254034224290415,-0.0010841717015243762,-0.0018017108272229251,-0.002541751390982885,-0.0032328112032672246,-0.0037770562420774275,-0.0040714350046233295,-0.004038370075067002,-0.0036568680240100073,-0.0029794120005700686,-0.0021222538427002236,-0.0012283922894635012,-0.00041751259037271316,0.0002541001987447284,0.0008040979019874014,0.0012994683437420238,0.0018084818754928232,0.0023528932366721988,0.0028846863346821084,0.0032999370093098166,0.003484108210102626,0.0033676144384187116,0.0029652176160832673,0.002379590188814779,0.0017644303865746581,0.0012594409366654268,0.0009228582732987601,0.0006931395855986899,0.0004055277889602319,-0.00013192644065499436,-0.0010304408143490184,-0.0022346887745097075,-0.0035121114475828545,-0.004533628695528542,-0.005008503276864529,-0.004802558040768691,-0.00398035207081141,-0.0027593810902017484,-0.00141289425908268,-0.00017596488493675845,0.0008080065536485814,0.0014957342136773131,0.0019245614032431984,0.0021823322608534096,0.002372327414191128,0.0025735030487015476,0.0028040355825216558,0.0030068101072580873,0.00307282509874212,0.0028983228876475944,0.002447292097374639,0.001782375811474837,0.0010427822913073694,0.00037843407054998553,-0.00012422196402086475,-0.00048392482780048674,-0.0008111156603407751,-0.0012460943128902338,-0.001879197096646208,-0.0026904895074201032,-0.0035374671539048093,-0.004199267323180824,-0.00446077181926062,-0.004199289495205732,-0.0034331605187237577,-0.0023111252838530416,-0.0010524877109004951,0.00012961839962076244,0.001088362670209676,0.0017684111735490247,0.002195849394885705,0.0024440849861260506,0.0025915458275923417,0.0026875894506311676,0.00273986775665891,0.00272705906990747,0.0026270165645752627,0.002440623216005776,0.0021946849575612245,0.0019224215865686458,0.0016368954774499444,0.0013185700424029004,0.0009280193636416338,0.00043524383796694093,-0.0001568840871708807,-0.0008133314879058221,-0.0014896305228035216,-0.0021548914256736195,-0.00279264049692372,-0.0033768690460263756,-0.0038443245204336637,-0.004091303355668348,-0.004007390825766901,-0.0035311593466495275,-0.0026941760360638892,-0.0016241399722546704,-0.00050284011113492,0.0004982254375762681,0.001271317641783412,0.0017928856819935642,0.0021099103774113465,0.002306026224287446,0.0024631652849419748,0.0026289909216020034,0.0027969283957424203,0.0029061297379543126,0.002866463948879687,0.002602954939014867,0.0020998201835005737,0.0014189223796861764,0.0006788451898551281,3.218753061635601e-06,-0.0005347125721224604,-0.0009416559464872636,-0.0012917841660953448,-0.001677313995088878,-0.002146339216768412,-0.0026603865351125804,-0.0030964463799291594,-0.0032961368706056387,-0.0031387191496732494,-0.00260018569692082,-0.0017676565471935481,-0.0008033276509567123,0.00012047112805961806,0.0008807527472414441,0.0014315201030283195,0.0017943650728648843,0.002026061508929821,0.0021833248088547093,0.0022982239185491546,0.002368001882570685,0.0023589647317970594,0.0022244720650879722,0.0019338527089996784,0.0014994795348204273,0.0009824009802372028,0.00046493825739358434,1.157956041794128e-06,-0.0004229186629176354,-0.0008865479365555688,-0.0014801317725508054,-0.002226548331013897,-0.003028061989692758,-0.0036806011792289567,-0.003957861834079398,-0.0037216163351578777,-0.002994371217976671,-0.0019518535737159729,-0.0008413591241662024,0.00012561867886838477,0.0008486800303597429,0.0013492480668178398,0.0017231702499087252,0.0020691175227807363,0.002431102695106916,0.002778959068223746,0.0030288948123443717,0.0030882650219745014,0.002901330832489708,0.002476979801452842,0.0018901287152519814,0.0012586627171645537,0.0007038476652595058,0.0003059109011796694,6.995256663193747e-05,-8.192246006635622e-05,-0.0002832733078600259,-0.0006668098731461593,-0.001300530374583764,-0.0021449179416262306,-0.003052142560509512,-0.003810320624483796,-0.00421629874614576,-0.004147964465190281,-0.0036070685639308653,-0.0027158672269825177,-0.0016700204112943572,-0.000667797802435038,0.0001554235061094944,0.0007615681288507801,0.00120149943413177,0.0015711912325808112,0.0019543965463632786,0.002377291117753364,0.002793207022942212,0.0031027071386645357,0.003200685826027448,0.0030305172510389005,0.002619098069868693,0.00207172019399264,0.001524690757895781,0.0010787836471284175,0.0007511170031903678,0.0004737201525093221,0.00013791078045588556,-0.0003445581396012417,-0.000998828328180576,-0.001779401698309495,-0.002588717146836142,-0.003301698824041724,-0.0037854288909961345,-0.003919083158568837,-0.003623767074124487,-0.0028999668391691503,-0.001853559536398774,-0.0006860633045903304,0.00036153116684681675,0.0010957934615081037,0.0014498910442551853,0.001510995124785726,0.0014733619449993423,0.0015339696666947181,0.0017843994409595442,0.002161051779240333,0.002484512824406485,0.0025646687684820046,0.00230773045110304,0.0017630027098309024,0.001087618514597637,0.00045642246960499373,-2.8847630695269912e-05,-0.00038264084854364286,-0.0007115834195365648,-0.0011390307246515099,-0.0017190207179938073,-0.002385660969722805,-0.0029663070696833898,-0.0032535734396686553,-0.0030995384273645715,-0.0024843577935491756,-0.001527705608110174,-0.0004432280658678077,0.0005378213285428804,0.0012408661862610816,0.0015966173365529234,0.001653459385360329,0.0015522201199779228,0.001469037572797158,0.0015417224820188234,0.0018059764272981885,0.002171424815534041,0.0024551813742166246,0.0024641043231238523,0.002089637475737403,0.0013679935496104555,0.00047180859669499896,-0.00036779027979820403,-0.000972936970325948,-0.00130687893722874,-0.0014872958760934521,-0.0017115892540812971,-0.002131008423005007,-0.0027447031986146614,-0.003378044367310123,-0.0037612930503270175,-0.003664242890189419,-0.0030102756393585936,-0.0019101008468382342,-0.000606524261651042,0.0006297266146368767,0.0015961942779241585,0.0022079806853512675,0.002494259191787446,0.0025600738532608252,0.002535778916798451,0.0025283240669571215,0.002582385399747286,0.0026615421351260113,0.0026626222040575837,0.002467061270517255,0.0020101057206302416,0.0013285961076453887,0.0005523778641921017,-0.00016270351362607496,-0.0007216871601795716,-0.001140963357274567,-0.0015264681311894352,-0.001990426861732396,-0.0025593757235327043,-0.003134378443406028,-0.0035317074340145554,-0.003579790045427536,-0.003211942364423003,-0.0024994374253203017,-0.0016107131134016186,-0.0007289509727248655,2.0342856333819734e-05,0.000596731748666627,0.0010268569659837175,0.0013661955744625302,0.0016672650688342094,0.0019643923353056935,0.002268157302558874,0.002559326102620309,0.002782664501822369,0.0028527545337072987,0.002682713587420673,0.002230179357345278,0.001535799652607453,0.000725206600239872,-3.68042917027237e-05,-0.0006211796764229368,-0.000997642335429849,-0.0012467028480308128,-0.0015085135629427581,-0.0018931556536029503,-0.0024011272823130578,-0.002899924609596312,-0.00317431204678453,-0.0030293083798484323,-0.0023955904845753932,-0.0013818911306752672,-0.00024231045339547755,0.0007308989629623563,0.0013370845722776444,0.0015509019046564708,0.0015133275008916776,0.001435657151301301,0.0014745417976676643,0.0016532164827056362,0.0018719080210135596,0.0019901740120009444,0.0019186350533254844,0.0016593038016367665,0.0012781220522557805,0.0008434699593527345,0.0003819056673209807,-0.00012114467166237416,-0.0006870609275737761,-0.0013084759123117382,-0.001936287740766511,-0.0024901218731303125,-0.002878814930167957,-0.0030201679786452376,-0.0028592556498420792,-0.002388053333320449,-0.001662131409707016,-0.0008011763224736064,3.876845290349244e-05,0.0007182292116156125,0.0011693358768082023,0.0014214701884533386,0.0015785826001801077,0.0017566176281673196,0.0020141367841644622,0.002315009574276638,0.002544956638970937,0.0025737046144491465,0.002328801393239428,0.0018401921731361823,0.0012303110951900603,0.0006540793394792353,0.0002204395252511954,-6.299396520559677e-05,-0.0002927462768264891,-0.0006172705473236272,-0.0011547270741635572,-0.0019205573576215793,-0.002800259334673369,-0.0035817139455973654,-0.004033732811937406,-0.003996139832944851,-0.0034416889437282956,-0.002483777519445728,-0.0013293829145126744,-0.0002011661989559572,0.0007356619731402235,0.001412116514681491,0.0018493889275291787,0.0021189828851888065,0.0022931324499701755,0.002409346976634863,0.0024618050271753658,0.00241760471350637,0.0022451218245979356,0.0019390622160865127,0.001531550082152575,0.001086476226682911,0.0006805651995027198,0.00037731645122314255,0.00020095756329612023,0.00011927899351692165,4.561570494799813e-05,-0.00013343149620411191,-0.0005095100151104193,-0.0011027496144262404,-0.0018365504256999204,-0.0025535313382271914,-0.0030687928843523993,-0.0032378479386586485,-0.0030099566435605545,-0.002444736001424955,-0.0016855680658406987,-0.0009007878778588612,-0.00021727997622352673,0.0003238608386809594,0.0007674764048324371,0.0011984574941637017,0.0016735050916807275,0.002170199675346012,0.0025861416508067762,0.0027914761708937074,0.002703742209905989,0.002338385645248414,0.00180328355525661,0.0012417705911805374,0.0007613834423331799,0.00039223125235966885,9.531572791835873e-05,-0.00019458344293501158,-0.0005272876256608634,-0.0009230376341307111,-0.0013826213976476484,-0.0018968026870539248,-0.002435225113675379,-0.002921669810899452,-0.0032254132135655835,-0.0031950364483328024,-0.0027310251684410504,-0.0018588194125033026,-0.0007519188684832387,0.00032239393511808944,0.001116150147033756,0.0015142696800061373,0.0015840528780045355,0.0015297888482892637,0.0015757560831637129,0.0018421246734615809,0.0022814921127661154,0.002707869974371833,0.002897906837582505,0.002707097735544991,0.0021407709118654045,0.0013483473456453482,0.0005508118960418959,-5.74999406151792e-05,-0.00038554503601948313,-0.0004713954950056491,-0.00045569427465437897,-0.0005215165806899331,-0.0008246174545942519,-0.0014331163495745684,-0.0022906881941374244,-0.0032162683652301343,-0.003949963300649581,-0.004240624901053758,-0.003946663025733016,-0.003103593611234472,-0.0019183981373364057,-0.0006858457333507808,0.0003339843993085096,0.0010146425026999531,0.0013906745847160815,0.0016069668016606689,0.001824916728462214,0.0021373339467628547,0.0025314016956194878,0.002909158506301669,0.0031459833022452017,0.003152804221485281,0.002911642934639298,0.002472352051408673,0.0019202152300748518,0.0013373929552469707,0.0007792875516001896,0.0002724672635222763,-0.0001753444920097039,-0.0005685687951648845,-0.0009271808630113151,-0.0012919427122167126,-0.0017157227411528342,-0.0022338983963708773,-0.0028260443550806877,-0.0033948212167472236,-0.003783574178112002,-0.0038328221415380175,-0.003451280182646235,-0.002665384549660491,-0.0016202209626233984,-0.0005290870173921066,0.00040552514689916157,0.0010636418204633736,0.00144118011591908,0.001632735719452456,0.0017745544101963663,0.001975356225249821,0.0022665819654092423,0.0025932729758580426,0.0028469465134577394,0.0029218161538195307,0.002765468862976078,0.0023997398393942864,0.0019039204483839293,0.0013712967403767171,0.0008619849442381262,0.0003757535997018927,-0.00014103304967069078,-0.0007562419800839081,-0.0014991960791719042,-0.0023222986808987688,-0.0030998576355363086,-0.0036675825998256856,-0.003883725004790385,-0.003681750187263016,-0.0030915450852175503,-0.002225050027254179,-0.0012389600289600567,-0.00029186106055080626,0.0004926898879531659,0.0010522434027776916,0.001396092372791425,0.0015936576684156653,0.0017387731934306212,0.0019020447004907254,0.002095455711009133,0.0022700081534322357,0.002347663400006678,0.002267302716145665,0.0020171875231761336,0.0016376115933340366,0.001196701974849096,0.0007554642122516498,0.00033945884997938993,-7.149886124832456e-05,-0.0005311025739847581,-0.0010940275455629755,-0.001773975221590254,-0.002511549090167004,-0.0031722486128119357,-0.0035832836746823105,-0.0035976098928098303,-0.0031568835159920053,-0.0023233064974215976,-0.0012646786144487636,-0.00019843252296230482,0.0006820373062114662,0.001268739247843472,0.0015641242260040357,0.0016618590677764374,0.0016947003324997965,0.001774285235380958,0.0019486465739497322,0.0021921605508344365,0.0024265842001119477,0.0025593918598108435,0.002521324322329578,0.002288388682785603,0.0018814219635034865,0.001345791580293591,0.0007224892142147192,2.6934921639811178e-05,-0.0007501647417493812,-0.001616205027680859,-0.0025368134412607855,-0.0034083037018582526,-0.004067352194294579,-0.004343815176341894,-0.004134300895042363,-0.0034560362818736,-0.002448050388196092,-0.0013168935321742933,-0.00025684813616253107,0.0006124057020615741,0.0012621776910770423,0.0017268588046097056,0.0020576502480567395,0.002287484529026544,0.002421557474880718,0.0024487552941937275,0.002360103028417262,0.0021631553316699987,0.0018875765528014675,0.0015800399761474342,0.0012878952013346706,0.0010358423102136713,0.0008069377282968572,0.000541669433404994,0.0001621263011503088,-0.0003850520146344867,-0.0010863773582235935,-0.001844473148301209,-0.002502133331293342,-0.002901570523799845,-0.0029502045002960343,-0.002657448657214561,-0.0021229072645978305,-0.0014846274320202439,-0.0008571889587049947,-0.0002914200629783872,0.00022710492821676807,0.0007439316381900142,0.0012854414823594423,0.0018194984921477762,0.0022505517553670896,0.0024570402768090884,0.0023553714190469857,0.001955327476732293,0.0013710470838239866,0.0007749732082976826,0.00031721859197982234,5.5853856364749535e-05,-6.26917021555843e-05,-0.0001652699868925504,-0.0003813120476044824,-0.0007789153318037785,-0.00133600960917107,-0.0019523331277053427,-0.002489444287580681,-0.0028187494073840646,-0.002859671303116928,-0.0025969977220159247,-0.0020750848270418777,-0.0013749193865210485,-0.0005855165212475274,0.0002184954170225258,0.0009859696308928579,0.0016849913999670274,0.0022910062674189094,0.002775151289639585,0.0030995314913738995,0.003223505374389237,0.003120870638129351,0.0028014237587689356,0.0023240230669625784,0.0017880971608712493,0.0013003205345783623,0.0009285695599731735,0.0006661200323052288,0.0004275338660935433,8.362098124806605e-05,-0.0004768944126580212,-0.0012866651899706514,-0.002269892369495422,-0.0032603813508838004,-0.00406216461588459,-0.004525998675045976,-0.004604755770629888,-0.004358064113634058,-0.0039013389221814808,-0.003326643532838923,-0.002644143841767929,-0.0017858075951652096,-0.0006754373688357194,0.0006777985791434407,0.0021276676864200013,0.0034236398456580115,0.004315404549309478,0.004667638485745508,0.004516444355059373,0.004037154578675675,0.003448359805987655,0.0029117979929928197,0.00248214378091202,0.002123102262018014,0.0017644893210696914,0.0013562857626994546,0.0008884490673010397,0.00037571737096676904,-0.0001693949299602011,-0.0007504273191317568,-0.0013791830681025438,-0.0020554703097533968,-0.002748950123343567,-0.003392278595793616,-0.0038882099719622755,-0.004130597096877478,-0.004036702130697622,-0.0035817501927871637,-0.0028194708984429656,-0.0018733411510258864,-0.0008970827650141705,-2.2621984274680436e-05,0.0006763989937941526,0.0011878874533859944,0.001537726925752581,0.0017630121626076702,0.0019010352431741285,0.0019921020137288713,0.0020785597549029763,0.002187403768599772,0.002304443276858153,0.0023640650083026522,0.0022734181026054508,0.00196481383915789,0.0014444617944461195,0.0008013163972826814,0.00016338503945594008,-0.0003748196597729914,-0.0008065152960138704,-0.0012081567845961525,-0.001671210584701875,-0.0022096576733767826,-0.0027074102460102824,-0.0029528007270818377,-0.0027521986763181404,-0.0020563684909492325,-0.0010157112198400226,7.803842765008136e-05,0.0009323813492056578,0.0013920138934398443,0.0014933902502423564,0.0014115898922515398,0.0013423013429016402,0.001394421089436832,0.0015508373831309352,0.0017058394667882467,0.0017427794390603032,0.00160048127693946,0.0012936146644105138,0.0008847181108287791,0.0004332858058412531,-4.291624053621697e-05,-0.0005695452256628325,-0.0011793993657761505,-0.0018619152712807125,-0.002533784381260311,-0.003055409490290773,-0.003289060824448506,-0.0031654746467627507,-0.002717525939520333,-0.0020603681036978285,-0.0013329590907844048,-0.0006397097182335776,-2.595944421770243e-05,0.0005067378217511423,0.0009672420459126254,0.0013527740381826052,0.0016521537408069691,0.0018640823104212694,0.0020075971616251844,0.0021112084953693287,0.0021895746134046497,0.002230447915535924,0.0022060646029531065,0.0020999402751636876,0.0019247823617937676,0.0017149646083925332,0.0015000730829813022,0.0012822633179687243,0.0010353261250879487,0.0007238793348899376,0.00032552981011446647,-0.00016045086437422757,-0.0007206574719863933,-0.001340356473770878,-0.0020075788370343666,-0.0027026427185900454,-0.0033794302037948205,-0.003952810257399992,-0.004305839201525029,-0.00432078289271232,-0.003924274571648291,-0.003126601436131888,-0.0020344336072196986,-0.0008264589566319707,0.00030191748240664357,0.0012030035126726034,0.0018219063095949038,0.002200938526522324,0.0024411875193193103,0.0026410152201768265,0.002843386111343202,0.0030185781817002044,0.0030888363261958214,0.0029785016693557754,0.0026601635262704735,0.0021715665958516907,0.0015967893685891199,0.001026946512595047,0.0005257636264257789,0.00011696507471695367,-0.0002085937849517249,-0.00048094928876938324,-0.0007453450200785535,-0.0010591607371716728,-0.0014779590037036481,-0.0020240316953323303,-0.0026505372169038682,-0.003229336896021767,-0.0035841438536626394,-0.0035623874449984523,-0.003108861821443613,-0.002296476057018819,-0.0012930700439494566,-0.00028289218776449175,0.0006106411398736603,0.0013564752833979514,0.001987125005155979,0.002532766702084604,0.0029642930689481872,0.0031859251568398,0.003086769987698833,0.002621443706422893,0.0018669806548314767,0.0010139430675328456,0.0002901083060263144,-0.00014132487490878254,-0.0002516169799018607,-0.0001494683112881869,-2.3013029012263625e-05,-5.653474315272036e-05,-0.00036092731384773516,-0.0009399421543202207,-0.001693940107570417,-0.002451688913327951,-0.003019181621502794,-0.0032349391152881792,-0.0030184549721607697,-0.002395375048233703,-0.0014872215632106378,-0.00046759446659055525,0.0004963014540007709,0.0012901359416771763,0.0018681760915444591,0.0022384745691322433,0.002434809425419528,0.002495801125152044,0.002459105526786513,0.0023614648226431686,0.002229616112777226,0.002059131497591976,0.0017977829165878325,0.0013578619301181515,0.0006671003818250541,-0.0002622862604115975,-0.0012910602487212323,-0.0021784724797347253,-0.0026814033281587443,-0.0026819261169804885,-0.0022669078968610727,-0.0016998243798731986,-0.0012871557575144968,-0.0012121097558338099,-0.001436805262927999,-0.0017349289212581056,-0.001833219400190052,-0.0015704039454200128,-0.0009760736001830096,-0.00023091220802776716,0.0004523499349342999,0.0009454611744140742,0.0012520260046622457,0.0014716784837444283,0.0017171122417102677,0.00203874737548043,0.002396216255724465,0.0026833872756829714,0.0027857894992687525,0.002638091286184472,0.002254484397953764,0.0017198262212355772,0.0011476324966722602,0.0006268201207173907,0.00018556065305920446,-0.00020824214298260837,-0.0006122804750665457,-0.0010651467233846656,-0.0015614146998724622,-0.0020606700678955548,-0.002518736514690252,-0.002912662283996394,-0.0032371235868263446,-0.003475062748444786,-0.0035699736262884136,-0.0034305752732914363,-0.0029759902852369412,-0.002196606060867503,-0.0011868864520209034,-0.00011759701121772065,0.0008469028223835759,0.001638271882148461,0.0023172069327574473,0.0030158100848731544,0.003816289958082394,0.004644536634935848,0.005258562585110987,0.005355498399892639,0.004741618490942445,0.0034623751651869095,0.0018090110625331164,0.00019403206748759127,-0.0010318903304541906,-0.0017189441067526116,-0.0019469429544587673,-0.0019480608543938432,-0.0019810447939872986,-0.0022222144722437035,-0.0027102670300558525,-0.0033473528603272158,-0.0039408331620993465,-0.004269409049819994,-0.004159215163194157,-0.003549615641647179,-0.0025218744338895336,-0.0012722491169424878,-3.7591606654802144e-05,0.0009907654226612066,0.001722257032457952,0.0021692196202471713,0.0024061767228420114,0.00251824563528176,0.002568590754579725,0.0025943518732232844,0.0026185344677145932,0.0026572288764937636,0.0027111325680349526,0.002748976170247699,0.002702784810150544,0.002489592791658904,0.0020534662235379927,0.0014016348726163912,0.0006073573581072743,-0.00022614481958266558,-0.0010174867864535314,-0.001738814501387186,-0.0024060290585995845,-0.0030365769629869745,-0.003606628503375731,-0.004038419265400144,-0.004226621630690955,-0.004087141034159305,-0.0035995880477578813,-0.00282117125050201,-0.0018678259262184561,-0.0008756760032957982,3.689422748622429e-05,0.0007911376652792348,0.0013505522300297926,0.00171243490723221,0.0019002496367563407,0.001962059229928037,0.0019685038116087792,0.0019976229040715955,0.0021016095899114603,0.0022692655010232324,0.0024123035144972688,0.0023979353635946235,0.0021225776410466906,0.0015885594159847623,0.0009320724846107247,0.0003713056388373833,9.120258144586744e-05,0.00012703569616144507,0.000320773546024224,0.00038889396305754795,7.543103684154928e-05,-0.0006913334392409543,-0.0017301325020144343,-0.0026729014610899363,-0.0031378685794212517,-0.0029197045855983168,-0.0020946908947043572,-0.000983954414104579,5.1756223970959424e-06,0.0005740508440446809,0.0006602922392023023,0.00043323346265791555,0.00016536167320966612,5.540777055371366e-05,0.00010505025616110468,0.00012236320174761634,-0.0001447017898704491,-0.0008169529816710371,-0.0017476919066677817,-0.0025347088211781013,-0.0026963961166765037,-0.0019298991706658102,-0.00030810174164485563,0.0017064332310468256,0.0034510746032017205,0.004355906749286943,0.004180681275232238,0.0030798223078947473,0.0014875473894724184,-8.996169307902771e-05,-0.0012622743934991906,-0.0018496274328639478,-0.0018768261312813303,-0.0015035922568109846,-0.0009388124861104759,-0.0003706105424704071,7.622215894474856e-05,0.00035575753711029,0.0004928313427907029,0.0005556691516137215,0.0006171221144416345,0.000717652564926534,0.0008454839284446482,0.0009441836961509883,0.0009452516079009982,0.0008090374566765848,0.0005510448432514076,0.00023840473847030965,-4.082684857591428e-05,-0.00021718310289666398,-0.00026724687968395985,-0.00021915269588642164,-0.00014021595808155632,-0.00011679632463367472,-0.0002328381088715103,-0.0005474092350228194,-0.0010707795718950357,-0.0017447107142119233,-0.002440027548650166,-0.002983935243306069,-0.003215686062325136,-0.0030485948257088524,-0.002505434893938802,-0.0017052460149504778,-0.0008077471831284717,5.278598689253955e-05,0.0008075817050025949,0.0014496962109321596,0.001997657579711326,0.002456575694923985,0.0028044051136589866,0.003009791109405565,0.003063224208838245,0.0029930272055181794,0.002850093594013413,0.0026715031670370135,0.0024524183926630362,0.0021512628614567247,0.0017273135716036091,0.0011830306536626803,0.0005774863203735881,-2.7216477980755607e-06,-0.0004976822171144295,-0.0009169957394578676,-0.0013407501544753998,-0.0018741897815130492,-0.0025795882170928314,-0.0034219725802778224,-0.004258081935716633,-0.0048765432575348456,-0.005073618592103785,-0.004733320154354166,-0.003878231912519585,-0.002668186403468395,-0.0013446105459404706,-0.0001419509942185942,0.0007957910227354517,0.0014553094023449314,0.0019325962455326307,0.0023627782709791083,0.0028395323318191118,0.003365927422119903,0.0038576712169430304,0.004188784382803139,0.004249447181325719,0.003987488821323314,0.0034221896344973296,0.0026347535211041126,0.0017437509648059975,0.0008714050424399632,0.00010847207479109094,-0.0005088076872284478,-0.0009979739262894376,-0.0014079549562574902,-0.001791221018658392,-0.0021860411582681357,-0.002610045902718818,-0.00305462057036821,-0.003473701222475401,-0.0037757775878843394,-0.003837128776794536,-0.003545021891901465,-0.0028564654179894524,-0.0018396338807815027,-0.0006679868655057777,0.00043779010752921814,0.0012937566177919193,0.001820149232071808,0.002059012969535643,0.002136469603932022,0.002192552655454018,0.00231512476549171,0.0025080040396295075,0.002703041282702136,0.0028036334563540186,0.0027343338468973017,0.0024723692100911783,0.0020488400069870595,0.0015232753174048322,0.0009480061450078153,0.0003425546356776326,-0.0003092410797439181,-0.001040160396321608,-0.001869421085722099,-0.002774118995033948,-0.003672599232880592,-0.004428183309943629,-0.004878625337903848,-0.004887552527342021,-0.004400147821881324,-0.0034760832710255423,-0.002278289806023561,-0.001017156025964593,0.00012513664730973704,0.001052393818554495,0.0017655655202991776,0.002326050298108658,0.002799519798005968,0.0032197975263369,0.0035942304761379298,0.003935188383874834,0.004275969852572396,0.004639480722834117,0.004972241399530785,0.005100324810188971,0.004766806977803364,0.003759481317372948,0.002064229272830149,-5.9859447240002733e-05,-0.002153977211436119,-0.003759695481966403,-0.0046349131679664975,-0.004855411960655332,-0.0047393793623835365,-0.004642367230986085,-0.0047487145063628625,-0.004981849626022084,-0.005076342936621851,-0.004754735291267612,-0.0038963993893332593,-0.002603702813040833,-0.001142163979302614,0.00019447895214193375,0.0012107932121229333,0.0018650873135976644,0.0022425701275090863,0.0024804262717194898,0.0026934135019485526,0.002932758798401842,0.0031844477274519116,0.003394341290256852,0.0035022377742604683,0.003469813143513618,0.0032930674674680133,0.0029973292318431865,0.002621108872129061,0.002200221511545482,0.0017614314663374202,0.0013259461011706983,0.0009135952186164535,0.0005363308870821009,0.0001787634722362158,-0.0002204782628605613,-0.0007624685238404468,-0.00154135299104872,-0.0025700982653119268,-0.003721279890795682,-0.0047319660155307145,-0.005292322751938143,-0.005186096011511535,-0.004410944660611238,-0.003207361400514197,-0.001969882424190216,-0.0010769691623717594,-0.0007195893574765736,-0.0008111259907715327,-0.0010249515831992307,-0.0009486156789604685,-0.00028768388431466485,0.000978359004495815,0.0025706620346970946,0.004035365953710615,0.004954900503320998,0.005132752990575253,0.004655660111799041,0.003812490509551519,0.002930602917355088,0.0022257743818029875,0.0017366385086891453,0.0013563030251289064,0.0009233408081107025,0.0003164715495704041,-0.000488940466531798,-0.0014162601092768173,-0.0023241053397978217,-0.003061179755380185,-0.0035155991127608743,-0.0036414019943213465,-0.0034569184988332497,-0.0030235684769838503,-0.002421487928562545,-0.0017336354886763863,-0.0010369645911555867,-0.0003917140565714439,0.0001730800404762679,0.0006660079458849513,0.0011174720746929883,0.0015440089664519262,0.0019164003051469025,0.0021590614531586927,0.002187986319412313,0.001966157675819543,0.00154117695831018,0.0010391136164671758,0.0006130058314209681,0.0003689046750224556,0.00030576428990291193,0.000303439838938233,0.00017518640623048507,-0.0002295140958339703,-0.0009189899263181897,-0.001713849484656855,-0.00230598518006429,-0.0024099636558355974,-0.0019304876912808063,-0.0010430669813609244,-0.0001245053958763469,0.0004407494476509205,0.0004690603305284322,7.402746492471911e-05,-0.00040918436143930637,-0.0006226650089686324,-0.00038295574309080236,0.00023905139799287314,0.0009887405883675809,0.0015880837990992764,0.0018806801231800881,0.0018821102421831054,0.0017246454902195797,0.0015490516479355868,0.001418338934330803,0.0013018954733209,0.0011259619508420073,0.0008432848272442006,0.0004677148177410685,5.095504755474804e-05,-0.00037463860941470376,-0.0008355458008710577,-0.0013996713704965223,-0.0021072725321490855,-0.00289881192772276,-0.0035973030468550707,-0.003969111513314377,-0.003834104032283789,-0.003160781010814704,-0.0020891461816395906,-0.0008682743416510967,0.00025358887511217165,0.0011240578285085453,0.0017193686324147837,0.0021087017351747997,0.0023835360743524785,0.0025996071248435837,0.0027617377778849615,0.0028478033503830146,0.002842178550830342,0.0027487005810933737,0.002576106416593156,0.002314936006546012,0.001932304147065593,0.0013942431060331806,0.0006996728864608115,-0.0001020672297982366,-0.0009263524857159784,-0.0016913175774676088,-0.0023501803418705157,-0.002892934065836625,-0.0033166307335200486,-0.003589553365232163,-0.0036416890550443858,-0.0033953742195340754,-0.0028193214590750285,-0.001969606582699445,-0.0009871671362033528,-4.854570422130989e-05,0.0007039547238402031,0.0012142499901065381,0.0015197131013489347,0.0017131469707933633,0.0018832264599958261,0.002066181497372741,0.0022323147602214322,0.0023102497500842385,0.002231528025517204,0.0019692435551616405,0.0015507579544417455,0.0010410459055787287,0.0005094177835093385,-5.034265509316796e-07,-0.00048172857014213967,-0.0009512151524455041,-0.0014215183210232198,-0.0018733052814467104,-0.0022455295918289136,-0.002450497598778584,-0.002406534012904382,-0.0020714213680499078,-0.0014616160102568427,-0.0006518822552425943,0.00024135009051826854,0.0010863394068089162,0.001765442206937246,0.002200882520273631,0.002370314866528083,0.0023073033378205963,0.002084985165537132,0.0017852785257593477,0.0014619016858227806,0.001113101125765118,0.0006838524657510935,0.000108132302414471,-0.0006229432877276379,-0.0014084507604362826,-0.0020473171618252367,-0.0023263565365920415,-0.00214816892144093,-0.0016194533845456439,-0.0010294861190781204,-0.0007119640932119423,-0.0008621904598526669,-0.001418605526115088,-0.0020828231035436447,-0.0024684916007482877,-0.0022940182645414474,-0.001514687042827561,-0.0003316163182480516,0.0009141032389392634,0.0018974412645742207,0.0024366869126091245,0.0025400348753597465,0.0023655341822002543,0.0021266810334361714,0.0019916823022999314,0.0020181241967686028,0.002144666164655545,0.0022361862591793245,0.0021570841432971256,0.0018377238237241036,0.001305352355516581,0.0006689423284035668,6.765026997879319e-05,-0.0003932253344370674,-0.0006906331753378281,-0.0008946616238682885,-0.0011350215772387494,-0.0015348303103665038,-0.002138923208346356,-0.002870010769194427,-0.003538547143773567,-0.003910794268355654,-0.0038103744558043683,-0.0032056137324535097,-0.0022344998443404153,-0.0011475830805594343,-0.00019427458167351743,0.0004871719507243044,0.0009153733267044807,0.0012238471209087129,0.0015601584673439464,0.0019884525311599103,0.002451566999252853,0.0028094409929472573,0.002924643354364806,0.0027414788960888957,0.002314083430604374,0.001772793429349637,0.0012552155494131518,0.000846021628388442,0.0005572839113290925,0.0003496034940094488,0.00016794818947641688,-3.591664347189381e-05,-0.00030225866798260523,-0.000668578025767725,-0.0011607698987539845,-0.0017656143966699588,-0.002403328630062912,-0.002929233012410325,-0.003179196640243475,-0.003042304373403195,-0.0025195024546756503,-0.0017299113108687676,-0.0008576949575837869,-6.997049077378482e-05,0.0005468247525611535,0.000999145626030941,0.0013479446688200026,0.0016502856572064096,0.0019194968811467959,0.002125501586680034,0.0022274388940802005,0.0022085943120765633,0.0020848162704121594,0.0018817677504427803,0.001604786207113785,0.0012332800315069106,0.000750220255769129,0.00018322242673078903,-0.00038258567666046254,-0.000841192119403664,-0.0011326259121062392,-0.0012912892146443942,-0.001433423929522088,-0.0016821939806227352,-0.0020752573417213084,-0.0025174563530469254,-0.002815444414068297,-0.002778310665197265,-0.002325281624087384,-0.0015372401074749413,-0.0006232891089159853,0.0001777828067442956,0.0007072669948390569,0.0009503496979998472,0.0010235741742448284,0.0010977292126150163,0.001302230491706303,0.001663151717225024,0.002102100181096556,0.0024854830045868614,0.0026890864844395413,0.002644395954654357,0.002353219087509766,0.0018771635456936026,0.0013148943415823887,0.0007742780371522771,0.00034038952504312754,4.315626841155495e-05,-0.0001623832054864024,-0.00038612158832788447,-0.0007562587660592422,-0.0013506733050483567,-0.002139967405685033,-0.0029768689353820983,-0.0036450564730658008,-0.003947281127648799,-0.0037884909534846726,-0.0032111082896441653,-0.002366888675499557,-0.0014452481908784043,-0.0005986239233961436,9.975903177809908e-05,0.000653951459578058,0.0011118894616644894,0.001524719880983189,0.001918795220578498,0.002287450715216419,0.0025982189709608623,0.0028071298000473827,0.0028741858897783235,0.002777447620811224,0.0025233390856496266,0.0021490347920536555,0.0017132609256336733,0.001276296120262557,0.0008760005820927899,0.0005106101418812118,0.00013828646112968982,-0.0003028175474170094,-0.0008602443361279523,-0.0015337004928593538,-0.002259031427380704,-0.0029192920066958253,-0.00338020600802281,-0.0035359089288687644,-0.0033456507868216564,-0.0028459505956076898,-0.0021343116827434545,-0.0013339939148874038,-0.0005566801400467407,0.00012265606705919426,0.0006734594512869513,0.0011030908334355854,0.0014425130621513165,0.001729281550066436,0.0019906073753018266,0.002228495633856224,0.002410656278249672,0.0024735819503564245,0.0023436328806091178,0.0019740025072102632,0.0013819012504626312,0.000661200063679831,-4.721591603529474e-05,-0.0006200791139330491,-0.0010152328774829513,-0.0012888482073438842,-0.0015457490914999646,-0.0018484552427826197,-0.002145984701501553,-0.00227905191059115,-0.0020716649870432774,-0.0014586067697140706,-0.0005653021535671279,0.0003221635596431828,0.000892101231319815,0.0009719260468402072,0.0006221585035644633,0.00010090597127044654,-0.00027826460300850583,-0.0003067943646462134,3.2838592301884933e-05,0.0005932283144516456,0.0011665530705247543,0.0015947003393142335,0.0018241228327687687,0.0018894697092987284,0.001854248134456422,0.0017552542209661622,0.001585107177801822,0.0013162666666007748,0.0009409760035347452,0.0004921165668380213,2.5369262215799984e-05,-0.00042633123921208835,-0.0008897882889344181,-0.001443509718991146,-0.0021572924849718703,-0.0030125483151112334,-0.0038586911350749964,-0.004445644791130604,-0.004526978785221589,-0.003981788339194064,-0.0028869804289948352,-0.0014962496736916685,-0.00013320693361053868,0.0009460707512750249,0.0016489706164640886,0.002052617524073262,0.0023234077352606874,0.002601236478620796,0.0029173352943593807,0.003190611030155507,0.0032966934983469087,0.0031590809892738997,0.0028021518258790883,0.0023361466531894516,0.0018908403899678546,0.001544381151901672,0.0012896209972066335,0.0010509127357078883,0.0007329124388915896,0.00026866171654243667,-0.00035773548081556155,-0.0011168140143143072,-0.0019514068077695912,-0.0027865306361026217,-0.003526287958938674,-0.0040518994437152185,-0.0042407905051468275,-0.004011269222567753,-0.003371982077285698,-0.002441851302125289,-0.0014183422196121951,-0.0005030431513734413,0.000178157118577316,0.0006173174927464087,0.0009069134655031073,0.0011742611843569713,0.0015057604698543226,0.0019017696563331334,0.0022825193615714206,0.002536049234021644,0.0025785669332995544,0.002395188247090586,0.0020423519363306137,0.001613789133340445,0.0011905061626289405,0.0008032426859956437,0.0004279230605595635,1.4110001284983688e-05,-0.0004734534454066283,-0.00102558029011855,-0.0015853225852304068,-0.00206631195183319,-0.002378555326327839,-0.0024506552936925784,-0.0022463782939161916,-0.0017772345320151122,-0.0011080188964141598,-0.0003467538126414613,0.00038563688860987716,0.0009965199120854128,0.001451496979802052,0.001773156025109707,0.002007517015980013,0.0021796173690475577,0.0022686538861757186,0.0022206778503250785,0.0019907949318775666,0.0015849438345846589,0.0010690542007265286,0.0005335829473294218,3.258154560310182e-05,-0.00046096122033587354,-0.0010445706499653887,-0.0018132437128715439,-0.002761387003027087,-0.0037256423723378536,-0.0044213293619931315,-0.004570334998597627,-0.00405364052706914,-0.002993540889436378,-0.001705741579951997,-0.0005424015096933887,0.00028076357017145807,0.0007693318788957941,0.0011016069751643943,0.0014868239299200927,0.0020240816326859363,0.0026463567278229775,0.0031738432727667124,0.0034324599994643647,0.0033586455931717014,0.003027875439215354,0.0025971656776249794,0.0022060256168427257,0.0019021521587659492,0.0016359494872431378,0.0013188843831210505,0.0008985941792097707,0.0003960620643612494,-0.00011938302636024193,-0.0005948024789409144,-0.001045424321180483,-0.0015488986731663186,-0.0021796190010402966,-0.0029274716445676454,-0.0036620203984913027,-0.004175266003175592,-0.004282125137722336,-0.003916377191638868,-0.003161381476839998,-0.002198645978310124,-0.0012119443019087787,-0.0003109928766913898,0.0004812198460628451,0.0011826740965248273,0.001793701267978631,0.0022731066797448104,0.0025626850104429988,0.002633908521137143,0.0025162546199797567,0.0022856548590769396,0.0020245499539868587,0.001784442864401874,0.0015749016505109223,0.0013794064835491997,0.0011788715288173954,0.0009620828995310859,0.0007173661434187761,0.00041825522153296653,2.276381704440129e-05,-0.0005047449402314197,-0.0011598461936122226,-0.0018759073206297237,-0.0025316933126209276,-0.002987771457823296,-0.003132897013251584,-0.0029180201986358993,-0.0023665065844772014,-0.0015635461865202325,-0.0006345202866366523,0.00028041108334405404,0.0010532249547446772,0.0015947153621135733,0.0018751581341602769,0.0019301973307620484,0.0018460084354427516,0.0017258217110097283,0.0016487829326234645,0.0016374955274213565,0.001649316181729096,0.0015972493502252223,0.0013918490195249796,0.0009837038795839752,0.00038539267157617225,-0.0003359185029891278,-0.0010867826188730903,-0.0017780682204309754,-0.0023424865010532635,-0.002736061009365595,-0.002931669811239982,-0.002914958488596923,-0.002686596716592696,-0.0022671015752731894,-0.0016981248710408782,-0.0010377897093870505,-0.000352135546423676,0.0002946957915918292,0.00085104418097946,0.0012885428213593763,0.0016090319071139262,0.0018412889782930182,0.0020254979630775906,0.0021917493217769096,0.002343783532369066,0.0024561404949719674,0.0024850478407556316,0.0023872721699424093,0.0021394551017251888,0.001751041903288652,0.001264941910070573,0.0007431226841379223,0.0002412530353030865,-0.00021547867567836126,-0.0006409156363549988,-0.0010741368486230298,-0.0015505355643638332,-0.0020747188323397697,-0.00260994805583774,-0.003087251566254905,-0.0034264938361900634,-0.0035587808045007443,-0.0034431354348639434,-0.003074798687540406,-0.002485142511593419,-0.0017347487881160366,-0.0009020033888032346,-6.902834688066607e-05,0.0006937657668423178,0.0013413290882413906,0.0018593275629295496,0.0022555354390562466,0.002540158672181798,0.0027089141876045705,0.002744554671536941,0.002639577512571756,0.002423238138317695,0.002166832285097203,0.0019537560647936098,0.00182854180831467,0.0017603503791830091,0.0016517790038000225,0.0013933707370889035,0.0009297531726260096,0.0002921445824345155,-0.0004254758496541023,-0.0011284272212732692,-0.0017746682865300404,-0.0023781862119139395,-0.0029591439685926857,-0.003480316850153948,-0.003823753794169037,-0.003834657379378107,-0.0034104012476435276,-0.002577884853761674,-0.0015067196271850328,-0.00044467909176400494,0.00039099227194464036,0.0009061938404494501,0.001155358931457997,0.0012878842138690902,0.0014499728930276359,0.0017003115189894507,0.001985641069496269,0.0021838652516358416,0.002183602405862805,0.0019520842951399155,0.0015545189657370066,0.0011182592156583021,0.0007660968984170654,0.0005573035032432429,0.0004659085857597069,0.00040115868746550985,0.00025235418222102515,-6.667069156106369e-05,-0.0005885702163070853,-0.001279756787979515,-0.002038753805512397,-0.00270651841278709,-0.003097917443079601,-0.00305943790461701,-0.002537729563088718,-0.0016222625569343658,-0.0005270953980800143,0.000490951342776392,0.0012382725840245467,0.001656007446478334,0.0018184743238181774,0.001865184801683977,0.0019122054145325317,0.0019959851034465808,0.0020761487074896974,0.0020839943615877697,0.001977729146674571,0.0017678753943491951,0.001500676277222849,0.001215571588405032,0.0009078836159642774,0.0005227583500720483,-1.3901753125555166e-05,-0.0007446158709232703,-0.0016391328371929336,-0.0025876767757014767,-0.003434131596327184,-0.004031618934867897,-0.004290136234271017,-0.0041921441634324924,-0.0037738767858752145,-0.003092754112815778,-0.002207755909366175,-0.0011846106734726561,-0.00011324656230417719,0.0008882632858515527,0.0016993651732229152,0.002243167140595873,0.0025232849451930946,0.002622539704651191,0.002658134469350053,0.002718012747688265,0.0028177363493995466,0.0029042758842384147,0.0029007437434928965,0.0027583544525406367,0.0024802215809048363,0.0021065040042213545,0.001680321009947356,0.0012239543152973006,0.0007392548173892158,0.00022221993494944301,-0.00032767340859481044,-0.000911026347253153,-0.0015343040949192337,-0.00220238286531008,-0.002896406604974653,-0.00355385982247252,-0.004071196290791861,-0.004333801954903777,-0.004258087855049402,-0.003823143040659835,-0.0030779882979710387,-0.0021252270724570217,-0.0010916804801470246,-9.777788305039684e-05,0.0007664921554026091,0.0014554351553924098,0.0019699846278942636,0.0023483971251443032,0.002646459627306751,0.0029104151720980207,0.003149409250098147,0.0033190615069323935,0.003329848501164033,0.0030867978734484833,0.002548449400944249,0.0017727504851476651,0.0009137681216877152,0.00015709113807244653,-0.00037698790241875915,-0.0007041362962292856,-0.0009701216044639251,-0.0013627054139944005,-0.0019885391125670972,-0.0027879353925227,-0.003540984231996297,-0.0039659173011914566,-0.0038573178746869304,-0.003189246087346731,-0.0021285645942848066,-0.0009538517254834228,7.366209485374221e-05,0.0008172713011191364,0.0012967399920666104,0.001636975890242067,0.001971459463783666,0.0023582770160192872,0.002751599840054438,0.003035308557030797,0.003092060626962814,0.00286742743799802,0.0023969678700044624,0.0017858769987008204,0.0011547513873983095,0.0005808233860409435,6.528831277829311e-05,-0.0004560780937491781,-0.0010637206480282363,-0.001791677519475468,-0.002585429816603853,-0.003305054776029926,-0.0037746356344660436,-0.0038533741918229812,-0.003492607319268538,-0.0027528221092407634,-0.0017778864250662817,-0.00074394275104821,0.00019320652436205824,0.0009344615051470545,0.001449643208197445,0.001765473176237943,0.001935444488657001,0.002004328525014979,0.001984734888566298,0.0018599655215354599,0.0016133787301645408,0.0012652766209411762,0.0008873738998589212,0.0005743725936791398,0.0003813600181826071,0.0002672501805389371,9.387589088643536e-05,-0.0002963876216217176,-0.0009548491569157168,-0.0017302349001955407,-0.00228306394088421,-0.0022359706807881,-0.00139559433288723,8.412690344360239e-05,0.0017156114250255136,0.0028895784168375296,0.0031788221635374175,0.0025560255054327143,0.001391275156919016,0.0002322242582853684,-0.0004926060279583592,-0.0006668471587413663,-0.00047693975357463586,-0.00023880748952368337,-0.00019170096887349375,-0.0003850836688387942,-0.0007035502195259644,-0.0009846025889451544,-0.001140180521980547,-0.001208678204667806,-0.0013166066239493474,-0.0015826560604584637,-0.0020251062020311397,-0.002527014464640964,-0.0028793400888204894,-0.0028785485967305516,-0.0024251327284489158,-0.0015699440949870427,-0.0004865824036093722,0.000609108196170979,0.0015446042455360617,0.002238380427879933,0.002696056075865319,0.0029722615851953747,0.003128027675052571,0.0032046683795362704,0.0032175804057155673,0.003161955729064213,0.0030218692657995195,0.0027790675611801003,0.002421056305499086,0.0019478314777509355,0.001375053462712366,0.0007310367091230099,4.670410355799481e-05,-0.0006580857498589605,-0.001383207256233547,-0.0021419206265558786,-0.0029369439693280558,-0.0037306194671702757,-0.004430713736616085,-0.00490765476568177,-0.005038860196716829,-0.0047564163036104366,-0.004071838920161497,-0.003067981663004519,-0.0018693310786223754,-0.0006109403536280829,0.0005817397957974466,0.0016043916599944835,0.0023852686147723644,0.0028984173075057218,0.003169991667529251,0.0032671546136756394,0.0032690663792446584,0.003232439634644315,0.0031691396232715594,0.0030471664446124957,0.0028142965166349882,0.002432999013023602,0.0019102172483517594,0.0013069301377076526,0.0007195509670396187,0.00023740448181967778,-0.0001054483357645227,-0.00035759806337564153,-0.0006364803390602712,-0.0010734907684797953,-0.0017419889722154437,-0.002604430690772109,-0.003507849169484302,-0.004233943093243849,-0.004582348756041709,-0.0044476095504769175,-0.003853214413362998,-0.0029298950635846446,-0.0018555903042107493,-0.0007913497390256909,0.00015813367110194796,0.0009508195913739974,0.0015905644042291224,0.002103763443873783,0.002520184960237032,0.0028595045847925283,0.003120979463613768,0.0032773763583751384,0.00328011784526693,0.003081961933868237,0.0026727375879576965,0.0021088456911519207,0.0015114735130455032,0.0010217483340732416,0.0007293227094898088,0.0006149237019294218,0.0005464320650375117,0.0003381638383493169,-0.0001567601603948512,-0.0009722290946148908,-0.0020116713317533514,-0.0030896445714733074,-0.004002188042768126,-0.004587609486336142,-0.00475594149647402,-0.004489257405755291,-0.0038285170403326487,-0.0028602694432428646,-0.001705883896734004,-0.000508047675136868,0.0005905239473332725,0.0014750249147132838,0.002085078996201116,0.002428196013269094,0.0025708695128171043,0.002607355793405962,0.0026188956587223583,0.0026433260398277957,0.002669420909038073,0.0026548871904874447,0.002553853347218179,0.0023386681542151237,0.00200967198901757,0.0015945888444087231,0.0011395837197339027,0.0006911879461213085,0.00027110514253485404,-0.0001445119552734795,-0.0006233551855584169,-0.001242700923020997,-0.002033669057550848,-0.0029348546818638915,-0.003787451237906896,-0.0043825863462535215,-0.004541035212624381,-0.004186293432687738,-0.0033758440026488,-0.00227801768562476,-0.0011084051376128493,-5.629561501820904e-05,0.0007678171559256386,0.0013454380867596088,0.0017248798013202865,0.0019759043920033977,0.002150311981291091,0.0022680474357885164,0.002329785621957677,0.002338228486713586,0.0023061446165560688,0.002243762949911605,0.002139365539070591,0.0019558766885205085,0.0016542093221907138,0.00123044286506072,0.0007379766752327175,0.00027159722105258996,-8.426478886003477e-05,-0.00031316728193727414,-0.0004906365774358886,-0.0007521437790878331,-0.001217032883975127,-0.0019095047517703125,-0.0027223047938719725,-0.0034457642112527727,-0.003849126047291389,-0.0037741085490416576,-0.003196790871306096,-0.0022328753665025055,-0.0010900230584194128,7.214437924164124e-06,0.0008883184966590432,0.0014795810226539265,0.0018079612108933382,0.001968550247211725,0.002070061921440478,0.002181383396438974,0.0023027745144648818,0.002374447650017261,0.0023167699306286997,0.0020801320588200957,0.0016777542055951048,0.001183823609225836,0.0006975108327348818,0.0002915301154517373,-2.699474473967374e-05,-0.000320543951577294,-0.0006846873508076784,-0.0011872720265248935,-0.0018142036779216295,-0.002452339588920014,-0.0029239915361509946,-0.0030623969789368203,-0.0027940666261309227,-0.002184428098471483,-0.0014167128422060268,-0.0007084821774250872,-0.0002078023340773593,7.312922600814136e-05,0.00024861691372812594,0.00048050720842332496,0.0008771269751225138,0.001429463461516691,0.0020189764687691446,0.002486315552656761,0.0027147923690516804,0.002679229069558176,0.002438806554132072,0.0020892468926162313,0.0017098028210253634,0.0013348484722309566,0.0009580441546575055,0.0005561287461872621,0.00011145983471357872,-0.0003803260364815872,-0.0009157431093101454,-0.0014888196817350885,-0.0020852842390305664,-0.002668011343490533,-0.003168339010761428,-0.0034965767829561833,-0.003570935720614273,-0.0033496909960924965,-0.002848471311633691,-0.002134293469480946,-0.0013018301725120666,-0.000445570455112833,0.0003600527467362137,0.0010683759728815478,0.0016588886429141757,0.0021308536983579442,0.0024947588115198896,0.0027628373319254166,0.002940804579434129,0.0030239869480781457,0.0029998654554521833,0.0028561744800326486,0.0025911678246926736,0.002221348175941446,0.001781514456278879,0.001313374081090995,0.0008443215083946414,0.0003664780164354826,-0.00016838776686540704,-0.0008269824279310955,-0.0016497642254909518,-0.002604599466501513,-0.003566731065932696,-0.004342946352006819,-0.004735728529069979,-0.0046211664256653575,-0.0040042214536562416,-0.0030224959504919374,-0.0018931461911137484,-0.0008269081664817733,4.8121671061587845e-05,0.0007157260731850883,0.0012441736417963226,0.0017238410098332799,0.002206388980083149,0.0026746010364676375,0.003051960284670344,0.003242260963311477,0.0031792556028829673,0.002864296730937146,0.002374544984345814,0.001835778569539771,0.0013702134066867376,0.0010432182981918738,0.0008343373617471751,0.0006462469571283258,0.00034797787962769086,-0.000165053081393145,-0.0009181318541069462,-0.0018339121481904916,-0.0027506134277118163,-0.0034755320564071983,-0.003850197868717569,-0.0037984931190004163,-0.003340530027694423,-0.0025742083955966524,-0.0016393182624991282,-0.000679743153803158,0.00018710968441371556,0.0008898813694261663,0.0014096510265088134,0.0017715707742976866,0.00202294089095644,0.0022042431287820365,0.002325079546953833,0.0023580185480637735,0.0022562636353341547,0.0019873221370714186,0.0015626572417955546,0.0010424322318911545,0.0005082499636159503,1.8258787759789963e-05,-0.00042581634199446723,-0.0008734744643352265,-0.0013790851806663837,-0.0019415890773419773,-0.0024730863781941975,-0.0028249249097962938,-0.0028613228755656776,-0.002534544336411847,-0.0019113496821176442,-0.0011337194547942392,-0.00034279391247341143,0.00038173781488228756,0.0010302099577475673,0.0016231298011699497,0.002159864249219559,0.00259569998525964,0.002860675693848176,0.002900910657400185,0.0027094639673535493,0.0023265568662603703,0.00181454466669609,0.0012299984625256935,0.0006121826083810436,-1.0244781565579581e-05,-0.0006083034963044085,-0.0011528910735943139,-0.001628268525138006,-0.0020451423218829875,-0.002435376434036309,-0.0028227554829485905,-0.003184809735512439,-0.0034336930954226323,-0.0034380157584403695,-0.003083552928720712,-0.002342914106173349,-0.0013118880138005007,-0.00018501114595028192,0.000821829086494921,0.001561312843114736,0.0020089122226405413,0.002254494483486452,0.0024394795667339896,0.0026751766751509226,0.0029841161543976234,0.0032908394485882536,0.0034621176024327385,0.0033732649159315584,0.002967652225068909,0.0022827672504533067,0.001432928016872278,0.0005582237387332925,-0.00023554141817270623,-0.0009161056651149216,-0.0015225948272549448,-0.0021228259627908653,-0.00275407505136096,-0.0033816703158397136,-0.003899860275090232,-0.004174950378234954,-0.0041066302166741855,-0.0036739647956596485,-0.0029428674796637576,-0.002035137412641595,-0.0010802852965841202,-0.00017700805802301828,0.0006205486558660324,0.0012947807014205266,0.0018485289097291387,0.0022922985230864794,0.0026372626057812533,0.0028908105944837914,0.003052831737974905,0.0031150233254747303,0.003065631811761058,0.0028972207356820225,0.0026112246493845193,0.0022158005062187353,0.0017207705316400156,0.0011371240108000074,0.00048351213328841846,-0.00020722841350949992,-0.0008918837410482167,-0.0015328709634651722,-0.0021142321310843697,-0.0026400992203574098,-0.00311004283296555,-0.0034872384692164206,-0.003687793659941426,-0.003609349027971053,-0.0031887361433132165,-0.002453023626416654,-0.001527245109582862,-0.0005889064953311552,0.00020550067101684773,0.0007797241789081654,0.0011522428977486852,0.0014043444624891707,0.0016248026326558767,0.0018615534977113025,0.0021018408304703507,0.002286368236234708,0.0023479825197839227,0.0022544764811794444,0.002031203172039294,0.001747535138560664,0.0014723013387899359,0.0012257129506361487,0.0009612627875503249,0.0005930778856832962,5.3967688026144555e-05,-0.0006509887305285117,-0.0014271413446254543,-0.002118476966668929,-0.002565586647674475,-0.002665287830381537,-0.0024073635409282987,-0.001876453587942533,-0.0012204011336272216,-0.0005969536266387641,-0.00011836241290866581,0.00018413310177495712,0.0003604101637441255,0.000505357700279684,0.0007019503970611227,0.0009689128807345111,0.0012386438542495812,0.0013809575443942503,0.0012685601102311221,0.000856441265666451,0.00023219440357252156,-0.00039830661065010445,-0.0007929409918566227,-0.0007853048547611079,-0.00036734543624693185,0.00030135594675248815,0.0009591431387998219,0.0013447303717448252,0.0012879929759326706,0.0007587028502206803,-0.0001318312172134354,-0.001167355086946367,-0.0020899747258223854,-0.002675935940873556,-0.0028024815397411492,-0.0024808573880740936,-0.001840049975104415,-0.0010671800984831815,-0.0003317972141572812,0.00027069448323842506,0.0007323123432388852,0.0011026518806535924,0.0014391841078358262,0.0017684169194545666,0.0020765339366505455,0.0023262944443875884,0.0024816030558740387,0.002521783059959124,0.0024403537134210507,0.002236085655809749,0.0019080798913442677,0.001460870982366706,0.0009157907320457835,0.0003178286336376389,-0.00027258192341246285,-0.0008048204337500783,-0.0012684695919779202,-0.0017065911157369477,-0.0021935820402818633,-0.002780234249055058,-0.0034346580206554493,-0.004019104305439138,-0.004327600879176855,-0.004174468378757937,-0.003490699284009922,-0.002375265692961958,-0.001068958099580599,0.0001411631254671056,0.0010400005694287105,0.0015640595550246556,0.0018014915599955863,0.0019172220697212159,0.002051436993598544,0.0022524104554430204,0.002477637563130715,0.002649903903898785,0.0027212136945930104,0.002699700744018011,0.002627126948200846,0.0025310359714066947,0.0023909926276369582,0.0021451706736711437,0.0017331914971404465,0.0011443380292369572,0.00043525449023096627,-0.0002974832820686662,-0.0009713612735394619,-0.001559978339312504,-0.002093849214123454,-0.0026210465925406057,-0.003155740822169319,-0.003647506012538963,-0.003988285097250557,-0.004052097069085246,-0.003747919699785448,-0.0030627791277587696,-0.0020782266756883654,-0.0009548604853563951,0.00010951811684371448,0.0009362896073472613,0.0014222576528280634,0.001578004488034351,0.0015292427850794369,0.0014701229729582425,0.001578592529480483,0.0019287870505720664,0.002446173565214646,0.0029355985380433215,0.0031750041527091356,0.003028651603729544,0.0025178634249879194,0.0018077669702206735,0.001116057966930508,0.0005959691403533407,0.0002609344696584002,-7.209877201635431e-06,-0.0003748766996406168,-0.0009497254248192735,-0.0017115916035712931,-0.002516551967434868,-0.0031658774460703145,-0.003498103027888998,-0.0034555975182697287,-0.0030959827737211416,-0.002549745614078964,-0.001951412885872002,-0.001380958265479654,-0.0008426565572499085,-0.00028744588948994247,0.0003369364506990933,0.001036661408664657,0.0017507881036725953,0.002370978883728396,0.0027920161550574933,0.0029645591825667693,0.0029180808075689583,0.0027381799810985434,0.0025111055441419078,0.0022713843978639293,0.001988116369906998,0.001598926670733492,0.0010656993046135005,0.0004099048676889177,-0.0002986052804781923,-0.0009888392764512534,-0.0016328933753104733,-0.0022503055351264555,-0.0028670954169383693,-0.0034602067207913194,-0.003931017260501008,-0.00413196000760352,-0.003933658939487139,-0.003293408471156158,-0.002286614706023667,-0.0010865817258296588,9.445940303709553e-05,0.0010752317549948506,0.0017588135091025628,0.002151760637212348,0.0023440513030525993,0.002458668123253081,0.0025914155412417716,0.002766512960578684,0.0029279436873970695,0.0029716929209412206,0.0028054084680247853,0.002407087909489593,0.0018507899944540977,0.0012799735894298537,0.0008352569148075016,0.0005712993537357994,0.0004106921188446064,0.00016945925272048642,-0.0003486098861803971,-0.0012337920432906073,-0.0023939542019888816,-0.003568206350755587,-0.00443130907142043,-0.004737736701571598,-0.004429646656747854,-0.0036517009661252856,-0.0026679181377627192,-0.0017302865584759783,-0.0009728440729772818,-0.00038508274835741935,0.00013111113372358575,0.0006652019675172627,0.0012255259566644888,0.0017337794151610745,0.0020849664002299062,0.002229498349693005,0.002220325699052353,0.00219055825696938,0.0022726308549461446,0.002510272216607931,0.0028221705579489806,0.003043491182687691,0.003018402370272976,0.0026811042703997435,0.0020724321012799383,0.001287944024573552,0.00040394038512374516,-0.0005589146183465443,-0.0016075195730592489,-0.002708977878651187,-0.00374088234872675,-0.004505116316213102,-0.004805978695861919,-0.004546886473006738,-0.0037847792323454682,-0.002707824319039037,-0.0015510586970681692,-0.0005020862488472838,0.0003501980917803645,0.0010050571162489468,0.0015011194295001817,0.0018721886978674738,0.002135170765423686,0.0023042889764744354,0.002403775219084393,0.0024577696353321704,0.0024630142334426393,0.002372148663103778,0.0021126827273237657,0.0016395298006831452,0.0009881475271397062,0.0002860271310840503,-0.00029725554991581087,-0.0006401321709271658,-0.000746276264874702,-0.0007569479717947538,-0.0008821126444784132,-0.0012831553466575787,-0.0019717172820525536,-0.002783016563301809,-0.0034414049777349567,-0.003685391864703803,-0.003387848679271514,-0.002610263997544632,-0.001564038106123327,-0.0004993348507000567,0.00041929527498844074,0.0011807246445228394,0.0018956481755903862,0.0026793638928431485,0.0035204920727781213,0.0042272554914526495,0.00450253197509711,0.00411567676803736,0.0030673533595073966,0.001636982548442629,0.0002712071351953084,-0.0006285058555787863,-0.0008977950762383592,-0.000673766456670429,-0.0003033327333500889,-0.00015653278715898082,-0.00045109202894153076,-0.0011740582514797111,-0.002121508863473293,-0.003013091321300844,-0.0036111804588802245,-0.0037912031624730185,-0.0035490774663274782,-0.0029653839513468934,-0.002157682043325915,-0.0012441025087820525,-0.0003255054732654542,0.0005182923186658399,0.0012266996483334203,0.0017580329225117702,0.002093780413339615,0.002245006871686557,0.0022536648722779272,0.002181729953826925,0.002088224942276679,0.002004382816994293,0.0019221871952187052,0.0018053833027459523,0.001617222871346041,0.0013463823349788998,0.0010125352689097213,0.0006473581840502969,0.0002652524409907715,-0.00015307844396018853,-0.0006489478297783184,-0.0012501968954424642,-0.001933601149040436,-0.002609872822134342,-0.003142971857552908,-0.003396026371825958,-0.00328261302819227,-0.002800650511645881,-0.0020351119299587546,-0.0011295360238691918,-0.00023864166168744566,0.0005196380602262777,0.0010958342038019854,0.0015136244645871614,0.0018449646302287582,0.0021634177463401585,0.002495156612390683,0.002793521837360184,0.002955052766050308,0.002872393268792143,0.0024959459450314934,0.0018691524158339567,0.0011177585113006715,0.0003999811058098134,-0.00015652541292164937,-0.0005033977316195987,-0.0006891618499563503,-0.0008411137057566511,-0.0011162573291672007,-0.0016347394657043788,-0.002417789252660277,-0.0033561612516179768,-0.004228907519721982,-0.004774163761403338,-0.004788453860758433,-0.004211184905968234,-0.0031510980832612934,-0.0018370253879514465,-0.0005152823852388883,0.0006527846787328911,0.0016379518940443285,0.0025114805009818384,0.00335797417451739,0.004188280359348205,0.0049053850596688185,0.005342378976809652,0.005349351075426924,0.004879703234196927,0.004027551565148907,0.002993909690632897,0.001997136634071744,0.001173749264814779,0.0005221970313478205,-8.001514849263498e-05,-0.0007944564643451698,-0.0017182937514182532,-0.00281417186745708,-0.003910855035598468,-0.004773536450768164,-0.0052046702162493455,-0.005121725484739078,-0.0045759832783212025,-0.003713090322869087,-0.00270653393098156,-0.00170153492714252,-0.0007898139587932359,-1.1679214746608958e-05,0.0006308818345849052,0.0011618073749415148,0.0016183796694526757,0.0020323106697225438,0.002406563593805212,0.0027023127334695166,0.0028514725129414253,0.00279464857385939,0.002523200472530973,0.0020953158845212314,0.0016093718129716198,0.001146740502476108,0.0007209451609029849,0.0002711854017215208,-0.00028846378526416454,-0.0009909527696623029,-0.0017592329964428713,-0.0024116981310966035,-0.002735197444572954,-0.0025887638440383496,-0.0019800422951498317,-0.0010707069608096682,-0.00010859373285897417,0.0006746544831485897,0.0011474820779057292,0.0013089232982949656,0.0012633836580926894,0.0011614404171487764,0.0011337917876561797,0.0012389294694646982,0.0014384949144172186,0.0016104859554155325,0.0016021580086616066,0.001306551420478921,0.0007271718894268039,-8.35868572336652e-06,-0.0007023760473258973,-0.001185829482364603,-0.0014066268457188858,-0.0014533025119167074,-0.0014960794412477868,-0.001678113913938904,-0.002021939996054157,-0.002408140491526323,-0.0026391073582933628,-0.002548371306237246,-0.0020894851298759484,-0.0013547321281618158,-0.0005201741257086052,0.0002430610665458276,0.0008383520277960282,0.0012615713114286753,0.0015698764373926852,0.0018294442277701477,0.0020746999803422073,0.0022971718720864362,0.0024607626617600756,0.0025256248101627543,0.0024632024171157467,0.0022579333546191007,0.0019042789061473912,0.0014090367054804113,0.0007984868304575172,0.00012055004142729072,-0.0005650462523660842,-0.0012035857773458436,-0.001756217401569727,-0.002196623930640595,-0.0024980918066020187,-0.0026244542834165333,-0.002535774438388376,-0.002208368710354523,-0.001658077326507877,-0.0009526326316826546,-0.00020392808853367716,0.00046003628255727867,0.0009347238219234062,0.0011749206074280977,0.0012104109844148353,0.0011311557411981194,0.0010446245655283688,0.001022518837897776,0.0010625557500907206,0.0010875198700732497,0.0009879246951737955,0.0006914264683537068,0.000221774679955916,-0.00029345790223569133,-0.0006834486927033449,-0.0008357204944191266,-0.0007749458130326584,-0.0006592859863528394,-0.00068562219497979,-0.0009595924288426054,-0.0014152529439059377,-0.0018389164443546233,-0.0019840751252425135,-0.0017070651500120221,-0.001043033125842116,-0.00018168674611771586,0.0006361477412619659,0.001236234036882838,0.0015769301267906947,0.0017355483996308752,0.001836226533658516,0.0019690644992135685,0.002144461146975643,0.0022972094582669857,0.002326263542321908,0.0021451515143607255,0.0017228794484505333,0.001103222793582943,0.00039503428377407233,-0.0002675446284029334,-0.0007828358481095617,-0.0011302051677140018,-0.001379378776476154,-0.0016483953028338266,-0.0020294908555645577,-0.0025253814084525966,-0.003034426088256335,-0.00339312109108794,-0.0034498851766850327,-0.0031291501286668803,-0.002456441974329525,-0.0015408839715925654,-0.000532557056082223,0.000422160160991242,0.0012118054905877742,0.0017740574417451065,0.0020975541413670723,0.002217274155862014,0.002205337406106537,0.0021535573780304914,0.0021437024378453485,0.002210961654371525,0.0023202175508833826,0.002377779177471331,0.0022823457052853794,0.0019879496946928303,0.0015349598311227774,0.0010222877816842533,0.0005363170189241224,8.739562245523784e-05,-0.00039673994752056365,-0.0010109381408951379,-0.0017852092743502522,-0.002630739267911665,-0.003359011511274503,-0.0037656570431851277,-0.003729388522149393,-0.003268557069194779,-0.00252606580662528,-0.0016968292437688685,-0.0009423696233315151,-0.00033755886578074046,0.00013090676657230354,0.0005259803856991121,0.0009104801318767875,0.0013117796032488785,0.001712105065695335,0.002061542587623177,0.002303153013459989,0.002397654341552364,0.0023373480593796344,0.0021447273755410084,0.0018588660923524658,0.0015184744015692587,0.0011508028316751294,0.0007699943070116793,0.00038089128983644614,-1.9038866572154505e-05,-0.0004421610205602249,-0.0009105031941348609,-0.0014420262009186033,-0.0020217882862524276,-0.0025743274356714104,-0.0029637393676569595,-0.0030370003731239057,-0.002697515373402862,-0.0019694628980469354,-0.0010103812921485236,-5.555110534274075e-05,0.0006815459273022875,0.0010995114152211603,0.0012403870265770074,0.0012474888157421018,0.001278481357048346,0.0014251051079208741,0.0016801046166155002,0.001959098138391399,0.0021545072138961646,0.0021875099887567204,0.0020332746940013484,0.0017139193414942848,0.0012705531167503423,0.0007332989796396157,0.00010614346468503703,-0.0006244445690229295,-0.0014590295623021312,-0.002347198470578063,-0.003166108299350147,-0.0037380415358826166,-0.0038909498492892026,-0.0035380004222604674,-0.0027333738218269852,-0.001667969456622391,-0.0005995722833067965,0.0002507042395023542,0.0007834895418345222,0.0010450376241275291,0.001181073085980615,0.0013493200605415871,0.0016385624588633242,0.002033286340838487,0.002433971021043922,0.0027127453745760346,0.0027705316987807795,0.002570553552783059,0.0021432378709438193,0.001571647707684926,0.0009670181498919663,0.000438034718106915,5.6477548600137196e-05,-0.00017182083365401566,-0.00031576452346716464,-0.0004959330666693203,-0.0008324030665170107,-0.0013838741240824876,-0.0021076386104904032,-0.0028626470948193063,-0.0034569653464194255,-0.003718665860844014,-0.003558803967523283,-0.0030011210726793272,-0.002169624870712173,-0.0012421525072504485,-0.0003886249657132508,0.0002841282200919398,0.0007617598944338723,0.0011146431196410469,0.0014544707629847555,0.0018718729020693035,0.0023825943799225266,0.002909095306429752,0.003309265737813769,0.0034399431320596596,0.0032234955117939976,0.0026839214405500376,0.001936738861400822,0.001142305491604294,0.00044814129891147336,-5.578930959046556e-05,-0.0003578495339556342,-0.0005221124191703105,-0.000666026380009421,-0.0009206464601706174,-0.0013785717395744025,-0.0020446950194848925,-0.002813859129979779,-0.003494879809076412,-0.0038784049590150473,-0.003819381475592683,-0.0032938260292368605,-0.0024036920421734147,-0.0013324986917263365,-0.0002776724226951745,0.0006094833589593778,0.0012562710317018605,0.0016695449031362355,0.0019126149403564318,0.0020699352169085894,0.002211104818540705,0.002364187646287061,0.0025066028256492687,0.0025780820303195813,0.0025125045417725258,0.0022754008952247965,0.0018877436067422483,0.0014207773345534316,0.0009612208490123406,0.0005634149186870156,0.00021475723097244418,-0.00016295051862374554,-0.0006705369147387223,-0.0013647124055646337,-0.002203192772749033,-0.0030364144662028032,-0.0036572656032374225,-0.0038867106337217546,-0.003651000698366709,-0.0030105257699579733,-0.0021280475979123642,-0.0011964499446397209,-0.00036396725771843446,0.00030915626590073046,0.0008480523237113775,0.0013224255350796122,0.0017905342031137922,0.0022551020228992443,0.0026517450923304008,0.0028757623858147578,0.0028352341072288563,0.0025046284867292616,0.001950573925919697,0.001312983640939589,0.0007465607576001743,0.00034983237628830976,0.00011871383522088887,-4.864235252890242e-05,-0.0002954157671587509,-0.0007255164872319158,-0.0013392877478612098,-0.0020183048113947234,-0.002569011001370563,-0.002807277165566705,-0.0026446827174530655,-0.002132565118184088,-0.0014381576692768972,-0.0007631794120730555,-0.00024872834989908066,8.16978476286643e-05,0.0003126710869277824,0.0005708354919879322,0.0009418347186769805,0.0014154182029140852,0.0018864446501415445,0.002208848318354005,0.0022714340035986697,0.0020537373588632064,0.0016332334703609173,0.001143708366262026,0.0007110150292686388,0.0004014623393923584,0.00020621957625293046,6.193286657809921e-05,-0.0001110327493218195,-0.00037480412888157226,-0.0007562060471859753,-0.0012431502853480724,-0.001788198371650031,-0.00231631281117683,-0.00273851247087825,-0.0029711245656500623,-0.0029542860867949093,-0.002662024344095912,-0.002102696397038201,-0.0013160403814054986,-0.00037305616385465036,0.0006231525270260188,0.0015453625813979602,0.002267540639622915,0.0027040260383059535,0.0028446018880437063,0.002762280060385203,0.0025815880300057233,0.002417956540438389,0.0023194012528918923,0.002244871018955918,0.0020943554407051113,0.001774777510067652,0.001262839155001839,0.0006264660190355138,-9.619496405572759e-06,-0.000535610441063513,-0.0009241672943715938,-0.0012529840230445853,-0.001665296118426436,-0.0022847271795552564,-0.0031261821540740174,-0.004049600606325922,-0.004786488924770485,-0.005036769673369243,-0.004597788945030858,-0.0034649664642006726,-0.001850526201960397,-0.00010589256084341566,0.0014148612083789585,0.0024815178025292734,0.0030448114538674897,0.0032075077400709334,0.0031392115263322983,0.00298709229522305,0.002825090898480048,0.0026543946043062388,0.002438850485863456,0.00214652852978979,0.0017753703923782105,0.0013565956636509648,0.0009410059284034485,0.00057545160839636,0.00027563978629884217,5.175924787207591e-06,-0.00032311297572818593,-0.0008110035520142901,-0.0015108608724821566,-0.002365651213007831,-0.0031940606115479706,-0.003743163544438678,-0.003792678322357945,-0.0032602846824468334,-0.0022503843045704715,-0.0010167849859838572,0.00014217409251210292,0.0009999807446159858,0.0014713923431498115,0.0016093794380083893,0.0015470091186172302,0.0014257231043537447,0.0013454292707570066,0.0013476798168670832,0.0014221118484484979,0.001521126060896796,0.0015757010276335488,0.0015138816418391353,0.001283394314552489,0.0008725815071875104,0.0003186865368198799,-0.0003037046855329722,-0.0009104248647549657,-0.0014381148070239332,-0.0018614981196779985,-0.0021885091475906467,-0.0024357043390195307,-0.0025967504656013844,-0.0026216202747761028,-0.0024215588743740175,-0.0019052049146313884,-0.001036512503490075,0.00011033232816583163,0.0013324721185052398,0.002342498429630944,0.002873137879335336,0.0028009799804849483,0.0022218237790640476,0.0014238923308461265,0.0007600881420330363,0.00048370895532389574,0.0006379004660881493,0.0010571276825600915,0.0014715212479791797,0.0016483435774003103,0.001493206272606799,0.0010672784454958443,0.0005275206938494791,3.3040214702785196e-05,-0.00033241539551243874,-0.0005885248592570582,-0.0008306173182564081,-0.0011650013053137165,-0.0016414993618536176,-0.002216598956099503,-0.0027642391116924573,-0.003127001458787293,-0.0031810090034321945,-0.002883594886097467,-0.0022851333323584237,-0.0015062160520386068,-0.0006956486397012039,1.321724816789546e-05,0.0005365816173681559,0.0008592132795008694,0.0010341140843196368,0.0011594948863020852,0.0013360646502545703,0.001618652493820244,0.001984312695624096,0.002336260470924941,0.002547220727339908,0.0025235356497992955,0.0022557154665557018,0.0018246681191325732,0.001357515643122565,0.0009584157303736096,0.000655897241232494,0.00039673411858818196,8.633708879432597e-05,-0.0003508372802896642,-0.0009243270831905565,-0.0015659319502935947,-0.0021557080904418173,-0.0025708786356652322,-0.002732861807648593,-0.0026293762929652945,-0.0023033732428567183,-0.001820899123308046,-0.0012419518709882844,-0.0006126779673159148,2.2041181212486627e-05,0.0006044437534021535,0.001068902416315771,0.0013700762788817118,0.0015151516511427911,0.0015706887724298538,0.0016276155261236605,0.0017377714743142395,0.0018613705994521292,0.0018663506635633927,0.0015929573172412184,0.0009556174780491491,2.5059771071055115e-05,-0.0009641219319698876,-0.0017001955267764383,-0.0019429390278352726,-0.0016589927520634018,-0.00106214459790668,-0.0005198340836564494,-0.000363982099226189,-0.0007093463507091349,-0.0013876753173737398,-0.0020396429765798564,-0.002310188820334634,-0.002031642470044379,-0.0012922972486341935,-0.0003625998131857671,0.0004646468469390848,0.0010211539478985126,0.001317561113042524,0.0014890832564838123,0.0016816043947150082,0.0019555381355774283,0.0022614747657913083,0.0024877595713803527,0.0025358114179756574,0.0023724564199328465,0.0020359230199475586,0.001605858331261468,0.001163431242631269,0.0007622506288118971,0.000417413357410097,0.00011026708834154154,-0.00019746620673833455,-0.0005473096961337983,-0.0009709858200551482,-0.0014824167250158506,-0.0020724140213607303,-0.002703098036069488,-0.00330300544449565,-0.003769019045890324,-0.00398269910417409,-0.003843374605019707,-0.003309706378116147,-0.0024311039705772314,-0.001348481540563906,-0.0002553964904407563,0.0006682408762996947,0.0013197104909723966,0.0017026304403632325,0.0019081023662316017,0.002060486481200853,0.0022573400558886197,0.0025308719120754964,0.0028421205969999573,0.003102572548519667,0.0032104814841686343,0.0030895307951824633,0.002719024738549224,0.0021449331781307006,0.0014641970428351378,0.0007850810606612358,0.00018057278047164298,-0.00034040887368937275,-0.0008260281541356827,-0.0013403808497326332,-0.0019108784129606856,-0.0024959145887002345,-0.002994179480467281,-0.0032916023177746276,-0.0033172745527436974,-0.0030736130186440327,-0.0026242011158571126,-0.0020522596800488066,-0.0014211759313616876,-0.0007625197662632938,-9.299932607024906e-05,0.0005600331576673912,0.0011482290058984989,0.0016154804451687258,0.001923579906823323,0.0020706429142456,0.002089657475433955,0.00202893829404183,0.0019267196066543842,0.0017937081405392933,0.001612264383270881,0.001352524478276896,0.0009967816179795195,0.0005574753911645088,7.594577806820037e-05,-0.0003995958145052564,-0.0008427100374186089,-0.0012606447345821425,-0.0016738115749654742,-0.002071292500687951,-0.0023758667377482136,-0.0024555258116140577,-0.002190571415791565,-0.0015618412490612803,-0.0006994167444744079,0.00015270900056096035,0.000747741823146617,0.0009610910274723858,0.000852994988164756,0.0006299091624156704,0.0005291270458733181,0.0006959434348882188,0.001120430030388804,0.0016587237424824143,0.0021145549480540396,0.002331052766728348,0.0022485657531913917,0.00190905553977884,0.001414703001819272,0.0008669653629587899,0.00031792984070161694,-0.00024240751871545485,-0.0008581005363368067,-0.0015551410741127029,-0.0022960485629690093,-0.002970081054781101,-0.003428671285295605,-0.0035484680077718486,-0.0032866261103654815,-0.002697688385750025,-0.001905597486321008,-0.0010506785620616635,-0.00024216167640208762,0.00046246418286146837,0.0010495351654818557,0.0015267905887802826,0.0019039890329016458,0.0021859713281910725,0.0023755988257045334,0.0024772710006813895,0.0024943518169693126,0.002422460685154628,0.0022474393782466466,0.0019553658993660167,0.0015519181670170918,0.001077128713628934,0.0005997221679419338,0.00018715406102813426,-0.0001342462314822847,-0.0004037186276093555,-0.000714860565903877,-0.0011671566379341186,-0.0018007247443158673,-0.0025486142383737993,-0.0032378570796492184,-0.003648626849577984,-0.003609295702695535,-0.003081334753501993,-0.002187758261619629,-0.0011654351304033535,-0.00026205001598828687,0.00037002971784457135,0.0007275596223078867,0.0009310922571876114,0.0011383105059540942,0.0014477598102709995,0.0018470147237816792,0.0022292092836166916,0.002460134111851175,0.0024520316406745546,0.002203984239687289,0.0017951043625337498,0.0013447830631623916,0.0009661569531827206,0.0007319609519860699,0.0006575412030153323,0.000697654327222212,0.0007555798467205822,0.0007076886115669309,0.00044451239879192677,-8.142167248888265e-05,-0.000822795577357857,-0.0016435255595510267,-0.00237192003836041,-0.0028802307807175515,-0.0031447951725704446,-0.0032426403889049393,-0.0032774752402461044,-0.0032803126253683735,-0.0031576266058903433,-0.0027347511779750437,-0.0018756223918650204,-0.0005999711293092283,0.0008857889551664336,0.0022698686154638747,0.003277192764053007,0.0037833435397344314,0.0038383551393239034,0.003602125448422345,0.0032438270111819663,0.002865693181265739,0.0024834776753353996,0.0020582162190991155,0.001549328374076395,0.0009553224312235933,0.0003212347723806076,-0.0002873895772784845,-0.0008251997445955206,-0.0012949788629127402,-0.0017420295793825825,-0.0022142922474307917,-0.0027109342311982185,-0.003154181118768228,-0.003409011306428593,-0.0033460810902554584,-0.0029131705608487304,-0.0021712480725148368,-0.0012714375057045041,-0.0003863957324443893,0.00036165915175905656,0.0009343719366903547,0.0013590763175024526,0.0016810257630221824,0.0019233018170070717,0.002078759312140514,0.0021311408987071154,0.002082623806389431,0.00196448713886477,0.0018228911340343983,0.0016904588350345985,0.0015642115367112074,0.001405962296977405,0.0011661357360418286,0.0008162431487976006,0.0003689568868918679,-0.00012815435356387773,-0.0006225974127517146,-0.001091339385987618,-0.0015539582645127921,-0.0020491977179231,-0.002583525003532405,-0.0030842794623434223,-0.0033964077635635624,-0.00334126487379402,-0.0028164162442922613,-0.0018805128875529495,-0.000763517875961761,0.00022010474727943304,0.0008176390177061263,0.0009628829121301506,0.0008048587106108565,0.0006216924280054792,0.0006699741512185249,0.0010559916862911377,0.0016959310459543579,0.0023744442852248956,0.0028562717303494255,0.0029872571038302613,0.0027419922791108893,0.002212204982275117,0.0015566366946148593,0.0009395654266370918,0.0004782501282320855,0.00021090338033048122,9.158547758372207e-05,1.4059950200647625e-05,-0.00014146109031570658,-0.00045589925252070276,-0.0009367476783668635,-0.0015182316550139663,-0.0020943886913568684,-0.0025643566748114527,-0.0028638806659207826,-0.002969589883990587,-0.002883061849240375,-0.0026138077229032053,-0.0021754930484899596,-0.0015944480466021675,-0.000918360661613198,-0.0002144307488764959,0.0004438302707205539,0.0009937114941553258,0.0013963336908057967,0.001642633631066608,0.0017535174558314963,0.0017750081632126001,0.0017666785613876775,0.0017823338272573558,0.0018476930901396515,0.0019462730415280736,0.0020244396828097443,0.002016653365895001,0.0018782361261283314,0.0016063734924368078,0.0012362610992305155,0.0008141753465789524,0.0003636979264089082,-0.00013227250838911218,-0.0007173057047544988,-0.0014174618399734173,-0.00219277148191657,-0.002919828073010432,-0.003427166516517209,-0.003571665248435842,-0.0033131010519621947,-0.0027387775182266074,-0.002018112835544989,-0.0013119933979522983,-0.0006933469866989332,-0.00013008874832623495,0.00045967780274689687,0.0011199924126164657,0.0017990692619810095,0.002361645861788494,0.0026628719055926875,0.0026338326936264037,0.002323901289204929,0.0018764868719937694,0.00145743852274949,0.0011799856479063151,0.0010641154375669929,0.0010422015690169778,0.0009978970848971128,0.0008158314421661131,0.0004241322265776189,-0.0001798503082272888,-0.0009250360050672187,-0.001684875593506312,-0.0023151553085375685,-0.0027004639052980233,-0.0027919156655162804,-0.0026189172093214093,-0.002267582922507081,-0.0018351403522888442,-0.0013842823962177343,-0.0009231131885958899,-0.000421694349343913,0.0001461233342692444,0.0007623932481396219,0.0013523007163894767,0.001808919857431078,0.002043679347482542,0.0020349988045466802,0.001846578535791259,0.0016017767213197293,0.0014239345232023271,0.0013719266375625105,0.0014051251003243132,0.0013993147523847292,0.0012102827243332063,0.0007562346205456641,7.665279314676351e-05,-0.0006678473260516677,-0.0012629063925552195,-0.0015464009676352944,-0.0014970525041318897,-0.0012517662078933298,-0.0010347470959116544,-0.0010346382714613266,-0.00130075583145971,-0.0017195877792302175,-0.002082111656564092,-0.002195949577819791,-0.001973801661480551,-0.0014539609075853582,-0.0007570958795673636,-1.9116315972021562e-05,0.0006578255036619935,0.0012185212437422917,0.0016423442780505082,0.0019272335755761202,0.0020836406625187667,0.0021357699428585734,0.00211849334923106,0.0020631473635662955,0.001978270378531936,0.001840289332101651,0.0016055769775815117,0.0012404407241935903,0.0007502876277862156,0.0001861479957498617,-0.0003795290651184487,-0.0008937178573135649,-0.0013516784849394625,-0.001790403630625697,-0.002246500485108111,-0.0027045074459246545,-0.0030720535370407183,-0.0032044771632632734,-0.0029716489974672255,-0.002332582357362125,-0.0013754905184198219,-0.00029707227917801535,0.0006732170690289857,0.0013672601474581222,0.0017422442396813492,0.0018815494493605095,0.0019339356164547882,0.0020249508300794333,0.002187448825107496,0.0023468213421006965,0.002368109025568463,0.0021395468884400585,0.00164580614913813,0.0009873103877611118,0.000331195305745645,-0.00018015972106525118,-0.0005098240532258115,-0.0007465926549720402,-0.0010488618747805506,-0.0015409390857678272,-0.002220667655246443,-0.002934095652754784,-0.003436438476465969,-0.0035087404087591452,-0.0030663977964291806,-0.0022003617518304448,-0.0011315300850338824,-0.00010770884168850132,0.0006996020728635747,0.0012481856907427921,0.0016098710925182985,0.0019051567064806787,0.002226266118988794,0.0025857421568720456,0.0029102864419097403,0.00307751597390702,0.0029759571286636158,0.0025606626453625043,0.0018799098500843782,0.0010617526365740589,0.000267512362092933,-0.0003668734587283272,-0.0007782417390518629,-0.0009958916241118382,-0.0011266556593501026,-0.0013076348980274183,-0.0016400773448729934,-0.0021306416491146257,-0.0026718078118196146,-0.003080390627110406,-0.0031820357185395162,-0.002898007416016518,-0.0022833099245728,-0.0014923823426427332,-0.0006939422679028563,1.1360802200317214e-05,0.0006200194164717545,0.0011868562207612789,0.0017484675574982178,0.0022638770810299736,0.0026159648391601343,0.0026764104250808804,0.002393198162613258,0.0018426992754514869,0.0012098049506422217,0.0007047480024021514,0.0004637669367609454,0.0004887896751323384,0.0006563330228651413,0.0007853138332579734,0.0007225458777905332,0.0004011307256076714,-0.00014972673436054493,-0.0008333577494194139,-0.0015255010908935582,-0.00210427139846632,-0.0024673357407218595,-0.00254529715843794,-0.002317205051760229,-0.0018229753487859343,-0.0011613075002611193,-0.0004666404939334867,0.0001297762810203119,0.0005405581675798486,0.0007490054794291106,0.000811432758819958,0.000832230748555094,0.0009179055902061061,0.0011260205766341121,0.0014321128403443526,0.0017350815876124271,0.0019040573927644176,0.0018437137113122832,0.0015389974942695474,0.0010506510465594697,0.00046630023923215205,-0.00015545885489480743,-0.0008045043409152599,-0.0014863596722480426,-0.002163721666829835,-0.0027233477505959544,-0.0030041264029787144,-0.002876763124972697,-0.0023245596924428473,-0.0014701070310866949,-0.000527697696475492,0.0002905855821625186,0.0008600869419541858,0.0011754207166328563,0.0013207379082932535,0.0014055237613882065,0.0015054532398731373,0.001635381428430183,0.001758663781163385,0.0018195105500513464,0.0017789154117051993,0.0016370069530942167,0.00143159805811109,0.0012130864881366582,0.0010080109926729154,0.0007920265799239075,0.0004913410468696173,1.8276471535627614e-05,-0.0006725617137895118,-0.0015360782031582794,-0.002426837889052868,-0.003142276724661796,-0.0035049444142696957,-0.003443013509591188,-0.0030225909143232702,-0.00240925497497211,-0.001777846634807546,-0.0012225378943477448,-0.0007208917160714574,-0.0001730513812455576,0.0005098974734542194,0.0013255596894461972,0.0021594234271817953,0.002836284831017695,0.003210502961475704,0.0032387026533768006,0.0029921593726327305,0.002605457692941731,0.0021971377175949644,0.0018128115800322602,0.0014233454227259147,0.0009724622452756981,0.00043537264674912236,-0.0001546172220447907,-0.0007282719694977477,-0.0012306654058475458,-0.001658075611056689,-0.0020511198409987707,-0.002447541809996125,-0.002829138919618092,-0.003102914223716271,-0.003133764730499717,-0.002812609741276434,-0.002122704662184014,-0.001168645386769023,-0.00015151949047399827,0.0007024037931812665,0.0012314772855661126,0.00140698981829919,0.0013437785205857103,0.001241266589286003,0.0012795538691428815,0.0015227586374340985,0.0018818469651617502,0.0021596860435936288,0.0021574725039708777,0.0017872298143004573,0.0011287104033653641,0.0003962356711737082,-0.00017041039985754287,-0.0004328557466781713,-0.0004274096952972279,-0.00034107876423877115,-0.0004010231805012642,-0.0007382157759769351,-0.001302673199336778,-0.0018801185447277866,-0.002202623638346685,-0.002091298948850292,-0.0015504464326674557,-0.000762104189150693,1.0627513867859104e-05,0.0005516123457510113,0.0007796327831554066,0.0007569710132530525,0.0006292504838109152,0.0005408688973201029,0.0005716769088849449,0.0007184968405480844,0.0009188176980752028,0.0010960848564606342,0.0011998724623303884,0.0012202424422892448,0.0011720470538573661,0.0010641473140214292,0.0008781532608715668,0.0005735839193105576,0.00011621854131242952,-0.0004909659845627225,-0.0011960668944902737,-0.0019121411353060667,-0.0025443740574197966,-0.003011632807210445,-0.003253080205415173,-0.003225489986109934,-0.002903139625066307,-0.002286186715721591,-0.0014134578390093736,-0.00037028810004089286,0.0007170093711133946,0.0017036548880911728,0.0024622679246858953,0.002920553126353349,0.0030849368708560647,0.0030374306669926376,0.0029031055537810315,0.0027981140870418568,0.0027781898738251216,0.0028109881546339267,0.002789092854595651,0.0025832535480304238,0.0021133653773342917,0.001400059443472273,0.0005637390990395016,-0.00023749419798157253,-0.0009042150524203813,-0.0014716940481267972,-0.002109629238850265,-0.00302414967652174,-0.004299890815321632,-0.0057712454805584346,-0.0070167233697609535,-0.00751215997782191,-0.006882541196321798,-0.005117675003904949,-0.002620263360401663,-4.557281355757614e-05,0.0019841688426444045,0.003134116075458624,0.0034498195552039226,0.0032615344335928395,0.002977796055110916,0.0028900800496297887,0.003079045916170652,0.0034403868358699207,0.003784539497106514,0.003942213746461961,0.003827358247062609,0.0034466237492196032,0.002872481656934416,0.0022041541072098146,0.001532612631535265,0.0009160586728105005,0.0003678413179686917,-0.00014179465460948556,-0.0006699944812425572,-0.0012749028991660273,-0.001985626654058968,-0.002777915944191543,-0.0035654113492319768,-0.0042139769226761815,-0.0045797094380207164,-0.004560000968423958,-0.004136933420534,-0.0033914464531519493,-0.002478506407282458,-0.0015719691276704136,-0.0008023627338931746,-0.00021429678804546015,0.00023813159757916664,0.000656050064655889,0.0011367916782735298,0.0017185305628571374,0.0023541913504361,0.0029262255695113376,0.003295464352839215,0.0033635512102871416,0.003123319000465756,0.002673971303452487,0.0021874921662845617,0.0018307122863211456,0.001671891489985164,0.0016203556267069628,0.0014451610562231801,0.0008839489481323537,-0.00020160701295334794,-0.0017081034739123613,-0.0032878175299946863,-0.004478722600219558,-0.004905784011633459,-0.004446915132055842,-0.0032771996373002284,-0.001776442540864731,-0.00035875597470662584,0.0006862051297393318,0.0012722317935291185,0.0014972872997256442,0.00155296919368381,0.0016132462685838171,0.001753281933162876,0.001930881532021364,0.0020324664358270573,0.0019538417164665063,0.0016690325830753159,0.0012481493777763968,0.000814067947435557,0.00046272717239947427,0.00019490271678605483,-9.49410216037139e-05,-0.0005569444900193524,-0.0012799862934899844,-0.002203893032975243,-0.0031097940386605703,-0.0037058993753383423,-0.0037664415120518893,-0.003244836420326099,-0.002295346459240117,-0.001193444926541986,-0.00020566279074887958,0.0005159541703395113,0.0009646082545172496,0.0012360617224306748,0.0014537552129243265,0.0017078892554602651,0.0020302487226203695,0.002398009218283883,0.0027486060802875256,0.0029958672715079447,0.0030501509219898974,0.0028471141336075083,0.0023792114135307244,0.0017122403641223604,0.0009693875372120168,0.0002813432475016766,-0.00027570489088130654,-0.00071845022195682,-0.0011435188099747687,-0.00166426036258039,-0.0023309087374752736,-0.0030815924223440735,-0.0037551528002351224,-0.004159388955942769,-0.004155251960778747,-0.0037107342476284224,-0.0029004963782078394,-0.0018611827512502364,-0.0007347231017151582,0.0003691207994341011,0.0013785629498499845,0.002242868565374024,0.0029125756443811987,0.0033340218000363956,0.003463560219249397,0.0032933645086672715,0.002872096896403331,0.0023043974254716207,0.001723567250495221,0.0012464930185599977,0.0009298043397617822,0.0007458934840067583,0.0005890314603418877,0.00031183066977335584,-0.0002159764908276973,-0.0010426094288247044,-0.002087817909723726,-0.0031421973808447756,-0.0039266030646458484,-0.004196787738882016,-0.003847881734838548,-0.0029644418551901825,-0.0017861438057787363,-0.0006048504617478407,0.00035296182630146816,0.0009984113934287274,0.0013765922651624355,0.001602012159545497,0.0017800181899019919,0.001960696260478489,0.002142001721533601,0.0023028347281191268,0.0024303507066949946,0.0025186081858049854,0.002544511491059896,0.0024480168270821423,0.002141554564672356,0.0015516047046050137,0.0006696253130359034,-0.000421673940769083,-0.0015679152923067717,-0.002599600629941058,-0.003390760082520362,-0.003884122109614775,-0.0040735596311413,-0.003966761131463138,-0.003563128218089456,-0.002865602097832124,-0.0019153557034059068,-0.0008185338346164456,0.00026208621126720655,0.001154675322800324,0.001743029306643184,0.0020129246465510355,0.002052571483895815,0.0020046197580865857,0.001994932137602459,0.0020764043232014643,0.00221599598232956,0.00232702900277676,0.0023239127602283087,0.0021671216928237516,0.0018756490355652448,0.001504745572299821,0.0011059692187874721,0.0006941680968273352,0.00023974603069680848,-0.00030996974164797697,-0.0009913190208528167,-0.001787288406193019,-0.0026132967501294483,-0.003335343135900305,-0.003812715833063291,-0.0039440941938380745,-0.003695987324876155,-0.003105569089856838,-0.0022648407288374285,-0.0012978025647187807,-0.0003362433985541453,0.0005065298404940757,0.0011620335431879133,0.001622703695512275,0.001935356717747238,0.0021703130564707687,0.0023808374275388934,0.002575285851983498,0.002716133310675772,0.002742763233567063,0.002602532666111866,0.002274738131706152,0.0017803459149178722,0.0011775127558901314,0.0005449620332954621,-4.416332883784102e-05,-0.0005508947983073636,-0.0009869491108628371,-0.0014033130981805056,-0.0018486225825868167,-0.0023188434622504195,-0.002734184475488124,-0.0029667442577504645,-0.0029077057814429147,-0.0025322422525047563,-0.0019191129847627997,-0.001212215617811535,-0.0005502533130978582,-9.526248172067034e-06,0.0004085047405982952,0.0007464112479801857,0.0010454453168480754,0.0013171470512922587,0.001544390224521674,0.0017018415970315175,0.0017766142599344953,0.0017765854392286394,0.0017264898623898695,0.001658773416954604,0.0016034292539033193,0.0015748989511034969,0.0015543793455676143,0.001475171651878529,0.001228102770219602,0.0007004215434659412,-0.00015908565478917405,-0.0012814109458433932,-0.002466237296002028,-0.003438581873540428,-0.00395308871316511,-0.0038941054030956325,-0.003319157236331921,-0.002424656901424715,-0.0014551219180792899,-0.0006049175190770456,4.0005249336218414e-05,0.0004996173105543951,0.0008498805960277863,0.001161022648601767,0.0014598708223020113,0.0017320058114647203,0.001951829082954111,0.00211127688395797,0.002222875718281501,0.0022962528323727995,0.002310646928994212,0.002210667083417382,0.0019348692509367652,0.0014606160571400315,0.0008337627351190627,0.00015865813438635946,-0.0004511691151767073,-0.0009336197019683682,-0.0013100493485524423,-0.0016636715044402682,-0.0020739817639410783,-0.0025481771656945375,-0.0029953392275660724,-0.0032627271408786056,-0.0032137737239236338,-0.0028014144757783532,-0.0020949210253632055,-0.0012482917584737546,-0.00043170080796719914,0.00023611810227206192,0.0007228773648510478,0.0010738063203369237,0.0013695244727022781,0.0016754065965456292,0.0020078018395514033,0.002330687777754946,0.0025790329548062954,0.0026920699059334594,0.0026378180586694366,0.0024192811485116966,0.0020655517762328173,0.0016185804923331344,0.0011240724567594578,0.0006261189923161335,0.0001589961216667298,-0.00026641191687416907,-0.0006728629807594088,-0.0011092241759871643,-0.0016198244081197335,-0.0022039700463657736,-0.002791042110805113,-0.003251138940928583,-0.0034414384958195874,-0.0032675530022457655,-0.0027294849027257465,-0.0019281926218743615,-0.0010279107272812868,-0.00019170533310085503,0.0004785845599295152,0.0009696456836497972,0.0013403912583271505,0.001673256057832249,0.0020190292042836493,0.0023625039981127528,0.0026253190853674263,0.002704657223020458,0.0025288118608668064,0.002100640763817019,0.001504267410036233,0.0008696787022223142,0.00031442021056765114,-0.00010472575358791392,-0.00040477251318716753,-0.0006523631114336199,-0.0009219201114358139,-0.001260288001455911,-0.0016703454061273543,-0.0021110126630677867,-0.0025052536097287716,-0.0027527815724617787,-0.002751395006678513,-0.002430023616727198,-0.0017858981196061847,-0.0009064881777491928,4.384697995410815e-05,0.0008768828961970742,0.001453022414366665,0.0017362793411324034,0.0018000230445773956,0.0017785704088525954,0.001791415096647269,0.0018823470391216477,0.002005305671551251,0.002060813555224719,0.001959419807482764,0.001676159092528626,0.0012664518863899554,0.0008345711722885887,0.00047157245703278354,0.0001981774163046222,-5.2117352210416935e-05,-0.00039640372080285873,-0.0009310540843192373,-0.0016661844531309414,-0.0025025971820554337,-0.0032621993254678154,-0.0037534922147910077,-0.003838737370039702,-0.0034744952073106693,-0.002715350899415105,-0.0016893385270674208,-0.0005624768198587841,0.0004941044618929778,0.0013315322040081136,0.001848426261937088,0.0020136789073189735,0.0018781670765600656,0.0015646764474853785,0.001233672986889229,0.00103497673964645,0.0010623047335453495,0.0013257446878349169,0.0017503234002249493,0.002201269128357451,0.0025287466450764537,0.0026167021617351295,0.0024163967510840135,0.001951056079959012,0.0012926985269080885,0.0005260743244021894,-0.00028146924516117035,-0.0010920376289155816,-0.0018894361982953927,-0.002657861171380109,-0.0033576320713371217,-0.003910743093272859,-0.0042081186490074435,-0.004143164448357538,-0.0036621691513778476,-0.0028079044930710137,-0.0017286517356635868,-0.0006373040818665593,0.000268671464494806,0.0008888174777705794,0.0012561129350440706,0.001502074272039233,0.0017671881063360945,0.002111117085588884,0.002480417496421204,0.0027536627230254776,0.002830235212155882,0.0026989879046452423,0.0024389164500940733,0.0021542632420402793,0.0018944585958383506,0.0016199205937028846,0.0012397155846374268,0.0006918399533761693,3.0320145068062185e-06,-0.0007201843899884956,-0.001363138294908531,-0.0018789579378232783,-0.0023041652888040618,-0.0026978945747328856,-0.003054407603425662,-0.003265912877568021,-0.0031762171032166018,-0.002693038809519081,-0.0018762074207581626,-0.0009316884015486461,-0.00010858436549880326,0.0004332726024580954,0.0006968733074272497,0.0008178710749187908,0.000959128279754946,0.0012066187068225567,0.0015333990247885301,0.0018427093589819124,0.002045081958575753,0.0021087244971894027,0.0020539346898570173,0.0019109750939276043,0.001686339996402223,0.0013667875271895218,0.0009515693018735296,0.0004768007638854629,4.0998595557807215e-06,-0.00042057101829205554,-0.0008027526401759451,-0.0011955299700852438,-0.0016517330670308863,-0.0021644599235445825,-0.0026411888343130865,-0.0029356041641432464,-0.0029208106940748456,-0.002557715266353874,-0.0019152746241922522,-0.0011325704162465982,-0.00035102147341857233,0.000339485032661174,0.000912996528577141,0.0013829872547519114,0.0017677660497273434,0.0020709006035814883,0.002282818908989843,0.002392388160515644,0.002394801453188646,0.0022920719405107085,0.0020918064465027227,0.001809390736413701,0.0014712129248195412,0.0011120716073313,0.0007638212683175032,0.0004403847535170933,0.00012842828541313397,-0.00021015090645594122,-0.0006245794333199902,-0.001155637885725947,-0.0018155407111235312,-0.002571128095511294,-0.003334984778433918,-0.003971968374936945,-0.004328177398746915,-0.004280237324307765,-0.0037873032786193755,-0.0029179845460810634,-0.0018314921579555927,-0.0007165552999400884,0.0002823573530042144,0.001113168961354144,0.0018151067118143882,0.0024723384518724675,0.0031486068657411086,0.0038352026369628364,0.004435574427640486,0.004793664987182904,0.004756300026060548,0.0042457502949650875,0.0033103508347530545,0.0021248009728987148,0.0009315459720108017,-5.510436653267687e-05,-0.0007362515161047725,-0.0011606796895271324,-0.0014832929037663341,-0.0018716719100077134,-0.0024113423541767516,-0.0030588149371568183,-0.0036621862961220097,-0.004032497094928613,-0.004027206360237611,-0.003608127351980937,-0.0028529099425874645,-0.0019203165669997146,-0.0009875577577498024,-0.00018783813921087868,0.00042608185261506224,0.0008804295251128209,0.0012471033003132559,0.0015971737113343663,0.001962715513660744,0.0023223223695088163,0.002613978340591012,0.0027664691199110383,0.0027326158654287494,0.0025084808212778526,0.00213188120786339,0.0016648963041584995,0.0011711389139497225,0.0006970078251288242,0.00026079880593711524,-0.00015005872862208466,-0.0005731485214351465,-0.001054796183337837,-0.0016238564162295347,-0.002263230100690579,-0.0028939076461231943,-0.003385436475959269,-0.0035946939485980915,-0.003418199167516832,-0.0028337535017195353,-0.0019121758981542883,-0.0007957978716643118,0.0003437390199009791,0.0013494898223080692,0.0021107314614788124,0.002577148389818551,0.002757729259569356,0.002708267606605765,0.0025107482928032865,0.002248458255867385,0.0019831495869359382,0.0017422025088800006,0.001520808919275342,0.0012965742506100314,0.001046620417725728,0.0007562400119551606,0.0004146854008900873,3.7026860550235137e-06,-0.0005081032871586378,-0.0011524315525448601,-0.001928258172289412,-0.0027644747425866305,-0.0035067896903855466,-0.003952525736303555,-0.003931229615142197,-0.0033956449929084514,-0.0024695900128582277,-0.0014135621269756597,-0.000512411113948512,6.18253314994253e-05,0.00033602241987636637,0.0005165053349913657,0.0008669995644820282,0.00154832789514339,0.002511128304635508,0.0035052804995276874,0.0042015999954217,0.004355146883235158,0.003918181708972074,0.0030463840004730574,0.0020071277744759574,0.0010495742690990791,0.00030563460122342624,-0.0002376649202054104,-0.000695537331869539,-0.0012042056669444392,-0.0018420894792684002,-0.002585658412144934,-0.0033138043233930958,-0.003854221690090047,-0.004049481759787179,-0.003814923067720697,-0.0031672799142657745,-0.002217760897980461,-0.0011372050237017216,-0.00010738019867793155,0.0007278440367716288,0.0012993714365107615,0.0016261754606714414,0.0017966223840708835,0.0019205489252205673,0.002071512453094504,0.0022494678487369178,0.0023872979415373273,0.0023997390720594067,0.0022448628396206033,0.001956822760747736,0.0016250748935004342,0.0013313416749341257,0.0010868785339601464,0.000815507255442079,0.0003982166642948688,-0.00024684514402884396,-0.001099488647350233,-0.0020281068965884446,-0.0028401797340485303,-0.003361123598313953,-0.0034974671274031694,-0.00325584903868102,-0.0027185546389919633,-0.0019990036836694926,-0.0012045484321824755,-0.000420853105830195,0.0002858871734047774,0.0008628191306793759,0.0012720914885094472,0.0015017482625963965,0.0015768151212884188,0.0015573499318755819,0.001516015426849923,0.0015019884378427955,0.0015120164079760676,0.0014910567251811948,0.001368509620080466,0.00111007810578119,0.0007492067840271307,0.0003715227962646502,5.7814312961248495e-05,-0.00017614362637235245,-0.0003965495052999134,-0.0007051024175329297,-0.001154184488088725,-0.0016817802140029821,-0.0021181121155915976,-0.002270117850425803,-0.0020343566324863708,-0.0014645714932756994,-0.000747306170399581,-0.00010018432170312111,0.00034105992840359825,0.0005761574610445327,0.0007079016506617969,0.0008553528112616258,0.00107453192450238,0.0013337076647007614,0.0015473036815677836,0.0016349555852350425,0.001564824648408959,0.0013615490076726818,0.0010867948775234357,0.000812178410702317,0.000596918343040932,0.00047020961362291666,0.0004159399736776909,0.00036576475150663186,0.0002132858486720917,-0.00014460531507771946,-0.0007520043701126262,-0.0015533071514960129,-0.0023955476157728603,-0.003079104231106103,-0.003432752439162058,-0.0033745055666503454,-0.0029303051104362906,-0.0022089722569712286,-0.0013541664554962748,-0.0004991831685478929,0.00026009134359947976,0.0008732697344016696,0.001331758735992442,0.0016595562526072662,0.001900287618922825,0.002100125990394369,0.0022884676442328153,0.002462217782329119,0.0025817284550051817,0.0025843886188493437,0.0024144284808330432,0.002056467702369001,0.0015529067407473347,0.0009904638621407785,0.00045977309424113813,1.1372007279255648e-05,-0.0003648390009255971,-0.0007254853715924182,-0.0011361321394998602,-0.0016326656955737641,-0.0021986690802250413,-0.002762987835654853,-0.0032138400725117977,-0.0034257911824217956,-0.003296624205188844,-0.0027865906538946175,-0.0019458538386535947,-0.0009150268661023708,0.00010822519073906375,0.0009299913112159144,0.001428188665727107,0.0015993447941102436,0.0015584745927402983,0.0014847272071359199,0.0015337513431401442,0.0017600303148526692,0.002091895937589193,0.0023745004194044277,0.0024564987342623754,0.00226985987566851,0.0018569976542728418,0.0013324142174233101,0.0008057452016076997,0.0003146540636699026,-0.00019232456436730724,-0.0008136439050829983,-0.0016174101475143372,-0.0025711813618871523,-0.0035175914881756926,-0.004213185308159861,-0.004418467824129669,-0.004001294627264972,-0.003005252879682715,-0.0016473088800014457,-0.00024143358079144932,0.0009187036293897741,0.0016643843903734437,0.0019967375839349925,0.0020545830476369244,0.002025790613774352,0.002049645312339734,0.002159534672226639,0.002290472169156467,0.002338394735566981,0.002230336772436865,0.001963381166260699,0.001594984146060182,0.001199903320361366,0.0008274825338251082,0.00048681140838296034,0.00016331763632921985,-0.0001529726213478056,-0.00045366007350933386,-0.0007247595446886522,-0.0009743180872264004,-0.001247469066226514,-0.0016075510393336523,-0.002088089887801792,-0.002647744858331145,-0.0031649014432945572,-0.0034830225434179965,-0.0034808924501636123,-0.003123739719534741,-0.0024666372953472977,-0.0016166884170554967,-0.0006860186261483942,0.00023502334313589947,0.00107876143544065,0.001790837109236885,0.002328282823927658,0.0026688544541337497,0.0028221053967299346,0.002830950909828381,0.002759691582215142,0.0026718685684777293,0.0026051019996758662,0.0025522117086903846,0.0024590215591357785,0.00224546949003717,0.0018453763404106035,0.0012463442786747577,0.0005054378560914434,-0.0002736044342003476,-0.0009927196654756117,-0.0016104062116025183,-0.0021560530497262576,-0.002693457562125277,-0.003253785502444034,-0.0037826739003548895,-0.004141214690072697,-0.004166874502547796,-0.0037602829834661863,-0.0029455058140038393,-0.0018676635596843489,-0.0007305655741693119,0.000288066117541763,0.001096671520927714,0.0016973026958623555,0.0021457994576701872,0.002495613276906727,0.0027595880779448276,0.0029068860882740296,0.0028892114139036323,0.002676539961005547,0.0022826173754806204,0.0017694397735258435,0.0012304536065769088,0.0007602805658471043,0.0004230342711457318,0.00023105210007436845,0.00014140587021081014,7.080018682038749e-05,-7.67555086050144e-05,-0.00037832768693640384,-0.0008647646990441848,-0.001503526411305069,-0.002196036639001068,-0.002794145122500312,-0.0031382192005525358,-0.0031106368559951454,-0.0026853602090818824,-0.0019478376647653008,-0.0010697080876296695,-0.0002462149476845953,0.00037518130493224535,0.0007428323916041756,0.0009070335417751567,0.0009858576978833333,0.0011076835262410433,0.0013534683458987292,0.0017199393943787666,0.0021176778293914944,0.002406715987612903,0.0024580030424858124,0.0022159387557586264,0.0017319091789333107,0.0011473942759245843,0.0006280000005748573,0.00027779991073867037,8.043797683644901e-05,-9.497396898912e-05,-0.0004195181818070562,-0.0009996666950252732,-0.0018013080568412385,-0.0026472013379038335,-0.003290669720495621,-0.003526183483427206,-0.003279712404510131,-0.002635702526372398,-0.001791823692978668,-0.0009673069238811743,-0.000309840591199005,0.0001560420401306938,0.0005164524695137113,0.0008995818302022637,0.0013880632194173909,0.0019610624955327784,0.0024993738008944185,0.0028498443032404183,0.0029096422204807296,0.0026802221196508998,0.002262052238216628,0.001798365487245489,0.0014038404587128493,0.0011167019504103282,0.000893948375823204,0.0006447966021989674,0.00028076137568595265,-0.00024268217600519689,-0.0009097692791806221,-0.0016557269805393055,-0.002393857514260993,-0.003040321118458159,-0.0035238102326318643,-0.003781115911206922,-0.0037523239492054388,-0.003390678659980024,-0.0026892824632312948,-0.00170887315614055,-0.0005830437308194844,0.0005122875776712809,0.0014159504520200336,0.0020373612057315096,0.002381339875813037,0.0025281864482267213,0.0025801038143738056,0.002604123327219203,0.0026032939767780443,0.002530459859760718,0.0023330010055144833,0.001998650931137352,0.0015731110602215778,0.0011386102002762595,0.0007666380060628779,0.0004731145139680106,0.00020262323366943588,-0.00014736532490923797,-0.000672227172095993,-0.0014018059708425998,-0.0022670625937907794,-0.003109255911237818,-0.003729116988335478,-0.003956433439471887,-0.0037137359544011563,-0.0030502604051877587,-0.002130388870687036,-0.0011748710499108574,-0.0003740511547122281,0.00018817128011228406,0.0005588351899922887,0.0008723574395529468,0.0012620680413932795,0.0017785161343341098,0.00236191717777212,0.0028804462156536816,0.0032038567557970527,0.0032628685342772417,0.003061286069598313,0.0026455772799468093,0.00206578919717821,0.0013605674486539755,0.0005716811696216234,-0.00023492553532536865,-0.0009698816708499031,-0.001550650363937288,-0.0019411885376934943,-0.0021693601167515,-0.002304770620045147,-0.002408862597570291,-0.002490626616919482,-0.002498499338909493,-0.00235393398397642,-0.002003482413370552,-0.0014547243730509655,-0.0007743301169309794,-5.353223576129787e-05,0.0006324086575697485,0.0012433171184713307,0.0017633360062000276,0.0021751468947585604,0.0024438568050591087,0.0025256060972205386,0.002396115655123838,0.0020790009186656125,0.0016518296111131172,0.0012199381465900837,0.0008676269216837192,0.0006128451635289654,0.0003936755130704477,9.872990713461751e-05,-0.0003722719402714397,-0.0010498104392623686,-0.001868357987823692,-0.0026839820568595246,-0.0033236709457944032,-0.0036412255061226005,-0.0035573932021158916,-0.0030748289389552685,-0.0022705837101561683,-0.0012737796136742347,-0.00023551784654066025,0.0007033210104015236,0.0014406053318115133,0.0019314761645917642,0.0021915488731505243,0.0022829487373843154,0.002286526125041889,0.0022688734086879596,0.0022564491352444977,0.0022290579842257604,0.0021384023916921954,0.0019442614946946681,0.001647538482520842,0.0012969286069203269,0.000960435174792921,0.000677615106425942,0.00042566355849376833,0.00012660561134386557,-0.00030516791662835694,-0.0009056914222790183,-0.0016325996898259184,-0.0023812596020519935,-0.0030303703340927197,-0.003484888268199783,-0.003693432320346599,-0.0036409345569099307,-0.0033343674466457846,-0.00279801580138774,-0.0020798609345188384,-0.001256933898592104,-0.00042615114086250747,0.00032182213803234796,0.0009336902919748996,0.001410569544891052,0.0017980074853847605,0.002152275477240089,0.002501977125119242,0.0028278577414595947,0.003072122595514368,0.0031696649382873554,0.003080958055120565,0.002807772456411611,0.002385314228207993,0.0018589302278076776,0.0012621117872389964,0.0006105206755698377,-8.535911418107217e-05,-0.0008009063589271841,-0.0014887916031248885,-0.0020895054125466077,-0.0025532695858724876,-0.002856472029211904,-0.003000630420406129,-0.0029956672834121397,-0.0028412182245456954,-0.0025218707570131347,-0.002023043416410034,-0.0013587912797039508,-0.000591416016378952,0.00017512619805227055,0.0008297358987353143,0.001298690758134918,0.0015739497691195942,0.0017082403386304824,0.0017797668467144612,0.001846709724419876,0.0019169743382413886,0.0019497230464377052,0.001886640509861575,0.0016927564738934392,0.0013805219829645865,0.0010016589607554779,0.0006124820291677132,0.00023594549224835616,-0.00015374858871388547,-0.0006118070887572123,-0.0011778762407603453,-0.0018311538036344744,-0.0024739577395485723,-0.0029583932489692013,-0.0031464081371340704,-0.0029718386825678734,-0.0024688491252808616,-0.0017502243670397583,-0.0009507444698498678,-0.00017315485956560832,0.000530547737897414,0.0011389175502118892,0.001628804145425083,0.001964719015928985,0.002120975761748766,0.002115064131997327,0.0020168177382872887,0.001916499070636179,0.0018707605222697636,0.0018670629775459574,0.0018352530657680028,0.0016992728584564547,0.001431331304514747,0.0010690297867346347,0.0006835879582700608,0.00032300103453709785,-2.8601717064010308e-05,-0.00044603288168567853,-0.00101374457971875,-0.0017610028311630626,-0.002619416845084695,-0.0034288632517652604,-0.00399307350452042,-0.004160062919898349,-0.0038871046217875665,-0.0032547979142750314,-0.0024213105846708524,-0.0015430907048488989,-0.0007092338728171225,7.30481106486821e-05,0.0008392293132189279,0.001607027646674902,0.002338091527973595,0.002946126620588573,0.0033421104711695818,0.003482654163241748,