1.5705914930919194e-06,-0.001270505190289475,-0.0018336149116349731,-0.0012855464290327523,0.00032230759948793583,0.0025599119076712695,0.00484239024465296,0.006664688859073922,0.0077375150519357295,0.007998737933133408,0.007547036957211519,0.006564143868258388,0.005262037005090097,0.0038480067605468865,0.0024824653900008117,0.0012246184722482247,-2.208082882836082e-06,-0.0013785551009720563,-0.0030718882950544453,-0.00507708697534091,-0.007107726466599202,-0.008629621919902769,-0.009060106566261269,-0.008054278040629557,-0.005726223375165073,-0.002665765010957291,0.0002835295234960287,0.0023805323394127643,0.0032898147444440752,0.0031732648240058053,0.0025314003532858924,0.0018934449533455052,0.0015335756974764348,0.0013697721772664541,0.0010932909060548225,0.0004396281290470266,-0.0005743135697026335,-0.0016017643498188725,-0.0021433781802731094,-0.0018453904359495244,-0.0007374502929882111,0.0007366584976406963,0.0019224921142180287,0.0022864928767097692,0.0016949755012486073,0.00048341231814519325,-0.0007273837657548335,-0.001364612582709362,-0.0011901571353882168,-0.0003732383888256086,0.0006776990934857019,0.0015926176439989676,0.0022337734244455825,0.002689122771201958,0.003100446358468866,0.003473190360541242,0.003611636657223943,0.0032218213848435296,0.0021087691058204283,0.0003410525493220541,-0.0017161280794960247,-0.0035215627788253738,-0.00457684943152788,-0.004641755422664732,-0.0038444025743475958,-0.0026300237843704735,-0.0015652984278779654,-0.0010843536851538153,-0.0012950140529994973,-0.0019413357048312927,-0.002544867185912351,-0.002653389260485699,-0.002063573104144261,-0.0008970902731512485,0.0005017726155659747,0.0017694821418422087,0.0026940490257895203,0.0032549289269198788,0.0035317407292307585,0.0035703960925313446,0.0033147181673601565,0.0026542751013218504,0.001549942679647596,0.0001401910183818025,-0.0012583829994676715,-0.002271621284482698,-0.002640864680957552,-0.002340001737445384,-0.0015620537843007004,-0.0005890349229133642,0.00036054069636889236,0.0012004948575608594,0.0019248733632460692,0.0024941977329261565,0.0027676611131135648,0.0025510681679599776,0.0017377076790498717,0.0004441566934106596,-0.0009615291295936107,-0.0019785864179274358,-0.002192592229807228,-0.0014872185056968097,-0.00013404029750276915,0.00130075509639673,0.002199462577251593,0.0021663252805561193,0.0011903367280562582,-0.0003811606662582343,-0.0020288512258846364,-0.0032950868247290208,-0.0039412815631602455,-0.003965604038050926,-0.0035061756008823884,-0.0027184068842757148,-0.0017162102397266015,-0.0006064600126109245,0.00043379104049531825,0.0011293401504452432,0.0011900930566625778,0.00048260769029554644,-0.0008148115781995435,-0.002194316486464099,-0.002987953095056113,-0.0026585728201422147,-0.0010648899207459602,0.001439156958899357,0.004123609478244035,0.006165053203682029,0.006966420928068592,0.0063794342631450715,0.004742145690956923,0.0027223197347538983,0.001035940403590952,0.00016006260100956795,0.0001621725898481684,0.0007201288158470113,0.0013198930553980554,0.0015266794626359592,0.0011808998279125309,0.00041297048938584893,-0.0005137609565982923,-0.0014097208288351823,-0.002265922515270336,-0.0031922578787580928,-0.004246864017379679,-0.005295824935213857,-0.0060180523319410244,-0.006065092344219965,-0.005277243444476157,-0.0038168919501233656,-0.0021275177998710724,-0.0007291943358210442,4.100839625362522e-05,0.00019743200091836534,8.332783686800031e-05,0.00016675595767086675,0.0007725101199255117,0.0019064946594338668,0.003270826186669488,0.0044488459740577935,0.005135983437552506,0.005270965011162466,0.0049945318174300975,0.004481544557689881,0.0037787896465554267,0.0027754353700309244,0.0013361862870042286,-0.0004966074671137208,-0.002388516734070095,-0.0037955852466525393,-0.004222525175075719,-0.0035091650083033605,-0.00196497999640303,-0.00025723259043923893,0.000894728179359763,0.0010544105015481333,0.0002566683688734758,-0.0010392253459276899,-0.00219380717696728,-0.002693126375889336,-0.002359242690314596,-0.0013727089309041583,-0.00012575976292054794,0.0009838760858265027,0.0016958843517928465,0.0019132387661825753,0.0016495120743044956,0.0009782964371573204,3.0843061212104215e-05,-0.0009823744757686253,-0.0017871667252680125,-0.0021277553270316854,-0.0018769316988928321,-0.001097479477909169,-7.967155201936372e-06,0.0011222154101012628,0.0020739492775110006,0.002714693121349824,0.002970397479862762,0.0027874785236955916,0.0021409525153043042,0.0010946474072091388,-0.00013926893864223459,-0.0012118794714544026,-0.0017509359154070266,-0.0015366385574602907,-0.0006469264895747997,0.0005219066425041522,0.001397143557079625,0.0014834213530866606,0.000604799699600844,-0.0009966440535281512,-0.002765548105029461,-0.004088276743834942,-0.004562858255427576,-0.00414748042135353,-0.0031257121456887173,-0.0019264759786523093,-0.0009059900879381361,-0.00020569334472060738,0.0002530864825522963,0.0006577981048092438,0.001158593796521811,0.0017778661691483931,0.0024200114711834505,0.002958795993345794,0.003334142542450647,0.0035918793931490347,0.0038428781213721806,0.004171549610117313,0.0045543453900954165,0.004840362199907799,0.004806706503501812,0.004256906407472074,0.003108617108577117,0.0014287287667986046,-0.0005917952892720037,-0.0026998965203285574,-0.004646374762186557,-0.0062335574646075085,-0.007337824770038602,-0.00790947557540372,-0.007956114992573725,-0.007518185742563479,-0.006647400207947499,-0.00539825475546892,-0.003837010861867971,-0.0020618910443482973,-0.00021813784628087651,0.0015098090296497535,0.0029354078969328233,0.003923846742382909,0.004435913607609162,0.004537146923722659,0.004366523293566382,0.004082552554853704,0.0038153854837093154,0.0036436776891317583,0.0035938980924255983,0.0036459450704340035,0.0037331407999547225,0.0037408087863550475,0.0035192870928429437,0.0029228552639647878,0.0018684143121079702,0.00039027709260148515,-0.001337617588887111,-0.0030306187174348864,-0.00437180070805466,-0.0051154475817787775,-0.005174193320279861,-0.004648417802870878,-0.003779644403819673,-0.0028473181046448125,-0.0020585244211751876,-0.0014834313425685713,-0.0010631609248194433,-0.0006773671753489357,-0.00022907935644931698,0.0002996200917208449,0.0008456355141380859,0.001308286169847418,0.0016060610921952746,0.0017129874336574086,0.0016594620725122813,0.0015065378534907165,0.0013155421582331885,0.0011297442110318882,0.0009694621053580681,0.0008317131829929913,0.0006889283603113527,0.0004923783646423223,0.00019029695803406425,-0.0002394072700356622,-0.0007584834258792153,-0.0012630673320196118,-0.0016153765033161847,-0.0017007904485935664,-0.0014809930986087944,-0.0010141470548518865,-0.0004309130300336095,0.00012099093463727173,0.0005348575542990768,0.0007769480736766286,0.0008796148084860155,0.0009055225680356872,0.0009082055601373818,0.0009121734774164893,0.0009184270424150859,0.0009221200182766129,0.0009231434583183479,0.000921449676773206,0.0009060674899341802,0.0008538538787795458,0.0007443731634998382,0.0005797758092251853,0.00038971946772168556,0.00021076780242246912,5.114698715735105e-05,-0.00013198453936329364,-0.0004188586758000398,-0.0008760680480482679,-0.0014954889304381782,-0.002164441253546186,-0.002695499811976636,-0.0029084040127919843,-0.002719291938939903,-0.0021823625281151065,-0.0014581012650598157,-0.0007311669299508053,-0.0001322849139977246,0.0002914548638282275,0.000553852516233925,0.0006874098862661704,0.000720989007260079,0.0006910967656426437,0.0006662827608052238,0.000749138778496379,0.0010371168494229563,0.0015592658946720537,0.002231933166604429,0.002869639300274255,0.003251640619242841,0.003208813255265079,0.002686884505730755,0.001762470544447032,0.0006161114084752665,-0.0005198377405998015,-0.0014230937479628074,-0.0019426672385725943,-0.002045455024998694,-0.001827693228429288,-0.0014768533627436782,-0.0011939940100389355,-0.001113010167735723,-0.0012569922639890686,-0.0015474487814941948,-0.0018505910183283158,-0.002031040347127034,-0.0019913017434734117,-0.0016907391254077512,-0.0011470348162515645,-0.0004246630387833683,0.0003850104347692385,0.001184651825517948,0.0018836250977490655,0.002398737166221146,0.0026519095983495965,0.002581297671384206,0.002173444685839992,0.0015012137307314638,0.0007337368107554947,8.996405498567627e-05,-0.0002596371163829979,-0.00029624234522600745,-0.00019242691736027985,-0.00024284346367832552,-0.0007020026649781237,-0.0016112290492828025,-0.002720878484865641,-0.0035718665023955634,-0.0037104625903842323,-0.0029246760288812925,-0.0013659822521879259,0.000518948998591267,0.002206425362871405,0.00332991399082628,0.0037942716082205643,0.0037270778033249427,0.00333804286447726,0.002801857466201065,0.002228154244434258,0.0016917264420849114,0.0012505320547452608,0.0009129228571993765,0.0005889538154067976,9.91752884366558e-05,-0.0007235086481771694,-0.0018887179775629178,-0.0031677703304317894,-0.004158760137727335,-0.004482607792387763,-0.0040000727554847185,-0.0029165890138756843,-0.0017048412267338957,-0.000879459343042717,-0.0007403599007531779,-0.001218788673801104,-0.0019074241907281238,-0.002260679496497979,-0.0018625361545582483,-0.0006252749178671854,0.0011769885200916398,0.0030453919585209984,0.004482435361827222,0.005189658416253877,0.005148419547069384,0.004566075373751371,0.0037395200512652825,0.0029185032684698937,0.00223091204267425,0.0016823292724924088,0.001199720093344496,0.0006796766346798331,2.259484404565403e-05,-0.0008397930496806118,-0.0019102373436851775,-0.003090380788917434,-0.004172129775125866,-0.004885514475868105,-0.005002074806506013,-0.004448975503728686,-0.0033665707441964798,-0.0020647305798250997,-0.0008915796876659814,-8.35158297993726e-05,0.0003217304303231457,0.00046573623843315475,0.0005637146900460907,0.0007793311578531385,0.0011498648480032195,0.0015932947605336455,0.001977336855387594,0.0021993639304024345,0.002232002723076001,0.0021212440311805143,0.0019545002670369777,0.0018236730800048303,0.0017943288957914432,0.001877224578443343,0.00200153829414953,0.00200749317426887,0.001686169298294532,0.0008747441610874836,-0.0004287822655043717,-0.0020023258408010005,-0.0034478705100711698,-0.004348663255299958,-0.004458138882302659,-0.0038126161600107616,-0.002701542563206715,-0.0015158822115125968,-0.0005656552991658832,3.394928079813878e-05,0.00035968891436018895,0.0005831286680358459,0.0008481245493243065,0.001192675191755337,0.0015479094548698806,0.001798851525342691,0.0018607160787122165,0.0017246479278007125,0.0014519496958030332,0.0011279216107288386,0.0008080093346846022,0.0004906253440916054,0.0001332185166075515,-0.00029938630384430715,-0.0007870263430615378,-0.0012412739098288297,-0.0015415318833473558,-0.0016018609819991544,-0.001426565099727559,-0.0011153640148830832,-0.0008102640712316629,-0.0006159825169711627,-0.0005441572856351937,-0.0005141689628789292,-0.00040496181376285833,-0.00012282068460014528,0.00035188039682824333,0.0009559451453697875,0.001566965737466245,0.0020429694797942,0.0022640958333225098,0.0021685350747036774,0.0017763484150853466,0.0011911764007818586,0.0005702787603279096,6.62822885994258e-05,-0.00023531545317122498,-0.00034820126757419004,-0.0003654560840453309,-0.0003979467717871169,-0.00050847390462921,-0.0006826970754781215,-0.000853855971289416,-0.0009622529715424194,-0.0010064692973722666,-0.0010484542637211238,-0.0011667337193143061,-0.0013894873927303639,-0.0016554576887172826,-0.0018331155468979021,-0.0017890415545960942,-0.001463069433102036,-0.0009036220467670167,-0.00024323917244731003,0.0003684439035242857,0.0008339567802917706,0.0011422495552599167,0.0013535291402223865,0.0015470937715693568,0.0017622650751335533,0.00196514610474873,0.0020612684050363176,0.001950747666665977,0.0015981397437177095,0.0010765761569662639,0.000554554488815064,0.00022324533808260895,0.0001981531586030791,0.0004492436086668813,0.0008021507032902814,0.0010137118012092249,0.00088238728921736,0.00033631900535730365,-0.0005411765586771801,-0.001552022064130162,-0.0024618145800425996,-0.00307836280514363,-0.0033019040377492547,-0.003136401388141656,-0.0026674130191947955,-0.0020217871941190157,-0.0013270470741281245,-0.000684083914101504,-0.00015717766343212585,0.0002247762616512562,0.0004654693669994301,0.0006002013880899631,0.0006901821327932505,0.0008031098543457388,0.0009812825114345722,0.0012142296241315245,0.0014391078795486668,0.001578975727898374,0.0016017620150568393,0.0015601571989496607,0.001574535772228595,0.0017529648147947493,0.002088897316881969,0.0024077284872431742,0.002420014755106573,0.0018781581566119125,0.0007565465140843493,-0.0006636763459539933,-0.0018854929634331947,-0.0024381094700833697,-0.0021401747666826123,-0.0012246396687301242,-0.00024108400143575985,0.00021627940960242424,-0.0001938855066866,-0.0013929394329352412,-0.0029215863822244495,-0.00415222667075828,-0.0045628524198672565,-0.003945188044510583,-0.0024636045091725473,-0.0005576184528942567,0.001249696247686544,0.0025449072223546936,0.0031433964912444346,0.003104020165744635,0.002654694025655431,0.002072787132167812,0.0015710085564695773,0.0012293128581571731,0.0009930520114425838,0.0007325481783434667,0.0003345643488580596,-0.00021966682146998425,-0.0008312214799897032,-0.0013286654456172882,-0.0015558357703613485,-0.0014503432788956936,-0.0010680978066286053,-0.0005460814326870326,-3.4564182878967994e-05,0.0003586344927862438,0.0005901047000011095,0.0006766464604803347,0.000682779773435278,0.0007046605185170121,0.0008393291769991633,0.001132627318064018,0.0015243974903807588,0.0018321478214275203,0.0018073819686818338,0.0012574723910825096,0.00017535652088146258,-0.0012023068641685035,-0.0024585509060581524,-0.003164282301497303,-0.0030713673598862516,-0.002231300253088848,-0.000976363804133528,0.0002284385142730145,0.0009871963333160504,0.001127352767958241,0.0007356272394724857,7.313322100176048e-05,-0.0005692072796631872,-0.0009928477515606232,-0.001137850848503875,-0.0010522722216809964,-0.0008245517922339911,-0.0005265827877709371,-0.00019396320035705355,0.00015998652710862946,0.00051883768469373,0.0008490630998000463,0.0011069463158495793,0.001259886756867556,0.0013061737793356213,0.001278489347372631,0.0012267480741394953,0.0011895698925356137,0.0011722774184110701,0.0011460446455198526,0.0010685374909724598,0.000911049356633523,0.0006727469109564728,0.0003729867218895349,2.980805082717085e-05,-0.0003564828962218719,-0.0007991795259436644,-0.0013001276703484641,-0.0018199164551911955,-0.0022666570327827327,-0.002518958736062174,-0.0024785173143488234,-0.0021260063456607784,-0.0015455114571501286,-0.0008963868915632838,-0.00034155391074258364,3.0398693067062348e-05,0.0002444844828497695,0.0004153101596070147,0.0006721692109362292,0.0010768280092202142,0.0015824262298303427,0.002056317317170791,0.0023502983793282674,0.0023747934217457347,0.002135794890944683,0.0017200174702123178,0.0012444951515585972,0.0008026840054305444,0.000434255527133837,0.00012745887195920937,-0.00015617987075755904,-0.0004544887357663496,-0.0007902161575612861,-0.0011718188255254315,-0.0015990993978949343,-0.002060785422072395,-0.002520877747059195,-0.0029049795969199807,-0.003104529878953566,-0.003008628400528757,-0.00255411943806122,-0.001767821448615015,-0.0007728742910758788,0.00025222312776924,0.0011460712352258458,0.0018304199021962468,0.002330546570302725,0.0027349633536542335,0.0031168206305286807,0.00346548150392661,0.003672728264410038,0.003585452500642067,0.0030961786315398805,0.0022191809573711236,0.001106842553830245,-5.76650495001641e-06,-0.0008994097918272716,-0.0014598030553005083,-0.0017123459135201693,-0.0017901883022985788,-0.001859061245362681,-0.0020398906022710862,-0.002363512418959628,-0.0027697554041350957,-0.0031404720592618047,-0.003344281697058668,-0.003273535071539063,-0.0028664526672293844,-0.0021191688229226764,-0.001094383842302298,7.555109086547886e-05,0.0012039399785504913,0.0020955630747836822,0.0026174712283813435,0.0027641956953966245,0.0026745994221578453,0.00257360544924054,0.002653172681268097,0.0029504866202601093,0.0032979555103160975,0.00339134502254735,0.002956796236120408,0.0019294345912008017,0.00053228873746638,-0.0008084725052171909,-0.001676908028377627,-0.0018867248950822277,-0.0015734078850034414,-0.0011049811655322898,-0.0008719837194915865,-0.0010863695479334057,-0.0016999444086940776,-0.002469357235379276,-0.003108669045410653,-0.003432747112582406,-0.0034164964061081885,-0.003153276917266969,-0.0027544833620480485,-0.0022609052462469995,-0.0016225132876765583,-0.0007563794429800107,0.0003590574717195595,0.0016188152870234168,0.002801506796155718,0.003653117497329877,0.0039988662313820075,0.0038239790509789467,0.0032837699657825596,0.0026395740779226904,0.002149598852185232,0.001960577780908781,0.0020447127042237906,0.002209469339997602,0.0021800341021168553,0.0017231585857153014,0.0007589626942523251,-0.0005920872607358805,-0.002050909584167971,-0.003289247163180179,-0.004051603538653261,-0.004233383456096318,-0.003889905845759418,-0.003189345893515022,-0.002342327842724308,-0.001536291762402224,-0.000888797726523755,-0.00042617223673334994,-9.274499207755598e-05,0.00020905370627974905,0.000561153883165756,0.000981844755240335,0.0014136962295161284,0.0017548782001486848,0.0019155740175210614,0.0018665203424749258,0.001652751179852264,0.0013668323094888123,0.0010979921871590152,0.0008849632982402184,0.0006974794127575191,0.00045687517703916526,8.617119597970416e-05,-0.0004365785149610447,-0.0010511778777790486,-0.0016299815613521793,-0.002026563527269969,-0.002132911210342626,-0.0019183264629581808,-0.0014360431303055495,-0.0007999062318116269,-0.00014392045046379562,0.0004200953708418289,0.0008336864086040728,0.0011020061172966437,0.0012781209924312789,0.0014253048550501427,0.0015736285589866884,0.001695306194882899,0.0017174607464630963,0.0015696594038927094,0.0012385183691084323,0.0007914542909189402,0.00034748041517499876,7.879536059037868e-06,-0.00020958053591853758,-0.00038637720140030575,-0.0006529008426584123,-0.0011001336343742555,-0.001708017143693841,-0.0023357737789816303,-0.0027813813168147765,-0.002876633122547433,-0.002565707966387467,-0.0019273595773652448,-0.0011334035370300208,-0.000369196867951801,0.0002418041343813513,0.0006736077990402681,0.0009807884444982887,0.0012439668283124928,0.001510820309855103,0.001766133992831498,0.0019461290146772971,0.0019849126490242516,0.0018611629796136287,0.0016145814822068074,0.0013230769984500985,0.0010573122424175306,0.0008416852908496249,0.0006440388181641473,0.00039777359204191796,4.235403684552856e-05,-0.00043947398255689046,-0.0010054246879201748,-0.0015644675232763098,-0.002007949764601386,-0.0022460715815716043,-0.0022343672215108966,-0.0019816107810790157,-0.0015400170987634216,-0.0009855124544596913,-0.0003974145773217103,0.00015633260764626427,0.0006272936051492321,0.0009903203890890703,0.0012446111110931994,0.0014102292660410874,0.0015165150402050723,0.0015826724458748581,0.0015986769564769233,0.001519620800403916,0.0012827535982291598,0.0008444003261809398,0.00022014905503458886,-0.000495724881658335,-0.0011503751918496658,-0.001591475210586109,-0.001738976990703786,-0.0016277672911879848,-0.0013897819355618221,-0.0011796342062035483,-0.0010864190560880473,-0.0010867179435837826,-0.0010679873838289379,-0.0009052448405823148,-0.0005409010811272234,-1.96572969857008e-05,0.000537612633781733,0.0009995345162072484,0.0012884171737264135,0.0014083660606394465,0.00142702355297327,0.001426771884822388,0.0014554171147627662,0.0015030036636907783,0.0015144449063573626,0.0014274376518679615,0.0012123184098237877,0.0008908176265159864,0.0005231918606959291,0.00017169653094696808,-0.00013681019747349436,-0.00042452869731276875,-0.0007422550336010023,-0.0011268336602443195,-0.0015640409012947297,-0.0019814509620032614,-0.002276282274327478,-0.0023613372865104723,-0.0022030042368274523,-0.0018329013480351646,-0.0013310354292398474,-0.0007922015354318047,-0.0002927681528669313,0.0001281861239338897,0.00046826769494003506,0.0007464940731167651,0.000984068603106866,0.0011911159530816418,0.00136339192797785,0.0014866679526278621,0.0015439640795752807,0.0015227086410343881,0.001421657423297861,0.0012564710334387788,0.0010585685081271003,0.0008611335762318416,0.0006748861498249681,0.0004697655931359449,0.00018297267761766402,-0.00024063056446099003,-0.000795662621748352,-0.0013875565804935667,-0.0018558214836042676,-0.002045024993544923,-0.0018854197983176769,-0.0014337802918486314,-0.0008464746812835681,-0.00029893508923833304,9.94850672441437e-05,0.00034372332844122115,0.000505306060009907,0.0006642853047628581,0.0008505376884731261,0.0010315220001981939,0.0011462355048429344,0.0011528716868395613,0.0010537136390615218,0.0008841233916254868,0.0006813077199013565,0.0004599186503111692,0.0002099840448796294,-8.786627493007608e-05,-0.00044572991885861323,-0.0008607412843967334,-0.0013142635068982258,-0.0017699953363742,-0.0021688620849186616,-0.002428919311635174,-0.0024615026233628665,-0.0022051529871451063,-0.0016629667979611907,-0.0009200740666440649,-0.00012436622185245708,0.0005675914376014958,0.001057498294448745,0.0013528325373296185,0.0015671671880422974,0.001864018829816554,0.002362121204994708,0.0030453716465373634,0.0037295410761812075,0.004118544936531028,0.003938080765450824,0.0030850323287801257,0.0017087711396987584,0.00016726390118638662,-0.0011307631237269938,-0.0019160692829585284,-0.002175720392605452,-0.0021319331639253094,-0.002099147256353542,-0.002303381010153421,-0.0027628265442899806,-0.003287700889145032,-0.0035904448165959705,-0.0034430716316137438,-0.002801006250467304,-0.0018338207630111641,-0.0008487747746347292,-0.00014328716380661855,0.0001424605915907915,9.797160056607796e-05,-1.4876728503251469e-06,0.00016148958372939914,0.0007743065753930496,0.0017850110852339835,0.0029171582138576057,0.0038025467771774964,0.004158260473239511,0.003910841160132855,0.0032064367079696534,0.002315597586692511,0.0014971350503244385,0.0008946127812586447,0.0005058589980525743,0.00022075861405193207,-0.00010561504731474981,-0.0005804512754958042,-0.0012252536433105061,-0.0019634813297686473,-0.0026455528189604275,-0.003103973662373365,-0.003219835727277953,-0.0029730094748303855,-0.002451235604836238,-0.0018112310107782851,-0.0012096069961168956,-0.0007381164737272142,-0.0003958435389053383,-0.00011097067816533232,0.00020220110913264384,0.0005841582460876142,0.0010022789578215132,0.0013686755341386033,0.0015916279926252172,0.001629531963387489,0.0015161301443890362,0.0013435639007795322,0.001213706431026682,0.0011845232086330937,0.0012395853394551826,0.001296360003741508,0.0012491665221441104,0.0010251423882513399,0.0006248118656621229,0.0001262373088447362,-0.00035036058001334234,-0.0007006163124979606,-0.000887322953783945,-0.0009577683143488407,-0.0010164380831553166,-0.0011653424514986622,-0.001441892832241571,-0.0017879261195068272,-0.002069828745721414,-0.002142486924538092,-0.0019225971608233749,-0.001428938928219038,-0.0007675744875177177,-7.539101723678932e-05,0.000540439363251333,0.0010331245283807442,0.001407972565925835,0.0016911617222748305,0.0019001476966703842,0.0020315827535257857,0.0020676667302505568,0.0019916630519428748,0.001801339468177031,0.0015129521650321044,0.0011547482337645448,0.0007548532016422485,0.00033079747976389617,-0.00011426421932594821,-0.0005875664109770993,-0.0010960285262816831,-0.0016306505105697904,-0.002150863408184673,-0.002578967050240198,-0.0028157867583825462,-0.0027790058702705065,-0.002448236532653585,-0.0018889621720947455,-0.0012340440721178925,-0.0006263297332059995,-0.00015277147568638585,0.000190982641744881,0.0004840041020084221,0.0008221419872286343,0.0012547899680936134,0.0017546227973170303,0.002236401894827541,0.0026091613691762382,0.0028256642842746974,0.002897017379752034,0.002865153465986404,0.002754610641632511,0.0025390929086299627,0.0021486763110866434,0.0015157781183180116,0.0006297404672359149,-0.00043876263395434495,-0.0015622350883319732,-0.0026117041793979677,-0.00349980305048261,-0.00417883019057667,-0.004601544015817672,-0.004688866278114042,-0.004346801577845866,-0.003533017516479132,-0.0023258917084262544,-0.0009368046717964897,0.0003568655887418575,0.0013229335168215735,0.001862431648049224,0.00202555715326268,0.0019581990370592817,0.0018235295403878104,0.0017454722102288375,0.0017899243739102032,0.0019671460758407346,0.002232074116880082,0.002479548878089091,0.0025555074424539045,0.002306806180554934,0.0016642444028607374,0.0007153250700871284,-0.0002911823704938687,-0.001037272508001266,-0.001291477165340965,-0.001042959847482572,-0.0005261013767131785,-0.00010700277966315687,-9.136486823911041e-05,-0.000568851455715061,-0.0013866088616232167,-0.0022557044059889463,-0.002906040685454143,-0.003186263448797186,-0.0030648710160099757,-0.002570898549989081,-0.001748016577219871,-0.0006626635240359671,0.0005569119424557704,0.0017089097141323555,0.0025694487073529794,0.0029859561405151877,0.0029497758691268347,0.0025943853739869905,0.002116698356796976,0.0016711816541779582,0.001301863882306255,0.0009481327324122466,0.0005106387840229406,-7.10985467207698e-05,-0.0007766211041661957,-0.0015143741571684408,-0.002165196116706171,-0.0026268390570467837,-0.0028373318000775947,-0.0027757292162471636,-0.002452279912713917,-0.0019000597628727992,-0.001172373366102402,-0.0003429131932625848,0.0004977856574245609,0.0012558020466992479,0.0018587957322644378,0.002284388172102698,0.002573536609524511,0.0028098422822510315,0.003062211000881895,0.0033160397036763435,0.00343802009304146,0.003212380187924864,0.0024487025647632176,0.001112672522311597,-0.000596727710660809,-0.0022832054134259367,-0.0035035461485798856,-0.003965349548050412,-0.003668597069453839,-0.0029085620060709484,-0.002129202327936721,-0.0017003572141317885,-0.001738704623808771,-0.0020697425599149892,-0.002346776666110051,-0.0022529928018309086,-0.0016699486108232172,-0.0007236898526103486,0.00030382971451846044,0.0011343752686242747,0.0016285306055199972,0.0018261818363752708,0.0018843243942204338,0.001963155109267945,0.0021334631372474334,0.0023543610163481565,0.0025203364075756665,0.002535277707124577,0.002363982239225968,0.002037531286991485,0.0016235696198644246,0.0011897971154607027,0.0007812631495834426,0.0004131729744501381,7.056247044573123e-05,-0.00028874276566756617,-0.0007214349498351121,-0.0012698824168914237,-0.0019242570375028612,-0.002597961824585236,-0.0031397887912798543,-0.0033879834809898953,-0.0032441445022577033,-0.0027273024500905608,-0.0019743908320919313,-0.001181561380014142,-0.0005151463863602892,-4.0168641814612726e-05,0.00029442811844377433,0.0006068006970061893,0.000999164046293191,0.0014895834766279253,0.0019973203126562758,0.0023870705567532405,0.0025421626499489572,0.0024223094771447977,0.002075771333940301,0.0016063711936342541,0.001120745463809984,0.0006862880399875519,0.00031710304544846314,-1.3780347902231892e-05,-0.0003499791121739541,-0.0007291198661997528,-0.0011674982364501998,-0.0016501439604514321,-0.0021249279582593776,-0.0025055899776996087,-0.0026914217189460948,-0.002603722031638293,-0.002224052456841774,-0.0016096476594076202,-0.0008696192272289375,-0.00011106903249911515,0.0006105486979837093,0.001299549479573762,0.0019762945731200882,0.0026117508146498323,0.0030938669945701274,0.0032635486424406625,0.003008732454224821,0.002356074234160407,0.0014907891223102843,0.0006794767550350697,0.00013891733592287536,-6.646678307080899e-05,-3.613889763414129e-05,4.443624631871707e-05,1.1445606109159942e-05,-0.00021031201807698353,-0.0006121313209261088,-0.0011524783444782985,-0.0017989762889261624,-0.002522279166842027,-0.003250373568741072,-0.0038321926381515775,-0.004060091475052771,-0.00375861220955407,-0.0028916504797601135,-0.00161429744450201,-0.0002235074076718866,0.0009721885420619367,0.0017867986690658956,0.0022139133361797968,0.0023794907080935987,0.002433840496308576,0.0024608176288533385,0.002458047051149162,0.0023829579184885853,0.0022137421603480325,0.001974587613180917,0.0017133325410094596,0.0014603748368895806,0.001207535306563662,0.00092174796405426,0.0005761588301699705,0.00016923434314559407,-0.00028167435365927687,-0.0007598949782976826,-0.0012580778883626736,-0.0017638487599600846,-0.002234128528594946,-0.002584370165315524,-0.0027116543288426102,-0.002545803755327047,-0.002098409372410082,-0.0014747720900758119,-0.0008342583225912837,-0.0003178856776325829,1.5224207032731984e-05,0.00020536825415116283,0.00035543686734702427,0.0005643380084834986,0.0008705234122672429,0.0012353716848294632,0.001570239717846681,0.00178643544562072,0.001837331837409324,0.0017300641685896534,0.0015052564544150715,0.0012042464793487694,0.000849832356933344,0.000452865962788301,3.318521346883216e-05,-0.00037041821668690026,-0.0007167961516359211,-0.0009946938933227813,-0.0012396644317132898,-0.0015110606377647152,-0.001835458141250205,-0.0021544343865608647,-0.0023204230490769203,-0.002157201504379335,-0.0015590736558964606,-0.0005735227142852528,0.0005846963073076275,0.0016055077067422823,0.0022120112653157007,0.0022822018230628273,0.0018996116714521615,0.0013041044513188134,0.0007689047742240869,0.00047193054240536126,0.0004308134782710154,0.0005300466769613758,0.00061325820606324,0.0005797402935369248,0.000430427547268297,0.0002457303311077678,0.00011968000659602273,9.602030506815625e-05,0.00014263835953371102,0.0001719826761059858,8.821588603079685e-05,-0.00016770093307258394,-0.0005953061280927186,-0.0011383250375636756,-0.0017057593232335149,-0.00219712336000247,-0.0025222858649612285,-0.0026136704104272376,-0.0024341544753819495,-0.001984406377410549,-0.001309049118027816,-0.0004960551015148922,0.00033701117112636494,0.0010709083009300146,0.0016187909577790914,0.001951628372020126,0.0021012512477152586,0.0021376873145530903,0.0021316581375775074,0.002121504622662922,0.002100036799562712,0.002023874995788724,0.0018360673867107232,0.0014905001037243996,0.0009724853119507977,0.0003146605528251469,-0.00039566238098562377,-0.0010280362637526948,-0.001448124711186106,-0.0015778317762954715,-0.0014477740432696203,-0.0012042159043132872,-0.001050082846974795,-0.0011397793930948124,-0.00148494037574777,-0.0019326164393415881,-0.002238649039214774,-0.002199420247866309,-0.0017651923346690046,-0.001066750066182603,-0.00034003923495772227,0.00020359558087627063,0.0004826383375935166,0.0005671789184413388,0.0006141599188881606,0.0007654748731839255,0.0010732021329762492,0.0014884439074283689,0.0019046217497495138,0.002216100086783031,0.002355432105343904,0.0022983856645774387,0.002051576538428421,0.0016440393395398731,0.001130044198693808,0.0005912821436313891,0.00012094111959847783,-0.00021377664364054678,-0.00041229995115758583,-0.0005552876471489266,-0.0007741022833881994,-0.001181697725844497,-0.0017973085788030758,-0.002507835164574799,-0.003095574725703992,-0.003328518020828269,-0.0030720261265621113,-0.0023616806090197653,-0.001391981934381772,-0.0004207600956762247,0.0003598917435776314,0.0009109416902853373,0.0013376003211500035,0.001786833491063066,0.002313553290970716,0.002803415370875301,0.0030123092796941224,0.0027126869292378526,0.0018634110177446809,0.0006905329883713997,-0.00039037624668167325,-0.0009810771924696874,-0.0009160746698592329,-0.00035092990502327343,0.0003324120520048099,0.0007393139766876842,0.0006589505916902645,0.0001322418102660337,-0.0006245182922462786,-0.0013646299158775674,-0.0019235058062714323,-0.002244002977553289,-0.002331922060383396,-0.002201129107350322,-0.0018564125559442193,-0.0013175602873917401,-0.000650589553498306,3.149996743469154e-05,0.0006084779701679404,0.001008861360204496,0.0012426878312000469,0.0013858895519656678,0.0015241101798993241,0.0016924007240779488,0.0018515076964566914,0.0019181002577027153,0.0018300512666094403,0.0016020356972705299,0.0013289926561479545,0.0011265947689071173,0.001041006711142814,0.0009874430853136426,0.0007680419240898274,0.00017514375727246934,-0.0008698758757312334,-0.0022244572228446785,-0.003545067674374396,-0.004423402993691427,-0.004570674370894873,-0.003948993171484262,-0.0027788654925328714,-0.0014251214930395995,-0.00023065911151946643,0.0006128787942286118,0.0011010257345442126,0.0013600770860928812,0.0015456866348576963,0.001756459247724759,0.0020014512207790244,0.002223327481213043,0.0023489530942855147,0.0023320892627872853,0.002168306787929956,0.0018854524844666412,0.0015262299750340728,0.0011355063920398362,0.0007520018755246691,0.0003971221561995352,6.039376955052915e-05,-0.00030625009853731816,-0.0007700518649194354,-0.0013744951937859065,-0.0020942530144742013,-0.0028200213741385264,-0.003389809989008731,-0.0036529701635327413,-0.0035315701249580512,-0.0030464307294025615,-0.0022981796532463147,-0.0014193168597635359,-0.0005253563254435576,0.00031242582945307655,0.001065961131911936,0.001729890216646767,0.0022982390999232763,0.0027530335513783,0.0030702889991210815,0.0032373253528736887,0.003267914074894672,0.003202294917348142,0.0030872083526655336,0.0029429244362544895,0.0027344879724785433,0.0023673757700919777,0.0017192371497332906,0.0007006204937703575,-0.0006818653689439376,-0.002293142853382292,-0.0038884045984108693,-0.005178578123036778,-0.005916854397631871,-0.005973300599052284,-0.005370724645210579,-0.004269669649327975,-0.002909786784797373,-0.0015328551619047729,-0.00031945146104330423,0.0006391335045719137,0.001332994558524442,0.0018054087276759127,0.00212237192237592,0.0023493568881152874,0.002535782434346397,0.002705317338937449,0.002852732832375728,0.0029492849395958923,0.0029555539922915966,0.002836475974086174,0.00257282423097054,0.0021672263851926,0.0016464671588414784,0.0010607643041970006,0.00047601234021299823,-4.6271515420315184e-05,-0.0004786588756469602,-0.0008513108495103487,-0.0012474058571346493,-0.0017600185017885564,-0.002425504260128452,-0.003171267114054921,-0.0038167986922125214,-0.004139825972416872,-0.003978687853541827,-0.003315223338117108,-0.0022901873447352655,-0.0011422469992150423,-0.00010598048691569906,0.0006752244912697669,0.0011800235723446796,0.001478883510354918,0.0016712217648731965,0.001829403007243189,0.001975637191592888,0.002092818993310066,0.0021512461908418214,0.002130250735321907,0.002024871493820953,0.001841798017072925,0.0015948934339461832,0.0013053185053101368,0.0010011932686751393,0.0007080466335978469,0.0004297480999364792,0.00013374401738564792,-0.0002402913867191789,-0.0007422586900508769,-0.00136235276383684,-0.002005449993585908,-0.0025151634468910944,-0.0027421244465217426,-0.002618571280008998,-0.0021926847525390696,-0.0016000858670821268,-0.000991090470725371,-0.0004609578871311155,-2.507262864954436e-05,0.00035327250062357587,0.0007106200307939259,0.0010457594701449857,0.0013182159602598909,0.0014760165768426508,0.0014892582503417179,0.0013687068374714456,0.0011623873335384646,0.0009353448990560822,0.0007431483103644529,0.0006101761338090911,0.000521365809028769,0.0004304977089826636,0.0002802807309033536,2.4458591819732315e-05,-0.00035579481787334976,-0.0008421873138463341,-0.0013739623489923097,-0.0018491797995690326,-0.002141658168819896,-0.002139899007224215,-0.0017984954785844208,-0.0011749669216281795,-0.0004232953428992179,0.0002632294587872621,0.0007349902838277535,0.0009500136755594195,0.0009824846640138628,0.0009717840178456348,0.0010427939659033922,0.001242601467859336,0.0015250155266167487,0.0017838918421455225,0.0019100755468148835,0.0018398116696011343,0.001574338341907624,0.0011691509464359117,0.0007049969571462926,0.00025610092925774827,-0.00013341417224384613,-0.0004606945252326948,-0.0007624772673328163,-0.0011001364951007413,-0.0015313918568513462,-0.0020739068553469607,-0.00267509606234268,-0.0032074010472871806,-0.003500873260473716,-0.0034057621959700567,-0.002858444379894728,-0.001918255136034104,-0.0007555740488705518,0.00040448850287250833,0.0013572486756606766,0.0019800622035385526,0.002257861743377755,0.00226875537331854,0.0021416671717573417,0.0020044945719565836,0.001939855356244949,0.0019608460055395667,0.0020135693205991707,0.0020058219150113567,0.0018520434014980174,0.0015163419244871373,0.0010334512866131912,0.0004957168073651339,1.0589126350824636e-05,-0.00035099594325186897,-0.0005891265498619504,-0.0007737799157251756,-0.0010066513041855052,-0.0013630204165831622,-0.0018419978330793008,-0.0023515562589919254,-0.0027392308138397678,-0.0028567581515185902,-0.0026282183289934374,-0.002087048817662905,-0.001361833042118493,-0.0006176784547631436,1.5584179965822428e-05,0.0004899847071350874,0.0008375764878429111,0.0011259463495851773,0.0014016829081680948,0.0016572428082605919,0.0018390150998993239,0.0018870458298572781,0.0017779566391079016,0.0015430643063373834,0.0012518277788179108,0.0009741705885059858,0.0007480751891591984,0.0005719382946165704,0.00042027803920961386,0.0002642259793669727,7.922436665462905e-05,-0.000160954632756324,-0.0004888586444577207,-0.0009311995562434137,-0.0014795442691445627,-0.0020615611345969377,-0.0025374901119464585,-0.002736757103678883,-0.0025278820967907854,-0.0018920979158549562,-0.0009599932172673939,1.9424090711265413e-05,0.0007759469401125799,0.001140126268598325,0.0011245885080248062,0.0009132032215465762,0.0007571271249195593,0.0008347248113017075,0.001157751291545896,0.0015785418151218716,0.0018891616297884014,0.001946432012385838,0.0017444773742472108,0.0013956280926784223,0.0010426451640658636,0.000767020719547678,0.0005525366876026818,0.000318583220676164,-1.0767828470071585e-05,-0.0004541171591443976,-0.0009679802512219277,-0.0014818486577218553,-0.0019379512617534375,-0.0023046285262228053,-0.00256015888609829,-0.0026703215548854364,-0.0025864385853924038,-0.0022706234229041885,-0.0017299803174371776,-0.0010321309282782564,-0.0002872986140749431,0.0003936904772753505,0.0009395531371847203,0.0013337023582303974,0.0015997933312016956,0.0017724763614450434,0.0018747534264253957,0.0019141271362682702,0.001893447972838315,0.001821943657652888,0.001714448364053802,0.0015787935127972866,0.0014026703930436466,0.0011537260276464861,0.0007983212952573314,0.00033000843709803763,-0.00021199129681564349,-0.0007513548971607514,-0.0012094674957106302,-0.0015442723603589737,-0.0017642688812039683,-0.001905631836563217,-0.001989710298143926,-0.0019958448012938356,-0.001873973381933405,-0.001589490213656895,-0.0011649642761198265,-0.0006830722484398867,-0.00024374839952527572,9.590303248024087e-05,0.0003554307377343941,0.0006122963492819846,0.0009410752906556479,0.0013509119537746586,0.0017635217048641164,0.0020475748809686343,0.002089169967002055,0.0018561538906721874,0.001419020148175476,0.0009177650312545682,0.000494575091056967,0.00022866834895718418,0.00010497099677540497,2.8552578800216354e-05,-0.00012565722256782208,-0.0004525921919133265,-0.0009720596679897962,-0.001614656533508542,-0.0022401059327787102,-0.002679656718977486,-0.0027904038771363196,-0.0025071365938844443,-0.0018738655957846978,-0.0010374396315143398,-0.00019705231061986552,0.0004746177910762196,0.0009026502933669543,0.0011349136173066116,0.0013037236061603555,0.0015421507633355575,0.0019002616130278703,0.002307834181810013,0.0026041188328544693,0.002618480769165342,0.002260018726684747,0.001571931402100592,0.0007251442419624354,-4.6368716740669345e-05,-0.0005416022348519138,-0.000679745250531845,-0.0005399673236971608,-0.0003317170162205642,-0.0003023874862049902,-0.0006208614760877635,-0.0012929350591413678,-0.0021529413406774453,-0.0029367430605415196,-0.003397029429494847,-0.003400745027428212,-0.0029632813348680325,-0.002213416990422538,-0.0013205996862521404,-0.00042915507449547833,0.00037199412446409317,0.0010445811948890417,0.001581134898019517,0.001988761689570423,0.0022813488699942983,0.002474286403563386,0.0025768642623796856,0.002585427834242013,0.0024848044699864007,0.0022613506076718942,0.0019217463564510965,0.0015050398398915395,0.0010768521947411224,0.0007040434950234852,0.00042045841651857383,0.00020232248519160695,-3.014945346895741e-05,-0.00038043533485207504,-0.0009241417860454762,-0.0016609301533387854,-0.0024935151635625177,-0.0032472008596596737,-0.0037262711544265694,-0.003786264649805528,-0.003391602295666861,-0.002631874600262475,-0.0016874301715230954,-0.0007587542851529255,7.524954921267458e-06,0.0005612628365460092,0.0009423090641532213,0.00123386332672083,0.0015051342187121374,0.0017747987946581732,0.0020104050776832303,0.0021563917744920626,0.0021697324851054837,0.0020436760242095544,0.0018113336662875165,0.0015318406100912857,0.0012667407579753855,0.001054708537871671,0.0008929819812677998,0.0007344566249876166,0.000506292756951417,0.0001463974606305897,-0.0003577927587368282,-0.0009493677818666953,-0.001515133639027433,-0.0019293934657788054,-0.0021083119810350807,-0.002046901262301723,-0.0018176932591825621,-0.0015301531303850723,-0.0012728450793217578,-0.0010719954961821443,-0.0008907018940903699,-0.0006666583562597609,-0.0003609305383102299,1.4854978090671732e-05,0.0004071048497414553,0.0007528201226392013,0.0010112612269516617,0.0011764183479892063,0.0012682438434186087,0.0013129736973399057,0.0013256719217763918,0.0013036351225221275,0.0012320532853181642,0.0010969544208896404,0.0008971792642758648,0.000647853567279678,0.0003724133612071128,8.732754468987984e-05,-0.00021019913450104447,-0.0005408945386951196,-0.0009254370399846605,-0.0013583463598499906,-0.00178950225098699,-0.0021265920294139267,-0.0022615291618692025,-0.0021122159722032053,-0.0016631792459186917,-0.000986658399953861,-0.00023049473676594115,0.00042899645328584946,0.0008546791122169297,0.0010087427288113353,0.0009753080951663632,0.000928907269324489,0.0010563722194429255,0.0014632325952425142,0.0021071827378420505,0.0027939727204626063,0.0032460726989024472,0.003220273293731043,0.0026219619855233664,0.0015577794280214907,0.00029403945844862613,-0.0008624667137419001,-0.0016992948313442771,-0.0021764559911416244,-0.0024097372958237708,-0.0025773929817923054,-0.002808827463461145,-0.003115264900035992,-0.0033904201878672833,-0.0034691170803161464,-0.003207372551241613,-0.002546589645426159,-0.0015397905511589085,-0.000336566549618467,0.0008631209962000851,0.0018694675364029345,0.002558061856982215,0.0029003271782108543,0.002956338149671281,0.002832862704495843,0.0026278155964535657,0.0023905760809023054,0.002118063280350532,0.0017841358211706758,0.0013793496250901587,0.0009328511093720462,0.000501386513476967,0.0001332236605701832,-0.0001675900082341588,-0.00045016072087139124,-0.0007888889337962564,-0.0012326260256014729,-0.0017606738827452987,-0.0022734785865840793,-0.0026269290670830857,-0.002694480869295607,-0.0024252950157488073,-0.0018685194031274838,-0.0011525249293055815,-0.0004319970807372806,0.0001691338844655334,0.0005926815593262247,0.0008480310668250903,0.0009876463320001563,0.0010737804085709803,0.0011532488262192189,0.00124762439679295,0.0013550830591598857,0.0014552869376360461,0.0015129865699103615,0.0014840453315376147,0.001330025036435068,0.0010402908113310554,0.0006495259296410263,0.00023423641189943814,-0.00011918675737660346,-0.00036322473367902497,-0.0005262206153039697,-0.0007082177884977551,-0.0010272475100809304,-0.0015403896463707842,-0.0021863707803456197,-0.002789902163182395,-0.0031329608185357975,-0.0030567556624497023,-0.002538128783587371,-0.0016987815905416966,-0.0007446486981198509,0.00012888179308520945,0.0008145307890738726,0.0013159961419015218,0.0017116366781200433,0.0020863309437007356,0.002472005308958137,0.0028269520240355906,0.0030595676086731987,0.003079117895519335,0.002845692782614448,0.002395463975353717,0.0018306986847060561,0.0012796907561755293,0.0008440595461075458,0.000556249300145946,0.00036677907092769104,0.0001686752799020248,-0.0001510013448143199,-0.0006571675083665938,-0.0013370215624484033,-0.0021082351167460204,-0.0028577056522868854,-0.0034877432924200324,-0.003944763861192911,-0.004217531554242642,-0.004310359092809647,-0.0042116607385474835,-0.003881581800478945,-0.003270807913713208,-0.0023612023108666677,-0.0012009799536760461,9.308290496375625e-05,0.0013730423442993647,0.002514894406822338,0.0034551765846814035,0.004185269357093197,0.004710604051466238,0.005008554899139206,0.0050211824908612205,0.004694999666888228,0.0040448727126839975,0.0031951199032714665,0.002354973235225738,0.0017213969133543843,0.001353931846021274,0.001101080492192676,0.0006447444051589234,-0.00033461584255328465,-0.0019488630444006636,-0.0039685116912634225,-0.0058574402036051165,-0.006982968957341497,-0.006907829476482868,-0.005612663463076098,-0.0035227427017593587,-0.001316021390591358,0.00038630842774768073,0.0012794993165789748,0.0014528559237857487,0.001263950167230802,0.001102012635442575,0.001181579226052261,0.001470556910181727,0.0017679414417828294,0.0018630790450714881,0.001674764850222589,0.001294145507470577,0.0009177152695192768,0.0007186833512334546,0.0007355422651127482,0.000843373998527696,0.0008251869825570465,0.0005028123819304604,-0.00014876325695364206,-0.0009714233490587866,-0.0016968839638321145,-0.002080414306862108,-0.002018581596630962,-0.0015868778144605745,-0.0009831681923480936,-0.00041753655582902694,-1.454622173778725e-05,0.00022245023683773466,0.0003783107415096234,0.0005569471891835988,0.0008206123839451704,0.0011656869627620936,0.0015351005970104595,0.0018486750406968037,0.002032018739740074,0.0020360322486493083,0.0018491153169703746,0.001504275331897795,0.001076430901010507,0.0006613706382110132,0.0003344464385824312,0.0001024307441525687,-0.0001237048449740947,-0.0005061413556376192,-0.0011986012277889176,-0.002234274549552562,-0.00344729948024487,-0.004494504554102692,-0.004995206662471594,-0.004725932693729215,-0.0037514192691111697,-0.0023969725369940814,-0.0010678251770416417,-2.9117408283252204e-05,0.0007091861722590821,0.0013325294418971598,0.002041174000023291,0.0028823286354941846,0.003707587586080344,0.004270706364538375,0.004384869324170113,0.004030746897382942,0.0033538946230093954,0.0025675391688168604,0.0018307925618835535,0.0011762293666993484,0.0005223873569562873,-0.0002453632177552944,-0.0011779221444192531,-0.002204822401416314,-0.0031447235210431013,-0.0037755939512547207,-0.003928252322504488,-0.0035593457169277587,-0.0027719966421887185,-0.0017766512582666242,-0.0008106114473879693,-5.176081186094927e-05,0.00043685379487071717,0.0007096067515906813,0.0008898370121730693,0.0010951132280588574,0.0013733855667742117,0.0016819589882647598,0.0019183936435889799,0.001983015846384499,0.0018348152128180692,0.0015086010756117315,0.0010872658812262135,0.0006506377154386795,0.0002339873080558229,-0.00017989007401865854,-0.000632535376658302,-0.0011438581623866523,-0.00167641615235457,-0.002132717125763879,-0.002390265493050897,-0.0023572390955002662,-0.0020186588427528115,-0.0014476253589329742,-0.000776235553040267,-0.00014279006925949935,0.00035804874309572636,0.0007011027660908751,0.0009256109722271676,0.0011052834990208913,0.0013069110522913945,0.0015540647115999764,0.001812184228950964,0.0020046582360290703,0.0020539182755193314,0.0019237096671112855,0.001633524028032522,0.0012333766738283876,0.0007577144749870008,0.00019712178633009817,-0.0004834053675704964,-0.0012864022304542415,-0.0021261079630278635,-0.0028235584067905165,-0.003170919401858953,-0.003035005377543945,-0.002437666505704862,-0.0015592921240068524,-0.000657648058339972,5.266111967060666e-05,0.0004907198115270879,0.0007210956818039422,0.0008878799768735949,0.0011163396370911197,0.0014396123024065324,0.0017855960360018746,0.002022215976525407,0.002030903127872257,0.0017698198113583283,0.0012978646350683173,0.0007498007462354885,0.0002744027627574455,-3.565165341473404e-05,-0.00018814558183348202,-0.00028610174809951027,-0.00047216598943433587,-0.0008480226894299894,-0.001409924898653188,-0.002035640878566678,-0.0025317098366763784,-0.002717508167854454,-0.0025035165812237045,-0.001925936765093784,-0.0011243189135435087,-0.0002783531276519005,0.0004617620396415535,0.0010186259586096402,0.0013902610487504326,0.001620602199809531,0.001760702290443564,0.0018426910689526418,0.001875323892750459,0.0018542450737362543,0.0017730228932376921,0.0016269346319406637,0.0014131661473327476,0.0011354085946684179,0.0008124434668062405,0.00047900011039117086,0.00016831925294684066,-0.000117306027236738,-0.00042401977199693587,-0.0008285331916826578,-0.001384703952430016,-0.002064040940897783,-0.0027322742861128776,-0.0031877599997239678,-0.003250485489238758,-0.0028559049412004277,-0.0020988199049805107,-0.0011973686464677546,-0.0003928716140757615,0.0001601800045884325,0.0004535377435138121,0.0006043173360879479,0.0007716833207608213,0.001062676972792959,0.001479118892977669,0.0019280574249969191,0.002280407672702237,0.0024392735023379916,0.002381185019522799,0.0021541814194731266,0.0018416641693622328,0.0015169117154019954,0.0012135680110078276,0.0009237221290635985,0.0006164317424319048,0.0002587664070822047,-0.00017344152527045217,-0.0006926693865924797,-0.0012927508250047599,-0.0019333563796039234,-0.0025282357824317247,-0.002956814606441492,-0.0031052869412476628,-0.0029188759292684057,-0.0024332301049491247,-0.0017630530049838663,-0.001052812578408951,-0.0004176987909454422,9.295932471759509e-05,0.0004936265454678019,0.0008294635860323203,0.0011361625446089886,0.001416927070465772,0.0016468088755047761,0.0017962362472947998,0.0018544080843469356,0.0018358339745233204,0.0017671115338103646,0.0016657401592039681,0.0015276260726570933,0.0013320463458587996,0.0010591355462940902,0.0007059935002834913,0.0002892379690290323,-0.00016763699538207319,-0.0006515340847404341,-0.00116537860648136,-0.0017119734336257313,-0.0022625709688308005,-0.002733351461841546,-0.002995482151989007,-0.0029260861963483482,-0.0024775988425960287,-0.0017226216827761793,-0.0008383911201603205,-2.96440023705739e-05,0.000569678491977402,0.0009562382741984159,0.0012390587177539322,0.00155261602449765,0.0019559976884567687,0.0023830524359630674,0.0026757237406303167,0.0026788003683713263,0.0023352316283414038,0.0017228142645838071,0.0010133110814259257,0.0003849438397967832,-5.60494367538467e-05,-0.00030376927138123656,-0.0004280924855031747,-0.0005255277455221417,-0.0006782220181873846,-0.0009352689982183066,-0.0013086230830657197,-0.0017689959757314646,-0.002238574146502778,-0.002594400179987146,-0.0026998761210475083,-0.0024634817736836445,-0.00189578176657382,-0.0011238406708178805,-0.00034238716415760763,0.0002774025329171007,0.000668735282015142,0.0008900033837003158,0.0010731809021275922,0.0013329343654006611,0.0016924717276514479,0.0020687607736755024,0.002321370478666147,0.00233193843128004,0.002067366379690693,0.0015943853339322467,0.001043658006076741,0.0005482370127303401,0.00018959137875853543,-2.640761468363737e-05,-0.00016005792361409587,-0.0003050967215578218,-0.0005464170493759112,-0.0009208763202712778,-0.0013937910267408126,-0.0018626362380190602,-0.002191394635017536,-0.0022642582010571352,-0.002035019370122249,-0.0015482278490129876,-0.0009216761531695338,-0.00029916249360137565,0.00020371349751538848,0.0005368733576946072,0.0007226576684640875,0.0008332245518161917,0.000950776374391518,0.0011276925604998597,0.0013615847650197909,0.0015933744751176508,0.0017280784370306515,0.0016714493741078302,0.0013718581618110005,0.0008538022536916087,0.000226544333146878,-0.00034620732776189473,-0.0007147708087240543,-0.0008237388591121281,-0.0007577305932176728,-0.0007130423228997201,-0.0008946195392023142,-0.0013885838261152596,-0.002087021369337648,-0.002719479429743733,-0.0029833545292579765,-0.0027018695102709214,-0.0019165373366492886,-0.0008579146234790344,0.00018765469183385213,0.001033355952889683,0.001673573372208785,0.002241994368237911,0.002874040071477657,0.0035642947972274815,0.004117934211445448,0.004240041639941822,0.0037175104511131232,0.0025801381352184034,0.0011298635038588581,-0.00019341115169003282,-0.0010340466520475796,-0.0012965224074127722,-0.0011718510270252618,-0.0010085548675099736,-0.0011151096390388773,-0.0016098856789768007,-0.002390414321936699,-0.0032150388151429487,-0.0038305299512894613,-0.004070915588904352,-0.0038891865501836055,-0.0033317970812326097,-0.002493304562496354,-0.001483640342935124,-0.00041606008864454916,0.0005971003897482706,0.00145630949622149,0.0020967940042997454,0.0025085597605542776,0.002738629383684636,0.0028682611281525836,0.0029724593437730927,0.003080683239113537,0.0031598480156268824,0.003131596583286057,0.002918480273971933,0.0024958292474903288,0.0019182560150111314,0.0012999259181002533,0.0007539426470321185,0.00032401062145255035,-4.815400044762326e-05,-0.0004936460002230662,-0.001136806183375301,-0.002010692276137453,-0.0030196277048632966,-0.003973101979526701,-0.004670380600040139,-0.004983490545962635,-0.004889780746544295,-0.00444183154146084,-0.0037064912067114736,-0.0027243090779305937,-0.0015205803896796665,-0.00015451592928295,0.0012410199258199794,0.002472202438002516,0.0033522367472020743,0.003783904487608035,0.003802883981353457,0.0035539564764194885,0.0032156630007939583,0.00291850830676617,0.002699878042816557,0.002511757843454427,0.002266655618328728,0.0018917360276025218,0.0013650699531302293,0.0007221595050395646,3.514308577355976e-05,-0.0006227940590909499,-0.0012096015523057454,-0.0017257147461306871,-0.0021970914762432137,-0.002638977855740298,-0.0030229514060783613,-0.0032702291493593764,-0.003279918367881683,-0.002980262047168224,-0.002376029107083808,-0.0015642931541575466,-0.0007053291293108,4.076963638671256e-05,0.0005802268102221238,0.0009182742034344431,0.0011390745568778354,0.0013436322355912735,0.0015817693370552407,0.0018187554175375334,0.0019572594631965755,0.0019021108097278395,0.0016283748620887736,0.0012092790244493505,0.000783852154536361,0.0004821229590463779,0.00035380291135291226,0.00034405029744507013,0.000328353961965222,0.00018178679648977797,-0.00015788409556939686,-0.0006621854029017049,-0.0012240983857862728,-0.0016980170392668417,-0.001950529478979671,-0.0019068810558401207,-0.001578842465970114,-0.0010611420816330338,-0.000492929959214657,1.2292479277548215e-06,0.0003609786619554744,0.0006023818485021805,0.0007864860012440053,0.0009659601364776211,0.0011454999567133254,0.0012809125097736679,0.0013137503752880648,0.0012138273171301865,0.000999202786304038,0.0007231891082276527,0.0004430894190523228,0.00019490835407456625,-1.3293252646059072e-05,-0.00019526411410362022,-0.0003800388148571245,-0.000607391189774788,-0.000915191574530736,-0.0013112949646559209,-0.0017417474141933828,-0.0020839727595486565,-0.0021867998571058877,-0.0019471544670575966,-0.0013793273756888859,-0.0006267850914888876,0.0001012143330477159,0.0006355979372960417,0.0009314970503640516,0.0010768154384614363,0.001219768357530723,0.0014623044568432039,0.0017881087767400669,0.002070828182413039,0.0021560005711914218,0.0019629765103095576,0.0015407552265467549,0.0010415687817325943,0.0006291374497509722,0.0003803619806321323,0.00024204807212587116,6.715914504826752e-05,-0.00029471387110852076,-0.0009068641842238864,-0.0017027234484826217,-0.0025078976823026274,-0.0031109279226289215,-0.003347125413714368,-0.0031583975736658755,-0.0026058483360724277,-0.0018341998747748458,-0.0010081522973680874,-0.00025131784865285527,0.00038608089482412367,0.0009208087483338275,0.0014006680580139674,0.0018605168990735769,0.0022924707949712785,0.0026431448394119684,0.0028371364461188472,0.0028141914374264867,0.00256195576660824,0.0021284608484586124,0.001607210570418881,0.0010995628995175537,0.0006699717846042656,0.000315365376755497,-3.356690591332966e-05,-0.00047538176080975264,-0.001080501145884902,-0.0018419152683883263,-0.0026602882254000595,-0.0033724662555684676,-0.0038099538199192423,-0.0038594068962947187,-0.003498378571152533,-0.002794591958180649,-0.001875778276263106,-0.0008879738373903749,4.137130945444309e-05,0.0008273724684148527,0.0014366835580094952,0.0018808917914252864,0.0021961245701318396,0.002417239079147379,0.0025603208138996135,0.002623060289197956,0.0025994146679560797,0.00249397580406903,0.0023232052606384592,0.002103585871931415,0.0018384914056641284,0.0015155449112637812,0.0011155125576695483,0.0006234881401104426,3.342089387417174e-05,-0.0006527347145064983,-0.0014210962625543,-0.0022307770328607534,-0.0029968791357032785,-0.0035934269743320263,-0.0038913749918456503,-0.003819914515410766,-0.0034126065973756822,-0.002799709185483114,-0.002141554608100781,-0.001541944564428274,-0.0009991884196057337,-0.0004281113428984024,0.00026324045309032164,0.0010952641151220541,0.00198743093201792,0.0027919929062064502,0.003363718839155585,0.003621076165612506,0.0035675363483244275,0.0032710945730292477,0.0028237803410345245,0.0023075187211404665,0.001779837020375845,0.0012752204863714382,0.0008088840586786807,0.00037442541954910234,-6.07023959068836e-05,-0.0005494721139364027,-0.0011406643014249143,-0.0018409817883620464,-0.002583924872928767,-0.003228795507793766,-0.0036010863164870318,-0.00356298724105437,-0.0030821830198630375,-0.002261965566737672,-0.0013116639149819054,-0.00046626085880347584,0.00010856321721743165,0.00038024377959707326,0.00045037405643869234,0.0004922800043489911,0.0006566798057597805,0.0009936614235348312,0.001430581428217238,0.0018151562235887717,0.0019976457899150606,0.0019061519507210273,0.0015759607069128312,0.001122379364112643,0.0006787599891746752,0.0003381045543931983,0.00012893593196267684,3.0787534221815265e-05,9.334089763259274e-06,4.219874627251632e-05,0.0001181689647725659,0.00021531392416432836,0.0002809858264643977,0.0002368150723133946,1.4454279624903711e-05,-0.00039530985161211014,-0.000910878360028777,-0.0013710661480674843,-0.0015931742897720652,-0.0014559041758576063,-0.0009688175655126216,-0.00029205723076367984,0.0003108026205431146,0.0005761486063064208,0.0003625658780740112,-0.0002627475129523598,-0.0010253025973383466,-0.0015513750228423168,-0.0015436978061554058,-0.0009345090152630782,7.519815146051e-05,0.001117983217843069,0.001843390749927828,0.0020743290112716617,0.0018546989882691537,0.0013814180812379592,0.0008793524045041549,0.0004942714013191881,0.0002502012186902891,7.425332885910925e-05,-0.00013824807679293062,-0.0004547215406787023,-0.0008630195583333165,-0.0012726095100919713,-0.0015568127771636818,-0.001614011841843891,-0.001415722880718755,-0.0010171570405119968,-0.0005276067658091451,-5.9394301497459425e-05,0.0003175001844464075,0.0005945095790454361,0.0008112118442241868,0.0010187158538388762,0.0012393175197504321,0.0014446034575776982,0.0015657533850907848,0.0015320651219706677,0.0013159507322690637,0.0009569998454906899,0.000549348519145212,0.0001984188645435534,-2.927937528147159e-05,-0.00013696595509097654,-0.00019481233890256524,-0.0003067099480877377,-0.0005622711686385342,-0.000993495425251044,-0.001552064667688779,-0.0021158024931269654,-0.002523961224431718,-0.0026319227257175426,-0.0023674549606580706,-0.00176571274506073,-0.0009640432480948272,-0.00015338282616595973,0.0004948023563236634,0.0008918145662269808,0.0010546428090379113,0.0010801093256072986,0.0010883779055568116,0.0011668968153174565,0.0013384275279380183,0.0015585312568399587,0.0017347252402340283,0.0017586320702245477,0.0015468904211928607,0.0010850052236277717,0.0004584848743595614,-0.00015208492388631145,-0.000527525810878711,-0.000507168156102062,-8.402138331997959e-05,0.0005582263057533125,0.0011018625501717874,0.0012310898931169052,0.0007831314672216909,-0.00016434254977662022,-0.0013155524659906952,-0.0022765666285632247,-0.0027146715808858274,-0.002487708232989132,-0.0016939967325024514,-0.0006281244273536699,0.00033674558531127357,0.0008916579049881379,0.000900405841560286,0.00042948236027203347,-0.0003063235739843148,-0.0010466457776162389,-0.0015817681638588927,-0.0018024757988430304,-0.001698192109595103,-0.0013257305267447166,-0.0007749944321513967,-0.00014342483353295052,0.0004831533028267491,0.001046247543908458,0.001521399819480177,0.001907513100514621,0.002201145258787302,0.0023734853974487404,0.0023713167892921378,0.0021482109501076013,0.001708719707172301,0.0011349643321689408,0.0005728074530181496,0.0001786441717055087,5.1488658616086506e-05,0.00018391588849562515,0.0004559938028473869,0.0006756637872022897,0.0006484943621814799,0.00024893610601428367,-0.0005323319517746229,-0.0015786663252171126,-0.0026760036198391936,-0.003571092393864644,-0.004044718640780138,-0.0039798954699760605,-0.003401738060356827,-0.0024701270758181485,-0.0014222513771549948,-0.0004852292702581121,0.0002039179210070489,0.0006353431037023666,0.0009063408259275289,0.0011583032610809733,0.001502939415483613,0.0019700636834641535,0.002495559013584502,0.0029504702055641045,0.003197322051936883,0.0031500644477911476,0.0028115774473289517,0.0022706854149898707,0.001659254396059074,0.0010911813367255898,0.0006153122725227561,0.00020529093363937643,-0.00021286913135166205,-0.0007140392096261388,-0.0013315874264451298,-0.002035227682400732,-0.0027341004432261855,-0.0033020926104758877,-0.0036168863848103625,-0.00359960327812765,-0.0032402855572814296,-0.002599397294689237,-0.0017861869668862316,-0.0009246218582220066,-0.00012039357309653542,0.0005616059699947863,0.0011053046165933706,0.0015356152357914321,0.0018955685250951146,0.00221512448842008,0.0024862849786583324,0.002660525482929631,0.002673494323889645,0.0024840623620113337,0.0021040746426257144,0.0016006459673223305,0.001070135962160558,0.0005987458301826716,0.00022919237662868066,-5.3122553442132465e-05,-0.0003104965720437201,-0.0006237525345578061,-0.0010532268928679532,-0.0016038709398889048,-0.002209128036070311,-0.0027430758482073873,-0.0030597318629914036,-0.0030462648320417843,-0.0026686028044449997,-0.001988519576158066,-0.001142594965068852,-0.00029167455557035525,0.00043491031021790567,0.0009733627262958402,0.001324228371194234,0.001524522895507629,0.001616858936062944,0.001635850968389612,0.0016128064278796328,0.001581834083455298,0.001571154794301738,0.0015820722770269848,0.0015758007135903685,0.0014866173502986158,0.0012590023676602986,0.0008849000691185944,0.00041382621262859356,-7.334647542105269e-05,-0.0005100526783435516,-0.0008775944905362149,-0.0012027219643218569,-0.001520543815950916,-0.0018292162681072342,-0.002070014247440187,-0.0021501894122197855,-0.0019972184213826534,-0.0016107260564501248,-0.0010774357075883302,-0.0005363059523306452,-0.00011211222902938893,0.0001438717367305528,0.00027111977566852497,0.0003656352084726996,0.0005162510185039482,0.000750867378544628,0.0010243717803099296,0.0012520474676174208,0.0013628718777127194,0.0013365766136309537,0.0012033536218352158,0.0010133065615844591,0.0008026805523314787,0.0005817749008583829,0.00034903144347121773,0.00011414808300641506,-9.325863979714607e-05,-0.00023989359407007766,-0.00031850701760481083,-0.0003658883112265481,-0.00044941993727448773,-0.000624629424628063,-0.0008895410358601074,-0.0011683613933366182,-0.0013403011834300736,-0.0012998684882315273,-0.0010138565727109603,-0.0005422973504706383,-1.2842434948917916e-05,0.0004361828039036197,0.0007148161626823705,0.000815475938085142,0.0008081491297031813,0.0008000600779515591,0.0008779993802954711,0.001059463617401656,0.0012765917200426996,0.0014038297990875094,0.0013195051061116107,0.0009714169704345826,0.0004094470709830779,-0.00023689051887979017,-0.000825489371769894,-0.0012726168788108026,-0.0015821450853263815,-0.0018144938646039654,-0.0020188034954085297,-0.002178480720648956,-0.0022107095427329553,-0.0020211350057825024,-0.001575170919646394,-0.0009361921658112146,-0.00024429056260669185,0.0003514806889710518,0.0007660982971298849,0.001014104245343626,0.0011885944847195608,0.0013977721455419624,0.0016968711750182351,0.002054366927696788,0.0023696150529462522,0.002527951021202858,0.0024588134015556566,0.002165139886742726,0.001713500576467876,0.001197187367476874,0.0006945508202587348,0.00024081201416997094,-0.00017863466930126987,-0.0006139479171855057,-0.0011208614954356254,-0.0017237221428790183,-0.002384720415508906,-0.002995544728683807,-0.003402976763188372,-0.0034645728633711176,-0.0031116148303367494,-0.0023874588885586523,-0.001438833460060752,-0.00046146453043600195,0.00037433533548097584,0.0009819573298205048,0.0013733668396225362,0.0016262576415453653,0.0018241280823484297,0.00200393185672655,0.0021410791732031247,0.002178828212891712,0.002080378108217808,0.001865547470355518,0.0016026381392408183,0.001356372705723345,0.0011255485446726365,0.0008171405578478376,0.00028588982584891193,-0.0005726156203999678,-0.0017274307536068925,-0.0029788774363678533,-0.004017030013064865,-0.004545920331977181,-0.004404997787776128,-0.003623474948454776,-0.0023895324883480007,-0.0009669968291786532,0.0003905593413067836,0.0014984962056686108,0.0022721346666764314,0.0027390055859678915,0.0030281615617790414,0.003320333003331763,0.0037549359134071815,0.004325251788637061,0.0048236170949330906,0.004891879464286464,0.004180524910739571,0.0025496737910191873,0.00020261488114914523,-0.002338357857947046,-0.004425896713834332,-0.005566723036323395,-0.005642445710164828,-0.004948019891259514,-0.004019707591846268,-0.003345524478398596,-0.003121035621869346,-0.0031826932779036535,-0.003139702831788683,-0.0026109116073317587,-0.0014287444034214456,0.00028663462293818267,0.0021951662345670534,0.0038881858775739273,0.005040089815529785,0.0054976696795267215,0.005287359192984198,0.004560033570342684,0.0035123310033713957,0.0023218880961703796,0.0011200712895294343,6.019962314514869e-06,-0.0009178076021042719,-0.0015274603000561015,-0.0017116631813594214,-0.0014552327737757328,-0.0009150566556091761,-0.0004085693530235427,-0.00027757873425563807,-0.0006846693606934436,-0.0014761043674168615,-0.002230479194835466,-0.0024960463716630823,-0.002078481968736743,-0.0011858652186193656,-0.0003217375905786122,1.4647200610041664e-05,-0.0003683778810667725,-0.0012369312956671027,-0.002063619440935793,-0.0023183091384780235,-0.0017410649682419472,-0.0004493443868998269,0.0011575701605784797,0.0026160203941695097,0.003601593003707206,0.004016447196182806,0.003946270675467997,0.003550672885135472,0.0029689887211567963,0.002283567290522529,0.0015288212670463064,0.0007120127794437946,-0.00017021602652326562,-0.0011083998444063137,-0.002040128503570485,-0.002816582263509519,-0.003224827330621117,-0.003090719139547846,-0.0024164928005752304,-0.0014488005051362602,-0.0005931249778110736,-0.00019537316407132547,-0.00032632971953233507,-0.0007286063256087945,-0.0009818106284804192,-0.0007805644627232856,-0.00012937594268209096,0.0006841212545803748,0.0013114532344037349,0.001590914432216027,0.001636507024773898,0.0017070893722875061,0.0019582819071992277,0.0022647695305531117,0.002251698637138649,0.0015304932304060388,-5.851357213002527e-06,-0.0020213542197888026,-0.0038299085232811345,-0.00471141894374591,-0.004281567314229342,-0.0027060785594470362,-0.0006357458479512141,0.001105080575108373,0.0019115172743581783,0.0016712477979659809,0.0007856978886447794,-6.129438058187671e-05,-0.0002613895046566397,0.0004195429603722656,0.0017492983523216446,0.003174308494498716,0.004104843473049568,0.004180822827983965,0.0033909637515024227,0.002014059861342266,0.00044715791548675493,-0.0009705298978784651,-0.002051583112008248,-0.002752002110734191,-0.0031053682516543734,-0.003166710900266008,-0.0030020681432383475,-0.0027047279798317375,-0.002388856705442164,-0.0021340259348559872,-0.0019128186664309386,-0.0015749364218402733,-0.0009371674785472104,5.7047588979389306e-05,0.0012257626294576202,0.0021971506760180117,0.0026221210502607325,0.002417128038930993,0.0018551437195409729,0.0014173215318648146,0.0014904032988371052,0.002112108092360144,0.002937562627368131,0.0034476842576953905,0.0032583988667101477,0.0023296574425476484,0.0009487666923404682,-0.0004839018874772821,-0.001709927007022752,-0.002731037753946069,-0.003714658577876913,-0.004766682691671019,-0.0057498095059462205,-0.0062923886375443605,-0.0059920302402065116,-0.004677629656636045,-0.0025550751479878724,-0.000143524209605812,0.0019573617770030608,0.0033338468256129566,0.003915871790207962,0.003954324199116048,0.003844463383187676,0.0038952791441371256,0.004162701611108378,0.00442805200241417,0.0043321180835672775,0.00359815677220692,0.002225742121824318,0.0005410656014217333,-0.0009411801925256964,-0.0017808171689682436,-0.0018524323908551868,-0.0014175153960179242,-0.000981468455570377,-0.0010207969767920366,-0.0017400967494171267,-0.0029857303006684613,-0.004336507487847337,-0.005294618934131703,-0.005473313283352219,-0.00471569074857577,-0.0031306725711819296,-0.0010571217431731852,0.0010330730606128297,0.0026787080614325614,0.0035821628376396363,0.0037087993635569394,0.0032784755356823777,0.002647484150556074,0.0021432160299552014,0.0019386920816307157,0.0020200825294355487,0.002237150805724428,0.0023847895428891117,0.002269830389479253,0.001753920324061457,0.0007896743179413666,-0.0005417612829438808,-0.002014484944792048,-0.003299625636338854,-0.004074261599013044,-0.004154373350957082,-0.0035769760144590294,-0.0025773143742796063,-0.0014692995383338067,-0.0004971294838082671,0.0002571174373195758,0.0008601804123084035,0.0014232733824101904,0.001977650380349272,0.0024154787927761845,0.0025414521861233923,0.0022064383859485026,0.0014333882303930122,0.00044332387851129564,-0.0004462857593891718,-0.0009893201273085206,-0.0011350305012331461,-0.0010278832757313582,-0.000888896118072799,-0.0008635190025902564,-0.0009380754881451908,-0.0009730004128164853,-0.000818189419620582,-0.000423367079814963,0.00013019991162269737,0.0006851057007043576,0.0010949675882564272,0.001276238586065005,0.0012031029575907612,0.000881111032162428,0.00034903153871383924,-0.00028399955174518746,-0.0008149397194706428,-0.0009962607570705826,-0.000663164469129962,0.00013422221619230741,0.0010980194929970516,0.0018018882986707066,0.001910502001415114,0.0013672298767711069,0.0004275809566888,-0.00048721258017463544,-0.0010266745874815087,-0.001093513892695792,-0.0008667292777898226,-0.0006616187570397342,-0.0007212764842971525,-0.0010694139488922234,-0.001507165739985897,-0.0017414609733803327,-0.0015552194857343295,-0.0009183070591874056,1.0274235853039034e-05,0.0009686731712104286,0.0017053452371341034,0.002061732241908981,0.0020008236265891496,0.001590824924117879,0.0009649274234570058,0.00027173725324025405,-0.00037485105000784925,-0.0009310378315638369,-0.0014212432229256753,-0.0018897747744802441,-0.0023308067582467054,-0.002646848132177924,-0.0026735823557359093,-0.0022633924329161213,-0.0013771870587526494,-0.0001279719795184505,0.00124834254193632,0.0024767989226870653,0.003340188243102458,0.0037502895212955917,0.0037717388761745996,0.003591066417035228,0.003433480185224904,0.003445471897389582,0.003586517536431138,0.0035928478254006325,0.0030631039623123814,0.00165722538078421,-0.0006786052749508686,-0.0035916489900990724,-0.006401221444568826,-0.008361448928194296,-0.00897702773907305,-0.008198861379031721,-0.006395203412231347,-0.004131426676198403,-0.0019033505745173034,2.1492691389420288e-05,0.0015925761700124866,0.002851900777387609,0.003812261527443064,0.004422952316535315,0.004625232724939669,0.004433348732631501,0.00396769825662558,0.0034094957725382263,0.00290441990509478,0.0024780455831365784,0.002020003818772282,0.001353431450573349,0.00035540078030517797,-0.0009390028677970523,-0.0023118850952469723,-0.003437914596231811,-0.004023577403807149,-0.003936333137691643,-0.0032558095447110837,-0.002225185279433312,-0.001136857684350305,-0.00021743742489886133,0.0004332506410156243,0.0008343768729082511,0.0010726024242702298,0.0012462752312519072,0.001429621310288718,0.0016550558126313807,0.0018993992732379587,0.0020716375818000403,0.0020216806287118574,0.0015937237784939865,0.0007196491149646029,-0.0004952875076895378,-0.0017607781535708108,-0.0026967686350363607,-0.0029988545798263033,-0.0025821878897127285,-0.0016186802784815934,-0.00044843819616188416,0.0005763084820808646,0.0012228628822912404,0.0014218942262633864,0.0012243520505938236,0.0007258330966120901,2.1306728638806208e-05,-0.0007846167955387084,-0.0015400198205151993,-0.00203635945956046,-0.002063315852992754,-0.0015111367029686292,-0.0004591400329897889,0.0008138215605705285,0.0019198092060565925,0.002518223989161358,0.0024638711824071986,0.0018718696154148293,0.00106310191925516,0.0004143230462828533,0.00018983024394204011,0.00044375299191395695,0.0010381079717026618,0.0017453199009585898,0.0023510195769203108,0.0026885848603957346,0.0026098605261878115,0.0019624584250771196,0.0006412774017883235,-0.001291843229664095,-0.003509473205548606,-0.005448539107688874,-0.006505574074559174,-0.006318291747135222,-0.0049748621129263775,-0.003009718720242958,-0.0011597603873890875,-2.296285200058116e-06,0.0003198258287425748,0.00012410450565565308,-4.438710859871929e-05,0.0002472646001368892,0.0010841904153773738,0.0022015299267131505,0.0031851523373403043,0.0037220378417899664,0.0037398579312174626,0.0033729203118095206,0.002813962341779516,0.0021750144035783078,0.0014544505891286195,0.0006211165890862857,-0.0002592924575070122,-0.0009631982181216967,-0.0011818929586143955,-0.0007069396150283865,0.0003800905707657896,0.001648440974253029,0.00246338834929636,0.0022885352653864727,0.0009880173551361552,-0.001053421523222613,-0.0030862800252787308,-0.004362976988125327,-0.004516479322887196,-0.0037334096206377313,-0.002620151319961579,-0.0018406458174714583,-0.0017361409955570994,-0.0021423401358899824,-0.00250180255213037,-0.002201473226932052,-0.0009403141100665406,0.0010820840926150726,0.0032583751149501483,0.004882892839731616,0.005488692042620269,0.005023243445832215,0.003791977131284846,0.002245583589458452,0.0007616272802299312,-0.00046218016662958304,-0.0013828774338543873,-0.002019633278568673,-0.002379369578189773,-0.0024470731378959717,-0.002227286133332771,-0.0017864273640161548,-0.0012517137646665846,-0.0007602791492150913,-0.00039166230911360443,-0.00013078472362499348,0.00011111129246810198,0.00042865928197298605,0.0008499694093863303,0.0013054845223442063,0.001658457626929837,0.0017796414975434593,0.00162203757837385,0.0012514120717504035,0.0008140961920161975,0.0004598684244197099,0.0002636988688863672,0.00019127912241911395,0.00012879649244884812,-3.9376262187196904e-05,-0.00035033374904937947,-0.0007294555229375693,-0.0010296853075248478,-0.0011252604555639998,-0.0010031761212512997,-0.0007881513653958204,-0.000672737547612877,-0.0007870819293799376,-0.001091954554319964,-0.0013745625257465905,-0.0013634013598512434,-0.0008958031080676052,-3.1016790659713024e-05,0.0009642070419290497,0.0017464490641387412,0.002060175711573913,0.0018417574160485362,0.001216418820023581,0.0004093142018068958,-0.0003645657530527215,-0.0009693888623121607,-0.0013533863112035554,-0.0015121785805797825,-0.0014536932629119312,-0.0011930669260364346,-0.0007716504253802022,-0.0002693307779286148,0.0002163348889852474,0.000620264271295896,0.0009524869749857597,0.0012893980560906755,0.0017004771570827044,0.0021493124709451848,0.002443342618045231,0.0022927528227961423,0.0014736806461754647,1.1546464290684757e-05,-0.001736740954105757,-0.003180545490328306,-0.003745383405483789,-0.0031441555743710187,-0.0015165089173663701,0.0006362679300477402,0.002667077625545978,0.004017674674278898,0.00436114354924551,0.0036286471915967303,0.0019719092396264085,-0.00027769121249738985,-0.002639102459792928,-0.00453718773786118,-0.00542713759417287,-0.004982410599420194,-0.0032704566541884575,-0.0008038837670737305,0.0016076544082973278,0.00317407613682281,0.003464688676087197,0.0025840749703862093,0.0010747662210588704,-0.0004000794691386921,-0.001399976051892443,-0.0018671439548678757,-0.0020221897772254582,-0.0020960794112128917,-0.002102834671276745,-0.00181210587928757,-0.0009285296527249363,0.0006581332364670898,0.0027243854686420446,0.004757558734561716,0.0061581223937885975,0.006479903505894244,0.005590486316949211,0.0036992035744446814,0.001268739602828601,-0.0011415879573806007,-0.0030506218009735994,-0.004198390136976557,-0.0046054982738471025,-0.004515396030657854,-0.004238728650980361,-0.003979873459461864,-0.003744626459371377,-0.0033796650559138244,-0.002708406295327824,-0.0016672290316271272,-0.000355496520795475,0.0010178949434519685,0.0022365478991026723,0.003152777342207806,0.003703358874720394,0.0038847192876559624,0.003727681933908336,0.0032901315961252516,0.0026551989537572564,0.0019159963651785151,0.0011474897262933408,0.00038754213058930396,-0.0003511198973725474,-0.001040915648916581,-0.0016033425034498922,-0.0019151753200671545,-0.0018676961043060417,-0.0014457376017011016,-0.0007687110267594523,-5.482151379254468e-05,0.00047819509515051084,0.0007163201882995536,0.000692091273596994,0.000541740439309177,0.000405053657575132,0.0003290728901372644,0.00023194413459345768,-5.138037368824529e-05,-0.0006638310984764344,-0.0016162145546773272,-0.002733842050377656,-0.0036960492396679577,-0.004157729852782259,-0.003896592822157745,-0.002912868506757406,-0.0014316942636852896,0.00019044702010951773,0.0016055002345514325,0.0025919900463716623,0.0031030662133475027,0.0032374867038734837,0.003164152691506057,0.003043959055429679,0.002979035129348856,0.002994511278375742,0.003041874143045467,0.0030142285949667368,0.002773953437488551,0.0021966533511615935,0.0012248045258396048,-9.086256797036853e-05,-0.001587145107229166,-0.0030287074689897093,-0.0041739195489538805,-0.004834069141321042,-0.004905543288035686,-0.004379001885091033,-0.003342725923099996,-0.001987148976804342,-0.0005951442609548234,0.000508088690827097,0.0010541038921751426,0.0009479537160938999,0.000338159763428087,-0.0004179752973557961,-0.0008978217372832926,-0.0008007848059288071,-8.09313678967851e-05,0.0010454882428551579,0.002216324491410885,0.003094436587407291,0.003500455168509945,0.0034454230384913884,0.0030639095054839707,0.0025031193977289035,0.001839599638504553,0.0010679525521606378,0.0001569959368041354,-0.0008714201105673245,-0.001896116293925843,-0.0027159471825695235,-0.0031279423839257517,-0.0030221921271321216,-0.0024406412946916213,-0.001566220115064955,-0.0006466820476829021,0.0001076736235165012,0.0006007318461918767,0.0008655642974519304,0.0010149879127874552,0.00115772680254607,0.0013256801750871276,0.0014496110170597748,0.0013945617933856448,0.0010362337054876992,0.00033974970157560314,-0.0005990007300481195,-0.0015721308633081612,-0.002333485195325456,-0.0026952618200646893,-0.0026016008622412458,-0.0021410501004928474,-0.0014898153149760758,-0.0008173276046328576,-0.00021094331496703954,0.000333480828542674,0.000852232776271117,0.0013316850495850205,0.0016681233279984696,0.0017074412809003603,0.0013481541569522542,0.0006448163376893041,-0.00015868675219106486,-0.000699203257180384,-0.000641110804025719,0.00017152662730283215,0.0016305740769053713,0.003381550042403014,0.004928122946055127,0.005778340305351132,0.005585860972765239,0.004251960453638797,0.0019654205687423126,-0.0008337486293273492,-0.0035654079005520783,-0.0056681225930157834,-0.0067541928278129805,-0.00670568748819088,-0.005681157881281727,-0.004041510103748783,-0.002231945884829007,-0.0006624526499508616,0.0003828234010641188,0.0007946956864364934,0.0006470893549576535,0.0001680468696817676,-0.00032613635866076936,-0.000531453067580435,-0.00027172040400345963,0.00041593745322169575,0.001278686670916168,0.0019515342072415557,0.0021302593453572743,0.0017276707515480264,0.0009271495469706113,0.0001018083901115263,-0.00035873993888360775,-0.0002252998428400138,0.0004747274274625121,0.0014800910345503415,0.0024169336185001973,0.0029567264619561506,0.0029403181384180703,0.002419592220332908,0.0016079257515013317,0.0007705000854367732,0.00010916915192869326,-0.00030639014967680646,-0.0005377163354186611,-0.0007207042897002807,-0.0009908070232216154,-0.0014261183306477111,-0.002023099080643417,-0.002699476399599865,-0.003313582594412439,-0.003696443642410301,-0.0036978195496456105,-0.003239816662342624,-0.002357336837494383,-0.0012004423084954142,1.0352546825358145e-05,0.0010581321673052394,0.0017981967368711443,0.0021912427558930777,0.0022922136378560787,0.0022081084945197857,0.002049310481038604,0.001896369411938569,0.001791496814642103,0.0017482984639060571,0.0017626764970789916,0.0018095221616107671,0.0018249936644141498,0.001693758931904933,0.00126833070311354,0.00043211845697926216,-0.0008154113873610681,-0.002301301057511721,-0.003697432150366191,-0.004624464465556097,-0.00479867056770561,-0.004148764653417615,-0.002844037339676104,-0.001223152690138546,0.00033728338807573785,0.001551379645274647,0.002296465678682573,0.002609012844557905,0.002620865515638066,0.0024762124049156815,0.002270261748253711,0.002031509626371563,0.0017434407684586734,0.0013827739409286916,0.0009484277349439455,0.0004669181521238494,-2.326127991014661e-05,-0.0004939919966348884,-0.0009410506550537677,-0.0013807537986257883,-0.0018318874270760604,-0.002292073590740833,-0.0027195355569605206,-0.0030295683082685564,-0.0031115092138473046,-0.0028656591809452714,-0.0022494728016534188,-0.0013121013881041584,-0.0001944669792656716,0.0009148727019810845,0.0018529750218745865,0.0025478445663552653,0.0030367664133289355,0.0034220484696736624,0.0037854785338599438,0.004110544617717326,0.00426213136433778,0.0040446281080028295,0.00331504439162444,0.0020911887994371128,0.000588803991286953,-0.0008453793212194882,-0.0018804621886481638,-0.0023562473868755244,-0.0023658087948693713,-0.0022198085361366826,-0.002303201736400713,-0.002886174270459161,-0.003975975384108337,-0.005283181440382042,-0.006325758534048742,-0.006627148891351944,-0.005916516699019769,-0.00423975972244162,-0.0019376269669841427,0.0004886645312359432,0.002558556091401081,0.003964667308193871,0.004644252642820407,0.004756697722203847,0.004590408566066837,0.004440789512942278,0.004500023569292806,0.004788683437566782,0.0051480742904325225,0.005300519707253008,0.004965901967587111,0.003995711380440286,0.002464217047973083,0.0006617630516232699,-0.0010224573015602994,-0.0022787918164218594,-0.003023885923248542,-0.00343058443175993,-0.0038157897448042764,-0.0044412386032876006,-0.005336376588997288,-0.00624758944578045,-0.006752002284432677,-0.006479925601627268,-0.005322127073870883,-0.0035018515062881224,-0.0014705073565007547,0.0003080925837900948,0.0015575549769373492,0.002266459557096734,0.002621250738476911,0.0028573971717908058,0.0031252782861632563,0.0034384530373263718,0.0037105967709107762,0.003836403564300161,0.003758816331451014,0.0034890482914573116,0.003083470797134358,0.0026056692179713455,0.002100803980145977,0.0015908856716540607,0.0010817662153314311,0.0005682969708488424,3.2751483289002336e-05,-0.0005564547064150379,-0.00123368833059285,-0.002007391109865639,-0.002824485025472735,-0.0035535047174655443,-0.00401165433191901,-0.004038115079313818,-0.003581117011667358,-0.0027454853095251514,-0.0017623958639443374,-0.0008895200957486151,-0.000295696832925677,4.617568897803947e-06,0.00013353337391351465,0.0002655255981682353,0.0005287330175665051,0.0009439041883434367,0.0014251646792469007,0.001832231679025968,0.002041886412636032,0.0020040303691856607,0.0017598731531111307,0.00141811011959614,0.0011019231184237028,0.0008903404662261213,0.0007794422458880169,0.000681991308154015,0.0004698981716768039,4.551705514439677e-05,-0.0005890131464621423,-0.0013013888087201535,-0.001862938930218902,-0.0020428567348387537,-0.0017246874050539387,-0.0009854800867355718,-8.619663339894237e-05,0.0006365935250674774,0.0009304918092076601,0.0007528144145511023,0.00028718826071719904,-0.00016203282308276798,-0.0003356081856716907,-0.00014666501107458762,0.0003009518727770589,0.0008002452397153077,0.0011664099002489329,0.0013188946432189372,0.0012816217155893796,0.0011241456693819817,0.0009005626457049855,0.000629051172555867,0.0003112818711418485,-4.3052036222058685e-05,-0.0004184176477295782,-0.0008202938319158646,-0.0012920240583188178,-0.0018869218440161273,-0.0025977582864844103,-0.0032917225237285757,-0.0037138936920826145,-0.003586090414894004,-0.0027602049242948963,-0.0013343900083696652,0.0003510372536268024,0.0018517230274987585,0.0028192133134914785,0.003147975569004063,0.002986989925367298,0.0026186838218162437,0.002287865126490465,0.0020854226493057706,0.0019458250110986793,0.001739671661294484,0.0013861445186755775,0.000908791676200036,0.00040565683811141524,-3.505100333060134e-05,-0.0004090021791740596,-0.0008054712521559166,-0.001342912979648006,-0.002069477853745923,-0.0028922127693934425,-0.003584956883327257,-0.0038799459664018723,-0.0035968330408971735,-0.0027360224564008705,-0.0014803640182566849,-0.00010372197951465708,0.0011566472228809021,0.0021848438935280325,0.002980678443507279,0.0035800832944496786,0.003968613897222467,0.004056172565249103,0.0037333043855871935,0.0029684075039214664,0.0018745064084589882,0.0006938905429082909,-0.0002973941307495725,-0.0009136735503695469,-0.0011459238251825344,-0.0011665005499081251,-0.0012497453847603892,-0.001642752458278354,-0.002440462105391401,-0.003518877128383465,-0.004560167222236477,-0.0051676542301562715,-0.005028059354896483,-0.004050957489249499,-0.0024186597728230565,-0.0005187251885778735,0.0012103066717394344,0.002444809856142428,0.003076628405738503,0.0032126572863812267,0.003091902616839116,0.002969879107470454,0.0030172749200150636,0.0032588736523420435,0.003562758356772484,0.0036852706907473222,0.0033707834521802893,0.0024825597952544782,0.0011079682387392358,-0.0004323218751480385,-0.0017067170673269367,-0.002383603736841854,-0.0024144488432596566,-0.002066950358293727,-0.0017688166940063319,-0.00184607370767039,-0.002317278650246482,-0.0028779993459119766,-0.00309230705032633,-0.002675572042212909,-0.001691157141692743,-0.0005335451288969806,0.00029732742731167477,0.000493641805687804,0.00012495937260507522,-0.0004032622243093394,-0.0005889536805759534,-0.00011860332018152268,0.000973894056510379,0.0023537738741120097,0.003580800377135594,0.004316849121057082,0.004431482478792124,0.003981316620918865,0.0031189825119506305,0.002005859270315326,0.0007673242411033933,-0.0005140677039970897,-0.0017866297362183542,-0.0030061270303983144,-0.0041000105805806515,-0.004933053553528162,-0.005309379383753296,-0.005039201040801482,-0.004052732465206532,-0.0024911238968789457,-0.0006961671586457999,0.0009219576762259025,0.00207181653041705,0.0027053707544405733,0.002994724305513277,0.0031729910714491565,0.003346783456902118,0.0034121653712025743,0.003137817633825193,0.0023619824992496007,0.0011643242733430413,-0.00011665126938067137,-0.0010470992759195206,-0.001342612526099467,-0.001035802416553156,-0.0004592411116225387,-5.808116144257803e-05,-0.00015077752536386303,-0.0007755405348382022,-0.0016943459876659374,-0.002530351196264522,-0.002949736205567999,-0.0027937853643237717,-0.0021104098264665997,-0.0010933400760371453,2.075198955371247e-05,0.001039245626964816,0.0018502951797292764,0.002410851057402936,0.002713277368415314,0.0027605721994913577,0.002563340259291777,0.002150382526256277,0.0015743754423584856,0.000900484476933818,0.00018275365840000231,-0.0005529547251231137,-0.0013017942677592122,-0.0020480176032473202,-0.002729120189652343,-0.0032257159326616455,-0.0033942096787552833,-0.0031316313138816786,-0.002437724871038127,-0.0014362054239478476,-0.0003384808291174743,0.00063425161939222,0.0013312147212549612,0.0017150350866897506,0.0018502739024797872,0.001850704393645794,0.001818262132507343,0.0018047233623159286,0.001807803930805374,0.0017918512423070096,0.0017140374618241534,0.001542607750714862,0.0012649806453212458,0.0008893632414545027,0.00044174523237084496,-4.273498417858021e-05,-0.0005325760750662994,-0.0010091384013114185,-0.0014627713060980296,-0.0018746848564905963,-0.0021976761398017266,-0.002356033539735997,-0.0022748148164689406,-0.0019254544436061547,-0.0013567152075665972,-0.0006847888006610134,-4.342859350220255e-05,0.00047568798968782185,0.0008540252586217047,0.0011303636674017215,0.0013527650084245537,0.0015341675818950676,0.0016418479084378624,0.001624289862427692,0.0014518700577483645,0.0011395383502583651,0.000734690262590576,0.0002800631665765529,-0.00021827343574637158,-0.0007878278029253844,-0.0014448004531673222,-0.002135089632958949,-0.002709648611451009,-0.002968249807080593,-0.0027589199098898252,-0.002073621796332396,-0.0010732271724817138,-1.7344553587889046e-05,0.0008624001178206841,0.0014692354715040365,0.0018643576631473832,0.0021942481940830506,0.002568146569038959,0.002962593505408842,0.003216009986211424,0.0031223760712070186,0.0025684961586885276,0.001625795988633159,0.0005323667458602845,-0.0004277751878433336,-0.0010720096426392958,-0.0013998312513870599,-0.0015607033800096905,-0.0017378652743320695,-0.002027134192999403,-0.0023846193968979097,-0.0026661040214071,-0.002721110081675352,-0.0024753848755022416,-0.0019530896650187895,-0.001238673786644363,-0.00042166244386192064,0.00042652807344257886,0.0012296506654481767,0.0018706924594475908,0.0021953894837322845,0.002079155019802453,0.0015239416038789562,0.0007114279368953095,-4.570351029369924e-05,-0.00044513496909682473,-0.00034815148606352937,0.00015349439902740335,0.0007997449998843922,0.0013081094942830628,0.0015059750183711658,0.0013735142328619608,0.000992747520239745,0.0004609808079936487,-0.00016236098691309634,-0.0008460937127976881,-0.0015390854818114802,-0.0021354307564252417,-0.002490157079789104,-0.002480861148262043,-0.0020748550529961027,-0.0013567313556082233,-0.0004978177385585932,0.0003146287205977223,0.0009488254587006541,0.0013645294893930482,0.0016010888256800066,0.0017317639974342607,0.0018138897352465973,0.001861182553192847,0.0018471877415024934,0.001729861328498622,0.001478457439081522,0.0010887055290876304,0.0005842185534423195,1.072206114150068e-05,-0.0005706710499297822,-0.0010911447479387808,-0.0014868345613922684,-0.0017172807138314686,-0.0017827032684188545,-0.001728014138874042,-0.0016249309734642798,-0.0015357950427678593,-0.0014773650110345093,-0.001408966496991476,-0.001258165585446959,-0.0009721253291081447,-0.0005617967632462433,-0.00010749706343933624,0.00028049537611518117,0.0005221892081655608,0.0006110872982192732,0.0006142621574685941,0.0006311309943972454,0.0007376160545712147,0.0009486505534276597,0.0012176207862530219,0.001467754473123827,0.0016333785096538862,0.0016875515994445316,0.0016449216595658767,0.0015447248758159505,0.0014276552638493164,0.0013176093975781717,0.0012107563703342295,0.0010703340555815273,0.0008300230692115745,0.000414149382593697,-0.00022192791205557854,-0.0010447348309182713,-0.0019188587127919052,-0.0026351355796949485,-0.0029934752074089912,-0.002904206183799502,-0.0024478104017961145,-0.0018468018601919653,-0.0013534302991344872,-0.0011124413819040347,-0.0010803605870174323,-0.0010532462627061692,-0.0007902954069199601,-0.000161809961107696,0.0007657129016331569,0.0017567795665919068,0.002527537577585662,0.0028854185863581234,0.002806104725900705,0.0024104391334704048,0.0018679336109330004,0.001294487008552881,0.0007068008644507525,5.399569953895957e-05,-0.0007020688001746608,-0.001513541802356076,-0.0022293575624329595,-0.002648914164321325,-0.0026198530854060595,-0.0021261860724299283,-0.0013152182988383958,-0.0004426302676080532,0.0002407322660189469,0.000602842569196324,0.0006840263269257445,0.0006600545076281405,0.0007349476456443972,0.0010235996566389167,0.0014899863045048805,0.0019745361833644302,0.0022928659042370176,0.0023464196033942783,0.002176929804189038,0.0019275498789472622,0.0017298005156375256,0.001586588978283073,0.001334395022370005,0.0007265879739175784,-0.00039784895639604007,-0.001962390552641577,-0.0036248711573728058,-0.004909623730537953,-0.0054322739173341275,-0.005085195709910326,-0.004074633633309057,-0.0027944307021927316,-0.0016196071086656892,-0.0007420707488128091,-0.00013279291719870204,0.0003686040118636176,0.000910445462543486,0.0015272232577895706,0.0021350269386420147,0.0026091100217772306,0.0028767015561541945,0.002958222971507531,0.002935592942429871,0.0028801067445715593,0.002796720109558418,0.002623925901996934,0.002285738732080847,0.0017558100194685906,0.0010871874389526818,0.0003866939926389116,-0.00024865535522794783,-0.0007900452962035279,-0.0012894645369391927,-0.0018342862896247886,-0.0024686687947343302,-0.003130716771271968,-0.0036501043729855664,-0.0038178973408376643,-0.0034957261285009835,-0.002702453684059851,-0.0016240664454321308,-0.0005356173180629624,0.0003230783045560981,0.0008481385338692096,0.0010942859820876174,0.001213479626079553,0.0013527040319371237,0.001573432680547788,0.0018353150291030708,0.0020430505868541367,0.0021170744448729155,0.002039108393356052,0.0018464607090444194,0.0015864347413932216,0.0012685007867981922,0.0008510863276962311,0.0002748303274237257,-0.0004778163071646042,-0.0013356852363734014,-0.002138281440326325,-0.0026887848434589195,-0.002836809371381508,-0.0025491830341394664,-0.0019316108987998285,-0.0011875573633591064,-0.000531153644414858,-9.466441520648367e-05,0.00012351957729440533,0.00024254598174049537,0.00042203505131104956,0.0007661338010565102,0.0012624593944623023,0.0017900351726362622,0.0021894582711900544,0.00235106969720818,0.002266486960086203,0.0020129242224249215,0.0016836967052457842,0.0013140771469880446,0.0008556089587599431,0.00022056128498339407,-0.0006292976399901044,-0.0016088921675374884,-0.0025073219793218422,-0.003072691763287165,-0.0031444705829024805,-0.0027553654184057164,-0.00213140746460521,-0.0015744340130816941,-0.0012874310210369952,-0.001250688152493467,-0.001235017913150862,-0.0009513843096271012,-0.00024125891947444043,0.0008182731078815347,0.001959085046767741,0.002874744993023688,0.00337273543324487,0.0034351908680316035,0.0031736595445427205,0.0027327333773854955,0.0022137218816370785,0.0016559318611138979,0.001064945281630018,0.00044912568220277136,-0.00016900607952273906,-0.0007704834746946686,-0.0013614809640719418,-0.0019680599721943913,-0.0025968567868135998,-0.003188315448090422,-0.0036044642484173418,-0.003674904350484774,-0.0032838009484855053,-0.0024470714581967677,-0.0013286988360323001,-0.00018026732868556977,0.000765334508984846,0.0013879906075006405,0.001713065223515665,0.0018704374970690977,0.0020082585710319576,0.0022107760208906267,0.002461312770293642,0.002662542348060347,0.0026954781657157565,0.002482489897377046,0.002023408073496588,0.0013914268749602504,0.0006959600253479419,3.350107786623079e-05,-0.000549206582504832,-0.0010624336762358783,-0.0015483799074472615,-0.0020374819207197004,-0.0025105821469723014,-0.0028895521768797843,-0.0030642795648689854,-0.0029442224211073398,-0.0025087618094566683,-0.0018295253852292704,-0.0010504945916222103,-0.0003327355039155656,0.00021007396642639512,0.000552781851934108,0.000755963170442337,0.0009226078307899698,0.0011391714517419065,0.0014321747691744282,0.0017605212282792648,0.0020432239490817687,0.002203909586127143,0.0022063173132387693,0.002061972316159375,0.0018084282543267436,0.0014746734633530134,0.001058603081610357,0.0005337693148095447,-0.0001170180077860154,-0.000862581381340897,-0.0016057317083797728,-0.0022027127413924,-0.002514022947806791,-0.002462231307877675,-0.002067059695860689,-0.0014390472022928814,-0.0007346045943853441,-9.541366322972318e-05,0.0003972837897636773,0.0007320514986194752,0.0009394096724728663,0.001046948038991454,0.0010479879473281844,0.0009074890965653838,0.0006056657069291446,0.00019121996567024154,-0.00019908492864094494,-0.0003843579724123775,-0.0002370876918649673,0.00021848265865681603,0.0007745713511511399,0.0011123850320171125,0.000955400723557207,0.00022450215168965607,-0.000895350145954041,-0.0020230290088914084,-0.0027542277841352027,-0.002848453810857653,-0.0023296367989571413,-0.0014496453576155399,-0.0005427401245183241,0.00014178084790230337,0.0005371708638671825,0.0007448159342493439,0.0009335612568890645,0.0012226321740426427,0.0016159688165144973,0.0020160848510846485,0.0022967931596353957,0.0023845456827519314,0.0022998839604223545,0.0021373339242425913,0.0019973059802453853,0.0019097800568894019,0.001795069191878223,0.001489067893944966,0.0008266577775539224,-0.0002563807363296724,-0.001656874232523111,-0.00311222505593444,-0.004284906194680251,-0.004887236122672971,-0.004790778799064794,-0.004072093962410125,-0.002975398614282034,-0.0018097782154561453,-0.0008279199163366144,-0.0001411564222351274,0.00029319518264841766,0.000613167434847421,0.0009586683140731237,0.0013942605509643753,0.0018853719079991622,0.0023320001808991835,0.002631669611279342,0.0027309584235347606,0.0026387584761813536,0.0024033563001754155,0.0020777502032629323,0.0016978991381650717,0.001280619009091435,0.0008303308876869417,0.0003421756908623542,-0.00019863519044457234,-0.00081009602841779,-0.0014910683438246898,-0.0021912792123929548,-0.0027968912679498968,-0.0031532868679443804,-0.003124609527323109,-0.0026612942969740034,-0.00183493694797749,-0.0008165515099209908,0.00019051000300896945,0.0010234271666515389,0.0015986657631762726,0.0019040810890010578,0.001965245958858875,0.0018200788186275773,0.0015196203262533349,0.0011428842033841685,0.0007969076147803384,0.0005840766021878267,0.000548253752858976,0.0006348412414878949,0.0006981954293983156,0.0005626760725542256,0.00010943686257912648,-0.0006569670113381206,-0.0015979313785314166,-0.002490732296669957,-0.0031122066981865925,-0.0033162351649451815,-0.00307431493264389,-0.0024702215434205086,-0.0016594888819986267,-0.000812481616523342,-5.7046898721590036e-05,0.0005667562396785617,0.0011237613855702142,0.0017526060693121518,0.002578866879522821,0.003599647500838617,0.004604648133191891,0.005204691247249406,0.004991344923994152,0.0037673165655455546,0.001719588560754747,-0.0005882229398870969,-0.0024364983282845615,-0.003284968536312525,-0.0030399518004498903,-0.0020959418401935875,-0.0011214735547493467,-0.0007089089515377113,-0.0010832909758511306,-0.002022341212505229,-0.0030122556641737764,-0.0035341328751690797,-0.0033174091758225305,-0.002434298563838474,-0.0012109445665261943,-3.183972473459989e-05,0.0008428020480996137,0.0013568006073600629,0.0016176088310586904,0.0017852310545509696,0.00196600037096218,0.002166910564112018,0.0023202878718766376,0.0023465708890119115,0.0022080748774464237,0.0019229891659739524,0.0015408052762517193,0.0011047168352059991,0.000629009059405934,0.00010311501098618172,-0.0004856671748617135,-0.0011274929968987022,-0.0017755412696218408,-0.0023453645698812047,-0.0027276219337292553,-0.002814415423966894,-0.0025373683408816943,-0.0019067236468672576,-0.0010311636851781088,-9.94264937113098e-05,0.0006781188701836449,0.0011462985192887802,0.0012651395723957564,0.0011234168067699253,0.0008971346631903366,0.0007695971818931801,0.0008481616348669073,0.0011166494632685133,0.0014481689150721696,0.0016740862913558008,0.001673622190703566,0.001433585456926243,0.0010424004915755832,0.0006222218577363253,0.00024340663858086315,-0.00012136470331536081,-0.0005710344940391836,-0.0011927377433863984,-0.0019733706275609515,-0.00276383598325397,-0.0033242457225956274,-0.0034318531669246945,-0.0029958416025998597,-0.0021154521854794242,-0.0010460039763047675,-8.698736722431558e-05,0.0005503769902833048,0.0008276709206713899,0.0008752128018882059,0.0009076878022788574,0.001108038650011674,0.001538084335745179,0.0021137825718690203,0.0026491251835976002,0.0029438008182730725,0.0028747868090249545,0.0024517808170302227,0.0018102594433387087,0.0011424276147089072,0.0005976567785135708,0.00020463411503865133,-0.00013808807454903784,-0.0005908499700204364,-0.0012558303544253167,-0.002081626558285987,-0.002852779889374521,-0.003284067452560968,-0.003176874786201365,-0.0025487716152298675,-0.001650196775866804,-0.0008420219632914567,-0.0003952642931929154,-0.0003333967511450086,-0.00042191363362155594,-0.0003199490429633471,0.00019853461625491688,0.0010952261624797505,0.002083790135761666,0.0027960885376416096,0.00298723720193601,0.0026517237667467394,0.0019891451419034485,0.0012569009535400777,0.0006129255799419981,4.7157166587311256e-05,-0.0005639701457309801,-0.001325189726341243,-0.0022030314295016554,-0.002997887144422383,-0.0034270941365906896,-0.0032704132541595226,-0.002492313339601863,-0.001270496371788572,8.34942598578808e-05,0.0012630241803507172,0.0020849985857115446,0.002527588706796516,0.0026805942742229643,0.002654812188231754,0.002513611476481008,0.002263470367173268,0.0018936028252401695,0.0014219580064760884,0.0009065462330517359,0.00041284259572228727,-3.47198510262791e-05,-0.00047423838070766633,-0.0009767283767616237,-0.0015802242984706747,-0.002232417647662955,-0.002785489330164079,-0.003054934296057959,-0.0029130222658824987,-0.002363518731550635,-0.0015522740001801987,-0.0007039279990414141,-1.7860012302041515e-05,0.0004187188483353835,0.0006519907783138746,0.0008077819410912419,0.0009985571956573865,0.001248757817770508,0.0014817269818716578,0.0015722426223445038,0.0014302793814393341,0.0010657952995363014,0.0005971771362800545,0.0001979199616389711,9.477116438007596e-06,6.615743703055742e-05,0.00027170107376610526,0.0004402916207318446,0.00038198797765789895,-8.387612103669725e-06,-0.0006991196269680876,-0.0015271768600458597,-0.00225652866550868,-0.002663313267585395,-0.002612507913785973,-0.0020950801094903465,-0.0012124725745655384,-0.00012138152949923823,0.0010267949691706963,0.002116254331558134,0.003055353151096845,0.003746388171424156,0.0040765162977036825,0.003951972716561538,0.0033575317697656813,0.0023954254139984506,0.0012689606717600996,0.00021663677064211835,-0.0005647121991750425,-0.0009723855848005631,-0.001019724382328694,-0.000840828724668451,-0.0006798924920251351,-0.0008418665368351106,-0.0015818416842616327,-0.0029549037841542273,-0.004706480882693351,-0.006297779188815756,-0.007099164003238572,-0.0066766846150236375,-0.0050202858327779935,-0.002578488659255079,-6.875207698283899e-05,0.0018414078702797272,0.0028175207546114315,0.002964034755704816,0.0027106170675557915,0.002554077524947074,0.0028025461669173805,0.003455439118084808,0.004264970023716838,0.004916984965762072,0.005207122616931752,0.0051079694790376546,0.004705622058675178,0.004072740540012769,0.003182696111992853,0.0019336451845530216,0.00026750614838750024,-0.0017052208868114302,-0.003673975230714507,-0.005225344126053964,-0.006013501740323706,-0.005900743507342542,-0.00499448887690737,-0.003582349907958247,-0.002022758523004557,-0.0006482076147640873,0.0002993362564890287,0.0007095621144861599,0.0006256355445695325,0.00023114875631575224,-0.00021431161877267894,-0.00047808380390532623,-0.0004477756694223436,-0.0001630417755224367,0.0002285058190106882,0.000556491503887434,0.0007008769090693062,0.0006230535851303448,0.00036130337010595174,1.1553216629891193e-05,-0.00029750002782665463,-0.00043984053045591416,-0.0003381615082121089,-2.03549562639682e-06,0.00046881543209165345,0.0009276862239830371,0.0012520402175884473,0.001403189985101402,0.0014389939253978872,0.0014703415255145954,0.001584918240019646,0.001782649827968817,0.0019636963958499665,0.0019807597438425036,0.0017271185878001507,0.0012055318135005145,0.0005314134456662423,-0.00013498180003070287,-0.0006843497577096993,-0.0011178418732056886,-0.0015286056739530279,-0.002016035091658601,-0.002589783906448628,-0.0031293058710229202,-0.0034302267870345415,-0.003314019217903639,-0.0027364658282201613,-0.0018277967632783097,-0.0008354612779832163,1.3979795962362545e-06,0.0005723956640833966,0.0009365894109468904,0.0012558160932918012,0.001662373674245919,0.002148965324302555,0.002557418201798712,0.0026772157776326104,0.0023890264549603045,0.0017559898501113612,0.000999813637022214,0.0003748001185466458,1.8041680660042542e-05,-0.00013236925346962075,-0.0003004162999752213,-0.0007332866921362349,-0.0015339471144090613,-0.002557379651260349,-0.003434818584734,-0.0037269106999110275,-0.0031370425629326255,-0.0016775219933658789,0.0003007105865541184,0.002235594638884396,0.003578444753536905,0.004008317364562168,0.003540087013015063,0.002486920801538823,0.0013065586286993434,0.00040829786920201436,5.82990949404838e-06,7.06433457260949e-05,0.00038903423357468034,0.0006796479285546661,0.0007102700925333068,0.0003676206198464992,-0.0003318597533081566,-0.0012721791613373068,-0.002281374858106866,-0.0031709370293348804,-0.0037684272859620123,-0.003946715720010438,-0.003648414233405249,-0.0028970723865408424,-0.0017874145539985556,-0.0004574438479733739,0.0009418182608935157,0.0022599233455031665,0.003339069577270002,0.004005147017604051,0.004092626293176425,0.0035194119293554364,0.002379182369426314,0.00097761821259916,-0.00024946515557115403,-0.0009246805967827781,-0.0009254264071331498,-0.00046033569896900635,3.759777969661771e-05,0.0001477847763674556,-0.0003091880137020361,-0.0011817332951037222,-0.0020797008652421248,-0.002587053928070382,-0.0024732220279624025,-0.0017933805361965993,-0.0008346640000752535,5.245143939111211e-05,0.0006412253144077374,0.0009318521565881122,0.0011160957397379,0.0014262908043754991,0.0019580742209649735,0.0025735456014313084,0.002947955936351296,0.00274154987883209,0.001804666078574361,0.0003012225069240784,-0.0013225801086981781,-0.0025150320441807055,-0.002856161893910342,-0.0022422938374652103,-0.0009346334054880991,0.0005442090488885513,0.001613502458657309,0.001848178813022494,0.0011212347323403854,-0.00036722472853705033,-0.0021702226735374652,-0.0037468849346909126,-0.00463590415617951,-0.004594423722470686,-0.003658132484218297,-0.0021050935665600404,-0.00034158458187952636,0.0012427269656491748,0.0023941112730231063,0.0030466884983590494,0.0032951639384905342,0.0033100695774989867,0.0032400451142843034,0.0031474809398818375,0.0030031776470414552,0.002733053226895284,0.0022832199948537,0.0016635329983587265,0.0009462164287103267,0.00022462931090704691,-0.00043902274209369006,-0.0010423431664263458,-0.001628095927964401,-0.002234033088800342,-0.0028390316516007574,-0.003342841009098145,-0.0035982807355520435,-0.0034822353129781757,-0.0029659003427818208,-0.00214277040040595,-0.0011962415438643962,-0.000322701977556902,0.00034946572753589267,0.0008027982035976806,0.0011147772556724931,0.0013945806094245268,0.0017096035767270056,0.0020429878856637303,0.0023041976332409558,0.0023837369060606553,0.002218756187302718,0.0018320110433625936,0.0013231914097103074,0.000818320656381607,0.0004051773712080456,8.976218685471661e-05,-0.0002020400487075431,-0.0005764332594273586,-0.0010999995266882832,-0.001740626366698248,-0.0023542125025526463,-0.002730289407859201,-0.002680894379352964,-0.002133636967902335,-0.0011844195275856875,-8.05640785528916e-05,0.0008655917483926354,0.0014004157637379018,0.001435783095097327,0.001085803772913245,0.0006101024505438251,0.0002878414826465497,0.0002858239593451991,0.0005890115161582156,0.0010268390338406743,0.0013745232947062597,0.0014689500348180778,0.0012768362148027064,0.0008861764673871943,0.0004369945134513897,3.758974095577979e-05,-0.0002860292422495607,-0.0005835524623686226,-0.0009261409934355025,-0.0013394479713629795,-0.0017642205964587211,-0.0020689369674433693,-0.0021102524122565075,-0.0018102112820950953,-0.0012083807136758647,-0.00045836226128411406,0.00023406585364888106,0.0007034466512617778,0.0009016744692897801,0.0009171015364192835,0.0009202502895329135,0.0010604626404522933,0.0013691501679821312,0.001726860885823514,0.001918155104744697,0.0017486850330516758,0.0011628002333376485,0.00029759455540310066,-0.0005601004291455251,-0.001099652095538665,-0.001137642733234496,-0.0007168801265605741,-9.631244902205769e-05,0.0003694473423381428,0.0004000755067598374,-8.012717295229435e-05,-0.0009153670252599734,-0.0017990793294389283,-0.0024125235261386597,-0.0025525927860999727,-0.0021972850252823624,-0.0014922440377626361,-0.0006748427767554917,2.7528424620486448e-05,0.00048350427782903305,0.0006958120937768682,0.0007790995268270492,0.0008903341506005709,0.0011450972328755178,0.0015589228347345555,0.002039950925091792,0.0024335346173973574,0.00259421594082577,0.0024486999114687385,0.0020208812558415506,0.0014116793111943235,0.0007495205607787191,0.00013899335818978037,-0.00036926993480841013,-0.000779699529333769,-0.0011313307423647992,-0.0014698274207160071,-0.001823181248525836,-0.0021860121375851358,-0.0025140171016911125,-0.0027304904284906994,-0.0027468068761849675,-0.002494377066338688,-0.001957802442156668,-0.001193702635171412,-0.0003229353498975479,0.0005042291929441467,0.0011567403375100393,0.0015647134699564545,0.0017369905391731765,0.0017472005950915051,0.0016944923808749018,0.0016560580258281204,0.0016530753228514985,0.0016469716455866144,0.0015689263000768239,0.0013672503061079929,0.001044851518121336,0.0006623856637193949,0.0003028229911646093,1.8227421138822864e-05,-0.00020734149377519547,-0.0004528323452223083,-0.0008113466611339671,-0.0013221685594899724,-0.0019227086725701757,-0.002452593493403612,-0.002715388962214794,-0.0025700107864852243,-0.002003855442877919,-0.001147046524555823,-0.00021878828476077034,0.0005662718678248715,0.00108338771845,0.0013333698692629629,0.0014156491856286402,0.0014589938219075889,0.0015499157682703144,0.0016954243894068731,0.0018337379102222294,0.001878883631584846,0.0017695720076222146,0.0014961984493844804,0.0010962104516074518,0.0006256853059608131,0.00012547845840748563,-0.00039855113826461853,-0.000968825981995509,-0.0016037277021059178,-0.0022762691327295067,-0.002890723120907074,-0.0032995498145455505,-0.0033608111254478795,-0.0030083437147789436,-0.0022936528222484358,-0.0013720441491300963,-0.00043825140467889626,0.000353480486277791,0.0009424174956001001,0.0013625286131825273,0.0016967137201632063,0.002013529113844552,0.0023226891309271677,0.0025719326571965336,0.002682158092643918,0.002596133905858583,0.002311920377384315,0.0018856803825386959,0.0014074213900554348,0.0009641429108310535,0.0006050680659568309,0.00032000610947548647,4.000769429247865e-05,-0.00033392871328807145,-0.0008795107207913581,-0.001600633079751616,-0.0024027861863919952,-0.0031145606190341826,-0.0035491583334550042,-0.00357848379777768,-0.003186293871557367,-0.00247655765040962,-0.0016320459856518786,-0.0008394046167222248,-0.00021377066163681463,0.00024024127394481906,0.0006099172798646833,0.0010074761653248662,0.001492672408422378,0.0020300796768725426,0.002505010591403478,0.00278550041199917,0.0027906703823693743,0.002526224631637573,0.0020731162041326867,0.0015448830977995702,0.0010421327966796572,0.0006247424256383,0.0003054460152812586,5.725565643625256e-05,-0.00017323511234057553,-0.0004493314182423703,-0.0008237867033327158,-0.001315399410734283,-0.0018886879347326708,-0.002447376789326685,-0.0028523944411787726,-0.0029665293403968044,-0.0027120013150765216,-0.0021132678845180303,-0.0012977164112758038,-0.0004462274313217729,0.0002849769117155735,0.0008287850319555149,0.001219383546163172,0.001543941566413937,0.0018645958261847928,0.002162323325407542,0.0023407159433920747,0.002288102269199121,0.0019579231232994963,0.0014151977004899139,0.0008177747890760437,0.00034025737634793546,8.212833345575357e-05,1.1458959867129896e-05,-2.239920101488463e-05,-0.00020967679949761764,-0.0006729283135912085,-0.0013872978246514398,-0.0021728042120247124,-0.002767539730498855,-0.002947847624171158,-0.00263423386078371,-0.0019267449986886843,-0.0010509697601125913,-0.0002457952123547928,0.00034378333836046753,0.0007118080773577326,0.0009573990601622927,0.0012010607305497868,0.0015044994442249696,0.0018372884711174277,0.0021010698238431405,0.0021891606923303427,0.002044923338432628,0.0016901531622800245,0.0012149976936934991,0.0007390399345078515,0.00036135401126045273,0.0001176621315156229,-3.946206943132466e-05,-0.00022556804964088918,-0.0005728812718161155,-0.0011577971106898903,-0.0019390125357690875,-0.0027419851199652545,-0.0033095213196288314,-0.0034058059973733155,-0.0029278032301277334,-0.0019654061341016727,-0.0007730949952346835,0.00033724629606128625,0.0011280111788015228,0.0015239399209356005,0.0016149808456164783,0.0015819217513373765,0.0015933177045358384,0.0017295547420131578,0.0019643443834528084,0.0021976248471239,0.0023112297887512593,0.0022185745568383194,0.0018931613882686238,0.0013736787267353613,0.0007487814536743467,0.00012514327192062163,-0.0004150334990070437,-0.0008531787803856938,-0.0012487282016136303,-0.0017103758215940886,-0.002326105309950127,-0.0030837141025216734,-0.003831990519779882,-0.00431984283825448,-0.004306501906358657,-0.0036866060447521415,-0.002555839839040717,-0.0011736420290242655,0.00015838895899873912,0.001232197970692271,0.002006316266006413,0.002580148647757004,0.0030928535528053957,0.00361176012735882,0.004077054541545529,0.004333252121851187,0.004225440275115076,0.0036996415655516385,0.0028452466955478433,0.0018552317498513181,0.0009327422243973165,0.00020405531897752,-0.00031384750069412214,-0.0006856502370156211,-0.0010024368222127204,-0.0013371990403306519,-0.001727637018949112,-0.0021783675726213337,-0.0026675935591034526,-0.003152314637223179,-0.003575677772399582,-0.003878516350841196,-0.004008682563703175,-0.003920241594152059,-0.0035659237051594217,-0.0028993389211345037,-0.001900965951077613,-0.000620101002684126,0.0007986510119352009,0.0021365501657147675,0.003172451142944459,0.003769407913948423,0.003925064858812945,0.0037563382966343483,0.0034302938380301397,0.0030834774720167185,0.0027728440775277555,0.0024770508603008255,0.002136109755398129,0.0016993489941335667,0.0011543795700042323,0.0005271979642471128,-0.00013796056502943038,-0.0008013247003684106,-0.001437497888233157,-0.0020274145050638045,-0.0025399202738475425,-0.0029192833998503568,-0.003093101046299104,-0.003001704264578457,-0.0026337416871679495,-0.002045655723877371,-0.0013508959675136328,-0.000681817818978235,-0.00014161442926142852,0.0002321670374740728,0.0004768941062246797,0.0006829466880639422,0.0009490253626697983,0.0013317948596754201,0.0018099976611621047,0.002280206655015925,0.0025916370869494493,0.0026102448999081674,0.0022831670678044105,0.0016669898502465795,0.000899041247765559,0.00012543137667600266,-0.0005696994777338074,-0.0011869515206276175,-0.0017711128326071376,-0.002336520289763524,-0.0028135894403960872,-0.0030598487082948876,-0.002935661612653528,-0.0023989289409657166,-0.0015559763396180122,-0.0006304123474672896,0.0001376207512996522,0.0006058927575385511,0.0007932206607618566,0.0008556872778199356,0.000989644554715906,0.0013161374679572055,0.0018111815134830911,0.0023193774110072986,0.002640217232770803,0.002635825931604905,0.002299859002607626,0.001753478098573567,0.0011771012898847285,0.0007189757026621831,0.00042726560919161016,0.00023449648955310812,-3.049447854576101e-06,-0.0004301036507501423,-0.0011129462812659355,-0.0019897510876690544,-0.0028755634685947305,-0.0035254264929105257,-0.003731762803013232,-0.0034118881491503493,-0.002642468266324723,-0.0016235948817433404,-0.0005927137383165808,0.0002659115783343974,0.0008736153068556109,0.0012559724555566926,0.0015015653161608387,0.0017081091863275577,0.001938033693215623,0.0021933795705836078,0.002411996138127203,0.002485644661045153,0.002299962015453178,0.0017901152830259288,0.0009938382822608995,7.243098610771259e-05,-0.0007275123485689131,-0.0011740997820311252,-0.0011729730567179675,-0.0008425109479382605,-0.0004806046098464942,-0.00042045668053631896,-0.0008468697828913912,-0.001680430446773819,-0.0026031986670264073,-0.003215115614819149,-0.003232090884573966,-0.002615889435392331,-0.0015721504295543346,-0.0004314580314268118,0.0005115211034059377,0.0011162009418765073,0.0014237643499592648,0.0015995675242055716,0.0018325785215475548,0.0022414806061182638,0.0028211032197263974,0.003439984483902213,0.0038834530800148986,0.003929197833716369,0.0034365975556397512,0.002420528541880839,0.001071480501446424,-0.0003052109448409071,-0.0014181082689699175,-0.002123851263639234,-0.002485382159824306,-0.0027102688317061953,-0.0030008800568157514,-0.003409719255090456,-0.0037942053531524115,-0.003901713459917293,-0.0035303721178546587,-0.002662596050969525,-0.001488956885437469,-0.0003129350393855299,0.0005995770356014368,0.0011360151123626918,0.0013596085594853539,0.001440749976553709,0.001547968185466611,0.001760464963256421,0.0020409701541186163,0.0022711696473826236,0.0023233182150749626,0.00213020876254528,0.0017202463967283424,0.001200973011052955,0.0006991277537271195,0.0002901269775599728,-3.9661766789067434e-05,-0.0003701585210246285,-0.000774309496467817,-0.001241109533496303,-0.0016505220598644664,-0.0018263104131555877,-0.0016410654398884186,-0.0011079444124964706,-0.000395137375528838,0.00025483200926306154,0.0006559990430593213,0.0007780406529684844,0.0007484179580391543,0.0007545244752524101,0.0009085280311001817,0.0011624640062360145,0.0013295135855958507,0.0012010258817542257,0.0006891528572857826,-9.304391577141349e-05,-0.0008680110455747574,-0.0013329163006259867,-0.0013252142449491954,-0.0009186479465788317,-0.0003917857202906374,-8.503237325288636e-05,-0.00022591863407148886,-0.00081711576170948,-0.0016412073731634617,-0.002369878630093862,-0.0027137402022377717,-0.002538016562622619,-0.001897231698190799,-0.0009871729573926065,-4.932481325329078e-05,0.0007237718263551641,0.0012444986712519188,0.0015336750856965976,0.0016815686373374385,0.0017909018148937865,0.0019287164318500215,0.0021054705987626787,0.0022846862617563113,0.0024116653527670555,0.0024424657380012053,0.00235788417856326,0.0021586403338998317,0.001849747086538339,0.0014271711778304436,0.0008763883705366941,0.00018409963643869703,-0.000642891851079052,-0.0015604113327071468,-0.0024789928677357493,-0.0032707445757346257,-0.003793593340425622,-0.003930400975243161,-0.003632310523341952,-0.0029482691774967915,-0.002022724511475491,-0.0010546871521270314,-0.00022990889417845656,0.00034588726893190053,0.0006808396088393736,0.0008786337835220234,0.0010741770040720749,0.0013552895556087326,0.0017129914185331524,0.002048383186389707,0.0022308797496135694,0.0021721184077613444,0.0018728489530597952,0.0014194945971869265,0.0009370528934437986,0.0005259489134567322,0.00021393967221716226,-5.5594835878921374e-05,-0.0003930092179561806,-0.0008998658295347485,-0.001599387818673996,-0.002392133339113159,-0.003063968860757856,-0.0033541792143638454,-0.0030637857024887983,-0.0021598424418953523,-0.0008241685557640749,0.0005877359213826367,0.0016736589005964897,0.0021496996022932037,0.0019779332809015606,0.0013896028430389752,0.0007840921040198766,0.0005478931353810094,0.0008803380888795594,0.0017079488924996848,0.0027221779113935024,0.0035157421949508195,0.0037516984862571044,0.003292199488050273,0.0022376596037755113,0.0008676488220472113,-0.00048468197418298855,-0.0015667955549943683,-0.002290065329967452,-0.002728048928952774,-0.0030383291832054905,-0.003354513489300686,-0.0037061510827611525,-0.004003208317003382,-0.004084092976791266,-0.003796009101107371,-0.003067936357969048,-0.0019474464766374676,-0.000591439269590654,0.0007813357967654816,0.0019548749544955075,0.0027712527800009467,0.0031579047914626775,0.0031266803243263637,0.0027602134131383717,0.002199174182434018,0.0016262198617436768,0.0012293606004183065,0.0011379400999274255,0.001354424922055232,0.0017275060911568444,0.0020002805141922236,0.001922679962279454,0.001371645839533921,0.00041213550652198765,-0.0007337138406346335,-0.001787825332457646,-0.0025296824181984022,-0.002865669768464067,-0.0028307364248214527,-0.0025377976920770073,-0.002112320043876225,-0.0016468296854733563,-0.0011897906803830032,-0.0007601209277558127,-0.00036652801906705086,-1.5590108575231493e-05,0.00029233924667220607,0.0005685989254936096,0.0008333270801320476,0.0011050303612289802,0.0013916028605832336,0.0016892944216695851,0.0019862717071732973,0.0022611835876573147,0.002472084823193233,0.0025439109279005545,0.002372023928927059,0.0018549115209077452,0.0009502385725511001,-0.00027350968041524917,-0.0016251951164962981,-0.002837569185903251,-0.0036574295881898816,-0.003937230098843402,-0.003683574738478882,-0.0030412975371993498,-0.002224689696706264,-0.0014308388172128178,-0.0007739141931922169,-0.00026519672466599284,0.0001591969317517526,0.0005819235031296796,0.0010491645998186863,0.001542883992099541,0.0019910074746088283,0.0023055308836324945,0.002424980753986567,0.0023385651965809285,0.0020830069915448376,0.0017192854352354378,0.0013046865921060883,0.0008728969927221418,0.00042737678720275636,-5.179568482962675e-05,-0.0005889830108713826,-0.0011858689857061765,-0.0017961538485823814,-0.0023174391032058854,-0.0026124991663309806,-0.0025574479993543116,-0.002095932456514853,