6.869879376719539e-05,-0.00805390287368307,-0.014707513831401061,-0.019031900921467285,-0.021064692890748,-0.021575758316717597,-0.021547987525256513,-0.021604806239427482,-0.021705929386608452,-0.021263310940390266,-0.0195749258388897,-0.016295545812104646,-0.011667376774647555,-0.006401907219414218,-0.0013190219217358145,0.003021459484141117,0.006482425168529541,0.00923795375651416,0.011493314144120921,0.013240331944664832,0.014217579821397203,0.014101956844238542,0.012798811702466077,0.010625673495997474,0.008247801201754246,0.006380952809602911,0.005426045994910637,0.005248991047604842,0.005241048748388585,0.004639121051133189,0.0029395960820655298,0.00018410324230126642,-0.003036638635894178,-0.00585909372822475,-0.007547587634395532,-0.007803738214958448,-0.00683644748509885,-0.005189771986083047,-0.003454647846905831,-0.0020291315874649946,-0.001032677688950066,-0.00037425655872515805,0.00010879283142570164,0.0005403710249234318,0.00097505899147115,0.0014289047478646937,0.001912036428460876,0.0024172459716218404,0.0028712832460067203,0.0031021977789415065,0.00287634012094832,0.0020084203237273335,0.00048502705218634494,-0.001481489419930497,-0.0035120514945370723,-0.00520129620513382,-0.006257157275521969,-0.006568310803309876,-0.00618503859855785,-0.005251826516497923,-0.0039425571979091615,-0.0024251950075433334,-0.0008517984022933338,0.000644214744855817,0.0019556577853294703,0.003012921706130715,0.0037903352369929753,0.004300713480086019,0.004578736992192144,0.004660511228151582,0.004568826894531636,0.004310984848205248,0.0038898897450717405,0.0033213460942777876,0.002644588930894776,0.0019142072379763609,0.001172863273707332,0.00042107695796720875,-0.0003898107786911955,-0.0013245183890782412,-0.002400494401682856,-0.003531392506619229,-0.004519509534381528,-0.005114540462648202,-0.005115792527848884,-0.004466552137969314,-0.003291623719889323,-0.0018590260928075667,-0.00048379240280113764,0.000584770252815838,0.0012481724447423123,0.001584480313234513,0.001803157058361215,0.002141199681005644,0.002736983829000483,0.0035356785758505443,0.004278677788751484,0.004599422066551995,0.0041942411680582475,0.0029861504288500383,0.0011886515451849677,-0.0007758816341511591,-0.002464372902457305,-0.003602018482515576,-0.004165330839664242,-0.00432080358585598,-0.004271325817589362,-0.004113913821807745,-0.003794280916129277,-0.0031747582753946842,-0.0021608074403497795,-0.0008013641744755739,0.000697918869239797,0.002052732267549029,0.0030209004803766664,0.0034977749074312655,0.0035383958808899107,0.003302752726707112,0.002961713743382221,0.0026173166810896397,0.0022758609520778864,0.001877682147806135,0.0013557863091926896,0.000684762309951865,-0.00010510811286494073,-0.0009475223817755914,-0.0017715571911502688,-0.002519310775658002,-0.003139116159798299,-0.003565643074788367,-0.003711129751052312,-0.00348530178737944,-0.002839419536049501,-0.0018091917641129157,-0.0005277991849439434,0.0008037087893769535,0.0019769915512415958,0.002838953312916696,0.0033272550293833095,0.0034667794860119843,0.0033370791980178974,0.003032692843124649,0.0026336357702095173,0.002190210341523354,0.001717852144394116,0.0011993136500419554,0.0005964849490956261,-0.00012676036557609014,-0.0009771389051031164,-0.0019131134575515922,-0.0028454970497589454,-0.0036576975736906927,-0.0042351337683403665,-0.0044906488811208775,-0.004378535834184745,-0.003897862485335574,-0.003089850644941064,-0.002032884799726285,-0.000835270162554847,0.00037649499682768767,0.0014756898038121948,0.002358194408422927,0.0029647126379170746,0.003294163540753409,0.003400144787201145,0.0033668333569307615,0.0032702570631900686,0.003142269249135016,0.0029589192048953446,0.0026642634250879874,0.0022179765511057,0.0016357524727275824,0.0009919665550158095,0.00037764030115293445,-0.00016139283337349543,-0.0006639133387635948,-0.0012387826943678257,-0.0019972590074783434,-0.0029664872866215757,-0.0040331743074864205,-0.004954245291402808,-0.005438295845035219,-0.005264235425508183,-0.0043812168154841475,-0.002940179154093124,-0.0012406206968041853,0.0003812373224261267,0.0016690141832044437,0.002515437854339962,0.0029603687071633085,0.003130502254003913,0.003159360632339815,0.0031286618514351746,0.003052911112074075,0.0029018785376833884,0.002637849588835385,0.0022449258224030016,0.0017405813135039025,0.0011716651816631707,0.00059992033774159,7.969690088614344e-05,-0.00036787897540349905,-0.0007723256544356779,-0.0012061028964550405,-0.0017438307551638304,-0.0024020368934463882,-0.0030933502086220328,-0.003631007490595287,-0.003796057994195381,-0.0034409950933419753,-0.0025742138460502348,-0.001373291402910272,-0.00011445894381304617,0.0009439437825963662,0.001659900427600485,0.0020389273784611815,0.002191732903583021,0.002251750712578205,0.002300075806380383,0.00233264369658618,0.0022786360316007716,0.00205413706741067,0.001619429579217934,0.0010074687154344028,0.00030752122793158485,-0.0003844641089869187,-0.0010144719904908739,-0.0015823031741499047,-0.002105171179243406,-0.002557822774097854,-0.002837429784493979,-0.0027916790081534562,-0.0023069532801472323,-0.001406404371288435,-0.0002891752088701378,0.0007302090783991954,0.0013622176254433403,0.0014864326619648557,0.001212509117352049,0.0008177846704560399,0.000597143727634811,0.0007136974584117878,0.0011329236399057587,0.0016659616346842597,0.0020827528930195587,0.0022246775276943266,0.002060751523929749,0.0016719188352626439,0.001185859102122806,0.0007024805912410132,0.000246371671360651,-0.0002350120252087596,-0.0008299573321842768,-0.0015982719195861863,-0.0025145502739970377,-0.0034479214688938314,-0.0041926208524796045,-0.004539505453544673,-0.004356947806173961,-0.0036439860278674515,-0.002532593918995854,-0.0012398007998967188,9.088766270256535e-06,0.001054759511440846,0.0018455579546757608,0.002429474194718723,0.0029017083778415183,0.003335376952766367,0.00373153615725374,0.004013400444837296,0.004065640004444655,0.003797306517314536,0.003196839853111156,0.0023520493517804556,0.0014236143849931443,0.0005816626392890249,-6.676759353452678e-05,-0.0005252103547237393,-0.0009060780720386107,-0.0013773103818588521,-0.0020771425020452653,-0.0030308869258697546,-0.004106571331608012,-0.005036777621703929,-0.005510115972133402,-0.005301082970225858,-0.004378269437595703,-0.0029312268062652823,-0.00129481557095903,0.0001927421451998938,0.001322623113518594,0.0020694923170628335,0.002545649465226033,0.0028934988284820898,0.0031876605416254807,0.0034045181408169168,0.0034676244174329995,0.0033265377470148346,0.0030085962463714407,0.0026079855552924368,0.0022237753092678152,0.001893483521620438,0.0015681061846183084,0.001143005216402707,0.0005220717101682152,-0.0003248526591604335,-0.0013414906785338516,-0.0024055551713751643,-0.0033706773149275037,-0.004104273334026629,-0.004507273221803668,-0.0045184753720793214,-0.004115013269230617,-0.0033174383911004544,-0.0021992063490812444,-0.0008926443971253187,0.0004203852902186472,0.0015426713500425277,0.0023184929337146465,0.0026917415563390387,0.002730862182400282,0.002596001623702101,0.00245754796156452,0.0024099869088048394,0.0024315178020520925,0.0024107369294066013,0.0022188297563522194,0.0017803593530867814,0.0011030819183280875,0.00025832138290735973,-0.0006643145248846063,-0.0015911337226299574,-0.0024642604220850815,-0.003214139720206075,-0.003736152169185264,-0.003902308174233481,-0.0036124140794410024,-0.002856656338056206,-0.001748208403437305,-0.0004998850287047325,0.0006483829431478057,0.0015161762616892204,0.0020409155249663624,0.0022813547321523906,0.002367914131976597,0.0024265991999892493,0.0025136720309968824,0.002590537244056316,0.0025472468448474576,0.0022595223040982196,0.0016504049476716762,0.0007299866508358133,-0.00039881571010657034,-0.001564961959086453,-0.0025730229352563462,-0.0032532379884417867,-0.003504634253370867,-0.003317013668022978,-0.002762180770696141,-0.001958419500158443,-0.0010278775984651437,-7.081684039088386e-05,0.0008328880499531906,0.0016072602763536011,0.0021737712134191215,0.0024699942612826497,0.002482544129538713,0.0022646195264828077,0.0019152902424186323,0.0015264701109387218,0.001130838245459268,0.000687140257867989,0.00011527257526722375,-0.0006393914118288137,-0.0015505950414279274,-0.002494452592356411,-0.0032766812311223665,-0.0036884690823627835,-0.003570118035912411,-0.0028664842373038895,-0.001661606477170423,-0.00017779874177184353,0.001273966499148885,0.0023889815028937016,0.002976871445152834,0.003030553872076812,0.0027146665067323745,0.002274327795649165,0.0019121994245059413,0.0017001493874947825,0.0015683059805606954,0.001366368399708102,0.0009531599608654502,0.00026457231630295955,-0.0006649866802509086,-0.001720584325664059,-0.002741686438060521,-0.003556807991246352,-0.004013385005268334,-0.004004605134234112,-0.0034927120869588054,-0.002524114771782412,-0.0012302041869609928,0.00019122275232912584,0.0015159247836059285,0.0025489480841054406,0.0031787664335365924,0.0034048735039407287,0.0033211503674391695,0.003060120852161631,0.002727296371498776,0.0023615534922437837,0.0019401351973923368,0.001417301699787226,0.0007654672242729753,-8.570216837719283e-06,-0.000875643351793309,-0.0018031233685880687,-0.002754889090972053,-0.003666770423145162,-0.00441962671460936,-0.004842573191683623,-0.004761330479743743,-0.004074330384923539,-0.0028168669712173786,-0.0011768418186383224,0.000549960544049691,0.00204882920075787,0.0030851568584256426,0.0035757670947745936,0.0036037106220916087,0.0033677514286036886,0.003085541661437662,0.002894115284510657,0.0027969069818243775,0.0026844772839171955,0.00241584193576128,0.0019125214734365256,0.0012101573421968441,0.0004377727442378912,-0.0002621471175968796,-0.0008233733232948192,-0.0012982043731547487,-0.0018220396999506895,-0.0025175683360928337,-0.0033950875809661872,-0.004310888655568825,-0.005012684810504061,-0.005249319068945249,-0.004883608927227218,-0.003946885945396212,-0.002611462257185703,-0.0011066680023771836,0.00036792781858705246,0.001687279474438108,0.0027927142484924982,0.0036533677798869174,0.00423293578216693,0.004486990059682604,0.004391395739988252,0.0039788773902901045,0.0033531601508190673,0.0026640371772528744,0.0020531411909558836,0.0016002744179150238,0.0012996652912745585,0.0010760707911754153,0.0008272554151897589,0.0004675937599640254,-4.7684822996644995e-05,-0.0007228618751189167,-0.001536381929918068,-0.002452002243501784,-0.003413891709059016,-0.004329242043188811,-0.005058528292555019,-0.005435888016435224,-0.005323260797867532,-0.004673140045705433,-0.003560334527173738,-0.0021591945780661233,-0.0006792456690750683,0.0007008307798869166,0.0018655540449016915,0.00275604415421423,0.0033475450989221057,0.0036386594573694035,0.003660624987162493,0.003490661412055272,0.0032444552932159084,0.0030364636922207483,0.002923384477544745,0.0028665160440086287,0.0027456856623071712,0.0024279449532546267,0.001854811601017585,0.0010907505840712657,0.00029314559733437475,-0.0003857035611247419,-0.0009035440828095652,-0.0013660774743031539,-0.0019623107287929644,-0.0028292179567874203,-0.0039286581023126755,-0.0050182084337584264,-0.005742581179288739,-0.0057985089672735295,-0.005081089062994601,-0.0037317955490720808,-0.002067813569312977,-0.00043915206847839055,0.0009068111005650016,0.0018890334885848863,0.0025678475497104124,0.0030622008865247036,0.0034626943632399933,0.003785018137553942,0.003978894617320868,0.003976406178317002,0.003745620344728081,0.003316985328131429,0.0027687892582168513,0.0021840713321780044,0.0016093717217678034,0.0010428812328010307,0.0004566673690997316,-0.0001683163114179468,-0.0008237849956436493,-0.0014850267372675415,-0.0021370124920334845,-0.0027872596275033417,-0.0034475374883094854,-0.0040937023558302,-0.004635073822086652,-0.0049235955510599436,-0.004808004969778908,-0.004206899763054023,-0.0031590446536517857,-0.0018201199055874273,-0.0004052911608463903,0.0008921995701058504,0.0019632178724837477,0.002795035058698921,0.0034333910236961232,0.003922909837283457,0.004263939673745349,0.00440947811098341,0.004299103439451904,0.0039056591661109094,0.0032662138551545,0.002480571753920588,0.0016787197749189417,0.000972835481356045,0.0004146829027315907,-2.4135365104040315e-05,-0.00044016572061026044,-0.0009561020453967952,-0.0016616508124311167,-0.0025593692297462564,-0.003540092609431461,-0.004403576688943206,-0.0049211502249789305,-0.004917679724180085,-0.004340018868129435,-0.003282908763978184,-0.001959712364042188,-0.0006286680740232364,0.0004944342437921564,0.001299969456300787,0.0017992632620336107,0.00208875036524601,0.002284723751358585,0.002461365290498055,0.0026205171314107553,0.0027046891276704156,0.002643149164623323,0.0024040680553035704,0.0020214642015387555,0.00157820865815289,0.001152347632849996,0.0007600527683006903,0.00033619784924290494,-0.0002265290422889789,-0.0009966512975585315,-0.001928074035186166,-0.0028383775627894587,-0.0034616873404672297,-0.0035552294584101523,-0.003009174671737729,-0.0019072248983023022,-0.0005090685650125622,0.000839011410530113,0.0018289038367818712,0.0022997994856401695,0.002285802220470955,0.0019802922870474082,0.001632108868798731,0.0014230040787064076,0.001387638863554337,0.0014149726778847134,0.001323504361332124,0.0009619143305289168,0.0002786077148779237,-0.0006682532616157802,-0.0017475578971788805,-0.0028024834051282852,-0.0036791674567970833,-0.004234999502678461,-0.004346498853014032,-0.0039350922436059525,-0.0030068365139021384,-0.0016797435247715288,-0.00017049088061311252,0.0012655641380888696,0.00241695514253788,0.0031806693866731177,0.0035764836266694144,0.0037064096526374128,0.003684689882068328,0.0035789775076644974,0.003393791129501077,0.003097462355855418,0.0026636288198183854,0.002091522579561982,0.001392135990583715,0.0005603914231315419,-0.00043181487427530296,-0.0016028791655924302,-0.0029044026840370323,-0.004181079679851255,-0.0051865020174638775,-0.005662376853652481,-0.005447435714398298,-0.0045583549473833295,-0.0031955267303116477,-0.0016667291931042828,-0.00026687141012946984,0.0008260170397008704,0.0015910846141850678,0.0021297987912821865,0.002581112507461581,0.003031848939342738,0.003465859275544642,0.0037754689965436156,0.0038278868894193394,0.0035499897460430337,0.002982534041529372,0.002269077924528516,0.0015810088741317213,0.0010189433865216257,0.0005488756371584166,1.5350869345775618e-05,-0.000769147550229557,-0.001903853252294015,-0.0033123973704669244,-0.004735814970576676,-0.0058130207860211825,-0.006214502783329776,-0.0057712480396827585,-0.0045436141491428115,-0.002801326593789738,-0.0009237212293904242,0.0007375042966138224,0.001975318743581722,0.002774471471986846,0.0032691156124602227,0.0036341047985993676,0.003969346450921696,0.00424314786613504,0.004326609961711721,0.004093595158273343,0.0035183233301760634,0.002706488149721996,0.0018424909308675094,0.001090010572486034,0.0005087498637206408,3.426031465378256e-05,-0.00047403305809163275,-0.0011498414766759563,-0.0020478244935560126,-0.003112680789642033,-0.0041931604127753725,-0.005085527232780016,-0.005587297972025699,-0.00554799201484546,-0.004909113622860992,-0.003726230497057295,-0.002165147794422755,-0.0004676396391496731,0.0011081132827321643,0.002355349041625569,0.0031706331297912255,0.0035686269141246337,0.0036525206283822683,0.003553361106086018,0.0033683028657884263,0.003129650644058833,0.0028188666766394747,0.002411158369206196,0.0019159557580287626,0.0013825167363382437,0.0008665585213102476,0.00038370972276089907,-0.0001131284083236265,-0.0007101247345980615,-0.0014705247787332291,-0.0023690818642704563,-0.003264467141153254,-0.003933058386472999,-0.004154090224289012,-0.003806387367526972,-0.002927852036946183,-0.001706370575559125,-0.00040614935601924584,0.0007328876734017662,0.0015728075513356916,0.002098640819757046,0.002381819125215241,0.0025146881200744835,0.0025546418339570465,0.0025045521900806606,0.0023322221739004146,0.00200987430358069,0.0015462119800214206,0.000991329517319073,0.0004130299874852191,-0.00013902108691432754,-0.0006575865633965316,-0.0011737998813290092,-0.001724761060837618,-0.002310335711346756,-0.0028655971450789377,-0.0032695603377692396,-0.0033912802658675454,-0.003150909891301203,-0.0025611359493904196,-0.0017238647842684014,-0.0007839426698529302,0.00013181049936085098,0.0009544733248830637,0.0016722043436556233,0.002296662691959693,0.0028242816045990268,0.003219740888638037,0.0034308950845062317,0.003421894302631588,0.003199362894295505,0.00281247357675649,0.002326849591496789,0.0017909207657190018,0.0012179312821139552,0.0005936454033244859,-0.00010003234455886571,-0.0008646445695383651,-0.0016790667792838364,-0.0025035800821536624,-0.0032834458777598646,-0.003948146342739108,-0.004413131685575118,-0.004592982525687004,-0.004425732053701578,-0.003896529880289409,-0.0030460500396679966,-0.0019582334923163784,-0.0007357256695491127,0.0005215218828663667,0.0017240361063467682,0.0027890725507547544,0.00363689226638537,0.004197406168364856,0.004427199786092212,0.004326714490952437,0.003945529189057466,0.0033705441970927254,0.002700965342533053,0.002019421877023945,0.0013694145910876025,0.0007473478254997486,0.00011321017516865994,-0.0005827547207776136,-0.0013674408253796003,-0.00222025132561308,-0.0030675736501031225,-0.003798934660550974,-0.004297707995673502,-0.004473724638354487,-0.004286215191030211,-0.003751200307659696,-0.0029338156965751177,-0.0019306733973800307,-0.0008495071499142854,0.00020770776537204223,0.001156336679541259,0.0019380767659459483,0.002529465890479167,0.0029454312690491134,0.003228442559968187,0.003419913400966151,0.0035267023917113726,0.0035077195765933766,0.003298359584826876,0.0028636396145389304,0.0022438855183971257,0.0015539283563239356,0.0009255905884412774,0.00042534658986446473,2.7946304576686564e-06,-0.0004892651731757329,-0.0012077897470938658,-0.0022146723722021667,-0.003415694230867731,-0.004577868061302166,-0.0054144273085895735,-0.0056930183255871035,-0.0053172264316157436,-0.0043506118100608455,-0.002981336353441478,-0.001450309160973522,2.258892238261672e-05,0.0012851651684039319,0.0022624936054978484,0.002940197015920587,0.003341458528435775,0.003511422016633345,0.003508625592340729,0.0033942522620301055,0.003213835820268287,0.00297906925226218,0.0026665000415899316,0.002242876237445413,0.0017052636443786152,0.0011057618243376698,0.0005352381933218586,6.909940364443595e-05,-0.00029039050386381657,-0.0006321006253235718,-0.0010937681852817892,-0.0017774640525302556,-0.002669417775369121,-0.0036118185417651286,-0.0043476958165760745,-0.004621238820435368,-0.004285880190666923,-0.003367507953043133,-0.0020534558147014205,-0.0006162961088936676,0.0006873358668606132,0.0016952091213391087,0.002364652674515879,0.0027430369057617737,0.0029082491756377716,0.002915382039846487,0.002778076149144346,0.002489603754868715,0.0020631104232709243,0.0015587231151856353,0.001074877417991462,0.0007051494615682792,0.0004847376371990409,0.000359333250840817,0.0001987966642646507,-0.0001457670473093081,-0.0007671283411552375,-0.0016457136969451652,-0.002640406014433887,-0.003532604215971404,-0.00410466449842804,-0.004217289446615296,-0.0038508004253692417,-0.003093686234246674,-0.002089513239446362,-0.0009744715134913547,0.0001606370698503855,0.0012690070841645056,0.0023178462273980623,0.0032558370882634583,0.004001077621285808,0.004457343765533986,0.004550469497677068,0.004266875761966325,0.003674440789208762,0.0029117077107754068,0.00214372063875584,0.001497977138790336,0.0010062588209171794,0.0005815071546520313,4.914108192372556e-05,-0.0007706835183382813,-0.0019610326063921974,-0.0034343631474909133,-0.004928130076558863,-0.0060814418617314335,-0.006566131036586093,-0.006217071540953162,-0.005101816945661385,-0.0034940219316254894,-0.0017607801150821098,-0.00021836562993305265,0.0009729701120180837,0.0018281418975879772,0.0024722147141206592,0.003036580882323828,0.003575173354541675,0.004039874470063041,0.004317587622351592,0.0043001384630221,0.00394727676994556,0.0033133521675663704,0.0025291403559878677,0.0017494836273675579,0.0010887905770216749,0.0005701370701923325,0.00011093201574308847,-0.0004420695645919706,-0.001234392381160997,-0.002311672325576255,-0.0035596017072566525,-0.004715767091944892,-0.005459799459746529,-0.005543553575203098,-0.004896212064201199,-0.0036506709813147907,-0.0020814758234068585,-0.0004922844621207503,0.0008877343980683507,0.0019538252538231484,0.0027129216174555182,0.003231010795464693,0.00357482041094036,0.0037739577911414172,0.003813218562640887,0.003651107179013344,0.0032536629741766014,0.0026298072133790415,0.001852373038735489,0.0010496096613885704,0.00036098650195399713,-0.0001297214766594217,-0.00045045201596329444,-0.0007463693987501042,-0.0012155072815012175,-0.0019962009688968023,-0.0030655596572669508,-0.0042133455850810655,-0.005116967094470978,-0.005481425978615482,-0.005165447555325562,-0.004224305016229847,-0.0028557190179125712,-0.0012965668704219787,0.00025951966028504457,0.0016831060744703602,0.002881720554923273,0.0037715360386742967,0.004284260892505111,0.00440416151604338,0.0041968558026436315,0.0037949454362259287,0.0033406607955397643,0.0029210695327295142,0.0025381152819812353,0.0021304348023866663,0.001627940493224533,0.0010001908792262222,0.00026801651375203954,-0.0005232541724752848,-0.0013423151227329284,-0.002187609179542949,-0.003063857325608316,-0.003934399791265869,-0.004686584236678712,-0.005143847484783325,-0.005129415119725481,-0.004550922166186192,-0.0034572724081640203,-0.0020326331065155592,-0.0005296100930351498,0.0008210812772161003,0.001877758435375281,0.0026054433273860612,0.0030495247578278682,0.003290281451845383,0.0034016617857445647,0.0034254413100511553,0.003362790589503898,0.0031828933812286016,0.0028464268559121276,0.0023356656096898726,0.0016759760665128053,0.0009335372074461888,0.00018575767763232118,-0.0005205580832575387,-0.0011949949096013669,-0.0018890778973647006,-0.002641202177178702,-0.0034117372393678938,-0.004055392300226123,-0.004362242442640981,-0.004155804036081715,-0.0033943355598306355,-0.0022122810284946055,-0.0008723549872963688,0.00034678199328340914,0.0012641241824461777,0.0018503067762371769,0.002199430908053222,0.002444352214002347,0.0026698044481166232,0.0028720793685416725,0.002980476490352264,0.002917228216190299,0.0026532615911109723,0.00222637262033084,0.001715600504852332,0.001191010642681366,0.0006690406361503462,9.972726240818858e-05,-0.0006022120117122631,-0.0014924358547539014,-0.0025313945069476373,-0.0035610267281089084,-0.0043487108695178245,-0.004682286143279689,-0.00446329420814214,-0.003743669411360986,-0.002688026266034855,-0.0014913913467202518,-0.0003050833238220578,0.0007913879476074697,0.001770059849203804,0.0026120840370456085,0.003275685548447269,0.0036945370688231905,0.0038064024236792735,0.0035938605627942486,0.003110640006181,0.0024739575215025006,0.0018229100112276925,0.001263189267164658,0.0008258011055281515,0.0004588565517761102,5.492853546240041e-05,-0.0004976421496055414,-0.0012581426396533445,-0.0021915524947432085,-0.0031587386644203195,-0.0039486527249282324,-0.004347683856307783,-0.004222419153612872,-0.0035790963254356137,-0.0025676356351450515,-0.0014229637802205194,-0.0003692424423530775,0.0004664341791055104,0.0010881318421347285,0.0015962220695762068,0.002101824379518281,0.002637114050271474,0.00311525893993628,0.00337065746848056,0.003262577859296452,0.002779538009178556,0.0020720209279438085,0.001382045445485772,0.000906561796677381,0.0006795631074412176,0.0005494096966342102,0.00026832963874299766,-0.00035851482592822787,-0.001351292635801204,-0.0025281459332928795,-0.003581906369238595,-0.004213403252514588,-0.004249905510480757,-0.0036952939410589106,-0.0027014869873840663,-0.0014901709444770182,-0.00026987045886551174,0.0008161258760501322,0.0016984642879674064,0.0023567905277584547,0.0027840781520927843,0.002964447967284406,0.0028784813915601823,0.002531861614733307,0.0019853822604288837,0.0013580155589113315,0.0007875252209418293,0.0003617761132969341,6.138237045307389e-05,-0.00024154942886974302,-0.0007126953603796329,-0.0014438349006055701,-0.0023644384364727017,-0.0032350646714299205,-0.003737265602590175,-0.0036188379494230304,-0.002819402284267881,-0.0015099713926280582,-2.5978369475982023e-05,0.0012712546904999696,0.0021355637677013136,0.002513834292532934,0.002530494887848394,0.002395473634314334,0.0022873113519182105,0.0022699071833294825,0.0022797123790272086,0.00218293682375553,0.0018670328771863906,0.001313138519618093,0.0006066239247332078,-0.00012011907150325299,-0.0007741331386889437,-0.0013571150679223035,-0.0019481612812973076,-0.002622826428471541,-0.0033631833956360596,-0.0040222516297371055,-0.004371538039990506,-0.004206988546949434,-0.0034525314545093967,-0.0022039605098900486,-0.0006936256576829954,0.0007989654995588908,0.002041907674165957,0.002909284436779307,0.0033879091234226342,0.0035438629316544602,0.0034739535718352364,0.003265621414497189,0.0029776490014956254,0.002641143117986982,0.002271267008234063,0.0018773307370694567,0.0014624380835921418,0.0010130350504475424,0.0004893437713477265,-0.00016788259063079346,-0.0010067773210836483,-0.0020203159559981647,-0.0031147904818210415,-0.004116317700641573,-0.0048208131081056566,-0.005065286721462647,-0.004783463729602961,-0.004018673428922152,-0.002894458160197853,-0.0015671075133307346,-0.00018720908516344788,0.0011188500040819858,0.002254128053330845,0.0031535995452223278,0.003785545191417326,0.004146185908292,0.004245745130270058,0.004094330817223702,0.0036998959608386455,0.0030822873973088624,0.002293600854321034,0.0014270296352552909,0.0006002985178292872,-8.617675917139836e-05,-0.0005990006551193327,-0.0010004693542462013,-0.0014301027763396331,-0.0020338405637704373,-0.0028679138509050957,-0.0038294636221119878,-0.004663174109953488,-0.0050561699940695,-0.004780476599345341,-0.0038079522317778615,-0.002332996168333594,-0.000689824281448832,0.000789335853883385,0.0018993101939098322,0.0026105432172367085,0.003027698806661107,0.003291449811305675,0.003480912483935808,0.003569348366092486,0.0034561757190248723,0.00305541495289942,0.0023839847147276343,0.001586726221632434,0.0008707642703716451,0.0003830858062585872,0.00011071189830467261,-0.00012377597918971126,-0.0005577199537408087,-0.0013339149738451884,-0.0023912409949604797,-0.003469764379003641,-0.00422925466151109,-0.004411271574845599,-0.003951958668457825,-0.0029882610778159324,-0.0017682744630491205,-0.0005306596345926349,0.0005750411885597163,0.0014943954253390053,0.0022203162302878764,0.0027407337809263804,0.0030213547088788198,0.0030287322110422715,0.0027678910821001008,0.002301628512647715,0.0017351721770502283,0.0011740270548129077,0.0006780586117534511,0.00023564581050288696,-0.00022768926207841279,-0.0008055836256379465,-0.001546486822763335,-0.0023963845974557412,-0.003181424290053486,-0.0036518025881946492,-0.003579095009754346,-0.0028660016336023017,-0.001612420002053222,-9.813127562375613e-05,0.001316691366292471,0.0023289556823663294,0.002802775333957859,0.0027999665133904847,0.0025199944150286046,0.0021859277998804165,0.001939299763248955,0.0017961807499827288,0.0016763619282638333,0.001473852578359581,0.0011181270782574771,0.0005921824773361495,-8.880674780850426e-05,-0.0009044808720904121,-0.001828630350663067,-0.002797487063788617,-0.0036779589160628985,-0.004275848232775626,-0.0043980531215845,-0.003940956888365037,-0.0029526035540543435,-0.001628160094762303,-0.00023745112919851876,0.0009778032462690917,0.001884844745799314,0.002481684302731331,0.0028558158754516273,0.003108251568518715,0.0032868266121703618,0.0033642545904726626,0.0032691223362798357,0.00294676842570211,0.0024090786566600903,0.0017388013342349129,0.001042984432737121,0.00038476339860511906,-0.00025983748801261574,-0.0009861308076174586,-0.0018879885414266081,-0.0029672784202607935,-0.004080629625364533,-0.004962461628491729,-0.005322139831144521,-0.004969887497090877,-0.003906983460729053,-0.002333765180997768,-0.0005734052543205025,0.0010475767606718557,0.002304541011888771,0.0031228678625849693,0.0035580479581097902,0.003727521702654259,0.0037322169262763135,0.00360683199939966,0.0033220421636029696,0.0028341125077118307,0.002149496162791735,0.0013596435615590543,0.0006159775713537145,5.2733945599600695e-05,-0.00029681595390974695,-0.0005349090326092017,-0.0008553979978308127,-0.001438816125159584,-0.0023406928318297888,-0.003433416241127671,-0.00443533586114029,-0.005017176834001938,-0.0049377903935581054,-0.004146747182558253,-0.0028065498183096806,-0.0012253890421254528,0.0002657253966327419,0.0014323355235197387,0.0021993895640167105,0.002637239098753321,0.0028894689005384117,0.0030851752712282273,0.00327747912892121,0.0034300627738859312,0.0034487224537128893,0.0032377883714152355,0.0027555264789881086,0.002045178059882635,0.0012261852342220552,0.00044430773809096206,-0.00020016783647695873,-0.0007084576965384702,-0.0011850626372963146,-0.0017727399375378752,-0.002549776698018989,-0.00344863856700136,-0.004249855528656515,-0.004664126392310438,-0.004463370400962063,-0.0035912418980258414,-0.0021953478814940273,-0.0005688259552732613,0.0009624811158627977,0.0021488539114710293,0.0028755770564679287,0.0031589292232711646,0.0030981537532824514,0.0028174702642776773,0.002426658521404889,0.0020088528656057206,0.0016236678140898423,0.001306821371025231,0.0010583081857210048,0.0008294089946762187,0.0005275797545649618,4.952721403605862e-05,-0.0006663277983761713,-0.0015919976161667306,-0.0025924998379190734,-0.003452798066798902,-0.003943436890050124,-0.003900491173741407,-0.00328678298145268,-0.002208369170717083,-0.0008803307726431564,0.0004422089988466388,0.0015397540421497585,0.0022839309603166647,0.0026563808377174573,0.0027288079279308383,0.002616183499765434,0.002425117172674704,0.002219928286997663,0.0020178092676603776,0.0018066251458019023,0.001565704355087823,0.001272031340453889,0.0008911742637734209,0.0003701676745898198,-0.00034770754153581093,-0.001282354954862292,-0.0023698310356288655,-0.0034416646146576088,-0.004256130064628398,-0.004580095853468219,-0.004287131795416553,-0.0034200058715139533,-0.0021789927740408074,-0.000837338033900132,0.0003723161602824281,0.0013393364783322054,0.002082480609258016,0.002685787774042622,0.0032076326980137147,0.0036215514742714166,0.0038248598428113614,0.003706547417775927,0.0032278134214530265,0.002461114273215865,0.0015613595829803862,0.0006876145867479785,-7.438488976143503e-05,-0.0007405234573221006,-0.0013923978383405806,-0.00210310679134166,-0.002871681284966945,-0.0036031575114612692,-0.004141213111204175,-0.004331567363506857,-0.00408259352677383,-0.0033967900018618373,-0.0023649396229275506,-0.0011330620096061364,0.0001383750529031268,0.0013064564649897651,0.0022633103624779835,0.002943056119522765,0.0033245137537594267,0.003431623361220261,0.0033279920990015983,0.003100850006507235,0.002834641713142562,0.0025820866124625728,0.002344834267364466,0.002073030269477467,0.0016846427304274617,0.0010969710168304407,0.0002596117090998333,-0.0008195477230549066,-0.002060354687176657,-0.0033123658812393075,-0.004376531929997962,-0.005047267171887797,-0.0051677391412253745,-0.00468155490364833,-0.00365937686223763,-0.0022853596322439935,-0.0008049194192789584,0.0005465592248010603,0.0016057722737639424,0.002311432451368407,0.0026947884745860858,0.0028405509892809825,0.0028390486529730973,0.002751073509333157,0.00259750034285837,0.0023716645444207774,0.00206123704795488,0.0016633404116639244,0.001183096602643327,0.0006190606805519132,-4.7730023154353386e-05,-0.000841412027448418,-0.0017506380856353036,-0.002681158078359569,-0.003441541776330338,-0.0037918551787278236,-0.003546263844481072,-0.0026780991262193325,-0.0013629621254875003,7.415668726160063e-05,0.0012862589412922787,0.0020412369564514,0.00229950456929217,0.0021988392064986677,0.0019626914651801834,0.0017838769868389081,0.0017413139685160104,0.0017847175963559428,0.0017849085708517812,0.0016148608318915089,0.00121491269393705,0.0006098591044739013,-0.0001229379305256613,-0.0009053621087372066,-0.001691218247845855,-0.0024574857263109443,-0.003164467446651375,-0.0037203571230488763,-0.003984528668662167,-0.0038167931156089154,-0.0031473756328573976,-0.00202779474116032,-0.0006337061512502067,0.0007838862259451828,0.001978893744039694,0.0027886058343496896,0.003177254677406441,0.003226014472595627,0.0030761983982521687,0.00285659242303276,0.002632803157886571,0.002400302656632746,0.002114663100805166,0.0017318487490733023,0.0012311080248832368,0.0006110271824515241,-0.0001278334204771875,-0.0009888843400726666,-0.0019586310137065786,-0.002968780620850769,-0.003873026960178511,-0.004468793708273982,-0.004566460533727569,-0.004073664740645937,-0.0030468478850128305,-0.0016787573091776083,-0.0002278315588919818,0.0010721422264759004,0.0020763445139902045,0.0027412272679029756,0.003091016498799645,0.0031694410154964347,0.003011500261840913,0.002651209345439806,0.0021512460393440765,0.0016195736707588857,0.0011837910734476234,0.00092618449350191,0.0008192080542205112,0.0007123741670498377,0.0003942272510860046,-0.00029543219094976716,-0.0013629223246817799,-0.002625284525725942,-0.003763968873898605,-0.004443737082529915,-0.004442062116147652,-0.0037314947747686534,-0.002481645819764735,-0.0009858956686053086,0.00044830567636007046,0.0015944218090110642,0.0023504924313205956,0.002726128914386205,0.0027959064777996825,0.002651638686613775,0.002374627612423431,0.00202896780395352,0.001663449640188981,0.0013093249658314634,0.0009707097279251492,0.0006156797056231199,0.00018171574371871827,-0.0003955794591454512,-0.0011360713796299995,-0.0019731279361082524,-0.0027450734690474916,-0.0032378885748467067,-0.0032698243037677767,-0.0027794742010068805,-0.0018678892286891238,-0.0007648766211595691,0.00026821327536506696,0.0010481967641889948,0.0015325131795592487,0.00180323857555417,0.0019890136405956095,0.002176208639931423,0.0023610830436807573,0.002463684323712854,0.0023852870630356477,0.0020692300037122077,0.00153001521312549,0.000839629514671071,8.618879815043589e-05,-0.0006665193583569595,-0.0013942974409062482,-0.002095405662247571,-0.0027535322210469823,-0.0033057430776921273,-0.003639327931913361,-0.003626869732818778,-0.0031869231812472415,-0.002339636293490278,-0.0012235870814623795,-5.6486709288407916e-05,0.0009479271414765296,0.0016668872854494802,0.0021114246237825896,0.002397059514956168,0.002655019830724858,0.0029351835195070503,0.003162773484127911,0.0031817920225113323,0.00286235917350646,0.0022021255902609123,0.0013496664580449683,0.0005269931845451735,-0.00010306247009606078,-0.0005387921764075107,-0.0009412190803464272,-0.00152715531620744,-0.00241335764228558,-0.0035045670416923897,-0.004496765811569762,-0.005002805462634843,-0.004737397527091611,-0.0036630382352631215,-0.002018682254534378,-0.00021723046011687223,0.0013314867896441055,0.0023792243716046274,0.0029031899226545205,0.0030560995977228127,0.00304520024126668,0.0030146018074173977,0.0029914963089980613,0.0029110145074687788,0.002687943619331474,0.0022837033465080946,0.0017301314998025242,0.001103483178615578,0.0004718276981063128,-0.00014771189678489837,-0.0007930123454414239,-0.001517353718700809,-0.0023294516483270715,-0.003152251184318647,-0.00383064863711657,-0.0041878571555717045,-0.004099026770066341,-0.0035417102953616266,-0.0026004223444888418,-0.0014305375571958398,-0.00020499370359743126,0.0009315112465534793,0.0018859765432693836,0.0026155777731245618,0.0031085665118399937,0.003361318448059019,0.0033660607201405628,0.0031171084019095815,0.002630764913534335,0.001962475828112396,0.0012033252294626003,0.000450183216563711,-0.0002363041350910294,-0.0008576359840078847,-0.0014633809847617793,-0.0020974885771426937,-0.0027356719117693196,-0.0032584200983993795,-0.003487029942572802,-0.003269221689550329,-0.002564529929200119,-0.001476376372805678,-0.00021199371876767908,0.0010022067783498115,0.0019978884386496953,0.0026955314594366776,0.00308587624552294,0.003190858935887971,0.0030386771837721304,0.0026672808437278235,0.002142058393044306,0.0015593747129291377,0.0010185330604575238,0.0005718191829945116,0.00018487518817911485,-0.00025898278810592947,-0.0008992712269392431,-0.0018067530420807255,-0.0029088881049072713,-0.003980717279025625,-0.004717769654213786,-0.004860966804945493,-0.00431068509933781,-0.0031701810956396813,-0.001697143733857499,-0.00019257781212961026,0.0011127025768289049,0.0021192772180001667,0.002848020909903359,0.0033763081811917606,0.003763563507688563,0.004006079579002718,0.004040536142088266,0.003788836945089684,0.003216115830416804,0.002368272855604221,0.0013673079358767315,0.00036549263233376253,-0.0005183933233076323,-0.0012465639368388914,-0.001865586764646774,-0.00246039050407865,-0.003082673968438395,-0.0036956669159617767,-0.004170492075866681,-0.004338971706667819,-0.004072856968298113,-0.0033444130890111223,-0.0022380556582114663,-0.00091489472114739,0.0004425149116740805,0.0016752811891501433,0.0026698162368298476,0.0033612830887293915,0.0037304005757302925,0.0037989305744301634,0.0036210002606979963,0.003266793199543443,0.0028020113444286706,0.002272556692967992,0.001701514641602043,0.0010960947960367115,0.00045520608131570806,-0.00022839253972326226,-0.0009669187115593032,-0.0017670278634257866,-0.002606815700906191,-0.003412740295393697,-0.004057386068352611,-0.004389821781957406,-0.004288621472672185,-0.003710941584417441,-0.0027130154428210954,-0.0014352320111537151,-6.335727056277834e-05,0.0012158908632677683,0.0022515114599959566,0.0029515381047700794,0.003291864736511496,0.0033106991274322022,0.0030901780041186063,0.0027297969108834494,0.002319123729725702,0.001916654569697215,0.0015377583244592095,0.0011518646071182787,0.0006908846032562988,7.403845461444972e-05,-0.0007491493471927579,-0.0017491210848706931,-0.0027862566474407893,-0.003629042053575441,-0.0040290299113121455,-0.003826463091527956,-0.0030332490849652657,-0.001843055948191005,-0.0005553813569069648,0.000550155550284286,0.0013233180329873299,0.0017792984924544118,0.0020457730659594075,0.002256404125998852,0.0024574964340646783,0.0025857623681050934,0.0025283941957584214,0.0022206190745369036,0.0017097641771319525,0.0011383656989167037,0.0006555440208120969,0.0003156943578392896,3.329879308589477e-05,-0.0003720547261094056,-0.001061958283715879,-0.0020608216209766113,-0.003202203480245267,-0.00417503176339973,-0.004650990578075281,-0.004430294903134988,-0.0035320719154067802,-0.002183436875491083,-0.0007144546985735482,0.0005835155211585368,0.0015606883231749037,0.0022242839596615382,0.0026724630394716307,0.002998983549792522,0.0032297681468707417,0.003322832640271143,0.0032188674883196914,0.0029009705333636025,0.002423142845832506,0.0018912163998582852,0.0014083540668945436,0.0010150393728877618,0.0006559212749789147,0.0001953237260085614,-0.0005168510672219499,-0.0015522691446680581,-0.0028287372560116264,-0.004099120141130202,-0.005025898418108608,-0.005316114026781818,-0.004850636156332739,-0.003736995640862216,-0.002255895643786331,-0.0007339482940156202,0.0005832864694974634,0.0015915121221672839,0.0023034571013937155,0.0027760495072617908,0.0030473411021808413,0.0031220943063038843,0.003002385950787179,0.002726437469697662,0.0023774428988285407,0.002051249587080462,0.0018038041603970958,0.0016129483855995153,0.001378838513334016,0.0009649626629757236,0.00026264207528701544,-0.0007471667478857905,-0.0019604532274959774,-0.0031620255159668844,-0.004083599092932119,-0.0044899556431427495,-0.004260780072790608,-0.003434543887915684,-0.002195692758599525,-0.0008114073564190372,0.0004540944002639673,0.0014132544546817693,0.001992561123474532,0.0022274622404778377,0.0022246537100772726,0.002110434017974856,0.001984751442697565,0.0018943519678398363,0.0018280710228814887,0.001728805908032105,0.0015147445154173492,0.0011054492734937672,0.0004506618504756594,-0.000441949054882352,-0.0014876255957673435,-0.0025240714046425522,-0.0033387579720440836,-0.003725402113315243,-0.0035557609317248356,-0.0028366882044986775,-0.001719518293362292,-0.000448737861874352,0.0007289161350316896,0.0016488900500084035,0.0022645284215685965,0.0026223759173356156,0.002800958823472543,0.002853968992446369,0.002788856180784098,0.002584661360770097,0.002227142164835487,0.0017309677893878987,0.0011327194429808162,0.00046396259188051064,-0.00026934359047540003,-0.0010800199347607235,-0.001966565314824058,-0.0028755327543515618,-0.003685629115553285,-0.004228111106142319,-0.004339550745193996,-0.003926876317534826,-0.003016567849791919,-0.0017633733033796041,-0.0004089919915671201,0.0007970762728582416,0.0016829888563102517,0.00220787217637857,0.0024562880658847127,0.002575156145457979,0.0026855928075300173,0.0028178982037104514,0.0029057993076200147,0.0028403122498437505,0.0025459534013091982,0.0020283280420313895,0.0013631127280991345,0.0006384632663357852,-0.00010357843075338736,-0.0008807633140228393,-0.0017275962722397803,-0.002627410604459515,-0.0034715078229565375,-0.004078920441111435,-0.0042681787547757255,-0.003938188652591271,-0.0031124488007363777,-0.00192781227725989,-0.0005828295456388167,0.0007227918897387655,0.0018329311243045676,0.0026563753355060915,0.0031683037621101375,0.0033969542546451984,0.003399544435875452,0.003234550724646738,0.002941411092288005,0.002535987778207172,0.0020198532541615996,0.0013926025763246223,0.0006579086325553428,-0.00017577554351125784,-0.0010910679321274484,-0.0020484503410610425,-0.002970439512038475,-0.003739154703572528,-0.004219862047414922,-0.004306257296546679,-0.003964734564362737,-0.0032504188963138328,-0.0022837293711149608,-0.00120207659958012,-0.00011677351612590905,0.0009016644360318612,0.0018091034821495666,0.0025631772676242247,0.0031109281903369075,0.003399182830059007,0.0034007137156951196,0.0031371182033066995,0.0026794273448696544,0.0021208436867133354,0.0015355156995031246,0.0009491448895491357,0.00034117989456796343,-0.00032230860689529134,-0.0010459823416521393,-0.0017787768088385672,-0.002417777509730816,-0.002838242146069537,-0.0029333990788541226,-0.0026471047288287395,-0.0019901992587243577,-0.0010402964141284958,7.06944873371955e-05,0.001177555322890312,0.0021094348760097295,0.002721650111539199,0.0029257563028993096,0.0027098355333504028,0.0021420620021986845,0.0013540205728778028,0.0005049868818101638,-0.00026499866384946565,-0.0008779295485928794,-0.0013377876979083657,-0.0017153448716914486,-0.0021017606291939966,-0.0025525362932887485,-0.003049898267570012,-0.003501137425052641,-0.0037700681788376635,-0.0037232990577094516,-0.0032714224640235045,-0.0023944361051991617,-0.001150804063317249,0.0003271238190984836,0.0018522785421936408,0.0032208743694887554,0.004267342860910132,0.0049179130804617045,0.005211140866624928,0.005261615699375302,0.005176533940769326,0.004973190856028095,0.0045561874387482545,0.0037799626125444947,0.0025629817217832362,0.000977058991506366,-0.000755078378585401,-0.0023595544676854948,-0.003643675660776291,-0.004571189164900949,-0.005232328229732995,-0.005736072006692454,-0.006103606428987168,-0.006234512862837247,-0.005962894099571797,-0.005161883002304339,-0.0038297001661735546,-0.0021091286329616003,-0.00023710364359191707,0.0015390066466788623,0.0030308166919420184,0.004136304359103236,0.0048290071916303285,0.005131960618737235,0.005096044459381163,0.004786723760515482,0.004272252939232734,0.0036083376655067266,0.0028236572056433303,0.0019170446315433444,0.0008741967717988571,-0.00029948851589353047,-0.0015459360755141394,-0.0027417861882393937,-0.0037181312994998637,-0.0043075111897128504,-0.004398396777554647,-0.003973632041525944,-0.003117415330419228,-0.001989916804624648,-0.0007817206265620912,0.00033392206159474656,0.0012356522296015982,0.0018679251610940497,0.002235431169877031,0.0023843789271956878,0.00237756180725253,0.002268633893458408,0.002081408817674648,0.0018021615992140244,0.0013916530714154804,0.0008148514293606923,7.403374982713855e-05,-0.0007744005935909927,-0.0016303036805977947,-0.002380149211133317,-0.0029271463637710205,-0.0032039842190348874,-0.003167740389613494,-0.0027922939187211074,-0.002075036627349385,-0.0010600073626052997,0.00013992172181080914,0.0013470131882644411,0.0023608553973726455,0.0030238404676762648,0.0032747047921898483,0.003159001251072778,0.0027921785625596588,0.0022998455849156203,0.0017692165239430115,0.0012315098590513953,0.0006722721390202683,5.4265248098270914e-05,-0.0006584718137796572,-0.0014769410165452583,-0.002363505404654628,-0.0032160786951067645,-0.003875527662637846,-0.004165997598496193,-0.003958580370445762,-0.0032293058676642825,-0.0020794792035230933,-0.0007049914518234635,0.0006702274214442659,0.0018623840034371621,0.002766107373470819,0.003352482063437602,0.0036406534553730606,0.0036680677270270433,0.003476998311844951,0.0031167617991976477,0.002646816857883435,0.0021263568780158595,0.0015898278451719023,0.0010237636564118789,0.0003658290764515175,-0.0004631578460235512,-0.001503580409923335,-0.0027045680530745396,-0.003904822884657619,-0.004863204021902781,-0.005332510643720887,-0.005149160114938784,-0.004301792058989191,-0.002947149241561188,-0.0013616755725206257,0.0001541297887455807,0.001377791086645207,0.0022274575524531123,0.0027570988732997324,0.0030893891312433744,0.003323852984960779,0.0034727762738361295,0.0034630148769098576,0.0032015038651668896,0.002659354884160587,0.0019148220431203762,0.0011224763518335019,0.0004268596113719841,-0.0001222400349663615,-0.0005953466807336558,-0.001129356044916186,-0.0018240179955169695,-0.0026510900760013476,-0.003433294869847144,-0.003910218634371385,-0.0038574719324706488,-0.0031953407524690156,-0.002031495006868774,-0.0006207725986474807,0.0007324509527289439,0.0017806511317396826,0.0024029386910257118,0.0026152459355171754,0.0025267733866112157,0.002271755562727951,0.0019531148798687115,0.0016220595140389227,0.0012919307092987486,0.0009627073309200868,0.0006306395606238005,0.00027685837616455697,-0.00014669838006939567,-0.0007072574719116171,-0.0014466298517300474,-0.002321806748740754,-0.0031719019995723255,-0.003747011241600314,-0.003800868721306117,-0.003206490578064508,-0.0020313131209691794,-0.0005247722647896611,0.0009801411775713312,0.002199689249259432,0.002996043048810766,0.003391238249435869,0.0035019391465218965,0.0034427143259424023,0.0032579673067351165,0.0029183163578354273,0.0023731798156938324,0.0016159129818537378,0.0007133579564411864,-0.00021994570675387833,-0.001081748500569839,-0.0018309865902746707,-0.0024899193948967097,-0.003098852500790247,-0.003656213999516907,-0.004085149394216314,-0.0042487942060572895,-0.00400666010008806,-0.0032834235359184053,-0.002117293115346398,-0.0006654247607637362,0.0008377758331302881,0.0021532881840787233,0.003110047233144661,0.0036456105483622906,0.0037994296074627997,0.00366878738463282,0.0033562218764924363,0.002936748557887015,0.002454645895735256,0.0019374282208985685,0.0014055235184429662,0.0008659586297987215,0.0002977379209552954,-0.0003509844723801483,-0.0011388896239124934,-0.002084839828209114,-0.0031224172009664507,-0.004085485300779759,-0.004742288147072797,-0.004871639332208553,-0.004351704507095832,-0.0032212588006373293,-0.001681564594185247,-3.2949554023426385e-05,0.0014273799983305756,0.002499127230024132,0.0031226253713267735,0.003360035816652858,0.0033348984825771213,0.0031667586166639326,0.002929666397950917,0.002643237905073155,0.00228886655297473,0.0018379753329232373,0.0012792821139540624,0.0006329777778768063,-5.613373634836931e-05,-0.0007430795658365535,-0.0014072727665349232,-0.0020556218423145598,-0.002696170576143914,-0.0032978803136832118,-0.0037671993597628867,-0.003964474665442596,-0.003757324549354518,-0.0030836292855456167,-0.001991371391052733,-0.0006367858220456758,0.0007569782476956502,0.0019635660830418515,0.0028165524009604757,0.00325030364958261,0.00330419552879244,0.0030893502677203323,0.002733636200931372,0.002331820720159327,0.0019242804576726294,0.0015086742174935928,0.0010669463383412383,0.000583114886239191,4.23791106714685e-05,-0.0005746178902073481,-0.0012803315784353897,-0.002046705405792797,-0.0027724898628506012,-0.003286659830600531,-0.003404134539163827,-0.0030117129021535955,-0.0021349302899293363,-0.0009438290018111644,0.0003070912888404203,0.0013706290208528363,0.0020830270696580995,0.0023942240196360115,0.002351849951497406,0.002059930821228769,0.001636422660928548,0.0011833824825264192,0.0007705628313273283,0.0004262907010832717,0.00013215281695013468,-0.00017315485782230366,-0.0005703878241411703,-0.0011143676618773973,-0.0017834381119712643,-0.002455185275750966,-0.002933447758082685,-0.003023285431549393,-0.002618737539946295,-0.0017566351188330431,-0.0006076367979161684,0.0005895028628644346,0.0016156760617970136,0.0023395469699244186,0.0027393004854129425,0.002876373957093153,0.0028417095267063417,0.002705044913333415,0.002491559019101313,0.0021909852648252376,0.0017836943361135998,0.0012605693702497547,0.0006242865990005126,-0.00012063965424577071,-0.000970234118234842,-0.0019039043395374154,-0.0028553607068354143,-0.003695341143143337,-0.004248572908205085,-0.004347411945570343,-0.0038991699811625896,-0.0029321121854897474,-0.0015959438867519276,-0.00011808221710803298,0.0012613725488733114,0.0023481184028132014,0.003028253226368513,0.003277021818077777,0.003149355979600513,0.00275960404080115,0.002252135780004891,0.0017624590169766892,0.0013747567277482189,0.001091072882925387,0.0008297207945173143,0.00046090012038697625,-0.00012984095131669457,-0.0009752286367179131,-0.0019872180391397112,-0.0029672062569848184,-0.0036676914012060136,-0.0038834859791582544,-0.0035330994923542156,-0.0026911088565013622,-0.0015541644294093408,-0.00035745457675940515,0.0007145792704117259,0.001577220958192742,0.002233367543056299,0.0027173361325639064,0.00303778889128926,0.0031600119243668104,0.003037418596460845,0.002665361853740363,0.0021130014489892674,0.0015034459034585315,0.000948926460004937,0.00048146606409455144,2.724012557468199e-05,-0.0005514953498234951,-0.0013645551053917825,-0.002402529754291898,-0.003500321347535064,-0.004381818795469008,-0.004767985266021827,-0.004495541073295325,-0.003587442306344983,-0.002242368773850049,-0.0007521438398350414,0.0006103783794774551,0.001680530103158593,0.002430728664058898,0.0029325759738283285,0.0032789535839855047,0.003512805169158064,0.003603313753748586,0.003479258000873151,0.003092283234543378,0.002464849441758504,0.0016906588191006953,0.0008888697760401866,0.00014347173574782507,-0.0005333047701967107,-0.001191874027293652,-0.0018971420377180293,-0.002669449295726322,-0.003446573008062611,-0.004085958865452656,-0.004406482701011806,-0.004252737447961091,-0.003557644878434738,-0.0023806955278208508,-0.0009065438487349388,0.000599777509157124,0.0018700606693714073,0.0027167691387278113,0.0030899430189893426,0.00308065722611662,0.0028674926907024806,0.002630667929263992,0.002474608776704968,0.0023928580324224327,0.0022845447068050523,0.002006827278520669,0.0014378519772355832,0.0005301837140842562,-0.000656135468815959,-0.0019485239737914966,-0.003093287277237105,-0.0038263512386962194,-0.0039672652772150775,-0.0034972170701369227,-0.002575706306078572,-0.0014762430972540064,-0.0004680109660681791,0.0002943070600108116,0.0008132168955211277,0.0012042963676739053,0.0015962965385232875,0.002035785402241652,0.0024496271093973248,0.002682587272457242,0.002584637168505709,0.002096540499774124,0.0012860004159341346,0.0003168560730173836,-0.0006269117673695578,-0.0014152881557866052,-0.002001848806558215,-0.002398304934592744,-0.0026212369324830754,-0.0026545328597937885,-0.002453981281414758,-0.0019854434688664243,-0.001264437126816325,-0.00036919000357580093,0.0005781615713839837,0.001447725146128752,0.0021354095401072636,0.0025803610735708957,0.002763996362364615,0.0026988245248760843,0.002419356244445249,0.001980834103240561,0.0014579559434902618,0.0009284377261564157,0.0004370733563176962,-3.963730923313849e-05,-0.0005927957582659445,-0.0013239815138567815,-0.0022534173810675796,-0.003252208848229114,-0.004054738094181384,-0.004359756687011758,-0.003969214035710264,-0.002887243912212343,-0.001326994070850861,0.00037150856480832266,0.0018642142262787305,0.002908907230564348,0.003417471094571478,0.003448131320630053,0.0031535913439086566,0.002711358039613158,0.002262921146930667,0.0018799220619627366,0.0015603877424953754,0.0012446773402323263,0.0008387233527241884,0.00024171443099508318,-0.0006159589964373814,-0.0017243614720043776,-0.0029539238899908716,-0.004056211416307919,-0.004728099343766567,-0.0047266205742391995,-0.003983076886234621,-0.0026528549783371904,-0.0010656603979771694,0.000405315356723352,0.0014911124626219938,0.0021180373099663405,0.002399868199870571,0.0025422834313032568,0.002715977175046017,0.0029679061722954754,0.003213615861153839,0.003303804753878879,0.0031164088868812344,0.002617380224070279,0.0018613735544458052,0.0009455746092145352,-4.3602424874036974e-05,-0.0010552666286471075,-0.0020608667968021843,-0.0030205326618667817,-0.0038565924936083025,-0.00445335776029684,-0.004684961977314067,-0.0044584574066263765,-0.0037531361149450424,-0.002639345195685516,-0.0012684778741345172,0.00016350812922466074,0.0014672798612961927,0.002507711271355699,0.0032280032211350236,0.003638736931768406,0.0037795128336646495,0.003680191402769873,0.0033501760884573325,0.0028013449088036962,0.0020799997094010903,0.001272823895135134,0.00047300209658641945,-0.0002709906814568367,-0.0009807251119909655,-0.0017181392276882823,-0.00251211395757526,-0.003289785503069836,-0.0038663751950899594,-0.004013639469062824,-0.003575111591601357,-0.00256169986325111,-0.001169211702831668,0.00029458154220666084,0.0015327938843175473,0.0023658019102593877,0.002769683016944169,0.002838312742659482,0.002703606510924795,0.0024652895579033362,0.0021650950082692886,0.0018052270737550224,0.0013827333556220274,0.0009079204499801703,0.0003949757877814375,-0.00016066914890038297,-0.0007908526004211131,-0.0015313630463326972,-0.002374221726883975,-0.003225794532662348,-0.0039046210858223384,-0.004192928226704825,-0.003923661269024966,-0.003060748198532209,-0.0017301643379936805,-0.00018398730277962487,0.0012861550752898726,0.0024462805787447786,0.0031861229310420113,0.0035292707841596683,0.0035879647385842353,0.003487166416951984,0.0032967526996825355,0.0030071198750618467,0.0025597555612193327,0.001911078737299985,0.0010859451167844728,0.00018318369094024226,-0.0006724054733457343,-0.0013995663667132434,-0.0020022029637871983,-0.0025498467954878715,-0.0031048828551566987,-0.0036442680928260827,-0.004033456968511519,-0.00407957771296144,-0.003637903399328433,-0.0027073819482754517,-0.001454970847136723,-0.0001514280894859783,0.000946392658862389,0.0017020351455564872,0.002138330400951291,0.0023917698612055263,0.002613096694489636,0.0028732870588348293,0.003127040874429987,0.0032492112882730635,0.003117006009565184,0.0026870521153353937,0.0020227972428547066,0.0012584442964973341,0.0005226964028162662,-0.00013158468175897267,-0.0007491851311626138,-0.0014303060114799417,-0.002245125857123203,-0.0031532852742644476,-0.003979445652340359,-0.004469073071919455,-0.0044023021552424164,-0.003705461981536093,-0.0024974990887806805,-0.0010466246625711697,0.0003353556513914492,0.0014038577217090691,0.0020490133535920408,0.0023036247243068777,0.0023034914310252623,0.0022217815448795732,0.0021975999989340624,0.002279262846382436,0.002405537663903692,0.002440693670972077,0.002253684659620464,0.0018001373658764995,0.0011542807495763057,0.00046368687653230615,-0.00014855066517256897,-0.0006675779145468917,-0.0011918884228634458,-0.0018460052136519446,-0.002654438589934176,-0.0034663231873693634,-0.003994349923003776,-0.003957398320963204,-0.003243464378194889,-0.0019901545898261992,-0.0005297254666805332,0.0007691678522246516,0.001668152772997707,0.002139420617720012,0.0023235371375288825,0.0024045848102731415,0.0024869115951430924,0.0025464889167853342,0.00247506860459057,0.002174934238948172,0.0016345012701654256,0.0009352804516013331,0.00019238024588769318,-0.000521813585073163,-0.001209783733823154,-0.0019090010971656334,-0.0026082358762092826,-0.0031873902200370823,-0.003438777591536722,-0.00317215199649428,-0.002342376755967076,-0.001114332608588961,0.0001861295925865247,0.0012159074159593638,0.0017735282278421435,0.0018823485121534896,0.0017515819559455463,0.00164101941350075,0.0017111291185123241,0.0019453177488850046,0.0021830125823166756,0.002232516702195849,0.001986778626660905,0.0014716446715344383,0.000806642430065941,0.00011584609263272556,-0.0005468257497202628,-0.001210301612085677,-0.0019333618100659286,-0.0027236174103984962,-0.0034823332759842843,-0.004014115130261619,-0.00410353670150654,-0.0036208590165620804,-0.002598691806283848,-0.0012347668907578295,0.00018317236050073105,0.0013907438304364514,0.002239485113494682,0.002724922459566621,0.0029451258606046143,0.003022046709631592,0.0030326532648780368,0.0029833979933453266,0.0028316528623568704,0.0025312882683207446,0.0020708980474635763,0.001483341761279338,0.0008248192071410856,0.0001392232508020163,-0.0005682780444210793,-0.0013284831229727753,-0.002171966694691882,-0.0030769166822194006,-0.003933992280508332,-0.004557454453755848,-0.004746652412695865,-0.004370298483005894,-0.003430103941886115,-0.002071251118615676,-0.0005359554476924437,0.0009162637294597211,0.0020860628188270913,0.0028794620851849656,0.0033076663137776327,0.0034491399156545196,0.003397850183150643,0.0032250658893498013,0.002969355636595645,0.0026483811554642374,0.002272517632280878,0.001844812148115204,0.001349679616766748,0.0007477543367699793,-7.202889301728188e-06,-0.0009306028767071908,-0.001968735156096885,-0.0029864385380843667,-0.0037962636230990613,-0.004221950015576683,-0.004166961724935703,-0.0036514656892944874,-0.0027966336453713525,-0.0017667635703342468,-0.0007060402882050402,0.00029294522135646047,0.001178585467710671,0.0019096824429395305,0.002439053867242847,0.0027282001295677203,0.0027788349124985823,0.0026488481179694034,0.00243047367699426,0.002198653665521847,0.0019629039386651658,0.0016563558942796826,0.0011719692455459353,0.0004269792766589185,-0.0005781211329180026,-0.0017344364249964055,-0.0028438787240701252,-0.0036744525153969555,-0.004031076406366106,-0.003817507406106223,-0.003068400301339912,-0.0019400785349446437,-0.0006622213365050128,0.0005334914305544477,0.0014823960553618375,0.0021268949796187557,0.0025099486797625576,0.0027238110097291095,0.0028397406727809363,0.0028591441283800406,0.0027178426220429426,0.002342360463768388,0.0017200023070502236,0.000931034429352027,0.00011514248175060668,-0.0006086599591680692,-0.001212849309039044,-0.001769110903389316,-0.002380868027950643,-0.0030817152563844936,-0.003767997162032727,-0.0042152980414961825,-0.004176364628292023,-0.0035066550730720866,-0.002247050286617717,-0.0006207486690889449,0.001048247668960819,0.002449085273254691,0.0033784691804943437,0.0037840059177779222,0.003751338608699497,0.0034483692567479764,0.0030499961830803115,0.002671927333872705,0.002339628007506134,0.00200315645040707,0.001584145185311015,0.0010234406908314828,0.00030249611714124633,-0.0005637767434821565,-0.0015416437094126919,-0.0025782260068387434,-0.003584380288667137,-0.004421596091149338,-0.004917694961284178,-0.004917533108002152,-0.004348168410806046,-0.00326322661009876,-0.0018393604429409853,-0.00032300558747128783,0.0010486904118774583,0.0021174231885305993,0.0028349621473192175,0.0032465389916027723,0.003439844136961863,0.0034891776693380338,0.003424437452150577,0.0032377025388502967,0.002916266776303457,0.0024749198783326227,0.0019616112039562835,0.0014289453323076489,0.0008894462230372938,0.0002893411551102996,-0.00047008490208505743,-0.0014633543745463718,-0.0026588429006929436,-0.0038762696657176077,-0.004821123200136831,-0.0051926385463492,-0.004817457414427708,-0.0037394721740747648,-0.0022136468140716496,-0.0006021435303892961,0.000773477141733132,0.001745053738413519,0.0023192698503765067,0.0026080284980855815,0.002722644583279015,0.0027042339667157395,0.002531454743973382,0.0021879320499584433,0.0017270451236495639,0.0012742479660764197,0.0009552861096534754,0.0007974630880329975,0.0006782664880594116,0.0003713314810244034,-0.00032179699469867136,-0.0014257081950727062,-0.002721697674294049,-0.0038082749519157905,-0.00427139854948451,-0.003878576398026897,-0.0026935542043874496,-0.0010502497825990035,0.0005984494323710037,0.0018743170326187245,0.002608693678032499,0.002857149066625232,0.002804522546033481,0.002631127392103747,0.00242339040247956,0.002171976560505366,0.0018362563324188371,0.0014104829692083332,0.0009349238323004075,0.00044750864607096664,-7.368004311814682e-05,-0.0007149147358617969,-0.0015585307676535068,-0.002585100262575634,-0.003621619267079053,-0.00438519478935672,-0.004605936875205592,-0.00415686995559555,-0.0031137726805967937,-0.0017151158292360307,-0.00025449912127569407,0.0010288585955549555,0.0020089485900946745,0.0026690918811853705,0.0030585482442304058,0.003242979891396631,0.0032712935864283007,0.0031654639369720515,0.002929314461359507,0.002566804364219525,0.0020974323412694647,0.0015574366882817109,0.0009835841001430748,0.0003892625439901493,-0.00024841783686822713,-0.0009752729840815244,-0.001821115581578338,-0.002754333476990695,-0.0036573420071626273,-0.004342472917479985,-0.004608062029333239,-0.004313319147704715,-0.0034393261000033736,-0.002108680322573713,-0.000555152603532389,0.000943852920499185,0.0021464802464260303,0.0029105807124814127,0.003222784878753222,0.0031833604814656643,0.002952420733731477,0.002678802963791977,0.0024423545452396723,0.0022357812045163705,0.001992502471408212,0.0016408742653770945,0.0011488125966667927,0.000530403979665408,-0.00018355760252358755,-0.000977625402688319,-0.0018484730332718972,-0.002760130558607861,-0.0035950631305132577,-0.004154655907559823,-0.004231993334708958,-0.0037230452698694327,-0.002704730989815984,-0.0014217868511433944,-0.00018135257297851307,0.0007856193773052127,0.0014152020570799288,0.0018029086603519348,0.002108581842790136,0.0024376351185493076,0.0027732796985283784,0.002997127046970512,0.0029765073782613664,0.002655739168551793,0.0020908179649444265,0.0014080230250010386,0.0007185878415738936,5.111732212324043e-05,-0.0006480813192585186,-0.001443403042896476,-0.0023161821287906222,-0.003119010250656513,-0.003620142730312848,-0.0036190225259348147,-0.0030621936431955103,-0.002084075042278949,-0.000944629765919388,9.664732478187866e-05,0.000891510274727598,0.0014351795742376672,0.001813246820455832,0.0021110416522651322,0.002348546209028172,0.0024759438873583842,0.0024202856731927232,0.00214462574270488,0.0016812248565361882,0.0011220253265656207,0.0005751411641418693,0.00011225262654770144,-0.0002658818204290249,-0.0006280166181741976,-0.0010735976331838505,-0.0016720823876214146,-0.0024075196041333773,-0.0031562985134751583,-0.003713914384060019,-0.003865135190947902,-0.003470564392149801,-0.002532547942760328,-0.0012104801041162587,0.00022367826155495038,0.0014742196334744289,0.0023209490549869136,0.0026895141595259077,0.0026637385025333827,0.002434779175323993,0.002210443951946632,0.0021268781995068416,0.0022024489501505187,0.002350378216893304,0.0024359708912458284,0.0023436351096935413,0.0020187727723211856,0.0014684789885982012,0.000731250712306241,-0.00015588162739592565,-0.001165421013115898,-0.0022554971872296116,-0.003333502422823152,-0.004241450881121098,-0.004787554725111335,-0.004818106067234315,-0.004292120030066192,-0.0033116263393494975,-0.0020831910990912065,-0.0008287446808549447,0.00030252926234524986,0.0012693165155949373,0.0021033427608090007,0.0028340361568785478,0.0034280728599802935,0.003787260328301292,0.0038069299581909395,0.003454498777245991,0.0028127616281081454,0.0020545072754589613,0.001358914190095077,0.0008175644456775053,0.0003867314514077526,-8.168429522914826e-05,-0.0007426545845780543,-0.0016466506875090195,-0.002679456668974681,-0.0035919707191332745,-0.0041072775605086095,-0.004046885858062741,-0.0034078189840890706,-0.002353377291279487,-0.0011313592177628915,2.917745995928238e-05,0.0009889006791369626,0.0017104499889365418,0.0022205957977375866,0.0025541561729936304,0.0027152087116832768,0.002677191889394256,0.002418541611754261,0.0019659989041686645,0.001408749435838844,0.0008632850353978071,0.0004050769521202084,1.4456491929931155e-05,-0.00041642878738736944,-0.0010071560623219598,-0.0017863494576647726,-0.002631946306813967,-0.0033011318719585038,-0.0035394412977051565,-0.0032065404832781995,-0.002345537843334154,-0.0011592337620434077,8.627813632645356e-05,0.0011710614425684824,0.0019854154704468446,0.0025254275313680383,0.0028396570547338414,0.002970222636665596,0.0029251470841836704,0.00269111187227942,0.002267162963927043,0.001688815941247168,0.0010233592773397633,0.00034020574922531265,-0.00032224965953623166,-0.0009700952257004232,-0.0016372067287844848,-0.0023461443802145114,-0.0030682892292033157,-0.0037069292345701535,-0.004115430660158981,-0.004143812713241974,-0.003692635689713358,-0.0027517519734001385,-0.001411898299403726,0.00015046010842168758,0.0017087228861009669,0.0030352341575664754,0.003954154189084675,0.004382326190850568,0.004341349059017338,0.003935225739602969,0.003305723460926517,0.002587606301601916,0.0018797847454954746,0.0012332078518146423,0.0006477328080435138,7.553689809515214e-05,-0.0005616617412543047,-0.0013353610209931495,-0.0022615257791005483,-0.00326454436389474,-0.004179194353121021,-0.004797957822056256,-0.004944535810342313,-0.004537715140285519,-0.003615470496617472,-0.0023136334088576065,-0.0008185034203857032,0.000679399816560743,0.002015079940559968,0.0030644059416293987,0.0037541378770997195,0.004069380546245718,0.004052423008517589,0.0037866722233711866,0.003367668846119742,0.00287171955403735,0.00233489447462734,0.0017505535909122356,0.0010852452466890842,0.00030479094227314144,-0.0006008743614751661,-0.0016017776152798526,-0.0026218473011181873,-0.0035416480813364078,-0.004213109414470558,-0.0044915280804387215,-0.0042816709845908355,-0.0035801776352161196,-0.0024902924105049315,-0.0011964387514584085,9.145047933816985e-05,0.0011972728937097092,0.002015869657457218,0.002517754233175221,0.002729854490931683,0.0027100787880350186,0.002529508839903957,0.0022633622748188184,0.001981071364419843,0.0017264893027081625,0.001492282286214769,0.0012073140959833624,0.0007574007388613842,4.268247706048112e-05,-0.0009507960343644802,-0.0021039017269617547,-0.003174709529550829,-0.0038729616177675162,-0.00397108333794971,-0.003400915668079795,-0.002287944227802126,-0.0009040755913532089,0.0004392095635354035,0.001505594435689758,0.0022022550344636778,0.002573693703480601,0.002733618543122774,0.0027794719410613837,0.0027388561743115778,0.002572151970214125,0.002218614653020664,0.0016494919386448562,0.0008950212036137365,3.509535978859699e-05,-0.0008335487758953674,-0.0016313633373675614,-0.0023134192440050867,-0.0028636772109412135,-0.0032719543380679015,-0.0035090843505982783,-0.003517979650740256,-0.003230234227796111,-0.0026030579376303668,-0.001658102101940811,-0.0004994042401988404,0.0007048851352149925,0.0017747438555996181,0.002581670954019923,0.0030894494765481835,0.003347811212113222,0.003441856805215292,0.0034281419063540777,0.0032972747264648564,0.0029860976803495363,0.002431113800194372,0.0016285201220394001,0.0006608465347124092,-0.00033049256262939375,-0.0012135784964095676,-0.0019333330100029615,-0.0025312598543074044,-0.0030975706385488423,-0.003680493996116839,-0.004211734848270213,-0.004503787215091989,-0.004331718402668267,-0.0035569799743585596,-0.0022216910208297394,-0.0005575805021258151,0.001097525430133396,0.002431863758822535,0.0032724372439253404,0.003624393027281932,0.0036258911962934546,0.003452329352589742,0.0032253666995431,0.002971220078518059,0.002640336663902597,0.0021671319049546365,0.0015302805743809028,0.0007776037452309194,2.100033950370615e-06,-0.0007138517100914925,-0.0013473556665710865,-0.0019401195479296497,-0.002550829303761477,-0.0031834619017167766,-0.0037418407774447177,-0.004048579696972296,-0.0039258412522877924,-0.003292918728942008,-0.002221716052032245,-0.0009163846417821369,0.00037015841517838146,0.0014346031332735213,0.002185163196146468,0.0026420330744920334,0.0028872192761477465,0.0029989598954153034,0.0030078323359848964,0.0028933773372911637,0.002614742151154464,0.002151504449534157,0.0015289215040071944,0.0008132819000949603,8.09746734441794e-05,-0.000618680329810584,-0.0012804972797330072,-0.0019243609193931514,-0.0025485201626732146,-0.0030874508783325537,-0.003410075181990704,-0.0033703975184360066,-0.0028860526290327504,-0.001997536197039161,-0.0008695664933360222,0.0002695514594938928,0.001218160498855729,0.0018730842078652815,0.002247534722553163,0.002430353390030059,0.0025135141528548907,0.0025313409623076997,0.0024469082636873283,0.002191011016355934,0.0017239546662965832,0.0010745001549408175,0.0003274170589384094,-0.0004291986451683274,-0.0011533007570267042,-0.001853085131964435,-0.002540454275257368,-0.0031709611779555938,-0.003621599903595299,-0.0037308957917364625,-0.00337890375980274,-0.00255530358663113,-0.0013737457993347937,-2.8938998163643496e-05,0.0012720396074312836,0.002365044191617538,0.003150399243588742,0.003586357173129032,0.003674332839723473,0.0034518048441046505,0.0029934634111622627,0.0024074371881667913,0.0018123184720957634,0.0012946112059692334,0.000865963623828887,0.00044948769879948636,-8.605083785474907e-05,-0.0008527051522054813,-0.0018659694943056091,-0.003006683646031059,-0.004046909330771872,-0.004730382666127542,-0.004868991893627251,-0.004409760116779877,-0.0034449908884290883,-0.0021687984927923256,-0.0008070869284238057,0.0004469486172717598,0.0014714769136390288,0.0022249196991321525,0.002731371222791195,0.0030513802994937235,0.003247194789910732,0.00335324764694639,0.003363246160339341,0.003240146777912844,0.0029445664889744937,0.002466494570695205,0.0018413244453800443,0.0011377668944423478,0.00042093534277206257,-0.0002879674885170317,-0.001025287006577824,-0.0018531822744055713,-0.0027933463182148875,-0.0037663152428079752,-0.004582109686295748,-0.0050007998304749945,-0.004837258211055595,-0.004053276784061784,-0.002784673977107145,-0.0012883255269309694,0.00016056217292358533,0.0013655299185150159,0.0022534952436854905,0.0028543237924693004,0.0032399045529328562,0.003464973127478524,0.003541664176862821,0.003452086631471307,0.003179181003949285,0.002730819533605417,0.002143946770769072,0.001471111860191273,0.0007599309679677581,3.617239561637278e-05,-0.0007013751261525664,-0.0014688172192590335,-0.002268145842267433,-0.003052405949436589,-0.0037067133196152227,-0.004066341231399099,-0.00397552450466295,-0.003363478324042252,-0.0022963062367686226,-0.0009711615870591369,0.0003495667606170343,0.0014318538860003337,0.0021448355037760837,0.0024832746168854903,0.0025340001434614526,0.0024112183778765726,0.0021985685918367672,0.0019273763594424757,0.0015954617033975662,0.0012036767239485804,0.000776279857284057,0.0003461421652947329,-8.199072992028951e-05,-0.0005522430401177028,-0.001130644802774555,-0.0018363289742694034,-0.002577867028556533,-0.0031505904646144866,-0.0033145806814198586,-0.002915629643974821,-0.0019760239671123107,-0.0006967461141887913,0.0006314843203097852,0.0017534813098472356,0.0025374676169244107,0.0029829698219721898,0.0031621481478070687,0.003147029006246321,0.0029715754497081203,0.0026409030437025186,0.0021633487909728725,0.0015713199534029946,0.0009144276557599752,0.00023345789045644302,-0.00046293756323811746,-0.001199970916922033,-0.0020110187219711875,-0.0028943946912023052,-0.0037754679971832485,-0.004500293973069015,-0.004874564237332107,-0.00473669060587421,-0.004030648685248302,-0.0028394428998108614,-0.001359373957979121,0.00017203844266559326,0.0015561563655424636,0.002681173401759067,0.0035200303669578486,0.004091011572111124,0.0044123676536823135,0.004479162723356519,0.004271660580008939,0.003784301540488657,0.003053630417553161,0.002165013328648392,0.0012290535555576007,0.00033548007355547603,-0.0004908649038807727,-0.0013003821754812527,-0.0021767986593183245,-0.003156458351513373,-0.004155590150461975,-0.0049602527827971275,-0.0053023215559489505,-0.004989232846900341,-0.004013070174970564,-0.002569414865784026,-0.0009698981395403505,0.0004998560940928541,0.001690332097763004,0.002603101954794639,0.003313268036536126,0.003863542012173268,0.0042083728210325485,0.0042450412464935215,0.00390320020220825,0.0032226805395760842,0.002359898727867374,0.001515164251011962,0.0008271582680920038,0.0003001713665122748,-0.00019356561761757902,-0.0008387850335908216,-0.0017684862710304462,-0.002973269220320378,-0.004269399415002257,-0.005341968595824145,-0.005851201289007597,-0.005564344189682822,-0.0044599713979253715,-0.0027551432851782203,-0.0008340267656417077,0.0008977557693411675,0.0021672138652394078,0.00291952560530581,0.0032907614794022294,0.0034868978276240076,0.003644775904892186,0.003761157442411318,0.0037290761680036782,0.003446147207502339,0.002910383876685647,0.002231977626257517,0.001554754111113411,0.0009491569592698704,0.0003592194077727454,-0.0003539361219515164,-0.0012987627504558962,-0.00244607437808338,-0.003600893066013598,-0.004475098582062145,-0.004818474365046211,-0.004530801618576452,-0.0036932767580386914,-0.002511143291973447,-0.0012139080512490776,2.1868364084725233e-05,0.0010902118481711008,0.0019271274799648281,0.002480716188176634,0.0027146943464822874,0.0026412308821889127,0.002347241986712927,0.00197900202577092,0.0016803891625128185,0.001516249423719844,0.0014286523226070273,0.0012590226201941888,0.0008317500670622937,5.763859911139585e-05,-0.0009984240085758461,-0.0021232478729481625,-0.0030333200130965455,-0.0034863691966599405,-0.003372257267187191,-0.0027422501166239613,-0.0017696103917026816,-0.0006696413430626513,0.0003760226196542825,0.0012565341491166068,0.0019249375683348844,0.002368797088525857,0.00258725109430242,0.0025891045047653706,0.002404465479749751,0.002090258802334429,0.0017157173859136037,0.0013314073035295172,0.0009405358414070293,0.000493476177328322,-8.552551506062575e-05,-0.0008491187809157476,-0.0017790090532080038,-0.0027648309747114914,-0.0036228071868200794,-0.004148761960169237,-0.00418514695623703,-0.0036762163553256833,-0.0026900557007884696,-0.001398744797708101,-2.4384607716610666e-05,0.0012272984120966794,0.002219002334155542,0.002899887792453685,0.0032869847155517704,0.003426260193216223,0.003359162704329268,0.003113342287708585,0.0027164609685879936,0.0022137833302832348,0.0016675805970522359,0.001131746376942598,0.0006170575285901756,7.468657035680475e-05,-0.0005817711927283573,-0.0014188351772730788,-0.002418513768639517,-0.0034455371955239905,-0.0042731439231089375,-0.004663672479071892,-0.00446825756343715,-0.003695555965530607,-0.0025128383415960486,-0.0011779215994175266,6.294310479343848e-05,0.0010599218572428667,0.0017888882170175697,0.0023191035923497676,0.0027444328998465052,0.00311705315583895,0.0034154108273787512,0.0035576503872621276,0.0034495869473472702,0.003041441670073423,0.0023639082148296277,0.00152277479022798,0.0006514935074918647,-0.00015391019017406372,-0.000877880983815715,-0.0015749213090229999,-0.002306133535236611,-0.003060229083588214,-0.003713241812497615,-0.004062406073842027,-0.003923585519533767,-0.003237542048867514,-0.0021196864020824814,-0.0008206564108922794,0.00037998948497104597,0.0012850974026185134,0.0018362654629053305,0.0020942837049589074,0.002169754673402973,0.0021539492268153053,0.002088936300945283,0.001981863928158065,0.0018364429815990778,0.0016672269262215007,0.001482699716313581,0.00125398245085209,0.0009026093033570406,0.000330669087617267,-0.0005133385338625637,-0.0015692874963685309,-0.0026460714737378396,-0.003472094029811289,-0.0037982730560864727,-0.0035014956386737652,-0.002633997991317931,-0.0013968995676668415,-5.964626175339766e-05,0.001129659442834985,0.0020060759735494515,0.002509366518005961,0.002672261705143757,0.002588013937564265,0.002367733016066556,0.002097127686755313,0.0018044152370831994,0.0014518267754782734,0.0009579205395995249,0.0002465518399059057,-0.0006951051089020135,-0.0017760540024993178,-0.0028031198278652626,-0.0035336378034918907,-0.0037629210512615946,-0.0034083141350375844,-0.0025479714931101937,-0.0013928213991743965,-0.00020414293226683874,0.0008032571582194166,0.0015266374488080764,0.001982009187685284,0.002255098114222636,0.0024278560085903744,0.002523304133386196,0.00249947909229013,0.002292515319128856,0.0018769944579368932,0.0012999293243017083,0.0006624822233110659,5.977481805751633e-05,-0.00047995177294960574,-0.0010107669955927937,-0.001619643006198614,-0.0023371775876392708,-0.003067792610467419,-0.003595937991940984,-0.0036794584140716954,-0.003180710672753023,-0.002154392276830985,-0.0008345187880185166,0.00047309830822511045,0.0015270802134324307,0.002235404240508317,0.0026473053091230453,0.0028721045092618804,0.002987104679491511,0.0029935070043654636,0.002838440831451631,0.002474998441787252,0.0019116175920514738,0.0012162381484774588,0.00047534229876672264,-0.0002604049844698408,-0.0010026124158423952,-0.001800365500092635,-0.0026757730314471186,-0.0035614307820216887,-0.004285688488638001,-0.004625240412339627,-0.004403032837895086,-0.0035791654699278428,-0.002283156450463956,-0.0007679262617175467,0.0006901689266409206,0.001891529403175354,0.0027625862271909293,0.0033353749437024134,0.003680452310481092,0.0038413743660235524,0.0038118653663387174,0.003563176104913563,0.003093134765084615,0.0024554965762883176,0.001745807868060945,0.0010528785397996897,0.0004090601075470663,-0.00022676667002497684,-0.0009399264970947872,-0.001798028318853626,-0.0027885379960831133,-0.0037893294732893887,-0.004590658350584102,-0.004963265987653733,-0.004745547987871807,-0.003912700932254196,-0.002597344744973298,-0.0010514335588725759,0.0004359055316428023,0.0016312114450296809,0.0024218316682908295,0.0028269425687410072,0.0029536327153127503,0.002924845274112946,0.0028192247276565526,0.0026520721040388636,0.0023983927758824343,0.002033209725600631,0.0015582498407950035,0.0009994836492616098,0.00038366769424143596,-0.0002824866992739906,-0.0010088624909770794,-0.0017904238210732666,-0.002566852629259581,-0.003205108203983501,-0.0035274786650772065,-0.003380000933372472,-0.002708400616062036,-0.0016005138650840947,-0.0002704685111300628,0.0010106555505741337,0.0020072116483698097,0.0025936231875443466,0.0027792471007404202,0.0026756613029528054,0.0024273254918306788,0.002143742294728118,0.0018651154500800829,0.00156843253726013,0.0011967498480075036,0.0006894451487818104,4.571195009030727e-06,-0.0008617598214255174,-0.0018553102563735827,-0.002852512637744533,-0.0036752342351653268,-0.00413799735508583,-0.004111566042728017,-0.003571733054396971,-0.002608428934702053,-0.0013931679982712563,-0.00012429094919481096,0.0010248073721121106,0.0019386202105639823,0.0025707703956797325,0.002937506775833865,0.0030977007919589907,0.003123444680011469,0.0030688509201085646,0.002948952824753683,0.002739118575281624,0.0023953909544745062,0.001883313847538118,0.001197550458163377,0.00036257542414716635,-0.0005798832025770707,-0.0015812400080943867,-0.0025830743118503696,-0.0035036696371762484,-0.004229059358160481,-0.0046243016802762485,-0.004569449471149967,-0.004008470571120139,-0.002987932519390316,-0.0016625962609865233,-0.00025810866744882576,0.0009984943982882242,0.0019513604707059016,0.002557054926148619,0.0028742302651671016,0.003009659244197255,0.003053244027049795,0.003038443637702324,0.0029450695947126158,0.002733517617863372,0.002382474594195302,0.001904692857398538,0.0013330267841468952,0.0006902735060009379,-3.10472133767867e-05,-0.0008581476920596514,-0.0017978270537984098,-0.0027920893288036416,-0.0037027132578032872,-0.004341947114786418,-0.004537366698361351,-0.004197764208581508,-0.0033483921858282004,-0.0021242620729753415,-0.0007316800925936489,0.0006038489200687838,0.0016896607597138868,0.0024093125815038076,0.0027476186023701267,0.0027857411989852827,0.002661528100953779,0.0025070848401738464,0.002391961924573396,0.0023021097369395065,0.002166114639793186,0.0019107364959678064,0.0015077367241735683,0.0009800141895827377,0.00036587693802919675,-0.00032539211398901894,-0.0011230142208546426,-0.0020506768849776254,-0.003054943145948678,-0.003961862219294095,-0.004507325378948499,-0.0044410891651093035,-0.0036542296145802705,-0.002258695689029006,-0.0005691431074285673,0.0010115720612257947,0.002150172528460818,0.0027069705762807384,0.0027657530664326945,0.002558260892121951,0.0023275443119502295,0.0022054979636568018,0.0021678456106511523,0.0020816013451939656,0.0018053946977808306,0.0012763071163917293,0.0005339955570318061,-0.00031965525111338834,-0.001183412485321182,-0.001990995804966628,-0.0026957902293848982,-0.0032291721396056393,-0.0034786082939691925,-0.003316179938295887,-0.0026679801382047475,-0.0015814198466430522,-0.0002441761394797519,0.001064738037742498,0.0020731190796436827,0.0026168360430444456,0.002695307145504391,0.0024548024875987577,0.0021092052526039008,0.0018385158696389236,0.0017142176343047223,0.0016831971015096323,0.0016093362587467313,0.0013441942262002948,0.0007908134598434594,-6.195259109102779e-05,-0.0011365763958800282,-0.002285102136669077,-0.003319018369364305,-0.004047480954147259,-0.004321261808498067,-0.0040728494563623645,-0.003337149442078982,-0.002241483656586047,-0.0009674513958891522,0.0002992946337482468,0.001411484302070613,0.0022817730404826337,0.0028817130457303485,0.0032258242060318578,0.0033517949046694604,0.003304779136941773,0.003127289960465538,0.0028514439227373266,0.0024909009949223146,0.002034663746867085,0.0014489020036989094,0.0006916415182215878,-0.0002613875993670323,-0.0013885814908264054,-0.002603679775037337,-0.003755646427679106,-0.004651174601833998,-0.005097731530145913,-0.004958282957084125,-0.00420152939029969,-0.002927249814288758,-0.0013508999358253088,0.0002531526347869245,0.0016307539710775942,0.002618009578194453,0.003173925002680547,0.0033649073763826597,0.0033130290929301903,0.003135792967531188,0.00290576969887568,0.0026434428688928424,0.0023354826025078637,0.0019582440639665105,0.0014907395932182842,0.0009163604291573435,0.00022347446364573382,-0.0005868194570685642,-0.0014872325532658366,-0.0024135902465122986,-0.0032648127069392035,-0.003916488612162696,-0.004246154242106739,-0.004164920352886054,-0.003646987693193646,-0.002746428546142206,-0.0015920487178412279,-0.0003579698748360512,0.00078216794231054,0.0017010067373239364,0.002345200537200982,0.002733727973822663,0.002928368338196594,0.002991788212417295,0.0029560627242254415,0.0028187792881512446,0.0025655590979133946,0.002198075111964619,0.0017416921359684231,0.0012239949349257431,0.0006431639659486518,-4.0321279270993764e-05,-0.0008694705999840526,-0.0018298787586039649,-0.0028062102551098373,-0.0035967491319806324,-0.0039901679325467605,-0.0038641007477000985,-0.0032459572646658104,-0.0022984773147681817,-0.0012405437700209862,-0.0002529702561493277,0.0005772312769976092,0.001250877514962132,0.0018055429233025787,0.002259178711848316,0.0025840774083352148,0.0027226349136806327,0.0026290135694670533,0.0023061125190507606,0.0018120722484362306,0.001230925272214542,0.0006260646497597154,8.427003655301138e-06,-0.0006559117418979806,-0.0013989560407679,-0.002192440485159615,-0.0029171112270689223,-0.003385830673217232,-0.003415748678124278,-0.0029142799774616477,-0.0019327911856404966,-0.0006583879635851489,0.000651939753529331,0.0017605473123101342,0.002518944565446439,0.0028910909981270444,0.002931039888187572,0.0027380131947928885,0.0024156531809996565,0.00204826718790151,0.0016896098106348163,0.0013545101607674156,0.0010126765043485947,0.0005948119821923963,2.0058146108510453e-05,-0.0007601364524519986,-0.0017213581805703877,-0.0027512131220443423,-0.00367068762801379,-0.004284665576969992,-0.004441326376401908,-0.0040779023429434605,-0.00323759863808118,-0.002054425004157972,-0.000714135838922172,0.000593614345127813,0.001716474854376636,0.0025636175666115413,0.003109485621643813,0.003379478628400207,0.0034247096573593455,0.003296595354092391,0.003032390545421611,0.002657167420586502,0.002197251015814189,0.0016909932614119962,0.0011825694181899153,0.00069610300048896,0.0002054594858320307,-0.0003727653451275382,-0.001141592144403043,-0.0021468854087052934,-0.0033012026153546635,-0.00436377756682853,-0.005010206326714568,-0.004972032419674342,-0.004175133181242247,-0.0027950212875736025,-0.0011897925228943691,0.00025770879698014523,0.0013036123553086113,0.0019252615867819496,0.0022826153223423663,0.002587820208944498,0.0029614744186880013,0.003358146232340298,0.003600989365481702,0.0035002634475644846,0.002980972397596787,0.0021404537224536486,0.0012006310569513436,0.000384948318261296,-0.00020366685848487403,-0.0006286137916736522,-0.001061574855478106,-0.0016573478039091623,-0.0024393358005833157,-0.00326529630293775,-0.003891153225757738,-0.004090046856847261,-0.003754625065478779,-0.0029297934982563797,-0.0017729879908122313,-0.00048201963800822707,0.0007619219396056862,0.0018157701191603335,0.0025749436942272214,0.002978675934231153,0.003028095001013837,0.00279824567711182,0.0024191829893757183,0.0020230905752139563,0.0016839798227619347,0.0013872111923208977,0.001048763343414777,0.000572644685859883,-8.794209391739454e-05,-0.0008994928002246689,-0.0017593686060225007,-0.002534904728779808,-0.0031030220515157188,-0.0033711164715397235,-0.0032808009261191054,-0.0028107493974894532,-0.0019905070075848224,-0.0009181870849954074,0.00024009572331665062,0.0012862039180400603,0.002054277492474903,0.0024712781107913313,0.002577337654553237,0.002491790427584403,0.0023444816128581954,0.0022124320428935948,0.0020951356804127224,0.0019345319942109898,0.0016585410021770744,0.001217735099335666,0.000597000134526311,-0.00019289695931697784,-0.0011229557217468421,-0.0021361789306331034,-0.0031257715489494383,-0.0039277366310288015,-0.0043533516224177485,-0.004259704949892899,-0.0036222993022842057,-0.002561813173397134,-0.0013010599742357353,-7.264035259218452e-05,0.0009698384380179695,0.0017871778209433036,0.0024222365923121138,0.0029281987477455377,0.0033081644079564175,0.0035054223488767615,0.0034473600131912736,0.003109088970066836,0.0025499110808341794,0.0018945291511355902,0.0012680417557606456,0.0007246558532409447,0.00021529541149734467,-0.0003833101535177194,-0.0011907399880826536,-0.0022358409754937377,-0.0034056315270685695,-0.0044588553808274445,-0.005103439688038227,-0.005107289640398433,-0.0043946111875898955,-0.003084034738812736,-0.0014496297418223432,0.00017935140087561331,0.0015353638665593279,0.002492695780734594,0.003075328958685555,0.0033953594265024338,0.003562951172474509,0.003622173985916517,0.0035459681070708115,0.00328283432318185,0.0028161889452937537,0.0021943201721216416,0.0015122899695884534,0.0008586992915465939,0.000261213484555004,-0.0003340308114014815,-0.0010315228775082852,-0.0019143716661635477,-0.0029669966423133357,-0.00403707705300815,-0.004865873999163469,-0.0051819151865429135,-0.004817691342179195,-0.0037922659629453584,-0.0023155348112469734,-0.0007080431782896612,0.000725271974659497,0.0018036777017477142,0.002508188630945757,0.002936031657101065,0.003207334052437351,0.003383158550353006,0.0034404253552266354,0.003309203746859444,0.0029386170458065696,0.002343687027397924,0.0016032011803330162,0.0008142101396856209,3.825163245985669e-05,-0.0007207975632555438,-0.0014899127152006616,-0.0022691108930020256,-0.002984977286490679,-0.003493512931500259,-0.0036381874704768504,-0.003330426663202506,-0.0026021606474724,-0.0015971456970398706,-0.0005079717305837804,0.0004999798853144521,0.0013323633645764639,0.001959821111629851,0.00238104179015891,0.0025914717208070925,0.0025814861502156715,0.002358367420774044,0.0019657288304662716,0.0014776319541705888,0.0009669936610317718,0.0004696042346735837,-3.0035298173135664e-05,-0.0005785651934411553,-0.00120832783040595,-0.001891676579790369,-0.002522604413350032,-0.0029409251435272127,-0.0029919241833499823,-0.002593655009388179,-0.001778424053560853,-0.0006890045405328403,0.00046620938811075456,0.0014771191944061995,0.0021889448144156616,0.0025338283724074383,0.0025312808309758245,0.0022643245339037895,0.0018451837760307503,0.001382506111669766,0.0009547152717551827,0.0005899227143744788,0.0002566455242711188,-0.00012456503533542847,-0.0006417686015203439,-0.001333756381662838,-0.002141416145813528,-0.0029005507281875263,-0.0033901443010967407,-0.003418110265706872,-0.0029022747929913864,-0.0019055846096404168,-0.0006111473324898498,0.0007439334393462595,0.0019395450609758422,0.002819399012839991,0.0033066179355345626,0.0033987458571620955,0.003155562985402106,0.002683944735683642,0.0021144212744748586,0.0015637936163177693,0.001089301226391286,0.0006557066111582868,0.0001437927774794587,-0.0005852304879078994,-0.0015891677511433956,-0.0027623633229697858,-0.0038314835394308664,-0.004452695230058784,-0.004370787496750033,-0.003554468934198654,-0.0022273721167647377,-0.0007716175502636799,0.00044557850398552196,0.0012282640221596482,0.0016097401881482105,0.0017895858359131315,0.001994517941821548,0.0023445830634392607,0.0027946618635156795,0.0031730289148551053,0.0032839440076374276,0.00301054555662841,0.0023623792151870656,0.0014505087179529671,0.0004170280797770382,-0.0006313780204684933,-0.0016456648519093014,-0.0026050979951247177,-0.003463566610588699,-0.004114505137530288,-0.004405747722656682,-0.004203468884018809,-0.0034704662240230113,-0.002310032886511918,-0.0009439621175597049,0.00036739614800728447,0.001420115422485276,0.0021273288075679777,0.002520360308590418,0.0027002936710850576,0.002772705323590965,0.0027991021668535964,0.0027830013600521485,0.002688588411136468,0.0024754322334265655,0.002128087290374957,0.0016643572360554343,0.001118370320084317,0.0005101043798132617,-0.0001761519109026757,-0.000983679846895704,-0.0019409215327078073,-0.0030034488187887396,-0.004016634687295411,-0.004734052024005573,-0.004900317214093761,-0.00436617940851709,-0.0031747375025251625,-0.0015654973544522199,0.00011249280330009423,0.0015343578809958176,0.002510001582932622,0.003018628044015377,0.0031613690778511333,0.0030727011273316506,0.0028483114680237253,0.002526006789814756,0.0021146466672543685,0.0016344180893463546,0.001130601968185665,0.0006494164183371967,0.00019738034605021367,-0.0002784334372094001,-0.000863753488255163,-0.0016106725772886328,-0.002469412158848605,-0.003265505141530648,-0.0037480892316052827,-0.0036936309390459667,-0.003013484629873123,-0.001807135833436777,-0.0003314564019471298,0.0010975090001590663,0.0022185029120855146,0.00289967611945436,0.0031469499378247207,0.003058470085543698,0.002761948727977236,0.002368393093185918,0.0019532132142518954,0.0015548004551936222,0.0011760188991774036,0.0007839771812876906,0.00031539299248275175,-0.0003023970090832354,-0.0011134547180118508,-0.0020908188779414105,-0.0031117250299711264,-0.00397084535291519,-0.004437355515940221,-0.004339029727724504,-0.0036373920614524748,-0.002455818962343968,-0.0010426737809140717,0.0003161804918468096,0.0013960774173953961,0.0020997799528327697,0.002464595706536888,0.0026126764751282943,0.0026738898194681214,0.002721976117770261,0.002753535557404755,0.002712730048809296,0.002539699346071958,0.002211889459060018,0.001756160620114688,0.0012271539151839574,0.0006653249501608202,6.1006272053020904e-05,-0.0006472024876488543,-0.001526981186027456,-0.0025775548887052493,-0.0036711240765984494,-0.0045575863577179765,-0.004947257998696436,-0.0046375303140743585,-0.0036170563875070564,-0.002088673217152784,-0.00039631326670587453,0.001106405600000644,0.00217990813341671,0.002759218017225694,0.002934196281296253,0.002872840784537687,0.002732355111112213,0.0025988614323024044,0.0024753224388089938,0.0023117069322535527,0.002053358870533492,0.0016790418155663942,0.0012091128660028127,0.0006820749674083034,0.00011693425368829353,-0.0005098987669584804,-0.0012495345931419015,-0.0021270799971267926,-0.003079842361042043,-0.003933180321492923,-0.004443930041587286,-0.004399379227894304,-0.0037207239901851192,-0.0025132233976693187,-0.0010354571502176535,0.0003956578592520844,0.0015178764930537793,0.0022059265164213913,0.0024924547372810043,0.002523709175743398,0.0024730888761640185,0.002454930954365977,0.0024811608126545093,0.0024792297511750144,0.0023529073779631777,0.0020429375971629635,0.0015503122673791875,0.0009159636649887376,0.00018302880426323068,-0.0006221532751182558,-0.0014726722762336709,-0.002302535448818966,-0.002984982381742755,-0.003359076280977994,-0.0033009080826578983,-0.0027966087291476987,-0.0019642026637512276,-0.0010031454144414425,-0.00010185927007633477,0.0006363185343302386,0.0012040889725594283,0.0016415758117127293,0.0019732500855281308,0.002179071447154791,0.002215366107382868,0.002060678406105981,0.001745490940766026,0.0013409037701967279,0.0009140403564435447,0.0004826600814650247,2.9159102158696714e-06,-0.000596799901669683,-0.001352703458382661,-0.002210174001427042,-0.0030115067385218736,-0.003540151012274331,-0.0036047137548665623,-0.0031240515329621315,-0.0021716153233019117,-0.0009548962729849561,0.00026322930926681975,0.0012652173301834246,0.0019534046370976088,0.002362536608431721,0.0026068428144960572,0.002794571164155431,0.0029613929805365974,0.0030604724042052342,0.0030079412013282792,0.002745114807475777,0.002271012151794585,0.0016261121752871924,0.0008483308927864433,-5.690147125456894e-05,-0.0011037671417445038,-0.0022764255372871647,-0.0034778641648235643,-0.0045167484981562134,-0.005150777121817416,-0.0051728297063613135,-0.004500433251203963,-0.0032235058610217797,-0.0015844106656016316,0.00010132047248001384,0.0015459676255842679,0.002568002307960878,0.0031206748201716957,0.0032702691977425638,0.003143633488843256,0.0028714464165922834,0.0025489193307707183,0.00222352419215014,0.0019050277562574788,0.0015833854217091605,0.0012402747261075185,0.0008492477369167699,0.00037082425043702237,-0.0002446987279247163,-0.001036146717254566,-0.00199302421092738,-0.0030176403666520974,-0.003917180087121485,-0.004447644092543354,-0.004402650144304438,-0.003706725141460771,-0.002461354278107044,-0.0009150398805154085,0.0006284757619750619,0.0019160553200364139,0.0028135492445569917,0.0033107124497022983,0.003473882992305187,0.0033840857541213264,0.003099256830477388,0.0026566131346982894,0.002100853771520031,0.0015052936862392614,0.0009581867971155725,0.0005138982965125912,0.0001416301251811207,-0.00028178225404647066,-0.000909809723979853,-0.0018173441443370352,-0.002909573533388471,-0.003916233790300846,-0.00449315138937084,-0.004384528635834422,-0.003555173389639353,-0.0022153112028774676,-0.0007240697979100525,0.000572153620707489,0.0014780958286378107,0.0019972116749215115,0.0022759510096228407,0.0024876087203432743,0.002725088393973342,0.0029581760409717398,0.0030679958376637903,0.002926471486746662,0.0024686457624605567,0.001719559898500543,0.0007715906821006463,-0.0002617505012053224,-0.001281495296560643,-0.0022095801703051598,-0.002972450958457914,-0.003485880280014963,-0.003662474463812678,-0.0034431804205459562,-0.002832658162594784,-0.0019136107626342102,-0.0008299647231551298,0.0002514998237060904,0.0011831258941248778,0.0018687860973995568,0.002280808061048067,0.0024577006840499635,0.0024799760230697853,0.0024288693399365036,0.0023454058323536357,0.0022129710978245074,0.0019750005945030854,0.0015755831324888562,0.0009938511024571253,0.0002493601565185054,-0.0006181878699936304,-0.001567973994813695,-0.0025501453239387102,-0.0034727085767869946,-0.004176341453542589,-0.00445666632596852,-0.004144101053968274,-0.0032045768835113264,-0.0017960907972972332,-0.0002319967883035014,0.0011434997922585384,0.0021038629977786433,0.00262734984454667,0.0028703246120176072,0.0030434680299489822,0.0032681539892524796,0.0035015572144089773,0.0035735431566932792,0.0033068884764555183,0.0026412109255372768,0.0016809400379253553,0.0006370017112351006,-0.00029997494738350807,-0.0010716489102937155,-0.0017723200507002062,-0.0025580788801073963,-0.0034995036875265523,-0.004475961173120928,-0.005190152065971497,-0.005307337499614469,-0.004640976974731906,-0.0032713525950437855,-0.0015225677693657996,0.00018849303090974316,0.0015396437215980771,0.0024193234203480664,0.002915214539575718,0.0032013711177553443,0.0034059937487707585,0.0035410553291365813,0.00352514705374304,0.0032695581729698586,0.0027630901623780825,0.0020994788423657376,0.0014316108710036588,0.0008825900639992696,0.0004693332848213441,8.680990720082812e-05,-0.0004340049459111997,-0.0012230064127232768,-0.0022762455798996683,-0.0034201341672291325,-0.004357834150207357,-0.004782841795693562,-0.004510983525700926,-0.003567856232773934,-0.002185130426974509,-0.0007035144940017541,0.000569417852077116,0.001472762232091503,0.0020202924201329748,0.0023362692783730787,0.00254591004869228,0.002691620070325025,0.002725062375274069,0.0025711375781808203,0.0022091336738191913,0.0017056114838423769,0.0011722491809349588,0.0006815281418456757,0.00020827060933172742,-0.0003516361124428337,-0.0010904864651854317,-0.001986033900621081,-0.0028605443207189553,-0.003438073310866383,-0.0034736262968123113,-0.002881309817019537,-0.0017877723139525024,-0.0004811132280159733,0.0007149143441933207,0.0015727057284794196,0.0020325390336469484,0.0021862441905888103,0.0021928519829955994,0.002177631859940807,0.002167638491577662,0.0020924435144759105,0.0018421929286242611,0.0013445539511057949,0.0006137367724732767,-0.0002553282162708299,-0.0011377742149702957,-0.0019355347598387655,-0.002600164877538208,-0.003109748231822862,-0.003424227952346627,-0.0034617296986247663,-0.0031241193608781805,-0.002362047260408512,-0.0012359686347470818,7.333113976364298e-05,0.0013198002533763398,0.002284909820726276,0.002856347300985246,0.0030511540661642606,0.002977352672019286,0.002763766941234838,0.0025008901678257684,0.002220859924825867,0.0019153177595719526,0.0015669078868688039,0.00116690704950132,0.0007075964377173264,0.00016170127756062963,-0.0005237674293477599,-0.0013979774448524694,-0.0024466423791359294,-0.0035391132934381583,-0.004429518856811036,-0.004833991905899022,-0.004556126991768027,-0.003592837769420611,-0.00215533101049643,-0.0005872827323979381,0.0007776113817483585,0.0017439927726147835,0.002306677709982308,0.0026075591747157143,0.002827533517729447,0.0030729822187449147,0.003315673378726007,0.003415342820336639,0.0032096603701803257,0.0026195355008233256,0.0017093266728216722,0.0006671096844450056,-0.0002843935423247956,-0.0009963007744452624,-0.0014604782695148465,-0.0017967336938300767,-0.002166227363175219,-0.00265887851427721,-0.003219197300621477,-0.003655323298523582,-0.0037291554706617045,-0.003278565167770865,-0.0023048838634087913,-0.000980548479501869,0.00042238517423052926,0.0016409441900671787,0.00251086691958541,0.0029973797812626094,0.0031624670960400244,0.003098119198071974,0.0028702032153574385,0.0025050502465292553,0.0020175915836929976,0.001448171180413153,0.0008692382992335799,0.00034946385353169535,-9.813143841805837e-05,-0.0005375640014671692,-0.0010719940938309833,-0.001761868700872158,-0.002551738032328279,-0.003259277313935612,-0.003642107179046587,-0.003508239204573106,-0.002809474159822093,-0.0016699153989929295,-0.0003406753446775142,0.0008915150385290892,0.0017994004554745982,0.0022789195968065277,0.0023642117659778317,0.002194568826865989,0.0019481723535760694,0.0017670439039278681,0.0017012262915898286,0.00169461379849855,0.0016183155467256478,0.0013352313211371183,0.0007642576427905661,-8.478494356733637e-05,-0.0011150979904871032,-0.00217349093095698,-0.0030865846811636757,-0.0036897774432554553,-0.0038506811484250916,-0.0034947570224939314,-0.0026330168311840597,-0.0013788251596096542,6.310595296750378e-05,0.0014421068749230566,0.0025300433829424573,0.0031874062304069204,0.0033984205371338037,0.00325734821030315,0.0029106911667137764,0.0024845169914262605,0.0020362785887396793,0.0015554254655722431,0.0010043616671327913,0.00036470254793502597,-0.00034531103061555984,-0.0010882989260974302,-0.0018346652680043545,-0.002566271583546418,-0.003248289078786173,-0.0037949986372514243,-0.0040683469726170525,-0.003925948008660038,-0.003295091931898397,-0.002225136413965954,-0.0008831115949834506,0.0005043896285414775,0.001727449312564854,0.0026479467944865243,0.0032159664777781697,0.0034547723687616176,0.003431877714449771,0.003229205151405898,0.002917656661201926,0.0025390919085576673,0.0021000587585107196,0.0015802745964304267,0.000952601142017462,0.00020449304345541145,-0.0006499023651997131,-0.0015705276682375555,-0.0024982812280834317,-0.0033569388624062383,-0.004046744160987575,-0.004441164670798389,-0.004405983453149468,-0.0038481153468188124,-0.002775150866778835,-0.0013275337869896207,0.0002468490061261397,0.001672930187060709,0.0027455522829972056,0.003392674452268909,0.003672432468203442,0.0037091718094395764,0.0036072539882848415,0.003392840676735488,0.0030170947255360927,0.0024173165145700637,0.0015945776428225359,0.0006509682873216513,-0.00024811314467962516,-0.0009690392729033068,-0.0014970493307557202,-0.0019464296587924155,-0.002475806927352336,-0.0031609360222599535,-0.003912065847463212,-0.004494188686498771,-0.004638944535248077,-0.004178953650696458,-0.003127891183500756,-0.0016709055549795962,-8.462029218213513e-05,0.001363122503143252,0.0024878689098408076,0.003216392603875859,0.003571377133855387,0.003630954805185123,0.0034850396285294972,0.0032060109989318943,0.0028406305644043065,0.002417679015118129,0.001958742356094283,0.0014820193767622327,0.0009977358275837316,0.0005010271802348308,-3.0461122449274697e-05,-0.0006295708432076765,-0.0013216792511056461,-0.002098407768287469,-0.002892689673750411,-0.0035718707267939553,-0.003963985134121,-0.0039170557561883645,-0.0033686018591528866,-0.002388697138503771,-0.0011682439915129462,4.7494431325237926e-05,0.0010491931726400012,0.0017330775950096992,0.0021170112844291883,0.002299756669282521,0.0023903211654859144,0.002447918145311735,0.0024626034373336613,0.002379632161990247,0.0021447969694787534,0.001739164028196337,0.001183427089487486,0.000515329589732033,-0.00023734243806212393,-0.0010633418755718904,-0.0019452154929174392,-0.0028218860086425377,-0.0035662128492593512,-0.004002570210847344,-0.003966505261459599,-0.003380630375515375,-0.002306117755319929,-0.0009385006789951793,0.0004546063986901116,0.0016255126633008578,0.0024254754629399774,0.0028366105134736315,0.0029471942257394187,0.0028882925799645787,0.0027668869354630114,0.002628882846576613,0.0024644610329585233,0.002240461925330392,0.0019294399252634202,0.001514387033354366,0.0009739149660512677,0.0002725584861094164,-0.0006223850258295637,-0.0016994480120777816,-0.0028630481826918564,-0.003927219517440362,-0.004659197033559421,-0.0048605299553042755,-0.004448658111935545,-0.003496105933541253,-0.002204003847103165,-0.0008223496278382831,0.00044074312411505857,0.0014745329069713164,0.002263819302125553,0.0028431557427350583,0.003243474916669981,0.0034649415949724776,0.0034868623359839727,0.003299292992738464,0.002927993859905075,0.002431138272387756,0.001867572115890236,0.0012585922935893661,0.0005727394205252949,-0.0002503901586788191,-0.0012470471699650557,-0.0023769481948217215,-0.003503364168123368,-0.004420804468166105,-0.00492125428217852,-0.004870831408076311,-0.004262246974626628,-0.0032167189248073786,-0.001930758309958904,-0.0005920695712003585,0.0006897010723799143,0.0018944760756178399,0.0030356171520737898,0.0040733332716250846,0.0048634542249167195,0.00519145005323002,0.004885228363877843,0.0039405116982960935,0.0025733164580766343,0.0011519933776030632,3.364714098225271e-05,-0.0006087567588062247,-0.0008697089755871424,-0.0010514200970640954,-0.0014866165925600187,-0.002337404394643163,-0.0034804698895104756,-0.004543475962382004,-0.005075942005766901,-0.004766783031607534,-0.0035981613330891295,-0.0018604180769256243,-2.4530297795716618e-05,0.001460833829577135,0.002346496398623502,0.002651771220369424,0.0026028051019165964,0.002485042247166146,0.002492600324646076,0.0026484055204724034,0.00282303873497856,0.002826095020636459,0.002510823042662909,0.001835907724079699,0.0008621016912621712,-0.00029616639995302355,-0.0015198060148102236,-0.002699271496159523,-0.0037134440845204234,-0.004407080333399341,-0.004606796394739786,-0.00418606784560439,-0.00314641224332102,-0.0016593850451115007,-3.112551756064873e-05,0.0014033570495896488,0.0024055295930122678,0.002913311738519559,0.0030340102735224687,0.002956967410087339,0.0028385866001031596,0.002727052080569145,0.002566008665608478,0.002263073693840577,0.001767667711752538,0.001102974395605958,0.0003367603478823272,-0.0004765261554473554,-0.0013299742023116842,-0.0022429366933056963,-0.0031969827967541645,-0.00407771889320163,-0.004672742905174691,-0.004741735143590112,-0.004127722715580137,-0.0028500784255062203,-0.001127205191564098,0.0006865610465193537,0.0022224837552124507,0.003223460654829259,0.0036205839152870047,0.0035300276330232612,0.003176441156424502,0.0027822140173763906,0.002476069335581993,0.0022611417508300253,0.0020484397852727275,0.0017262172506800975,0.001220807256147452,0.0005185127509815115,-0.00034986015970656504,-0.0013340869386073827,-0.002370511422042856,-0.00336406790757091,-0.004169816246959716,-0.00460600558177141,-0.0045105822139619774,-0.0038183619702292543,-0.0026133993384417926,-0.0011191416617864732,0.00037608961731555623,0.0016223424349620628,0.002487404970920845,0.002974412418737368,0.003175568289390295,0.0031948738281183634,0.0030866708763255604,0.0028422539923990105,0.002424344008501737,0.001820353240697963,0.0010771336756216843,0.00029429593993994703,-0.00042036142935457507,-0.0010057983126229397,-0.0014766703754065472,-0.0019029440038110408,-0.002347413586555923,-0.002798380674839839,-0.003142463062441675,-0.003200112720633348,-0.0028088576651361073,-0.00191204323615653,-0.0006088741780023116,0.0008588674579354937,0.0021800019616224813,0.0030784513831513373,0.0034063505591762286,0.003186651099928082,0.002588670209472111,0.0018513472069792642,0.0011908719364734296,0.0007298414094094252,0.0004683814232222883,0.00029859960218917643,5.309411510488331e-05,-0.0004252767408243633,-0.0012092121231591774,-0.00223243310129451,-0.003282261867988292,-0.00405608773328331,-0.004271071371418603,-0.003783964711421433,-0.0026620312896395936,-0.0011633753681627153,0.00036851434168702103,0.0016423085524476136,0.002516117044637862,0.0030079142899330173,0.0032264088087936398,0.0032756541448320706,0.003194874078505211,0.002962880450965931,0.002549783817550764,0.00197047712884088,0.0013001019549592594,0.000641382626517179,6.509612757166184e-05,-0.0004384336521994742,-0.0009620725298910701,-0.001625594248140941,-0.002481149525869576,-0.0034328436184734327,-0.004229081737693475,-0.004552873414728094,-0.004174990429971149,-0.0030868547614634296,-0.0015318639869978383,9.033902454237339e-05,0.0013977050667636588,0.002184093791648237,0.002480073806987001,0.0024918140016776426,0.0024611053450880917,0.0025286172330652983,0.002673370882689556,0.0027520733827266844,0.0026032858207457495,0.002148727929775865,0.0014345857196260943,0.0005979877526524904,-0.00021207832581308017,-0.0009096919273057975,-0.0015018038726829501,-0.002058977682875344,-0.0026440047667438326,-0.0032385069459684194,-0.003713055292209482,-0.003867242155711685,-0.0035271831353081828,-0.002649447185314876,-0.0013690016967899438,4.281253947664861e-05,0.0012909311745796185,0.0021773078814577977,0.002663619116600919,0.002847373746637732,0.002875205360178891,0.0028502430594239733,0.0027860839099590365,0.0026253366177521205,0.002300746770025842,0.0017954933922261261,0.0011652033322330304,0.0005101109796689766,-8.386444824417085e-05,-0.000596866057198835,-0.0010834244800231306,-0.0016261631508670954,-0.002259725409778892,-0.0029139390728581396,-0.003418369093343093,-0.0035737423049394335,-0.003252977363737501,-0.0024745762122044376,-0.001406353276802839,-0.00029689225810420954,0.0006284952967937595,0.0012529026121453105,0.001592203437442184,0.0017518648486712707,0.0018471764402944828,0.0019362333941289544,0.002002165196737153,0.001985343942090231,0.0018330031746742765,0.0015274961833729884,0.0010789997053789458,0.0005020353628166432,-0.00019166986621320465,-0.0009699180259621798,-0.001745457772015623,-0.0023673890561217137,-0.0026623561076051868,-0.0025132597246133323,-0.0019312985632547156,-0.0010732463997363962,-0.00018456637052162396,0.0005070589118950164,0.0008918147591255093,0.0010170304853286908,0.00104504514072362,0.0011544270018553904,0.0014394700268268157,0.0018614381890291111,0.0022741766431351048,0.002505002656968442,0.0024433001106326253,0.002089168918879998,0.001540179784964145,0.0009288075414012566,0.00034756519159082663,-0.00019729337050966795,-0.0007789857638291366,-0.0014936926309975776,-0.0023841460706541377,-0.003385314676580671,-0.004324667647902907,-0.004981199579779323,-0.0051744751227193846,-0.004836721322292747,-0.004030204632301785,-0.0029046530189229753,-0.001624648866709092,-0.00031129411910455076,0.0009726116798321134,0.002196619698196614,0.003324008639063073,0.004290835258262424,0.0050144059947387215,0.005420780619393377,0.005471786033408484,0.00517853896454072,0.004600296260692284,0.003832895823049454,0.002987836079280323,0.0021594923370984137,0.0013840290915656456,0.0006087715840991788,-0.0002991362545412859,-0.0014876680865813948,-0.0030157593361252425,-0.004763170237241664,-0.006415272691962884,-0.007550678910760846,-0.007802594668461053,-0.007019096509944632,-0.005342029419415382,-0.0031624169709901047,-0.0009706561507294684,0.0008292643739707203,0.0020555976418083904,0.002774271722156646,0.0032090629167548755,0.003589557722690143,0.004019313444177101,0.004431006616930714,0.004643882777498893,0.004481707478393151,0.0038795500407905175,0.002920370132027037,0.0017870058488882934,0.000664186036864771,-0.00034860915405864545,-0.0012620260442581233,-0.0021466397890641084,-0.0030408544906175778,-0.0038769032062926988,-0.0044758098414898915,-0.004621033003066958,-0.00417156234156636,-0.003149127315311329,-0.0017482172601880441,-0.00026291248938409306,0.0010286374048928456,0.001961748608209542,0.002520172444503401,0.0028004832027657676,0.0029328957900891894,0.0030028392353939138,0.003011895383624545,0.002892858010568569,0.002564516985273685,0.001992344856904011,0.001220572183220341,0.0003579007996983377,-0.0004757098582665214,-0.001211571439144324,-0.0018657494665201351,-0.002516955335960626,-0.003233445097187369,-0.003988890721704755,-0.004622532855414313,-0.0048789258991842645,-0.0045167275126256675,-0.003433741687386707,-0.001743480352076858,0.00023815131501924997,0.0020946331941797697,0.0034573394960324684,0.00413755660589399,0.004184191938066394,0.003840986767226177,0.0034230517458773532,0.003171257398152767,0.0031532529129728966,0.003254777640964532,0.00325787994297033,0.002959667987782741,0.0022689145306248283,0.0012349331524046949,2.5481331203230093e-06,-0.0012729779789566842,-0.002497640204106529,-0.003654557981047778,-0.004756760568567466,-0.005769766330738724,-0.006559076625207402,-0.006906776032977796,-0.006599818979174335,-0.005544473423523971,-0.0038399391127432922,-0.001765591306322523,0.0003144885402139744,0.0020818733823412252,0.003366480591579228,0.004176741343354828,0.0046495073104544475,0.004950049401424758,0.005175048400978174,0.005308225604421962,0.005249485109906357,0.004897165144152526,0.00423115195101876,0.003342269105822867,0.00238559832967868,0.0014851881173361201,0.0006530447575105861,-0.00021933837732723773,-0.0012827178956093088,-0.0026064444196691773,-0.004082697414080781,-0.005421446243389087,-0.0062523626077462275,-0.006291439311488207,-0.005489395395641121,-0.004079098928998858,-0.0024857492423234857,-0.0011369551239364037,-0.00026996522874666716,0.0001589329832233494,0.00041241565317439756,0.000794024781656069,0.0014573917909431336,0.0023119142173047384,0.0030747536231246573,0.0034314332235401744,0.003205781550149235,0.002441746538948074,0.0013607036574573585,0.00023629954068252884,-0.0007267777620740382,-0.0014394702647833576,-0.0018897080729069853,-0.0020670519262397597,-0.0019179856783245206,-0.0013692722692653968,-0.0004034214927741745,0.0008692940778560095,0.0021995731206768047,0.0032704187182015614,0.003821962300671677,0.0037639535932810246,0.0032105176339933443,0.002412772387501037,0.0016249268489280677,0.0009809975401292603,0.0004527276841498253,-9.333814843726865e-05,-0.0007849867161443002,-0.001655052449695437,-0.0026260940610815546,-0.003564694484952856,-0.0043537773724197535,-0.004927333481025646,-0.005250305910087388,-0.005273752732845553,-0.004914123319256147,-0.00408359785570108,-0.0027563157969877385,-0.001025886110611152,0.0008877170094133417,0.00269393948505192,0.004126227399996745,0.005030122193480801,0.005402667333092585,0.005365834944569401,0.0050904513588658235,0.004711404889472633,0.004275731435439338,0.0037427854955974366,0.003025749963113623,0.0020460288702703446,0.0007756153339151467,-0.0007406668369532456,-0.0023782927922861045,-0.003938791449035741,-0.005176506824159601,-0.005857269871747431,-0.00584184553231927,-0.005157660346684221,-0.0040086406626334515,-0.002696741075169398,-0.0014829988021528946,-0.00046457975836376297,0.00045202024907672455,0.001453873650618387,0.0026530264502492456,0.003954274545094531,0.005054383977965621,0.005585530427466586,0.005315451915915185,0.004272076912338409,0.002709289774244793,0.0009407582765154716,-0.0008389720338819726,-0.0026179055642032325,-0.004466213515501764,-0.006339236939067232,-0.007927211514070996,-0.00868015294137603,-0.008033053923353201,-0.0057244479571646545,-0.0020251230865515127,0.0022716597941950683,0.00611770245400846,0.00860964870721434,0.009323728015991923,0.008428246507185528,0.006538134410644008,0.00440552465893648,0.002608680917459181,0.0013798419320539099,0.0006228180105646599,6.936953019848137e-05,-0.0005343336907470984,-0.0013089481827940187,-0.0022274989749110513,-0.0031755669354440316,-0.004025001599862408,-0.004673954286471887,-0.00504549787773893,-0.005070483148939728,-0.004686363709229513,-0.0038634022180935174,-0.0026420255445802595,-0.0011520164984653045,0.00040561084142167044,0.0018093301788005482,0.0028764786392133533,0.0035052150100502865,0.003686275498536316,0.003488110226519667,0.003026611681859633,0.002428439875626736,0.0017940222538981258,0.0011699053995542082,0.0005453025617383816,-0.00011772933255870289,-0.0008306432213878582,-0.0015324698929462225,-0.002086100925837402,-0.002329136376911424,-0.002156025216943307,-0.0015834547003191523,-0.0007567384368156468,0.00010935364526642612,0.0008203860819986223,0.0012711034376466771,0.0014610894066414747,0.0014620540754055058,0.0013668179291462376,0.001249043326472714,0.0011445672918344392,0.0010491682170484925,0.0009248078012144016,0.000712576536033938,0.0003543835107587799,-0.00017864932340917614,-0.0008607170720174044,-0.001601834578048661,-0.0022629803783551124,-0.0026941125283152676,-0.0027818975285614114,-0.002487902763993586,-0.0018613411854449468,-0.0010219369168659885,-0.00012175056697263101,0.0006972818735271141,0.0013343610898819717,0.0017420071284192757,0.0019221135226108054,0.0019138633060667987,0.0017789328904321477,0.001582837306843464,0.0013695970640892558,0.001135451172263114,0.0008197283139503001,0.00033220255415905347,-0.0003829286568596211,-0.0012768561394907376,-0.0021680941014418273,-0.002790096586774414,-0.0029035614515731667,-0.0024162557376696085,-0.001439976753482584,-0.0002478107998956841,0.0008454582124783203,0.0016122290516919994,0.0019826411196592494,0.0020300589304272487,0.001895544524658824,0.0017032919337663698,0.0015112133725212727,0.0013095496243888127,0.001050688342595771,0.0006839759258983217,0.00017979810211548165,-0.0004574755656485271,-0.0011818670270560853,-0.0019024168608465211,-0.0024906233550126286,-0.0028065008333645444,-0.0027422810870710835,-0.002268533124251419,-0.001458625694771714,-0.0004735448019136004,0.0004908479972416782,0.0012706365465076713,0.0017831584458766429,0.0020373904106801895,0.002105295388726552,0.00207352153801,0.002001944398171251,0.0019068563369735291,0.0017681941542963926,0.0015456417642693927,0.001189484794418271,0.0006468722237996875,-0.00012330598805443134,-0.0011185446080315758,-0.002255885738698061,-0.0033591551928732486,-0.0041937359134134045,-0.0045436051170423715,-0.004294181737296044,-0.0034762033633038967,-0.0022482986679111527,-0.0008323249105668984,0.0005608682543094925,0.0017805389216311953,0.0027468553136221095,0.0034323826080121366,0.0038340688224115837,0.003954057498251988,0.0037982905082235164,0.003389655328747706,0.0027827877150176407,0.0020656504267882315,0.001339980383660511,0.000684933421879654,0.00012011554825701028,-0.00040958689044528774,-0.0010096396869503236,-0.001772704879381036,-0.0027035832391603333,-0.0036759053466865763,-0.004454909520884635,-0.004785200598961303,-0.00450193707881549,-0.0036067729617854064,-0.0022695047121470083,-0.0007595150803120217,0.0006521020246996827,0.0017710196183796177,0.0025107651112542713,0.0028791900868569953,0.002943604849267979,0.002798423941898814,0.002544326508253128,0.0022723730378313997,0.0020439246395404648,0.001868291042879841,0.0016918855606391388,0.0014123173196358312,0.0009184359682124685,0.0001436829045841035,-0.0008866842189285617,-0.002034434434120466,-0.003069185306979698,-0.003734820934553155,-0.003842501368915764,-0.003349136570123582,-0.0023783536330833355,-0.001168656190299218,2.429334689394672e-05,0.0010174361999805382,0.0017368903475108283,0.0021936636626690435,0.002429460661281688,0.002475889343787118,0.0023501354303518073,0.0020758901972984024,0.00169827589815726,0.001270886685309976,0.0008218426623399823,0.0003283925891972815,-0.0002725627302993345,-0.0010352806843072378,-0.0019431245690260026,-0.002872503980063948,-0.003610977008823276,-0.003929244707147487,-0.0036763526539368547,-0.0028519403622485266,-0.0016178939573625688,-0.0002405851964237454,0.0010104903982644893,0.0019594014946205593,0.0025695041266524544,0.0029182837256567745,0.003119114187433663,0.0032368154113079006,0.0032474662402571823,0.003066558759772923,0.0026258039839958834,0.0019437647976285966,0.0011350762838504176,0.00034385388849148387,-0.0003553752619344152,-0.0010141360650610049,-0.0017717099363923688,-0.002735717145647646,-0.0038573566209346988,-0.0048894653933052624,-0.005467570087878779,-0.005277694330804791,-0.004220060325692358,-0.002478383599018903,-0.00045682227194296024,0.0013827927494924714,0.0027016910122735,0.0033965378271344736,0.003595454182433447,0.0035494466621631125,0.003482274587101288,0.0034790854113308962,0.003468431829220734,0.003297020756313076,0.0028429389267264757,0.0020936489749478053,0.0011427976224368966,0.00011726832858237869,-0.0009057234870581415,-0.0019261353520287194,-0.00297002246908463,-0.003997972985364053,-0.004847423535992952,-0.005265593365537644,-0.005027552996878392,-0.004070810105492285,-0.002559998812832528,-0.0008361361688239274,0.0007244724664283659,0.0018638069329965103,0.0025268100673815005,0.0028389416626642444,0.002998937247226538,0.003152282631134823,0.0033152296972512566,0.003385259026963079,0.003222296295759328,0.002745110598409659,0.0019821981651738448,0.0010494830581493516,7.750914196429743e-05,-0.0008559666065857091,-0.0017398262142937213,-0.0025839693027549255,-0.0033526840808917715,-0.003930317949220912,-0.00414993145937346,-0.0038729763510462114,-0.003073424827084881,-0.0018746309305010544,-0.0005144565137141061,0.0007436110420769667,0.0017052828379431238,0.0022980172260968538,0.002561365646134241,0.002592304593920251,0.002484739126760156,0.0022968660621143855,0.002054070098540363,0.0017688274260378692,0.0014513558738991704,0.0010995565296846048,0.0006812017784695713,0.0001346241546911391,-0.0005964303498895037,-0.0015062492397178765,-0.002485200453686615,-0.0033279175344452716,-0.0037994130774060197,-0.0037300770927074026,-0.0030898132391552436,-0.002001583738000318,-0.0006894049047547695,0.0006071549165960023,0.0017049118599469842,0.0025044254365951322,0.0029753430778691357,0.0031273674544402543,0.002993881958919786,0.0026339801324154607,0.002137030544084844,0.0016094016487273246,0.0011377189423088046,0.0007450145567752654,0.0003689581938113914,