4.4323644127072876e-05,0.0023192983130894927,0.004024571257837159,0.004821626128775569,0.00471348660362144,0.003993008574250598,0.003071117249067029,0.0022848360695192707,0.0017779421148533918,0.001492985886980401,0.0012517095390259872,0.0008661614966453523,0.0002258358852342407,-0.0006661515807421482,-0.001705022025857561,-0.0027250984686191596,-0.0035486779941986436,-0.004029126692676261,-0.004081760145249165,-0.0037001188875488977,-0.00295585129181819,-0.001980718209369037,-0.0009328863570537346,4.3318119253087095e-05,0.0008496388762390967,0.0014455902960788369,0.0018374364213783433,0.002054933953616528,0.00213248209178227,0.002105598398419106,0.0020191074448891984,0.0019310453417211246,0.0018976163020041539,0.001941306281082364,0.0020236614810144908,0.002048013041157789,0.0018992161650478725,0.001500510837266219,0.0008534259113012407,3.649356240773439e-05,-0.0008348370926457892,-0.0016601822933692799,-0.0023851611575052365,-0.002994084621665818,-0.0034739357961404236,-0.0037793824934051253,-0.003828508968760271,-0.0035379255350987317,-0.0028779005934960094,-0.0019123699983544015,-0.0007953780681365075,0.00028019074038818353,0.0011582973070436273,0.0017806273456604043,0.0021978519915553585,0.0025213487805605455,0.0028399915685930785,0.003150797424034616,0.0033480902916314496,0.0032823348805481175,0.0028565433907378956,0.00210269771068958,0.0011895879286203206,0.0003519661481265028,-0.00022367207919119815,-0.0004950579598237224,-0.000587638514758718,-0.0007288666689256914,-0.0011249217973024483,-0.001844395148473136,-0.002771022905298202,-0.003649645134171093,-0.004198688066566142,-0.004229276327775943,-0.0037132629806189794,-0.00277484283928462,-0.001621782395931484,-0.00045949034766458756,0.000568972515552142,0.0013977215777549183,0.002017949750775089,0.0024482602015280137,0.002715041243088843,0.002846096882757081,0.002869368454266594,0.002809284094735332,0.002680893213757834,0.002487095140945665,0.002222773623330425,0.001884316285405995,0.0014789120731543502,0.0010279980788766936,0.0005627114737168209,0.00011349769228023298,-0.00030156330073247324,-0.0006853849855705116,-0.0010644537260766263,-0.001482793960206581,-0.0019848011390990517,-0.002587547129734527,-0.0032514344163178345,-0.0038667309991884426,-0.004272573459197148,-0.004309506299090131,-0.0038847792563051317,-0.0030178459119983626,-0.0018416389677300634,-0.0005579341027759021,0.0006321811697989785,0.0015911132157149254,0.0022742809540639837,0.002716928840964982,0.002990005127968168,0.003151710353641119,0.0032213352421707085,0.0031865013776966157,0.003032922559466551,0.0027713085468535,0.0024392870285274474,0.0020762441966170764,0.0016921485697524434,0.0012593005029960145,0.0007396825292421431,0.0001306656180680996,-0.0005077775526379381,-0.0010722989345511164,-0.0014763153097966872,-0.0017120276053604747,-0.0018680094067227253,-0.0020823030346139356,-0.0024534961395789386,-0.0029625734624954846,-0.0034564542516263954,-0.0037101128511261602,-0.003537345872293806,-0.0028890338316692413,-0.0018832879471890867,-0.0007521704020539481,0.0002618275919399288,0.0010017651326282473,0.0014392914788850578,0.0016550031686607615,0.001779033107614417,0.0019267053546947702,0.0021555111287230788,0.0024525119703855134,0.0027473837805270405,0.002940748219169076,0.002938414720216743,0.0026844562094440515,0.0021858202249709175,0.001519435541363284,0.0008141817893994989,0.00020795650385499118,-0.00020757112906105084,-0.0004317269632087147,-0.0005653495441847113,-0.0007744777618496068,-0.0012148856598450282,-0.0019465750198222776,-0.002879541060210125,-0.003785249145496177,-0.00437928397667527,-0.004440876036701118,-0.003908964388918823,-0.0029035690628599225,-0.001663661007217705,-0.0004405161587036202,0.0005938193719192389,0.0013807955014716704,0.001948932701554816,0.0023557579080022268,0.0026366089242930183,0.00278639271646108,0.002777690362459638,0.002598099786969901,0.002280423113499256,0.0019050119723435799,0.0015707969343409563,0.0013503995172032533,0.0012545160308566569,0.0012259790349544975,0.001167189440211406,0.0009856431830321155,0.0006326356666140248,0.00011590046198781448,-0.0005161359826764613,-0.0012037893900292982,-0.0018980293249544462,-0.0025612980546628355,-0.0031503762853789816,-0.0035990792186821703,-0.0038204642326331237,-0.0037347681783771883,-0.0033094576413735103,-0.0025866366070262875,-0.001679291170934537,-0.0007360557144362662,0.00010912119709881004,0.000779899484653438,0.001274907429021718,0.0016521720306372184,0.0019871726099590053,0.0023242911079022896,0.0026471863943283423,0.0028855314668566486,0.002955201646036864,0.0028085443846134223,0.0024653194054909213,0.0020075916673110115,0.0015434540641805963,0.0011600043030636918,0.0008878886374426684,0.0006911503585355148,0.0004845332055752389,0.00017061109091668606,-0.0003172478745919018,-0.00098207612271674,-0.0017533165961434055,-0.0025040431826128208,-0.0030895651180984605,-0.0033938326836429416,-0.0033675886993680135,-0.003044655924083921,-0.002528689105050325,-0.001952041463164689,-0.0014205877099081347,-0.0009687986165191218,-0.0005500444468033186,-7.29895961821907e-05,0.0005298991111740437,0.0012381717606022675,0.001924581704902346,0.002401815726420271,0.0025170156784045145,0.0022436469522732847,0.0017151862762599238,0.0011742823272880517,0.0008595704581143155,0.000891331825853478,0.0012206368614995655,0.0016688167009432531,0.0020272607781716577,0.002150675871563359,0.0019883270405046567,0.0015494974097488307,0.0008498791878599108,-0.00010588240054087397,-0.0012881890664707472,-0.0025864320469508118,-0.003788616100065971,-0.004630039797081916,-0.004894935201180697,-0.004514557865628356,-0.003602747937684391,-0.002407282931981239,-0.0012058588942359507,-0.00020403063209945482,0.000517625614046442,0.0009949878348351887,0.0013304159022822866,0.0016325415450859668,0.001969881154095517,0.002349160104081025,0.00271912328401574,0.002994869639770576,0.0030938000085479504,0.0029707734175010735,0.0026387701023071948,0.0021653215515940465,0.0016450851028774382,0.0011611602238277541,0.0007542034727346452,0.0004134619535310575,9.014980411621663e-05,-0.00027868764239354473,-0.0007492250281779169,-0.0013573077783644155,-0.0021072634448637416,-0.0029578561540122353,-0.0038097024464346183,-0.004508058111089426,-0.004873564922916787,-0.004758902040834085,-0.00411025274417332,-0.003002955747739488,-0.0016291110912783598,-0.00023784704172559045,0.0009468418068251796,0.0017946402971131291,0.002295721443662939,0.002539069421922754,0.0026579523261016868,0.0027702293636643113,0.0029381045368960445,0.003157433571620392,0.0033710430903150447,0.0034936493002514267,0.003439230068589846,0.0031474862084491383,0.002606642501420501,0.0018655294551938053,0.0010253839752572406,0.00020709733561349657,-0.00049740426807739,-0.0010674590611183324,-0.0015638329585232077,-0.0020934976581224785,-0.0027405809831847123,-0.0034984052974247814,-0.004243450016614763,-0.004772762165057751,-0.00489017758740572,-0.00449616776670919,-0.003632780849746185,-0.0024622616527181685,-0.0011967356078702624,-2.0570297915131503e-05,0.000956860512972151,0.0017047768193723467,0.0022434419988241676,0.002609765727712051,0.002835777447613147,0.002945832643154283,0.002964811405129174,0.0029233584759681976,0.0028504203861375943,0.0027556300211693118,0.0026161069806440946,0.00238326675651221,0.002011309271118971,0.0014897029899695667,0.0008545044316893321,0.00016702357851414314,-0.0005260369830110054,-0.0012201127686740257,-0.0019437190663071533,-0.0027144509285707465,-0.0034882767490839565,-0.004138877717378701,-0.0044880822501784275,-0.004377992302619654,-0.003748800117865125,-0.002680110885924497,-0.0013722005279667758,-7.584841365210996e-05,0.000994655815874441,0.0017257708903657626,0.0021225681294779423,0.0022806270963707615,0.002330554323627546,0.002379729131030656,0.0024721391029160597,0.0025787914048209437,0.0026206038900710147,0.0025133681602153898,0.002213610206490979,0.0017418089634337434,0.001169878097093061,0.0005792747134558961,1.3979818431769306e-05,-0.0005419445888867154,-0.0011444562656720313,-0.0018344961378115178,-0.0025797160257377202,-0.0032531807786220245,-0.0036722421727368275,-0.003684588829924094,-0.003254282154973475,-0.0024933935739739686,-0.0016145154911162195,-0.0008285978327704143,-0.0002470280850931498,0.0001572302644859864,0.000512111874830095,0.0009589566076971916,0.001565085956934246,0.0022805866266492995,0.0029563861841499506,0.0034096000963075926,0.0035024516781696244,0.0031996384336154962,0.0025826033450157765,0.001818611987228601,0.0010989856204375156,0.0005697282066891608,0.0002787855509256004,0.00015867124845743877,5.243648922381838e-05,-0.0002233504571073918,-0.0007992394837092354,-0.0016867852806616399,-0.0027541531323504696,-0.003758594388613506,-0.004428428977511282,-0.004563786066757623,-0.004112669042986745,-0.003186411863405082,-0.0020065652116583775,-0.0008107862686104215,0.00023280548982601242,0.0010607099050728862,0.0016897171551406363,0.002161116917988826,0.0024963509342855136,0.0026910105023800796,0.002741022935281553,0.002670587016640174,0.0025335712797484415,0.0023849375941484884,0.0022451230879270007,0.002086979620706986,0.0018569660085307588,0.001514529374401767,0.0010586969195037943,0.0005214461462849486,-6.498292888083401e-05,-0.0006978813405774213,-0.0014035297703599522,-0.002201600404730836,-0.0030562331271729607,-0.0038478447108155145,-0.0043906323847935315,-0.004495675915709395,-0.0040527774570405925,-0.0030908471640872974,-0.001784488831075095,-0.000399778897675538,0.0007981045119871842,0.0016345039154525528,0.002073754399260252,0.00220883417087521,0.0022017324794548947,0.002204466269805711,0.002295877304742914,0.0024585846967790223,0.0026002119647911873,0.002603634178955801,0.002381383176475834,0.001912255650861336,0.0012493447132548362,0.0005006825221140436,-0.00020851756313033264,-0.0007793096725406392,-0.0011736922541398555,-0.0014264839554649835,-0.0016258752481690196,-0.0018663941314304893,-0.0021932906909494405,-0.0025662929024576732,-0.002864698607058014,-0.002935516369248233,-0.002663404993243403,-0.002029248659159234,-0.0011291572299766562,-0.00014366019106171017,0.0007305643545625754,0.0013561120917543888,0.0017022791743900678,0.001842012206231903,0.0019013184911954681,0.001988604276782273,0.0021406342749820378,0.0023106672937011144,0.0024005561168271633,0.002316604227494196,0.002019705780684199,0.001545669525682128,0.0009866401520939494,0.0004425478572110275,-3.3487393076724585e-05,-0.00046603333357671256,-0.0009430521133525565,-0.0015568729225460445,-0.0023274655821912114,-0.0031518790506043287,-0.0038176674094981943,-0.004086387030665152,-0.003810019855618925,-0.003015821987705722,-0.0019060795805504436,-0.0007666305638157606,0.00016679968306220437,0.0008086593302253238,0.0012343729522627743,0.0016008009932935387,0.0020293403038688686,0.0025241329733411734,0.00297165369733024,0.0032146759246207187,0.0031488253523264185,0.002781785340891214,0.002225163865780494,0.0016326118570566812,0.0011252572964285334,0.0007438406993000373,0.00044479480841930343,0.00013328049719614412,-0.00028714946662539484,-0.0008694255221211115,-0.001597189525879862,-0.002384727049449582,-0.0031006803576226405,-0.003606568741520485,-0.0037966269445276852,-0.0036254170361038444,-0.0031152897884379645,-0.002344785111578621,-0.0014258112583492443,-0.00047819903683633477,0.00039293508303606464,0.0011141216237835678,0.0016523267403422606,0.002013541554298654,0.0022312600371021665,0.0023483569759843183,0.0023987231991305672,0.0023956438244675552,0.0023315798822918328,0.002189150599816867,0.001957569039437448,0.0016454556113726863,0.001282195897031995,0.0009058499674539942,0.0005432583841423279,0.00019316153065622183,-0.00017724289854680693,-0.0006178009938090349,-0.0011671399797450518,-0.0018225572445459263,-0.0025231949587901713,-0.0031575188114074215,-0.0035947625284779286,-0.0037268273505038033,-0.00350101646244682,-0.002930126622004465,-0.0020806479208512365,-0.0010514550721944097,4.372881165950072e-05,0.0010858146753449452,0.001957954482657776,0.0025604543260665125,0.002835327799510733,0.002791629939448388,0.0025156104989335123,0.002152037316729433,0.0018549063611236832,0.001723040968600686,0.0017507154480212001,0.001824516430632125,0.0017779435006652746,0.0014810010611120646,0.0009149649750166125,0.00018575698902487158,-0.0005340877347115895,-0.001099432512000928,-0.0014657960823044529,-0.0017013524355776765,-0.001935705881509835,-0.0022772681449490842,-0.002743112611650846,-0.0032351771336922774,-0.00357365764076448,-0.003572716732086809,-0.00312469368077,-0.0022547110814792144,-0.0011205310176376972,4.3108271015343395e-05,0.001012130703365905,0.0016552430627839534,0.0019746275520921104,0.002086668122589936,0.0021520384429218925,0.002290375062319536,0.00252337744688356,0.0027743610019089248,0.002920395583736249,0.00286438664202047,0.002585876135348555,0.002145062824006061,0.001643847675562787,0.0011720613668374574,0.0007714096079696005,0.00043246370181093403,0.00011509794961913884,-0.00023015278513499073,-0.0006537717070712915,-0.0012053586069934487,-0.0019198073330027824,-0.0027839081444925445,-0.0037013281671754985,-0.004490276286555978,-0.0049353966246743,-0.004877945527586105,-0.004294336400619443,-0.0033121710797654486,-0.00214979500496482,-0.0010146397946819712,-2.118017688045032e-05,0.0008264928402159908,0.0015864025277791333,0.0023037313816965293,0.002958951026190713,0.0034679026722868184,0.0037282788497486796,0.0036815964427731745,0.003355450407769304,0.002864785687028342,0.002371667301329919,0.002020308618027146,0.001874017987599313,0.0018825679937660234,0.001899861166190427,0.0017507683279168128,0.0013188818931866477,0.0006093976050858859,-0.0002513074565491722,-0.001084287394952179,-0.0017577031929423303,-0.0022573541090293242,-0.0026818964586908835,-0.003162025101456899,-0.0037518262358023496,-0.004360820747138784,-0.004772637371990458,-0.0047447488495713725,-0.004135884677482677,-0.0029921215655196705,-0.0015457266246308079,-0.00012655912021979857,0.0009710572705745966,0.001602961132458909,0.0018189434125757734,0.001818474384314372,0.001843089990065157,0.0020585197377130555,0.0024815994165165475,0.0029832435442011264,0.00336157276348198,0.0034461766866159065,0.003180802191145551,0.0026443330428403957,0.002003122219220361,0.0014245322318890326,0.0010012382299768698,0.0007261053567778708,0.0005237723644206052,0.00030943822359295534,3.192042481034495e-05,-0.00032446067977487516,-0.0007697617000117142,-0.0013344498505615358,-0.002058214329547433,-0.00293842307627292,-0.0038725326828876654,-0.004645364690903102,-0.004991604435392373,-0.004715025707088004,-0.0038005016348151986,-0.0024472168036306745,-0.0009927089041285606,0.00023659451821918332,0.0010661324079741827,0.0015280476979401569,0.0018052027001818776,0.0021034517397554627,0.0025276256359451276,0.0030278926758472323,0.0034390894241153928,0.0035831169469271967,0.0033723289159776682,0.002856783989725375,0.0021954016045094044,0.0015754407329855891,0.001128088301995261,0.000879859262208007,0.000752989301195515,0.0006046177338458204,0.00028522430487657596,-0.0003027903166290392,-0.0011635486459095363,-0.0021977083387498962,-0.003230102375739357,-0.004065622137087563,-0.004549562573039666,-0.004606353796805622,-0.004243943079838161,-0.003531516206129422,-0.0025710078936136077,-0.001478881003127847,-0.00037862893855389714,0.0006086237338186163,0.0013859551334574562,0.0019100757841664902,0.002209362088366312,0.002372402317572495,0.0025058984377878822,0.0026815152260805234,0.0029005503675295506,0.003096171138805678,0.0031714531433733577,0.0030516471542809172,0.002722631590813872,0.0022363947135635226,0.0016822324473866653,0.0011399043650872254,0.0006400877949837571,0.00015330768058366114,-0.0003872840837037824,-0.001042327986459078,-0.0018248866792612186,-0.0026810445417166226,-0.003500052473439,-0.004148446273116629,-0.004513609263283866,-0.004538920735869942,-0.0042357123603790235,-0.003667451807411311,-0.0029159864827840577,-0.002050076978887668,-0.0011145174724053958,-0.00014356347835014642,0.0008152704051624358,0.0016889985814669993,0.0023924441849306737,0.0028618574784511457,0.003087361056867167,0.003121428639844064,0.0030555324374879457,0.0029772863742832958,0.002931974652125868,0.0029086315075013674,0.0028554601260853793,0.0027124582952153635,0.0024410402929480445,0.0020357886088371536,0.001517424197478773,0.0009174205502445912,0.00026523410412332074,-0.0004186245017271481,-0.0011263859310552474,-0.0018640248317976324,-0.0026434328235025576,-0.003459650177457779,-0.004258303155841684,-0.004914146956729208,-0.005247093930967064,-0.005086333902850526,-0.004360354585099025,-0.0031620867711282807,-0.0017394396353406188,-0.0004004323672184652,0.0006221857163702878,0.0012689395683632802,0.0016542298510846326,0.001970421799211474,0.002358760205169807,0.0028293691045249364,0.0032745463279154684,0.0035538009672394914,0.0035845312407005074,0.0033789133872919944,0.0030145827807768737,0.0025744501033086254,0.002104775411517099,0.0016159483844163198,0.001111899305033849,0.0006128982824782776,0.00014676087136009645,-0.00028570500550441277,-0.0007389243186491376,-0.0013111777539324832,-0.0020862215948648575,-0.0030561662390139483,-0.004074761907024558,-0.004880707045055648,-0.00519356858117687,-0.004840375322640622,-0.0038459247645356446,-0.002433464185305231,-0.0009311324843166558,0.0003658260030515,0.0013031225196165745,0.0018940887285525197,0.0022640392359641864,0.002555345903449106,0.0028481282923817977,0.003131523962208447,0.0033278348504188074,0.0033467307527282786,0.0031383218604122964,0.002720490600422785,0.002170948765641714,0.0015912124200460392,0.001061617168201048,0.0006086236096170857,0.0001975695852262176,-0.0002484643917885083,-0.0008122491361846613,-0.0015406345088106877,-0.0024108665518622306,-0.003319160689358598,-0.0041015892033093625,-0.004584062140793126,-0.004640778788902734,-0.004233006706341289,-0.003411864909235187,-0.0022923267589476347,-0.0010208756783348862,0.0002467738526920458,0.0013606467555460598,0.0021980026128214716,0.0026958782862638447,0.0028788890882962587,0.0028565962338632546,0.0027779106389136344,0.0027588001881255902,0.002822694152321271,0.0028915631785332383,0.0028372920620403455,0.0025645482398087877,0.0020736120890105948,0.0014616996719020515,0.0008599928487262826,0.00034658960927232276,-0.0001063181368815502,-0.0006134954653805719,-0.0012953172320864857,-0.0021845472103073985,-0.0031791146633270285,-0.0040691928039643275,-0.004622912373822123,-0.004684997443854961,-0.004240084173267517,-0.00341286676723355,-0.0024078466934947676,-0.001419660687035021,-0.0005589861974390697,0.00016964276695204995,0.0008311210758858907,0.001491167919428004,0.002159901530774137,0.0027803142461075908,0.0032627500081132844,0.003536856966977365,0.0035848368309278436,0.0034375845797770367,0.003143803315370679,0.0027399904308369107,0.00224400809795658,0.0016723218343258654,0.0010597301524845066,0.00045788419861642906,-9.261284293031493e-05,-0.0005968297707849982,-0.001115893717470433,-0.0017347773019071881,-0.0024984366318983337,-0.0033535290837139035,-0.004136845232354012,-0.004627389529695439,-0.004640112048152747,-0.004111044545658977,-0.00312645826544815,-0.0018822034298654044,-0.000600726771481805,0.0005461418639713437,0.0014722758213760536,0.0021649982999177976,0.002647262400831351,0.0029438058963729683,0.003069734481019909,0.0030403831301522386,0.00288578911043298,0.002651167728439487,0.0023780502996121767,0.002079907400159002,0.0017349925970051852,0.0013076526742345006,0.0007848073715459587,0.00019795055889954732,-0.0003906150410403062,-0.0009299883485520425,-0.001418195829272336,-0.0019013218679141085,-0.0024277540578489525,-0.0029859989874451813,-0.003470692688447995,-0.0037068712347275343,-0.003527358900680902,-0.002864665720329807,-0.0018066462120892915,-0.0005814189097947415,0.0005264617989452928,0.0012895505833301732,0.0016252344994731294,0.0016159834013655416,0.001456559584138353,0.001359170201744872,0.0014636030588833,0.001789139245999007,0.0022399999204505182,0.002653064064698107,0.002864465673930587,0.0027697074986652993,0.002356776842161704,0.0017018616795758472,0.0009310944547610181,0.0001654074366196209,-0.000526325253609642,-0.0011429265247275778,-0.001726790818266743,-0.00231340557793835,-0.0028853573711781644,-0.0033613236129592574,-0.003629293078303028,-0.0036037173662041115,-0.003269733695916706,-0.002687220437886706,-0.0019560487912067596,-0.0011690245046536549,-0.0003825250098606612,0.00038226076432865174,0.0011162383143409186,0.0017975175918440967,0.0023820651682997453,0.0028153445165751585,0.00305660535446698,0.003099260017333979,0.002973614684681177,0.002730904871817277,0.0024208713013681576,0.002078231305370549,0.0017235183616428203,0.0013694847496642823,0.0010190606434220737,0.0006510724967200773,0.00020771658785128993,-0.0003937135346429861,-0.001214833567769542,-0.0022340455815680524,-0.0033092206187627263,-0.004202098130827942,-0.004666755117314437,-0.004560148390723155,-0.003911219699191426,-0.0029057351156989023,-0.0017954010764801897,-0.0007863752448473518,2.8597381880595882e-05,0.0006638358138134004,0.0011803478565670942,0.0016224902798532498,0.00199353019806473,0.002274458529398642,0.0024569791218057076,0.002557281145930957,0.0026002937745227875,0.002591736621035091,0.0025051672754894303,0.0022982480683698893,0.0019485305021935935,0.001482266856292201,0.0009723503064656116,0.0005021253132657291,0.00011602839044783173,-0.00021146826732070426,-0.0005671910069672396,-0.001052193424971785,-0.0017183943476888573,-0.0025197898664634974,-0.0033041390838321233,-0.003855346673113114,-0.003974727966598956,-0.0035683183199385887,-0.002698731739842841,-0.0015724753588959206,-0.0004636519184054357,0.00039320687950278446,0.0008921844137099262,0.0010852731905156452,0.0011379418294023289,0.0012333358186871497,0.0014753791463392432,0.0018431918546159738,0.0022197318797907905,0.0024718036844524676,0.0025271797129865527,0.0024007877105228304,0.002161148405456139,0.0018702797947894418,0.001543917568429273,0.0011569849026172728,0.0006819511683453354,0.00012408839418260643,-0.0004761268559356031,-0.001073359005311383,-0.001650575752916539,-0.0022202378722650496,-0.002785505613789826,-0.0032917072023536387,-0.0036147538624526215,-0.0036098121080977465,-0.003195990815747847,-0.002419414628541302,-0.0014465190983585395,-0.000486113629430341,0.0003120445043638214,0.0009181847333422999,0.001405968301145646,0.0018723836294432497,0.0023493817440911153,0.002767596114278975,0.002997182255283391,0.0029377004667277243,0.0025946429280822286,0.002089611996675408,0.0015973289320766312,0.0012515664274201153,0.0010796771342233618,0.0010024242917521925,0.0008914448422531611,0.0006420401233535134,0.00021568707324401437,-0.00036623158852763674,-0.001059547543057155,-0.0018276488257215038,-0.0026377747960137686,-0.0034280657906933507,-0.004079254375695127,-0.004427083789007592,-0.004322628539624188,-0.0037089037057348676,-0.002664591951326529,-0.0013842574957653275,-0.00010480568148598675,0.0009802095678860148,0.0017742822759302373,0.002279335269804236,0.00255560249950831,0.0026706876077054547,0.0026684828318858057,0.0025709395487716323,0.002401483183474927,0.0022041690190432897,0.0020381369402181757,0.0019481488117661103,0.001932011703634525,0.00192940662672082,0.0018428104119308434,0.001580813092879616,0.001100120510408338,0.0004224456118930055,-0.00038295208152011443,-0.0012380294613771052,-0.00208737173373221,-0.002898677224213995,-0.003634066007329075,-0.004220180726508906,-0.004548844666285544,-0.0045161934146707005,-0.004076064568361747,-0.0032703868428575,-0.0022162785628449004,-0.0010613368597437792,6.201369506264637e-05,0.0010594952076540389,0.0018749504278607648,0.002483227537245584,0.002888384728834727,0.0031240591288118767,0.0032429922222125653,0.0032894956343446284,0.003267319131580872,0.003128970762286701,0.0028049828016491643,0.002262977102336938,0.0015572641110961993,0.0008267248233960607,0.00023029965273962228,-0.00014523071650483945,-0.00034590751460750484,-0.0005362687371631086,-0.0009120878926963944,-0.0015863957979112605,-0.0025108063497696793,-0.003475199879552671,-0.004188409357331631,-0.004402056613394051,-0.004018013641026402,-0.0031276586116365528,-0.001965561454817295,-0.0008040064257487324,0.0001565577261394559,0.0008481929539912377,0.0013241652217995663,0.0016917068378598961,0.0020319137006387634,0.0023514545518077933,0.0025879956531403457,0.0026586453342223974,0.002517933898958157,0.0021911203164581457,0.0017671583698325344,0.0013591330308856046,0.0010542186721664987,0.0008756109793587821,0.0007702010113467832,0.0006252638368248289,0.00030938027689822933,-0.00027269812839903824,-0.0011267833564483506,-0.002138745591578425,-0.00308862885960657,-0.003718164068540283,-0.0038323780090499613,-0.0033881836246130387,-0.002519043851292346,-0.0014757534453938756,-0.0005128164762279329,0.00021617038264915727,0.0006978472748671987,0.001020675028437095,0.0012945129676627224,0.0015821742978486234,0.0018770305193242468,0.002124677520659691,0.0022634867148396314,0.0022589211330534195,0.0021189443615740734,0.0018884953690919569,0.0016265378156811645,0.0013740058511624684,0.0011264662799400083,0.0008269123439403195,0.00038727014854124733,-0.00026654404905717766,-0.001144652671077352,-0.0021624608826357533,-0.003147131456078299,-0.003883526184657872,-0.004183303907643796,-0.00394922255615272,-0.003209009734818384,-0.002107777376970775,-0.0008650161932404688,0.00028759683612860655,0.0011691917924799612,0.001696367758632085,0.001899103144622025,0.0018989922568835463,0.0018565138557099766,0.0019072286403941968,0.0021107108278997574,0.002429397322208056,0.0027436395095284116,0.002898684168186361,0.002768272619469888,0.0023087571869253552,0.0015754632986363284,0.000688910430035139,-0.00023110940044176478,-0.0011211631997193607,-0.001980734634088413,-0.0028248713690958876,-0.0036188373323248805,-0.004246602860464213,-0.004542487510018665,-0.0043705379898735675,-0.003702306442939033,-0.002644383208846998,-0.0013999665122597183,-0.00018933179165301145,0.0008252896293738331,0.0015751099219597213,0.002074296401148207,0.0023824897545735124,0.002565264292435702,0.002667510406862982,0.002702633718214826,0.0026558637427934618,0.0025005344380925948,0.002223713072231681,0.001849641531660986,0.0014439271088931697,0.0010882931875550428,0.000835086687112925,0.0006692629829586714,0.0005062554302180071,0.00023230140130067989,-0.00023567876808874068,-0.0009069093220150983,-0.001712615634669762,-0.002534870469517645,-0.003244317840423747,-0.003727300924817839,-0.0039002635180396187,-0.003720197679740839,-0.0031959753653122954,-0.002394655355642054,-0.0014326406681950954,-0.00044866584514019177,0.00043264531536242514,0.0011313516269182726,0.0016245631543057202,0.0019379181940973303,0.0021232993732299,0.002234169807729705,0.002307274677483322,0.0023538475739895773,0.002360038004577525,0.0022960276406839794,0.0021325953929183885,0.001859833586171875,0.001498004989945236,0.0010915262074987107,0.0006864585859835065,0.00030404574391607964,-7.223975095390451e-05,-0.00048611029668391565,-0.000979207459645567,-0.0015596235182630635,-0.0021852417430643883,-0.0027695463734560373,-0.003205770215909365,-0.003398376788593623,-0.0032906145263958495,-0.0028801144441498432,-0.0022183737909237562,-0.0013947000202577586,-0.0005113132237014134,0.00033918689253040896,0.0010848474126157795,0.0016739321563777354,0.0020723995166023424,0.002268955826870792,0.0022869241732445126,0.0021900654156125905,0.00206798625015735,0.0019997175499002545,0.002012504421347081,0.0020619088379787366,0.002049930919889753,0.0018744620030277637,0.00148191542276399,0.0008916055986319351,0.00017897889032015201,-0.0005679990571437043,-0.0012889625091316063,-0.0019630053626257947,-0.002588599248169317,-0.00314890147310337,-0.0035877876892177743,-0.003813724067802363,-0.0037308476599274103,-0.003281158342732418,-0.0024774190302660677,-0.0014130318463315287,-0.00024562061063352876,0.0008408060356028624,0.0016849430210543164,0.002194145028396325,0.0023707176265023826,0.002305657842358381,0.0021383460084727066,0.00199642428628661,0.0019421776621736742,0.0019518657983548888,0.0019396850489929712,0.001814525280708372,0.0015387089572118018,0.0011555622496582899,0.0007691600498818231,0.00048562617283585925,0.00034670160370733834,0.00029211028974399675,0.00017485912881805637,-0.0001716368722090336,-0.000843077751890948,-0.0017954748519308217,-0.0028379482949867944,-0.0036984450212319557,-0.004134193267076565,-0.00403144533743133,-0.003443001613564513,-0.0025470339858161854,-0.0015554516704148458,-0.000625762008410112,0.0001785548763080703,0.0008691283073094607,0.00148074372091524,0.0020251438719000223,0.002476118543897102,0.00278596735202909,0.0029150343981462325,0.0028540862189562416,0.002629408760198364,0.002292024732008636,0.0018986424196906937,0.0014932148179446748,0.001097057352596769,0.0007120231831288617,0.0003335706099975035,-3.780505535860303e-05,-0.00039837276420530995,-0.0007554078497418209,-0.0011376361965777493,-0.0015834970773158101,-0.002105994740642163,-0.0026564340921492726,-0.0031180531373629196,-0.003344321156475225,-0.0032258128087194003,-0.002747093691329482,-0.001998622515181578,-0.0011364827365253876,-0.0003146607556806409,0.0003716881378241811,0.0009050919440013881,0.001325288455456711,0.0016889608657064401,0.0020341174216832593,0.002363362058880625,0.002645553951277274,0.0028275455710241315,0.002850234391979928,0.002669006721867379,0.002277946375895792,0.0017283093592175168,0.0011243475660852582,0.0005855494668369553,0.00018535030258720305,-0.00010074737864937942,-0.0003990845580370602,-0.000876825770684532,-0.001638505656336341,-0.0026354321665020396,-0.0036459234477259454,-0.004350923894894762,-0.004476348030113135,-0.003930580349760226,-0.0028601598358740186,-0.0015868984758406536,-0.0004560836311265934,0.0003215492410568772,0.0007470339532768604,0.0009916329923700324,0.0012695906799300638,0.001705373007292539,0.002271123149294966,0.0028211358638032947,0.0031902801214919126,0.0032890669435544882,0.003137893150376857,0.0028279697655896213,0.002445998573587956,0.0020202285225342648,0.0015233961330130279,0.0009210731664848541,0.00021966245357457625,-0.0005262712468102275,-0.001249430347549261,-0.0019133796763462104,-0.0025248702583350476,-0.0031034163809281062,-0.0036320810130761353,-0.004028725782983772,-0.004163255270847901,-0.003915976664142185,-0.003245879819280692,-0.0022300425089275067,-0.0010489696438579935,7.990411960184226e-05,0.0009899465327502827,0.0016287891549580447,0.002061104437250101,0.0024066014336487996,0.0027485415959084864,0.0030694848887814147,0.00325712944241002,0.0031796301544313875,0.002784095348325342,0.0021544850950605183,0.0014878335394819537,0.0009967324986367627,0.0007915669593594394,0.0008107296886615642,0.0008418801703564958,0.0006266701053067828,-5.3062022366331e-06,-0.0010433651764483,-0.002290169205001414,-0.0034431932825138636,-0.004218975784526973,-0.004458766283211121,-0.0041694780153706,-0.003490071601870745,-0.0026103067383311737,-0.0016878616278811086,-0.0008033734208522345,3.2781273817120626e-05,0.0008370821609289194,0.0016043304102585914,0.0022830546586207912,0.0027873520350985706,0.003037008535710586,0.003002750529797648,0.0027304406253096667,0.002328299923790099,0.0019207012638165954,0.0015917660151305605,0.0013504677510087796,0.0011383247624154466,0.0008745815326358549,0.0005084575881645736,4.2876881692678896e-05,-0.00048427345883842604,-0.0010412218975108351,-0.0016262618273846507,-0.0022488536643344497,-0.0028803963400085616,-0.003418440505042651,-0.00370400975042077,-0.0035925614374489176,-0.0030355223298140317,-0.0021170563804273537,-0.0010205657478680676,5.215443905629702e-05,0.0009572667009149434,0.001639821730377466,0.0021156118747472467,0.0024311550595979654,0.002631702354879183,0.00274759499813245,0.0027907054171608585,0.0027515300027887678,0.0025995448992820643,0.0022970784672888614,0.0018282245574610298,0.0012256256484922776,0.0005692637075995026,-5.297773728712835e-05,-0.0006015068400316097,-0.001115608326842656,-0.0016873463741257852,-0.0023861570694129197,-0.003179393432555207,-0.0039036935486088786,-0.0043153728040611974,-0.004200795685035678,-0.0034889099899792293,-0.002302574186827594,-0.0009176548955513132,0.0003501124260789863,0.0012717983161035914,0.001782572743432213,0.001976730091733599,0.002032077453670955,0.0021093484300637516,0.0022792428129606588,0.0025083658878241105,0.002700002616812311,0.002757816670342286,0.00263515780847383,0.0023485714018251567,0.001957291892168002,0.0015262775853240253,0.0010930365311830656,0.0006515901192434043,0.00015716203526757258,-0.0004523162679592414,-0.0012251124206034652,-0.002162796773742392,-0.0031944490790043003,-0.004169651151730671,-0.004881981254456384,-0.00512572198221506,-0.004770760230979663,-0.0038245212531791382,-0.0024483679408289667,-0.0009137869808254261,0.00048760862035992993,0.001542533619477072,0.0021797021906672055,0.002471573362526013,0.0025768637118290206,0.0026546463215050575,0.0027922076349297543,0.002977860654298761,0.0031244453206937255,0.0031248264718727035,0.0029095005231346504,0.0024804193557490285,0.001908394683223148,0.001297018526309062,0.0007297736489909957,0.0002257972555413947,-0.00027092306843586825,-0.0008578208342562068,-0.001607795497284525,-0.0025046054323582313,-0.0034180437592538993,-0.0041393249082282224,-0.004464138951528358,-0.004282317864155675,-0.003627621822729239,-0.002662849480761097,-0.0016103694159969677,-0.0006647717034362233,7.131286476600162e-05,0.0006038181027381961,0.0010168111383970883,0.0014149498244563374,0.001865573284367985,0.0023626370294023025,0.002824522321001351,0.0031266455661695903,0.003158397225759455,0.0028820579008839984,0.0023642118859825644,0.0017572783444216964,0.0012330427340545317,0.0008997600819269071,0.0007488503419707199,0.0006629623815145809,0.00048083146269307735,8.037257116817048e-05,-0.0005657901370590577,-0.00138503726746526,-0.002239613856084608,-0.0029747187229947542,-0.003459096177005493,-0.003612244677391881,-0.0034190722349356165,-0.0029298897415274993,-0.002242277709927274,-0.0014688947968277976,-0.0007052699882443324,-1.2139894112444497e-05,0.0005839647722414472,0.001079646124018942,0.0014827418035261038,0.0018035048833548056,0.00204847129706214,0.0022172236344380515,0.0023029073016230402,0.002294938390496727,0.00218119322310314,0.0019507490349047053,0.001601697407122075,0.0011541280540047125,0.0006585363880507155,0.00018614294506976635,-0.00020268434018843023,-0.0004976104199872066,-0.0007578550110345882,-0.0010890845060072586,-0.0015781957081445115,-0.002217138251170133,-0.0028637242010017706,-0.003274709451761832,-0.0032074714488301713,-0.002543772430724208,-0.0013698175082279185,3.483713654196547e-05,0.001300102758752291,0.0021121456871826616,0.00233436734089504,0.0020481001702843528,0.0014999540471411672,0.0009861756332594299,0.0007285983535911316,0.0007941540835766506,0.0010865856865359877,0.001407398786926545,0.0015551454057171395,0.001417161402016586,0.001012415948141582,0.00046855844647857644,-5.00714779073071e-05,-0.00042299415353627234,-0.0006229572714229227,-0.000716482859445,-0.0008237491469236004,-0.0010599656408170363,-0.0014812197938196083,-0.002053012135788209,-0.002653411461101506,-0.0031123790069472446,-0.0032734809420096713,-0.003051273724543919,-0.0024576843358721737,-0.001586836752880807,-0.0005710912293804056,0.00046376160340542104,0.00142018927616935,0.002224503470594501,0.002815154196573916,0.003146119105917909,0.003208798107921297,0.0030516399082060443,0.0027716031468715393,0.0024725053876397847,0.002214102609773844,0.001986466150295226,0.0017278116226022095,0.0013743862802422808,0.0009103202152599303,0.0003858130333680566,-0.00010872852205141218,-0.0004987674573154947,-0.0007790618908615056,-0.0010303646572295778,-0.0013839122346580206,-0.0019475826260223709,-0.002731444862063388,-0.003614385412369632,-0.004374119760686437,-0.004770093090881784,-0.004640371162268758,-0.003965544187903866,-0.0028699903711503607,-0.0015642316398013982,-0.00026225508938277275,0.0008832826397789338,0.0018016188333136462,0.0024836928433876553,0.0029470381165274577,0.0032124481644785867,0.0033013848692442687,0.0032435852350594383,0.0030789269467208194,0.0028479052975354567,0.0025786732672619253,0.00228233561035195,0.001960095704909373,0.0016148944712606212,0.0012565559193223387,0.0008958640258702028,0.0005333011550754202,0.00015305042349564974,-0.000271983909734338,-0.0007678891284198263,-0.0013483763418071415,-0.002007950376321429,-0.0027162575564597686,-0.003410402207455105,-0.00399023289907253,-0.004328447870522848,-0.004303139830770332,-0.003845542759662392,-0.0029810994220443145,-0.0018395054215807059,-0.0006223769892691956,0.0004619418638042121,0.0012699867179345754,0.0017696854309593333,0.0020391145610620222,0.00221560035076782,0.002418731053574019,0.002687224228927576,0.0029637303003076172,0.003133914806765928,0.003094076456359024,0.002807114996253399,0.0023182937531573363,0.001728879755381374,0.0011478872294781472,0.0006478815638659563,0.00024210495164151097,-0.0001128764814190828,-0.0004939144920049245,-0.0009761222134732885,-0.0015961195833301602,-0.0023250863275374317,-0.0030623380391576888,-0.0036560491674325246,-0.003949687955172174,-0.003840934048873758,-0.0033281072319392355,-0.0025171208073586715,-0.0015784166902207703,-0.0006732604480045148,0.00010871763368336672,0.0007640354996288876,0.0013373494410749015,0.0018617757877146856,0.0023205946454346693,0.002654824620199496,0.0028073990584363425,0.002770070985083836,0.002598910034690686,0.002386164202354794,0.002205135630713338,0.0020629150211385365,0.001892489725601626,0.0015918437772871727,0.0010869009558054353,0.00037823396124990927,-0.0004579682918985253,-0.0013124437248501516,-0.002097118675216608,-0.0027735350631867997,-0.003338863346176755,-0.0037841305792178765,-0.004058330598146138,-0.0040668933245035475,-0.003709475006863127,-0.002937612283185738,-0.0018017687428156658,-0.00046202970910301386,0.0008484210103236574,0.0018981549872168135,0.0025418347939066407,0.0027740925820296213,0.002721813430412871,0.002573793154239009,0.002482917750796409,0.0024943136629272983,0.0025386367746961045,0.002490325420009959,0.002252094266342858,0.0018142151525128677,0.0012560843753737965,0.0006934133245728603,0.0002052223994542723,-0.00021486663888136705,-0.0006529201784945309,-0.0012159391166112457,-0.0019529335455420107,-0.002801599523351345,-0.0035925842815178032,-0.004111363357281821,-0.0041868455577484245,-0.003763084321345481,-0.002921145534324648,-0.0018442879063852084,-0.0007460594344730076,0.00020524701681436802,0.0009351213059332008,0.001468158178983937,0.0018919608458871176,0.002296901649991278,0.0027185633845074717,0.003109935281551454,0.003358798530770405,0.003344570347458912,0.0030074084866080313,0.0023926998717734888,0.0016436978194984818,0.0009412023848712875,0.0004185287945335769,9.562233135423047e-05,-0.00013214166102193978,-0.0004430083815544597,-0.0009994529273463038,-0.0018610050128713613,-0.0029366297056580477,-0.003996606507147589,-0.004741984518454437,-0.0049094796857813705,-0.004374796002598443,-0.0032126882993828393,-0.001683072056490874,-0.00014016783610537207,0.0011020254744950725,0.0018872760658734237,0.0022583071698124837,0.002399219840069922,0.0025122291951503494,0.0027007565419983684,0.0029253360622349374,0.003050962448123265,0.0029470615919368797,0.0025729020176770865,0.001998385338903629,0.0013568604260382183,0.0007688576806290169,0.00028656162116521227,-0.00011378477990223087,-0.0004993605603680181,-0.0009366879450475437,-0.0014598596743267875,-0.0020562206722734033,-0.0026626731735943324,-0.0031699563961622864,-0.00344276346593641,-0.003363078781681717,-0.0028868298896344543,-0.002083379516401194,-0.00112534748371949,-0.00022196036955270451,0.00047253589311051453,0.0009223705447571061,0.0012071066636061435,0.001455162247084421,0.001756480403499635,0.002106662717405984,0.0024119887754640358,0.0025475526843469626,0.002432207374107188,0.0020773910980152605,0.001583006183142633,0.0010833600808161311,0.0006742763660665381,0.00036306303047836864,6.962043079781767e-05,-0.0003221681500789093,-0.0008909094761692272,-0.0016208054141942283,-0.00239038352156934,-0.0030125998235600343,-0.003307433551548556,-0.003173580920288795,-0.0026276146781621774,-0.0017951134497870213,-0.0008602064260305009,2.590852418655207e-06,0.0006846034253389727,0.0011651381547044763,0.0014942455281644243,0.0017491392275650291,0.0019881343471483378,0.0022235557059594427,0.002421434490652838,0.002520835573672406,0.0024596928687383827,0.0021983148761683343,0.0017375997565833388,0.0011284048973378578,0.00046391557899178493,-0.00015150950366009494,-0.000650155195439996,-0.0010409743244078726,-0.0014115208669360992,-0.0018779963820243497,-0.002502333559432012,-0.003222831574494024,-0.003845781293249994,-0.00411489974728357,-0.0038298878223659728,-0.002952914363020772,-0.0016437969979454818,-0.00020201905684997016,0.001055157364893136,0.0019154603294874375,0.0023356202911006536,0.0024229314274560845,0.0023551712756062016,0.0022870794298453672,0.0022900461767743274,0.00234665054601712,0.002389565531334316,0.0023529563937062523,0.0022045866382964345,0.0019462351225971362,0.0015942159451751575,0.0011631159625380182,0.0006665308978975775,0.00012773915658096193,-0.0004193321145626439,-0.0009493595821693524,-0.0014713198460011177,-0.0020306308357177687,-0.002669327735410633,-0.003361445994958991,-0.003971993198926112,-0.004284070336887801,-0.004095446422255743,-0.003333365525984928,-0.002116101091498245,-0.0007191715914331095,0.0005379439585111454,0.0014229118938957922,0.0018719157916619756,0.0019861830149876724,0.001955515287738011,0.0019551272213070643,0.002068514424713025,0.0022682845458847013,0.002453233168289497,0.002512833801573489,0.00238293484075549,0.0020686637227225243,0.0016314136386650852,0.0011537937483401177,0.0007026874845819658,0.00030629557190555736,-4.88150668198685e-05,-0.00040388931318507005,-0.0008053206378940673,-0.001281262807634609,-0.0018239228724394696,-0.002382387843053888,-0.0028692940691621574,-0.0031817886448483176,-0.0032323104098690427,-0.0029788614412326595,-0.0024414290662732496,-0.0016956086801073306,-0.0008461984089585564,4.91828330516841e-06,0.0007801506456869055,0.0014295738907711933,0.0019221635846878998,0.0022377670337189485,0.002368683776425509,0.0023284924314024764,0.0021572204667203074,0.0019139929319606287,0.0016588611115874608,0.0014341921906776117,0.0012549358579256845,0.0011089113016815393,0.0009620787404769369,0.0007648598736322502,0.00046088370646371607,2.1851102353603706e-06,-0.0006287590543837554,-0.0013972669382006188,-0.002207297182125427,-0.002915182005042925,-0.0033669379351223532,-0.003447445776536922,-0.0031215738283802493,-0.0024488216955417894,-0.0015647255768297536,-0.0006377493899643636,0.0001798218159877461,0.0007894387115462804,0.001163251069000313,0.0013402484521683677,0.0014061184618453114,0.0014626021798547235,0.001592496212305822,0.00182791056058014,0.002131820914194822,0.0024034950939290363,0.002512842697102429,0.0023560084346027936,0.0019098900906122944,0.0012563511715338357,0.0005556512873433895,-2.6766661575912225e-05,-0.00040639190961339663,-0.0006292882503432535,-0.0008494540317939008,-0.0012383386933631415,-0.0018745610906276198,-0.002678839552729701,-0.003435062640825935,-0.003887169708372191,-0.0038567570314129063,-0.0033173651538630504,-0.0023919302744783884,-0.001286463803389004,-0.0002040443720855046,0.0007173648490665081,0.0014234627342701056,0.0019246861791662403,0.0022599407542473237,0.002464151436440713,0.002553954167561012,0.0025345078872395276,0.0024176851239199825,0.002234334034223291,0.002027548772840759,0.0018289481247631657,0.0016351540896976748,0.001404331922011085,0.0010792651557032166,0.0006237157648096932,4.82375561339983e-05,-0.0005916522165379909,-0.0012233768892165175,-0.0017923780654794642,-0.002280498198957659,-0.0026945309725629582,-0.0030327174295039323,-0.0032548510442465197,-0.0032823304769995067,-0.0030347326875376206,-0.002482571042464685,-0.0016818722536240892,-0.0007652803851641522,0.00010964740660741797,0.0008275847539122572,0.0013591624778353667,0.0017544157206311408,0.00208961757610338,0.002401747409636154,0.002654071249794741,0.002756344509542065,0.0026270727823847844,0.002257613090847934,0.0017366177830976854,0.0012178453145484961,0.0008476882858833454,0.0006906119965772442,0.0006908088909753394,0.0006901018745569846,0.0004962083019520217,-2.7270057102188946e-05,-0.0008889757529049788,-0.0019502127840306566,-0.0029696189619074784,-0.0036941386245969965,-0.003955538469115382,-0.0037286655445956263,-0.0031265412607574027,-0.0023382916674679535,-0.0015427921980329664,-0.0008404035052532006,-0.00023309628140501303,0.0003434339792825128,0.0009585747514899878,0.0016315298760945132,0.0023097377872562533,0.0028885036237573628,0.0032579871348572885,0.0033514694028313917,0.003170809318619066,0.0027792903263736436,0.0022700496406179117,0.0017291105555918796,0.0012100469245473029,0.0007263329715448319,0.0002572216191768943,-0.00023938354850729234,-0.0008095058476412481,-0.001480393569143388,-0.0022350019457176803,-0.0029937446268008382,-0.003618211595000514,-0.003946401263227686,-0.0038534247739386365,-0.0033130413894065713,-0.0024264414516962786,-0.0013952144179007944,-0.0004435822988155152,0.00027451107505689827,0.0007348894115937678,0.0010359186444692879,0.0013277984973913348,0.0017179727574447628,0.002205918163579004,0.002682741832163344,0.002992993539862118,0.003021449937039147,0.0027560454428387383,0.0022938075096889166,0.001788577645366897,0.0013698493830702355,0.001076378160640949,0.0008399653518699679,0.0005280420045973666,2.1636825112630138e-05,-0.0007144642488862143,-0.0016074397426748153,-0.0025079874594448417,-0.00325458926162699,-0.0037317096775914393,-0.0038938918634800527,-0.0037535812916679066,-0.003351344171223042,-0.0027311695524760175,-0.0019334355288750684,-0.0010038435522031332,-6.477014307950399e-06,0.0009728369949578942,0.0018398094881237684,0.002516226977289925,0.002960721296983739,0.003172247384077145,0.003175640730820565,0.0030023789968995607,0.002681988202307802,0.0022484314265168097,0.0017513542662776908,0.001256663643337902,0.0008288325478835133,0.0005020570452453571,0.0002576900455076949,2.4078339709819488e-05,-0.0002964388201262058,-0.0007825551846687831,-0.0014496804127721022,-0.002226811711500933,-0.00296903082986938,-0.003506148689345202,-0.0037092648166984097,-0.003542714034487441,-0.0030713827865148577,-0.0024169196414428108,-0.0016888151030110504,-0.0009348008981243063,-0.00014317118899544537,0.0007070931981616826,0.0015877311680399507,0.002399605860607124,0.0030055742716787533,0.0032957727569509236,0.003242704580213908,0.0029143239675671765,0.002442295556440403,0.0019664829058624778,0.0015829021537282432,0.001314737195995647,0.001114304659333739,0.0008928939278887474,0.0005654231572596608,8.986375763696234e-05,-0.000517257045887207,-0.0011952320461352116,-0.0018708113035437641,-0.002483232289761693,-0.002985631856485851,-0.0033276289237427602,-0.003442803935526138,-0.0032629626652282756,-0.0027578455627379123,-0.001973324449843343,-0.0010355440028964854,-0.0001092842153263837,0.0006690490069831233,0.001244158699510452,0.0016486775239684761,0.0019617963158081453,0.0022473505005188295,0.002509625699018679,0.0026912556332442266,0.0027105875349109267,0.0025136864578553593,0.0021104764085559816,0.0015753918665529086,0.001012186592285573,0.0005008251664486006,5.467298802329997e-05,-0.0003862292750570924,-0.0009164991265789848,-0.001596850052801945,-0.0023913451824797848,-0.0031487326648593867,-0.003646799913733766,-0.0036856675199994386,-0.0031862199945639413,-0.002241046288743103,-0.0010857947465381917,-6.122481633516442e-07,0.0008088946710342897,0.0012889081594321576,0.0015339177536027883,0.001709151237981682,0.0019455951582546043,0.0022657974434124916,0.002577403481450049,0.0027321320557097276,0.0026134207275142467,0.0022036674319707776,0.0015957096045184276,0.0009436090882232423,0.000379513862414626,-5.7933288209049104e-05,-0.00044175067221945824,-0.0009063695373152105,-0.001553100323141228,-0.0023648966605094865,-0.003183555575975173,-0.0037686496863934575,-0.003908827410139857,-0.0035230702569577707,-0.0026946918471875293,-0.0016225576382437824,-0.0005248321990172613,0.0004444165814592397,0.0012225437631301008,0.0018102945351931704,0.002225364503769856,0.002477391877537969,0.0025762743101689412,0.0025530694706388368,0.002462631741933125,0.002356474957302851,0.0022451892363222884,0.0020842707015097436,0.0018013089633969383,0.0013485187813728225,0.0007414639369104173,5.307045196329736e-05,-0.0006336461214672836,-0.0012773926883352547,-0.0018930494233327544,-0.002515113628005028,-0.0031366928480058773,-0.0036714554890918075,-0.003971194172982884,-0.00389248630183536,-0.003371612185778688,-0.002462075606647448,-0.0013155092769805304,-0.00012298961891357273,0.0009468894054865429,0.001784846779973242,0.0023473642404718623,0.0026447266452176155,0.0027242310952690744,0.002654248804348488,0.0025085515881415645,0.0023501730936555613,0.002217001646674688,0.0021129166309912274,0.002007375330826015,0.0018442578435715596,0.0015587874898983498,0.0010995965971348724,0.0004507939010569027,-0.0003538393364027632,-0.001232996697439319,-0.0020791713768438976,-0.0027906346762651916,-0.0032970293288760925,-0.0035652973453758423,-0.003587497273802803,-0.003365291790791019,-0.0029058677373701787,-0.002231851878250071,-0.0013950201395889702,-0.00048023519887557093,0.000407553285819973,0.0011701897024124562,0.001745251266515405,0.0021215401600681036,0.0023308200395317385,0.0024196579435903343,0.0024195316875719854,0.0023351417151152858,0.0021568820490848444,0.0018848192400587583,0.0015435837456537545,0.0011758335052650724,0.000818688221092646,0.00047980787293202035,0.000129866930893869,-0.00028215902184971185,-0.0007974569668736185,-0.0014146314344272457,-0.0020718427312503155,-0.002654083044788205,-0.0030254662641992286,-0.003075343109021523,-0.002760149194676282,-0.0021236624789104123,-0.0012865345466871302,-0.00040786615069021183,0.00036721376999627347,0.0009531088638158201,0.0013423701799156632,0.001588271923990696,0.0017610686407733413,0.0019039292187900485,0.0020150572840717937,0.0020635331843496902,0.002021327791122741,0.0018840511549358709,0.001666836434152579,0.0013851652126778064,0.0010409643566759792,0.0006245792207647418,0.00012666616900147397,-0.0004520015111481097,-0.0010973779728787301,-0.001780746261466047,-0.0024537901914563386,-0.0030428635821880983,-0.003452017076019092,-0.003582134136916165,-0.0033631102686629815,-0.002785463402898849,-0.0019151273284361988,-0.0008820100330035389,0.00015546950012448803,0.0010570329591446125,0.0017398889068594328,0.0021941156155200507,0.002467534614319904,0.0026284392283696854,0.002726041681130784,0.002768775167446595,0.002729245112291203,0.0025694839888669246,0.0022704561332605473,0.0018495334386012018,0.0013570675231932357,0.0008535998804304252,0.0003784008822939496,-7.480314685693007e-05,-0.000559742976828857,-0.0011499808532343028,-0.0018888945105341142,-0.002739518195923607,-0.0035636195571881277,-0.004151287722661299,-0.004298426185408494,-0.0038999169598829524,-0.0030095564416478854,-0.0018297365532752798,-0.0006316648065829247,0.00035265894793065557,0.001010294849465189,0.0013627816219881463,0.0015206681405073202,0.0016121552926584247,0.001725979802730319,0.0018904937599033855,0.0020858856565218182,0.0022703097751895908,0.0024001065777745374,0.002436374177706872,0.0023445463010700277,0.0020985661977586806,0.0016930186295856238,0.0011539832783928807,0.0005356691484290424,-0.00010030956012167932,-0.0007110900260797431,-0.0012850881380350463,-0.0018296521731223899,-0.002340743292042255,-0.0027767646834521514,-0.003058556829034191,-0.003100438143557816,-0.00285458898100013,-0.0023401327617319626,-0.001638134043332702,-0.0008572433999859,-9.35181274647509e-05,0.0005918851743377963,0.0011699224971552628,0.0016270459284377441,0.0019525098978281825,0.002138960027467402,0.002191268390092598,0.0021306995190865778,0.001986287927200513,0.001778108167452245,0.001506499500801281,0.001158400211103832,0.0007280388730692979,0.00023558113322924253,-0.0002735452538544645,-0.0007512294962904891,-0.0011743619039475896,-0.0015535066780338045,-0.001911369046828913,-0.0022442127098061928,-0.002495702836827026,-0.002567073217492872,-0.002363350983614083,-0.0018499918901200376,-0.001085410931327021,-0.00020841537700697034,0.0006136225370085516,0.001247614807830871,0.0016366263095141439,0.0018040691215011793,0.001825244624647027,0.0017851232766552623,0.0017423440922033507,0.0017123158348712549,0.001673185103593588,0.0015895776355647584,0.0014408769067821901,0.0012367664794339815,0.0010084466734653708,0.0007797769158875457,0.000538723866273674,0.00023213345081210258,-0.0002082689646254643,-0.0008227445484075507,-0.0015892945694020815,-0.002417809367215577,-0.0031737359842588034,-0.003716644511712215,-0.003935719162555966,-0.0037718363663661256,-0.003225923094033137,-0.0023579805614221743,-0.0012788552585027062,-0.00013240714185345863,0.000933651505178652,0.0018020526345128847,0.002410860660811201,0.0027560830102845634,0.0028729656296052706,0.002811824061791973,0.002625749302523317,0.00237297505668176,0.0021193134086717716,0.0019233995118417796,0.0018048392721425458,0.0017186026306463952,0.0015647163572819309,0.001239653378312749,0.0007005073900010439,-3.827556923562635e-06,-0.0007606289541417763,-0.0014632054967988206,-0.0020717783156492206,-0.002618198358659828,-0.0031479680315829378,-0.0036417825506262196,-0.0039788260567488005,-0.003978358647885014,-0.0035014063637308908,-0.002549403154701622,-0.001293835669496585,-1.2815736229103132e-05,0.0010314404936868455,0.0017044005541649993,0.002038582469419317,0.002183455613688027,0.0023009301807063102,0.0024699247552461686,0.002653142884794505,0.002738454208538324,0.002622157979598353,0.0022793749734022735,0.001779852999193341,0.0012448466222809073,0.0007768004719988328,0.0004059262673295059,8.223990687654024e-05,-0.0002875320837172847,-0.0007819901518323487,-0.0014162104754157677,-0.0021234100152035212,-0.0027731173997371326,-0.0032170653035431852,-0.0033434991979224447,-0.0031167526479833423,-0.0025845796232380086,-0.001851028640125892,-0.0010309925317834295,-0.00021238279345676362,0.0005545953544272629,0.0012407279602894327,0.0018121060821208036,0.0022195066506469348,0.0024149795567449625,0.0023858917674756115,0.002180289873511395,0.0018997179340850753,0.0016564806738056405,0.0015172770924340743,0.0014662245771763888,0.00140972240983231,0.0012208409123400307,0.0007987449147438019,0.00011301357456009397,-0.0007847034406936425,-0.0017790422903978822,-0.0027229964757660456,-0.003467839399533307,-0.0038858073218984253,-0.0038903447351768005,-0.0034582817863624,-0.002648107319247461,-0.0015993234535649301,-0.0005012411810915383,0.00046377165743430033,0.0011794216189353612,0.0016283055637166801,0.001881796877527785,0.002052763235681771,0.0022356656119321976,0.002462939282133074,0.00269571678731714,0.002849193895955009,0.002837799726609232,0.002617844437635283,0.0022069281979027523,0.0016702503991489791,0.0010810788929100043,0.0004777584850812356,-0.00015689787896306577,-0.0008795205973621747,-0.0017393686471436991,-0.0027243080899435872,-0.0037286511335041057,-0.004563302738823549,-0.005010373704857552,-0.004903805524973232,-0.004202355687580005,-0.003019476276393539,-0.0015911787486154346,-0.0001928977742288692,0.0009567199147080515,0.0017604270981832412,0.002248639791147916,0.0025318468764770393,0.002729493015089915,0.002912232341303738,0.0030808864572333342,0.0031830874911605513,0.0031515358211186657,0.002942728098703864,0.0025596701988704756,0.002051384848389187,0.0014921728474504169,0.0009511490518664986,0.00046448683851719184,1.969448194269344e-05,-0.0004425570729302998,-0.0010058961325666081,-0.0017363785148785857,-0.0026331245811474315,-0.0035951161352424975,-0.004429035928445329,-0.004906394645267692,-0.004850815361032971,-0.004215743685170501,-0.0031131711721738434,-0.0017760975301522883,-0.0004698771904960279,0.0006062462817862837,0.0013800679829170932,0.001901489337701398,0.0022793673267663224,0.0026008601141996645,0.0028827892791720676,0.003081160965684728,0.003143872320752378,0.0030619994452102304,0.002879096879446982,0.0026524749038955428,0.0023991201652403195,0.0020726532787418814,0.0015956624559918479,0.0009287963393172742,0.00012527838876052935,-0.0006765299149594658,-0.001327904826503072,-0.0017653986429803103,-0.0020582646133072823,-0.0023658419348319333,-0.002824347486951626,-0.003434888334075813,-0.0040291312803307005,-0.004340774987282547,-0.00414278530581254,-0.003369118497500897,-0.002151862836045613,-0.0007588271536485569,0.0005258237055223666,0.0015102491097056018,0.0021425936034977096,0.0024886702310174384,0.0026672791141272856,0.002783476282278208,0.0028886356480570608,0.0029741875146813484,0.002989398895980328,0.0028698348762889983,0.002567654057333277,0.0020779824106131302,0.0014532425059180913,0.0007948616958972745,0.00021741940012042066,-0.00020462620272906722,-0.00048180730398764875,-0.0007170468179591822,-0.0010621282891341223,-0.0016373650704092054,-0.0024521088567550932,-0.0033688789408829736,-0.0041363856210714445,-0.004483699720561405,-0.004235114936980107,-0.00339107823279462,-0.0021349061505735113,-0.0007612021603602024,0.00044011419284417023,0.0012904319037986038,0.0017726433555758326,0.002005914541844688,0.0021620265471146887,0.002367576137127512,0.002641239010024884,0.0028946761823432283,0.0029909288595366392,0.00282528316705018,0.0023857759315024066,0.001764989044118648,0.0011207957429149199,0.0006071292044540003,0.0003066676571424746,0.00019342988945066488,0.0001396166675529752,-3.5171607032734916e-05,-0.0004884980764039435,-0.0012801536912403373,-0.0023283373570348294,-0.0034201483837207336,-0.004279425583097873,-0.004668455720387063,-0.0044801311813872004,-0.003776549959084125,-0.0027532992284499277,-0.0016463860747947582,-0.000630070512124108,0.00024125059961140744,0.001019537564144659,0.0017909425634546176,0.0025897885267629913,0.003349997703533391,0.003923761912548193,0.004158310147162588,0.003985723042270588,0.003470196875663574,0.0027817914994631415,0.0021118005809113247,0.001581490917644523,0.0011974885921230997,0.0008736139882871435,0.0004960075164827886,-1.3469754361993013e-05,-0.0006691068393541975,-0.0014310830538587708,-0.0022315148546665758,-0.0029939632600206444,-0.0036397784307555603,-0.004090228230148965,-0.0042752565523982945,-0.004149966818279044,-0.0037103803338879803,-0.0029993278792635287,-0.0020995510187301284,-0.0011165284541828277,-0.00015482587999443662,0.0007073263933333918,0.0014364398365350735,0.002043286367911718,0.0025580712602800144,0.0029925371577887595,0.0033146790671613703,0.003457930706067029,0.0033630442435527105,0.0030252615612333207,0.002513629177124497,0.001948354044094174,0.0014496854653910582,0.0010868839550487225,0.0008510471826860137,0.0006598570416701803,0.0003888786128391211,-8.15758007824902e-05,-0.0008161916120713642,-0.0017850109866415086,-0.0028505868174519755,-0.003794695917168503,-0.004383531951190088,-0.004449883138729193,-0.003956732131415658,-0.003011585766366839,-0.0018248821396704825,-0.0006341378612466023,0.0003706239379507976,0.0010919009669860568,0.0015307144169524876,0.0017599482032592917,0.0018788588789881836,0.0019657114235113,0.0020469603575041864,0.0020969016695859726,0.002067271512784849,0.0019279364787708605,0.0016916673149849097,0.0014066502451421312,0.0011231589415943565,0.0008584655806515638,0.0005837481657910855,0.0002404578839845499,-0.0002248514342071124,-0.000826149838499742,-0.00151877426813583,-0.0022016857913369995,-0.0027410150765997724,-0.003010089970447441,-0.0029345086483785277,-0.0025238369572626682,-0.0018719286171516507,-0.0011209566599538374,-0.0004043543488345524,0.00020277682056567693,0.0007005494304847451,0.0011411693957476207,0.0015800263971691023,0.0020284635873428175,0.002434157971115745,0.0026998567324093186,0.00273064058090306,0.002484973478873699,0.002002890465273041,0.0013956949544150698,0.0007996199134816613,0.00031344125426310186,-4.9897581548851095e-05,-0.0003703680825949242,-0.0007767345590677756,-0.001367692977953588,-0.002136807008614841,-0.00294350631042296,-0.0035530022669370705,-0.0037336647277838595,-0.0033678585939087707,-0.002518934816485784,-0.001413716565065182,-0.000342578119918771,0.0004733922831539596,0.0009760489584048173,0.0012722180273489199,0.0015444693633443495,0.001925177404766093,0.0024096854260500307,0.0028587502833992023,0.0030842453970800245,0.0029618192188825337,0.0025016371666327533,0.0018388756412349824,0.0011562775711720917,0.0005885706801613129,0.0001624403387701291,-0.00020062688451368997,-0.0006275246067634769,-0.0012164793291134569,-0.001977492189330659,-0.0028145981108796186,-0.0035535798613824813,-0.004000527376907188,-0.004007028947753834,-0.0035187118450321717,-0.002592860864456238,-0.0013826808959796402,-9.569467206849733e-05,0.0010602465884521947,0.0019278357145518876,0.0024342165879248307,0.00259924385006011,0.0025171590306855914,0.0023186920911760266,0.0021258525590867757,0.002012959340859276,0.0019856714001543125,0.001985749831152724,0.0019219442215467827,0.001716085525534168,0.0013423543509477685,0.0008360952675456723,0.0002637113032380493,-0.00032779276407848726,-0.0009432142945037284,-0.0016225533833198295,-0.00238009731996498,-0.003142727915945018,-0.003740308947167651,-0.003968943816539745,-0.0036959234748875566,-0.002942064524086134,-0.00188799251423937,-0.0007978157557831543,9.683130686615236e-05,0.0006893541655512868,0.0010222626780391512,0.0012373920510311207,0.0014842857725111411,0.0018363887308562733,0.002256700646319748,0.00262585195862052,0.00281139511987869,0.002736866811761144,0.0024140199628466773,0.0019263309333356063,0.0013796625405587228,0.0008508685547921517,0.0003611709968557098,-0.00011638517230644407,-0.0006251967409402423,-0.0011886060445221913,-0.0017856399374541628,-0.0023470718928321702,-0.002772094243344702,-0.0029608880709136613,-0.0028531484367107745,-0.002457060126521332,-0.0018530327506893058,-0.001166437308479053,-0.0005199385672130968,1.1703979776580891e-05,0.00042191864906625156,0.0007585753309989527,0.0010854525746181063,0.0014408558668755418,0.001815124182763574,0.0021561352099004586,0.0023953210885216914,0.0024771883831258812,0.0023779470014907616,0.002108765620330281,0.0017073399121436466,0.0012236042766497212,0.0007042619702308057,0.00018041627322202278,-0.0003371395406847233,-0.0008525278373811597,-0.001371885505129394,-0.001889688365823179,-0.0023805706728650348,-0.002798840284444545,-0.0030843284540604805,-0.003172763693851961,-0.0030106367904275877,-0.0025750204282942394,-0.0018944183338759559,-0.0010586092488738424,-0.0002024448692678456,0.0005399255998148385,0.0010912604623738655,0.0014634415521944393,0.0017407056296916638,0.0020200795935135813,0.002345253338996922,0.0026758512552773972,0.0029109894068075634,0.002950578947215629,0.0027544526115089946,0.0023633744096977975,0.0018731127614939652,0.0013824341631618504,0.0009474461807260095,0.0005638848634113292,0.00017884641229403255,-0.0002798491193466864,-0.0008700431763854074,-0.0016067182601044502,-0.0024451993220044794,-0.0032817418620628,-0.003974160269192294,-0.004378398297248703,-0.004389436459886513,-0.0039717399215325,-0.0031686121488016866,-0.002089569594706358,-0.0008838472171947031,0.00028983350967003055,0.001291739402172097,0.002026541336597424,0.0024624686667567897,0.0026360776696604357,0.0026350165902891466,0.0025607665462536507,0.0024860979014392705,0.0024278693022978847,0.002349498048061089,0.0021920534256023353,0.00191719280887441,0.0015379293315791048,0.0011188015885570774,0.0007429691202523989,0.0004621491892040944,0.0002568737827079729,3.2720104505516625e-05,-0.0003384226389996929,-0.0009481163191797037,-0.0017879731445429954,-0.0027292141216538656,-0.003559774099908965,-0.004062796749547304,-0.004098895377038128,-0.0036540480134398595,-0.0028342914528029003,-0.0018155322537398964,-0.0007763857572260382,0.00015549228237908064,0.0009253459127611475,0.0015398965027626872,0.0020333068588847076,0.002427872844527169,0.002708652559825003,0.0028266641813750274,0.002731884927907921,0.002418637253789184,0.0019534201622462373,0.001460831206113288,0.001067970047748756,0.0008368179776552238,0.0007263234138972308,0.0006105819762761526,0.0003454609286560682,-0.0001542496474533988,-0.0008710025995395787,-0.0016952538511616877,-0.0024771859420897597,-0.003083588687954655,-0.0034289871623271184,-0.0034745593381410654,-0.0032112744121610315,-0.0026492414956558264,-0.0018236775430396652,-0.0008104947404487352,0.000266655673279247,0.0012540131843646613,0.0020110716694667565,0.0024609280480894814,0.0026182131534099756,0.002574249249628577,0.0024447501587761817,0.0023102322975482254,0.0021844167254780676,0.002026804251035121,0.0017861717690235614,0.0014430089580342452,0.0010231173193928317,0.000576721986889911,0.00014040735392139997,-0.0002918604865533475,-0.0007696419205129016,-0.0013556424386061085,-0.002076739807793603,-0.0028803287314037255,-0.0036223834645927565,-0.004103165350908823,-0.004143200380393329,-0.003666020650987134,-0.0027429519663876804,-0.0015715916415952676,-0.0003969410795275865,0.0005825786715028783,0.001276526960848086,0.0017078106136769445,0.001972227368625782,0.002181817589572319,0.0024184663334010795,0.002708143279835552,0.003013717519841092,0.0032439726085600547,0.003282028661391094,0.0030339750247457705,0.0024828956643332544,0.0017171168133451715,0.0009044631564873172,0.00021332428262545823,-0.00028026534319118286,-0.0006414870375959069,-0.0010426314138943077,-0.0016562553437052623,-0.0025340913302192907,-0.0035447214493299403,-0.004412130584293147,-0.004838868063015238,-0.004647510918330511,-0.0038631486156407106,-0.0026941125686567972,-0.0014265160332496594,-0.00029463188924495215,0.0006029439054753956,0.00130325779298716,0.0019065217497139311,0.002480898582846385,0.0030023075920388525,0.0033630688987427923,0.0034414505790332124,0.00318777528084044,0.0026724561131807054,0.0020638632647515254,0.0015466907821700534,0.001228417230288401,0.001088626561312381,0.0009984903732359412,0.000794428598629238,0.0003600995080980043,-0.0003272198266022513,-0.0012009751340888155,-0.002142584803676106,-0.0030199174507774752,-0.0037073841609139733,-0.004092516880784573,-0.00408810184948114,-0.0036598938691327614,-0.002856425644195897,-0.001813130455375856,-0.0007146532880990728,0.0002705513670709565,0.0010465427606355787,0.001605507340865753,0.0019992800058846955,0.0022906851660285488,0.0025152100258087648,0.00266973273187956,0.0027258602811951298,0.002654438722569815,0.0024473615317847767,0.002127449902447813,0.001742551471808622,0.0013459809033633185,0.0009717779638034035,0.0006167268208784266,0.0002387152771596337,-0.0002260501879833132,-0.0008323026498754818,-0.0015922347384544312,-0.002451911244686758,-0.003288363105721291,-0.003933026043852616,-0.004219164699893376,-0.00404064127297834,-0.0033998195507523063,-0.002420151462361266,-0.0013102866386211858,-0.00028957085843577804,0.0004927469505501489,0.0010055050664024474,0.0013267861953630113,0.001583467499352605,0.0018718717614017743,0.002202975960031341,0.002502569201160742,0.002664927155743176,0.0026256563064798065,0.002407076487015189,0.0021076041921695324,0.001843322399401752,0.0016800628916697126,0.0015982132766852656,0.001509280387575915,0.0013096848081928713,0.0009353326656574225,0.00038380820837427185,-0.0003032517509560736,-0.0010751030880946084,-0.0018902786898349463,-0.002701936559521001,-0.003426491346810789,-0.003931764375669738,-0.004069592567138893,-0.0037439393847381814,-0.002976072784281554,-0.0019247365439273706,-0.0008422195051231125,1.8705079838352012e-05,0.0005051859189226664,0.0006230561177180132,0.0005218860258324241,0.0004105716754600067,0.00044685486192715346,0.000662363915913814,0.000966355709529736,0.0012235971740466873,0.001354091455372121,0.0013876760611089586,0.0014375405814301954,0.0016133242586507173,0.0019359288890550277,0.0023121590919110797,0.00258241022276416,0.0026041950172081,0.0023151252719651695,0.001741335822567211,0.0009603120536670951,5.7033269269003966e-05,-0.0008916481008545028,-0.0018012256904543912,-0.0025610139481447008,-0.003046113190679732,-0.0031660139981228436,-0.002920053876383442,-0.0024161036496824486,-0.0018300665097086071,-0.0013246649059955344,-0.0009756954462723359,-0.0007499755840935328,-0.0005445556632794092,-0.0002575337938573953,0.00015462038439219283,0.000661937894900622,0.001185288855032275,0.0016359244322768462,0.0019466309352036578,0.0020863239227091974,0.0020628994521790277,0.0019194594258201353,0.0017217484010806923,0.001533018866647814,0.001382186613119392,0.0012425757091821918,0.0010373496379486888,0.0006715410004531436,7.329637336338181e-05,-0.0007756104233325389,-0.001826882867461741,-0.0029639066593180755,-0.0040059761110690754,-0.004727330232979897,-0.0049065459740373595,-0.004405512713040983,-0.003245848765290541,-0.0016331864169780305,0.00010053668895139336,0.0016173633582888334,0.002694028594542301,0.003279356751460376,0.0034662887134874385,0.0034089417825627763,0.003240164518213052,0.003030365710667739,0.002792821158506163,0.002513488713933623,0.002180003192964039,0.0017981813598811401,0.0013968221983594923,0.001021906727675471,0.0007157286537247641,0.0004800546055457513,0.00023997717964030214,-0.0001583876791528556,-0.0008904638581152617,-0.002046841108740964,-0.0035323369064260797,-0.005040136093840025,-0.006138720316748097,-0.006444551906517017,-0.005796118556493349,-0.004334750761157449,-0.002445705506094011,-0.0005911891405710194,0.0008746386822080093,0.001816323412447987,0.002311745029227424,0.002555412551539198,0.00273570668954512,0.0029487779850717708,0.003178586279842757,0.00333497739816607,0.003319246700607049,0.0030833386418740363,0.0026583818911567942,0.002143468186150025,0.0016619664622926377,0.0013058043725397111,0.0010924525247938165,0.000952447263820552,0.0007518964705895191,0.00034230325151683597,-0.0003774540355011332,-0.0014067426883537205,-0.0026181271353925544,-0.003778343777551707,-0.004616259703681192,-0.004916605244074747,-0.0046016582815149995,-0.003763411311873646,-0.0026283878958728206,-0.0014677679311195404,-0.0004923024935892381,0.0002192915553602742,0.0007248682464432402,0.0011565875433687735,0.001627528370519876,0.00215956815197345,0.002671962387737402,0.003033731666559035,0.0031446091451533182,0.0029930396739448724,0.0026565078656540877,0.0022483437420398183,0.001849704633743321,0.0014721844969557607,0.0010716955242796719,0.0005966444208957523,3.0943415740719545e-05,-0.000598423119793364,-0.001247122754024778,-0.0018824814307968113,-0.0024866604951711098,-0.003032821526338139,-0.003460984520633674,-0.00368143287276141,-0.0036079776356997204,-0.003197146967628441,-0.002467086731727005,-0.0014906898115146167,-0.0003779006485919003,0.000737994936039985,0.0017125977714345,0.0024156928682995717,0.0027739000173029552,0.002809898834872297,0.002643818285489349,0.002439356242146219,0.002316429362553121,0.002282919575528779,0.002233299233993781,0.002020950654511546,0.0015607566371247232,0.0008945443613173122,0.0001735906876261979,-0.00043244032396059714,-0.0008399240314479221,-0.0010992730599557884,-0.0013553022168189943,-0.001746831199130849,-0.002309348212863655,-0.0029387720713923435,-0.0034347507770084015,-0.003595994985812526,-0.0033141997591356904,-0.0026189640872704865,-0.0016569958765711682,-0.0006244582469803773,0.00030913238044566515,0.0010510515878504288,0.0015945164857884794,0.0019922232053220554,0.0023118039238588595,0.002593409794736461,0.0028259461557269263,0.002951092670697736,0.0028938289159870525,0.002606092336877851,0.002101404022568134,0.001459650866059315,0.0007952064788229061,0.00020232610279261612,-0.0002924830415835025,-0.0007413241042118749,-0.001237503041213606,-0.0018464802113618774,-0.0025434558263370847,-0.003196591639947814,-0.003611935884358668,-0.0036212091994249794,-0.003166692705538901,-0.0023355602477265324,-0.001322668517064353,-0.00034183069047892165,0.000464469292970457,0.0010680230209389016,0.001532586518486244,0.001947425169736643,0.002359297840941601,0.0027390487557840486,0.0029945572745682927,0.003017881899032232,0.0027423960860404285,0.002184752121409168,0.0014518033443372406,0.0007039802728016609,8.574262847138407e-05,-0.0003452305958645898,-0.0006498488591781758,-0.0009751067739244913,-0.0014663407610967917,-0.0021680320841209314,-0.0029698418336933183,-0.00363470650980899,-0.0039016220969912085,-0.003611801812856673,-0.002790063830115543,-0.0016359031150082882,-0.00042926628608240514,0.000595577620739214,0.0013387138210895094,0.0018422847060166785,0.0022232490368893597,0.0025785492557326593,0.0029195717030211063,0.0031690192078872663,0.003214271405227907,0.002980674780740333,0.0024809959686734493,0.001813856617024739,0.0011134125989130004,0.00047950907306174034,-7.153202276793095e-05,-0.0006065236241893082,-0.001224141005598716,-0.0019802082494182584,-0.0028304556577202953,-0.0036229107908497967,-0.004147003754898235,-0.004218513133172476,-0.00376148239077983,-0.002847895704451543,-0.001674380407437226,-0.00048538186521150564,0.0005206685652604644,0.0012569674259585604,0.0017558691942676206,0.0021195765648581357,0.0024444352605839837,0.0027602520872556293,0.003013980169237276,0.0031012474540879575,0.0029255485280548707,0.0024548786293623033,0.0017501190016079374,0.000952451810874446,0.0002324584108840445,-0.00028143531597627923,-0.0005652923586266479,-0.0007194273161474458,-0.0009251469933608651,-0.0013483187682830924,-0.0020342281769023165,-0.002853587084359899,-0.0035388386152022805,-0.003800134260131768,-0.0034621708486715767,-0.0025491978774803874,-0.0012754092389592464,4.907817016529888e-05,0.0011441443328154572,0.0018556862053428149,0.002183269870933359,0.0022393648215209235,0.0021717722240690678,0.0020912245290167996,0.0020345401256085882,0.001971299862142149,0.0018420301721267288,0.0016052057968907565,0.0012693117728283083,0.0008933729156116585,0.0005537925306109102,0.0002934416964661989,8.216468392507881e-05,-0.0001834644010203357,-0.0006321180262292662,-0.0013403390177429881,-0.002265666075620684,-0.003230112299900719,-0.003970577092059371,-0.00423798480369748,-0.0038999768660842806,-0.0029983240556334984,-0.0017341813118072963,-0.00038969484455420164,0.0007758989429696361,0.0016086915206427643,0.0020888983315835493,0.002302648552958314,0.002379797614453222,0.002431475025858168,0.0025127665616111886,0.0026168963263320947,0.0026913887668763713,0.002662883727012137,0.002462897619072952,0.002052104533198547,0.0014398481643795422,0.0006916652884556313,-8.296379389601016e-05,-0.000764653986330978,-0.001271139910234961,-0.0015969327211486407,-0.0018208144705950168,-0.0020672285795244995,-0.0024331239885146557,-0.0029173808582152153,-0.0033959106944108416,-0.003663885662054844,-0.003529125396407931,-0.002910439084977234,-0.0018895372098637797,-0.00068774392009695,0.0004229853151431637,0.0012316852430876387,0.0016688095349410234,0.0018188165543839045,0.0018628420580412512,0.0019825517509221573,0.002272068908831234,0.002697315302065198,0.0031166430653123112,0.0033473085950857075,0.0032444273125867506,0.0027596522873359467,0.001960778182242272,0.0010095294200188685,0.00010619014676266239,-0.0005822539814168587,-0.0009864548271872062,-0.0011640597036029036,-0.0012746416911606465,-0.0015032281573214683,-0.0019637733625021913,-0.0026304712960346483,-0.003335257651679422,-0.0038362425308312775,-0.003923655359642746,-0.003510396609247837,-0.0026642040502155946,-0.0015706267578952894,-0.0004515928663267469,0.0005163542933189462,0.0012468147309333596,0.001740335585879576,0.002049842294816354,0.002242363678518578,0.0023752369934718753,0.0024864317004416065,0.0025881028132752233,0.002658141838157022,0.0026383691491411775,0.002453216582298068,0.0020501509109650674,0.0014419135113781542,0.0007209228754412217,2.925654699511464e-05,-0.0005049295292938509,-0.0008315237528157738,-0.0010070233952134454,-0.001167925690385803,-0.0014569313462575177,-0.0019366081378770295,-0.0025372431287780024,-0.0030727455750731783,-0.003322840396716301,-0.0031403291904369066,-0.002524742408268811,-0.0016220346387944488,-0.0006534196511614591,0.00018371493443652444,0.0007891293929653423,0.0011754558887727127,0.0014299765576874647,0.0016512643733241036,0.0018937320197915633,0.002142167402388935,0.002323018203523607,0.002345358395997458,0.0021532358698859977,0.0017645662842934672,0.0012746491294698113,0.0008173417908452123,0.0004990418436692009,0.0003383310150412882,0.00024613833292140146,6.3681683787171e-05,-0.00035506047148684493,-0.0010570484462668031,-0.0019472901335407778,-0.0028149750165628014,-0.0034161638607939845,-0.0035703750247106296,-0.0032250211042166447,-0.002464274019969668,-0.0014692435369568903,-0.00045435347284266797,0.00039575707955648006,0.0009741739124913985,0.0012760283084947523,0.0013913502803843461,0.0014626339881211603,0.0016174609345785316,0.0019042196673336002,0.002264658697194168,0.002561420867422715,0.002648618405225911,0.0024476157197282607,0.0019858547645206304,0.0013777492042728445,0.0007606930429210153,0.00022465674081238393,-0.00022499093288420695,-0.0006540421373312036,-0.001147590329926909,-0.0017502822895906814,-0.0024285717156998033,-0.0030708693338798317,-0.0035242717168705844,-0.0036524476281292392,-0.0033907977349378793,-0.002774713352327344,-0.0019270736481859189,-0.0010098639186280091,-0.00016281446334368168,0.000541674884674929,0.0011073043599775238,0.0015854580808012358,0.0020274032593101086,0.002444040424623331,0.00279499186065923,0.0030112886800182253,0.003035703556446401,0.002854971059599548,0.002505446593891715,0.0020521961976234316,0.001557335213542529,0.0010566970779900598,0.0005551339781192511,3.80771399109541e-05,-0.0005110722371896536,-0.001097941519068042,-0.001712460746781817,-0.0023293108410165405,-0.0029078122835183417,-0.003388896095619898,-0.0036936319990308114,-0.003732436533849077,-0.0034310309276180707,-0.002767840606438598,-0.0018046142886887842,-0.0006880913926425135,0.0003882938919696524,0.0012514888601502557,0.0018135193762224555,0.0020992745529171547,0.002220754389029648,0.0023102526048486183,0.0024473663873383587,0.0026179650000378515,0.002726713911268464,0.002656919342096286,0.0023452224787673366,0.0018278770178004845,0.0012286489101707456,0.0006914111659149251,0.0002949196933767415,1.291575957328622e-06,-0.0003269650337353956,-0.000845398820818946,-0.0016242619075779795,-0.002581681142605795,-0.003494282828664737,-0.004084730732173961,-0.004143149713656527,-0.003620310206654203,-0.0026460921763156687,-0.0014678351999976504,-0.00034504025446433276,0.0005447525727837106,0.001147455864082595,0.0015130363185868725,0.0017381714592099725,0.0019068217199982767,0.0020566606119175653,0.0021793537283081267,0.0022435268786512095,0.0022210276087484796,0.0021021771982281646,0.0018975026506482763,0.0016314706952356944,0.0013329176189650488,0.0010219179219032601,0.0006929185683985082,0.0003021712276220065,-0.0002244022433539036,-0.0009517896860272953,-0.001875582941911508,-0.0028761963030210173,-0.0037279159677665315,-0.004176425079181957,-0.004053406696555651,-0.003365063170925304,-0.0022992072579528025,-0.0011416038115073643,-0.00014653372356929288,0.0005670368970411602,0.0010398295633466679,0.0014115359375357238,0.0018172271188172091,0.002302362264413061,0.0027998091140565913,0.0031718764932073627,0.0032850625226394613,0.0030751623723596294,0.0025751352070176514,0.001901203609417835,0.0012082234040909235,0.0006305805453235791,0.00022689598613676672,-5.005674818570413e-05,-0.000338397068716195,-0.000802437043263145,-0.0015405255781426209,-0.0025105069492322675,-0.0035174932529401922,-0.004279894642459276,-0.0045469869390347105,-0.004210017573863532,-0.003349064445805087,-0.002191596452600122,-0.0010071470362214095,3.579945755579287e-06,0.0007684072656392399,0.0013301699397332062,0.0017817539382956103,0.0021958400725192407,0.0025881904322847633,0.0029246022978459164,0.0031535550747340377,0.0032362835322184294,0.003156447280857666,0.002912040622353152,0.0025064130922650466,0.0019526235246788075,0.0012888149843767024,0.0005866592979316362,-6.483984514740878e-05,-0.0005996201759437194,-0.0010158190948704282,-0.0013869479992473742,-0.0018265008633431953,-0.002417781401906612,-0.003144741336590248,-0.0038649376744169578,-0.004348395220648029,-0.004372970133329573,-0.003832932240029438,-0.002802424605807395,-0.0015134844706045814,-0.00025503950490167156,0.0007525539714865048,0.0014371673457319563,0.0018682545458899615,0.002178033512555327,0.002465916987074041,0.002743852874376867,0.002947095204943493,0.002992173495330149,0.0028387442758481267,0.0025166561698860626,0.0021065956587205115,0.0016927722397369906,0.0013206842832349502,0.0009849758492282955,0.0006493334452247597,0.0002788582697947883,-0.00014012533814039248,-0.0006043965902205268,-0.0011121697638746021,-0.0016725726437664505,-0.002290641893467736,-0.002934619768320401,-0.0035119234298447996,-0.0038797995822576845,-0.003894701152159106,-0.003476863271783897,-0.002654296394129331,-0.0015619901111459512,-0.0003976505687849825,0.0006435673160330724,0.0014274963575558767,0.0019129907573392085,0.002150483927307584,0.0022501438024783403,0.002330245848162497,0.002463118063336857,0.0026403903670683963,0.002775983065526728,0.002750288554250182,0.002476293652791969,0.0019514873390140196,0.001263305811497514,0.0005431706804265425,-0.00010187080951069806,-0.0006359674299439306,-0.0010925714699713365,-0.0015318350368838344,-0.0019905620316192168,-0.002455409766280661,-0.0028670973345172055,-0.003143003160550567,-0.0032027386695222485,-0.0029909302513574593,-0.002497870293923595,-0.0017741481515316639,-0.000927418191789026,-9.184010606329198e-05,0.0006223091609397691,0.001172159225440641,0.0015899958678217722,0.001947721057035724,0.002300342849441646,0.002644866046266372,0.0029184816387203953,0.003032490970588219,0.0029174381704111375,0.0025535061334386175,0.001975316009758624,0.0012580349656354404,0.000498596265922921,-0.0002013837602890924,-0.0007557224423970285,-0.0011221290012128587,-0.0013299416539529862,-0.0014827492453450331,-0.00171592068935252,-0.002118438577273961,-0.002662382376778458,-0.003191166407289993,-0.003485998242761004,-0.0033778675046587394,-0.00283791535826441,-0.0019898936794239507,-0.001038793089553588,-0.0001636808296831666,0.0005578461996062283,0.0011525559676303105,0.001690874816902728,0.0022101439189314244,0.002673704016468832,0.0029895832302904374,0.003072562397990636,0.002906355685623106,0.0025640726192410965,0.0021730279467100455,0.0018460855682813668,0.0016227288308761569,0.001455583490035784,0.0012477137179797248,0.0009134495132115553,0.00042277222340971713,-0.0001955910413311907,-0.0008859963330323172,-0.0016022482967814778,-0.0023188015280793915,-0.003010631999567983,-0.003622411970941072,-0.004056705388144583,-0.004196807034282813,-0.003955152416166742,-0.0033209669899606845,-0.0023803573722530197,-0.0012956823075129696,-0.0002504099211529287,0.0006172162779002864,0.0012604021721487402,0.0017254845647935511,0.0021065856551688517,0.002477785615666264,0.0028422305598124376,0.0031282365323822454,0.0032335179007536704,0.003089527452976185,0.002707403581407292,0.0021796959241669875,0.0016375424973148942,0.001186060451052006,0.0008508735177117854,0.000563178854549339,0.00019291462280925879,-0.000383045877998272,-0.0012082351140505604,-0.0022039599654940217,-0.003179428994788786,-0.0038947679294904056,-0.004152407971992417,-0.00387617699369014,-0.003139737478839136,-0.002129699198617648,-0.0010632500355523904,-0.0001049352544096971,0.0006745626857602551,0.0012829045205134347,0.0017547559566227686,0.0021044055411111686,0.002312510983039694,0.0023487079010822,0.002206792476355541,0.001924432859703811,0.0015745432592505588,0.0012362142833122452,0.0009641245922551138,0.0007714281825514395,0.0006286416095206324,0.000471694529843475,0.00021391470215715767,-0.00023356862230245796,-0.0009240519269519585,-0.0018240906898567165,-0.0027776602775190407,-0.0035257138734058288,-0.0037970896746998095,-0.0034358552432581717,-0.0024919597552256686,-0.0012131520443150953,6.488802960196935e-05,0.0010679832797050918,0.0016867344445543409,0.001981695721379118,0.0021023377971118805,0.002180209559537217,0.002261278589523136,0.002307434242644342,0.0022506031823401273,0.0020546035060173048,0.0017434304088053813,0.0013826831830325585,0.0010323673011609677,0.0007045123548573289,0.0003516995956951306,-0.00010826380033613985,-0.0007457994054186257,-0.0015739431926398116,-0.0025231692076938686,-0.0034459035594770994,-0.0041488934703799545,-0.004443823162160826,-0.004202836466439806,-0.0034043763638754564,-0.002154901325060767,-0.0006747459688361225,0.0007557138295590578,0.0018791897638997571,0.002546612194106949,0.0027669398972004658,0.0026920325806092126,0.002535523928008964,0.002462116428182326,0.0025065062003733485,0.002569427042347382,0.002493715216955293,0.0021728688247629156,0.0016234139112768012,0.0009764439620831981,0.00039628190306176356,-2.0838175540662212e-05,-0.00030583678969700275,-0.0005993874039142405,-0.0010683002783204796,-0.0018007594595447112,-0.0027348167879034367,-0.003657516251289796,-0.004278720754041607,-0.0043490248874887465,-0.0037695671586801824,-0.0026428916517395864,-0.0012392849806421335,0.00010789602433024551,0.0011301597715006255,0.0017160282043544297,0.0019267756422525662,0.0019343968168978455,0.0019199378396698439,0.001987805950305433,0.002136465280797961,0.0022883193114362496,0.0023477773730577736,0.0022487201073020284,0.0019712548896509436,0.0015332574250038948,0.0009742359885890348,0.00034309961473943425,-0.0003105596590225038,-0.0009457119044214416,-0.0015367598400386803,-0.0020688053735449193,-0.002517986971618557,-0.002829466265164817,-0.0029158309312604337,-0.0026894875184081584,-0.00211734184253174,-0.0012641691636551635,-0.0002918224772157918,0.0005933529776302891,0.0012204849772028152,0.001520379396713885,0.0015448589094689182,0.0014314450698485303,0.0013325585047974896,0.0013439771211293996,0.0014659291130983726,0.0016135671754222455,0.0016689780441337494,0.0015457663885785563,0.0012310574800496854,0.0007828932557027655,0.0002867603202564607,-0.00020075534175544247,-0.0006841179134805615,-0.0012125558596004899,-0.0018214230522471755,-0.002468469967639907,-0.0030125286048694987,-0.0032599157380896354,-0.003060045137101039,-0.0023951085004862175,-0.0014062903926491143,-0.0003355956992148199,0.000584927806901675,0.0012315307951784693,0.0016186724541272356,0.0018494379469582763,0.0020253299415898883,0.002176209762272608,0.0022525872057628446,0.002178226414330423,0.0019214203573861427,0.0015334995908324561,0.0011276449005640807,0.0008120105712394214,0.0006211095906621923,0.000489588662767374,0.0002847906217667102,-0.00012092156101361617,-0.0007773730904390339,-0.0016188705421120535,-0.0024773190674576237,-0.0031395525713214935,-0.003425702288143432,-0.003257338988470467,-0.0026864874877927584,-0.0018711656071423598,-0.001006645944896821,-0.00024388995137214841,0.0003650057540702416,0.0008667798652075155,0.001353357372629185,0.0018853677055746048,0.002437070129215911,0.0028952809282138,0.0031145288924364963,0.002998545929223733,0.002561784671565411,0.001933466770479863,0.0012974933513813355,0.0007983709170917615,0.0004647295381925631,0.0001942996305388531,-0.0001889420359015583,-0.0008339232738726586,-0.0017691526272707223,-0.0028633677013870868,-0.0038596666647083963,-0.004468976834720435,-0.00448316733421145,-0.0038594292370125204,-0.002738919102229351,-0.0013914049667885058,-0.00011219865545836476,0.0008802730785123755,0.0015016963626441884,0.0017962628927475155,0.001883411884571594,0.001891804104694723,0.001913052308995948,0.001988030105708903,0.0021160995826356053,0.0022678680267244015,0.0023906894009708066,0.002413247074289808,0.0022632319623895987,0.0019008339857395538,0.00135006531556026,0.0007008210639607604,6.939385268161586e-05,-0.0004648831730438219,-0.0009069402098327223,-0.001341243627684498,-0.0018696011089189956,-0.002524834696963146,-0.0032147448369403003,-0.0037376633135371776,-0.0038690612164083787,-0.0034740522291433857,-0.002582745861178881,-0.0013865918094103616,-0.00015977335681329786,0.0008502989651379294,0.001508983061244495,0.001822270509159641,0.001903907804284186,0.0019047575245158248,0.0019386019743582936,0.002035875780202781,0.0021427433765380936,0.002161670508126794,0.002009868097258011,0.001664764489890304,0.001175505853167654,0.0006387554505345611,0.00015279163860593072,-0.00022983449698635316,-0.0005308513767696644,-0.000839467826218593,-0.0012645164072284162,-0.0018604270272743605,-0.0025639465813052584,-0.0031846463490633474,-0.0034703854617105694,-0.003225882775055654,-0.002423947938879692,-0.0012429527346496782,-6.177453707057606e-07,0.0009859629815965856,0.0015390089440964114,0.0016827620026467604,0.0016014881620312158,0.0015245274077165553,0.001606404180232016,0.0018632401312504644,0.0021877617440510455,0.0024219030043145682,0.0024420281645020268,0.002214220548236815,0.0017983582203597874,0.0013064889510520893,0.0008410682673100929,0.0004444055747211791,8.170820874304715e-05,-0.000337132763741555,-0.0009082892540281802,-0.0016779659083294863,-0.0026016888854629655,-0.003536261853035765,-0.004272273878596169,-0.004601276473067146,-0.00439557332472702,-0.0036664802235018426,-0.0025691225645236753,-0.0013441967276220004,-0.00022124918549399104,0.0006676404368595874,0.001319074486075442,0.0018217310656954062,0.0022784886803440684,0.0027353662389946578,0.0031565015953376146,0.0034526617826869037,0.003538449131964067,0.0033811007537907297,0.00301560274935084,0.0025241146644890684,0.0019963393153293973,0.001493337746233168,0.0010310296874874198,0.0005864363066643597,0.00011714836816986577,-0.00041952746783286646,-0.001054125514569766,-0.0017946932680223964,-0.0026115966405852015,-0.0034210485365858594,-0.00408421010334466,-0.004438529607234105,-0.0043588491662044215,-0.0038204028604594898,-0.0029254446391693495,-0.0018712359519565376,-0.0008705191106962078,-6.426055879726417e-05,0.0005279151224057067,0.0009943024943006211,0.0014629927354550684,0.002015750959625736,0.002629226153193631,0.0031743025469921516,0.0034750327812383495,0.0033987531828291655,0.002932294359067759,0.0022038209570906563,0.0014351643142700686,0.0008446790810279132,0.0005478785986876387,0.0005066462821255717,0.000553684351714915,0.0004789143990593029,0.00013164766370974646,-0.0005131163489431167,-0.0013512047827805513,-0.0021992189061062514,-0.0028655499832399346,-0.003211031188782435,-0.003182930901477324,-0.002819198142028474,-0.0022253841950460474,-0.0015307925991030632,-0.0008389202563498928,-0.0001951989064633413,0.00040881602720014014,0.0009954118433719236,0.0015505209005677893,0.00200056852042778,0.0022392583735996127,0.002192977704578461,0.0018822856286038938,0.0014329778052272336,0.0010197383513115175,0.0007697993208286023,0.0006831636253963815,0.0006203421889038103,0.0003718457415790191,-0.0002223126443744285,-0.001164707218908381,-0.0022638232452666085,-0.003194722275717262,-0.003633457346493057,-0.003400580443498782,-0.002540520849675691,-0.0012962949970495032,3.6907481489839404e-06,0.0010833864367425423,0.0018114195022344787,0.0022118948242919483,0.00240531298109005,0.002522473004072931,0.0026361923718704696,0.002736012553852975,0.0027464347211560093,0.002572553761336764,0.0021513785355192225,0.0014888172583043435,0.0006675976186914935,-0.0001795416164608061,-0.0009231958110141144,-0.001493946113285502,-0.001912124481247196,-0.0022701371413421786,-0.002671625201948998,-0.003158029858421947,-0.003663586452894635,-0.004026520291152965,-0.004054538071022815,-0.003613589314886997,-0.0026962035102162754,-0.0014358796337588938,-6.108759490039938e-05,0.001188453200824125,0.0021444198103504,0.00275579797063873,0.0030808760655385327,0.003232828568093466,0.003307664512112458,0.003332359984314963,0.003261529670511855,0.0030240902374793917,0.002589849500260164,0.0020104666019642183,0.001403721608236176,0.0008875753653952077,0.0005053054725967271,0.00019041348012221646,-0.00020383626881733763,-0.0008229309394077609,-0.0017188812691398367,-0.002794845296684309,-0.0038178800955002987,-0.004499833273470438,-0.00461291052659976,-0.004086349258113882,-0.003036717935506322,-0.0017171941195045686,-0.0004138636001787565,0.0006564578632687985,0.0013989119843917542,0.0018294422073190982,0.0020220800635404063,0.002053268792589931,0.0019719431141045716,0.0018008049942637265,0.0015556346440296436,0.0012645199418928688,0.0009743774411114241,0.000740714668603001,0.0006045513127231864,0.0005671780750189535,0.0005767749227577703,0.0005374190002417373,0.0003413797740662735,-8.46273891057208e-05,-0.0007352373041307088,-0.0015036120312498583,-0.0021979240083243616,-0.0026027494651296645,-0.0025663337312741264,-0.002071661678345599,-0.0012493706001946543,-0.00032073482051347903,0.0004993261338815263,0.001085803050414994,0.0014312729552153028,0.0016114459652147638,0.001718087740397703,0.0018015942724283482,0.0018512526255477508,0.0018148377108758564,0.0016396854758101262,0.0013121258241154568,0.0008762413779746015,0.0004211012580606898,3.852519268804377e-05,-0.00022971014557467964,-0.00042478035683449536,-0.0006587433546202133,-0.0010556648084634388,-0.001672397283470411,-0.0024413101270195896,-0.00317059245662175,-0.0036108667403698677,-0.003562096265636956,-0.002969387166464922,-0.001956038442701532,-0.0007721759359606661,0.00031613332835826545,0.0011375952626974917,0.001667319334114885,0.0019969543658865975,0.0022490564500678703,0.0024909286923038504,0.002697848878185588,0.002781548174447983,0.0026594409587798215,0.0023177113851923056,0.00182892059721369,0.0013157108546972996,0.0008858363043882613,0.0005788013153655334,0.0003531432133120539,0.00011633509841143668,-0.00022435375099508703,-0.0007182986580748619,-0.0013527539521612393,-0.0020590121662657193,-0.0027326113800835894,-0.003257257173228888,-0.0035286340859549715,-0.003477629876020248,-0.003089713305719469,-0.002413191979267227,-0.0015500621542307998,-0.0006300320505729201,0.00022383147516858007,0.0009258496985293075,0.0014447426955964686,0.0018017943928724052,0.0020514243735005816,0.0022518866350438715,0.0024377645545829575,0.0026047301506053147,0.002711494070739852,0.002697631428832561,0.0025111695013073725,0.0021358239314069275,0.0016049318066410248,0.0009914245267482287,0.0003741769228660101,-0.0002029599512313423,-0.000753601092267404,-0.001333912445606803,-0.0019938256559322467,-0.002721874564774778,-0.0034197044436669985,-0.003927003218272033,-0.004086401492386516,-0.003811866204742812,-0.0031226283124605866,-0.002128992988709887,-0.0009870711961827458,0.00014732949067427863,0.0011468218710428493,0.0019246456247145668,0.0024423461169522627,0.002715825773343315,0.0028095808056970116,0.002808693172374291,0.002774433187094532,0.0027082057326153664,0.002551138096526475,0.0022262419491368615,0.001699676116347267,0.001020545295909545,0.0003099077501442543,-0.0002973336807656953,-0.0007228413566756595,-0.000985080840571116,-0.0011859622234264115,-0.0014513724876641578,-0.0018569471383304502,-0.002376800239379807,-0.0028816906711112093,-0.0031900326321136797,-0.003149387256802719,-0.002709268737291259,-0.0019483445114208526,-0.0010416275046138158,-0.00018478103268100115,0.0004850439950990457,0.000932564225651039,0.0012144455736364346,0.0014282424730044678,0.001652056542684557,0.0019063778549677811,0.0021522042742089043,0.0023183527873664772,0.002338695172570176,0.002181007315758371,0.0018585291786879195,0.001425233228520267,0.0009603734898079464,0.0005464186898380958,0.0002417462873026008,5.1978975780319226e-05,-8.762399513407584e-05,-0.0003004489036475236,-0.000717507713997595,-0.0014009629636829418,-0.0022809023616896474,-0.0031489250000304734,-0.0037269195681205454,-0.003785830558883458,-0.0032547007709783343,-0.002259390322084478,-0.0010667788139905208,3.6856898021532286e-05,0.0008673949225607505,0.0014000157851453716,0.0017371137884719706,0.002014706299176256,0.002307714546649248,0.0025885427016960195,0.0027562493977817326,0.0027107501254206344,0.0024227466765002446,0.001956108469965886,0.0014293948633507737,0.0009399503274088029,0.0004975450179796116,1.1639156640131667e-05,-0.0006524844627505677,-0.0015737679499041252,-0.002686799462929794,-0.003761503868044168,-0.004476093248667007,-0.004556205670188102,-0.003909745016146712,-0.002681523762024869,-0.0011934513279922838,0.00019797914696749247,0.0012474149238993373,0.001892831540652251,0.002227215900740471,0.0024032308499567353,0.002535427553665009,0.002652045639574086,0.002709132313570321,0.002642929171619646,0.0024218891695957567,0.0020688385621308023,0.0016458036518787683,0.0012153427488750736,0.0008031468560797327,0.00038384324543429315,-0.0001017363223831053,-0.0007068147049791524,-0.001437705739679918,-0.0022339743936273075,-0.0029813474367011883,-0.0035516783663207337,-0.0038491114580844494,-0.0038375230114071294,-0.0035357749797438305,-0.0029890395874467277,-0.0022414385845253995,-0.0013326803363252278,-0.00031886634145074594,0.0007067794291881694,0.001621332892500905,0.002313405392881252,0.0027334217194196556,0.002915910112319185,0.0029537123326524245,0.0029376445900497457,0.0029005402886297135,0.0028031232864791098,0.002571088467083655,0.0021572810034107943,0.0015852402529285237,0.0009437971872174755,0.000337202872584978,-0.00017447126971975124,-0.0006056463947676754,-0.0010290548400585344,-0.001524902171933118,-0.0021239735689467104,-0.0027724675502466475,-0.0033350575873532106,-0.003638409731467707,-0.003541888196556246,-0.0030069126342124036,-0.002129145061183988,-0.0011089289718176779,-0.00016645385602947539,0.0005566052610380815,0.0010525613332100997,0.0014249046719452129,0.0017992013770845292,0.00222327448561144,0.0026215092531606445,0.0028345791122792235,0.002720120721817373,0.0022485254444184095,0.001529620029709731,0.0007511537534516054,6.915139100735945e-05,-0.0004768381144310934,-0.0009662139239131233,-0.001513885514115127,-0.00215436264434575,-0.0027712761200077178,-0.003125967661971757,-0.002978435458144534,-0.0022331993119608217,-0.001020820071121737,0.00033985381241674866,0.0014826098013457382,0.0021596197444151625,0.0023401506719611513,0.0021922611074508603,0.0019660138467577117,0.0018495806339478623,0.0018780383263482653,0.001938096754039547,0.0018549761886068026,0.0015036083013700902,0.0008786079896327826,8.771396889144896e-05,-0.0007180023903516008,-0.001426830159895347,-0.0020089641659782206,-0.0024976019335611974,-0.002929985158939488,-0.00329334618084304,-0.003511239563944118,-0.003474670279440547,-0.0030949995228547215,-0.00234914349752014,-0.0012993274803803417,-8.437935249982841e-05,0.0011129506138786909,0.002115095088640577,0.0028019741420012394,0.003146234072600162,0.003212533501286889,0.0031175806624151566,0.002969599581316126,0.0028183845605811446,0.002640899549870512,0.0023672659336810824,0.0019305029130463735,0.0013112293662875122,0.0005512586033769294,-0.00027187409448993353,-0.0010912229784024096,-0.0018816127548161507,-0.002647170944861686,-0.0033698887017170874,-0.003960114359732511,-0.004257766173672863,-0.004100156629640948,-0.003420590075358756,-0.0023125136461085703,-0.0010120558034968877,0.00019598018575564871,0.0010961651102585753,0.0016207735971386094,0.0018517060611862718,0.0019527153100997903,0.0020723318653299207,0.002267471427324454,0.002483194933355447,0.0025944699431723344,0.00248428872202906,0.0021138388787168036,0.0015453879965351244,0.0009061052287033536,0.0003158203921274354,-0.00017728305673952766,-0.0006141217687562327,-0.001083740298334916,-0.0016464372606953602,-0.0022663693328835825,-0.0027975651674685405,-0.003039397281219212,-0.0028362898954501737,-0.002166494838233557,-0.001167728969764156,-8.404491247402681e-05,0.0008356573256584183,0.0014327559725737684,0.0016832892440395296,0.0016791916545118447,0.0015645663448374232,0.0014607168257730616,0.0014134107055839258,0.0013835965945637459,0.001282268729536217,0.0010281214850127738,0.0005946285686575603,2.1002045945285337e-05,-0.0006135359776589844,-0.0012280164494800705,-0.0017613585362315702,-0.002166746460627378,-0.002393889998027492,-0.0023850539840553795,-0.002097590293792223,-0.001540191881096416,-0.0007939383981364212,3.6165376833533673e-06,0.0007077410653742401,0.0012220758750735529,0.0015292117745193577,0.0016816113655870153,0.0017615592359235654,0.0018336806090022333,0.001913802071509533,0.001966841935209236,0.0019312453261812934,0.001755101317236904,0.0014242903520461756,0.0009678397715286294,0.0004385618149368124,-0.00011800108191901406,-0.0006852185710023808,-0.0012714927146018613,-0.0018809072562393264,-0.0024764958829643652,-0.0029631478335050854,-0.0032096685784371555,-0.003106344150188394,-0.002627787393031321,-0.0018606111130499618,-0.0009736696109994581,-0.00014551771408530408,0.0005078143036402227,0.0009636684298019436,0.001271166123401211,0.0014999927012617478,0.0016958690078906899,0.0018661655241204334,0.001993392969641069,0.002056052763395487,0.0020379645986765738,0.0019245856898315067,0.0017004011131403918,0.001359397752586651,0.0009227463833954026,0.0004430884669543334,-1.902826810169832e-05,-0.00043602447472126466,-0.0008388405664663956,-0.001297902571198442,-0.0018613943246123957,-0.0024891756757753204,-0.003032316655262464,-0.003282837889054914,-0.003072773232485962,-0.002368230869159014,-0.001304610525243946,-0.00014114925989327023,0.0008443176767260576,0.0014694800754736829,0.0017158106557083014,0.0017184160583257053,0.0016823916800792226,0.0017669301101188371,0.0019969294619914986,0.002250960341255572,0.0023349636741732344,0.0021012839292296297,0.001542579459674964,0.0008021861863629495,9.275136507042882e-05,-0.00042722268556093495,-0.0007414040830365412,-0.0009718582858126623,-0.0012849167478556057,-0.0017663047779565382,-0.002346309833829461,-0.0028251722900876123,-0.002984794856678721,-0.002716527806625887,-0.002084047841250487,-0.0012831805486961437,-0.0005279507125672054,6.194634830764011e-05,0.0005029069409569655,0.0008998396389807604,0.0013491734059861767,0.0018593869007102414,0.00233750899671584,0.002643582711907681,0.0026733488080172337,0.0024170629424601436,0.0019626470883150485,0.0014476384277687855,0.0009925338776411662,0.0006524670195335619,0.00040682713918241604,0.0001828863743958426,-0.00010512775491064083,-0.0005206424559534573,-0.0010830352798494513,-0.0017591715623854064,-0.002463406160627792,-0.0030655178000661065,-0.0034134800052197257,-0.003377692536973802,-0.002908795869342872,-0.0020806193232112452,-0.0010834957726553308,-0.00015540570972659342,0.0005206443677085839,0.0008959320580933712,0.0010645988965631676,0.001197794696465632,0.001444809254551461,0.0018570225263635385,0.0023692269392534314,0.002837102850905515,0.003103888249650911,0.0030632476591491795,0.0026944852328225424,0.002061920948432363,0.0012852984444007957,0.0004970785565914363,-0.00019722852148998577,-0.0007455010992423092,-0.0011581918395900306,-0.0014985550810408727,-0.0018527975466761798,-0.002283841577252254,-0.0027836003011199317,-0.003249319569197667,-0.0035072314463866616,-0.003385185643079415,-0.002804231263459338,-0.0018387716556729765,-0.0007042072435244112,0.0003307260749543092,0.0010644266923254546,0.0014502877006974965,0.0016023982349416361,0.001715820776122404,0.0019467935211230484,0.0023199913256392365,0.002713355041934849,0.002927258231144288,0.0027987595083392466,0.0022973545352945137,0.0015481758381237498,0.0007676873305202914,0.00014632406105438798,-0.0002544221892567186,-0.0005274754894385018,-0.0008490077261031499,-0.0013511789115464926,-0.00201769364773153,-0.002670657258687809,-0.0030611197016412336,-0.0030087891232468333,-0.002503849069248933,-0.0017092466542076318,-0.0008678054759758019,-0.00017789687451402964,0.0002863623577532058,0.0005726617805659466,0.0007843407274112822,0.0010035915767416467,0.0012514515696562486,0.001497415471055592,0.0016961331822825923,0.0018166006309364472,0.0018450219961305449,0.0017698292586018185,0.0015725077759227036,0.0012388961347251774,0.0007821485850443698,0.0002532362745470691,-0.0002770815441831495,-0.0007555712927477549,-0.0011735408655910349,-0.001557859346023408,-0.0019278068570827214,-0.0022494243736754173,-0.0024258737018307054,-0.0023385425535763656,-0.0019167906602181855,-0.0011923245765993649,-0.0003025559205996681,0.0005615078723023027,0.0012346668326278058,0.001641200188721811,0.0018095862172716431,0.0018331767804982467,0.0018027479096200552,0.0017527748567545912,0.0016531376179670272,0.0014468799959052995,0.0011035140702264409,0.0006486490672415971,0.0001502724538973248,-0.00032588688343957784,-0.0007582906180891226,-0.001177692540640857,-0.0016324477482237533,-0.002129990608108473,-0.0025920663104079407,-0.002859291524313528,-0.002755147317665632,-0.0021818227615061905,-0.0011939135996220191,-1.7249643554676994e-06,0.0011058007145491179,0.0018811978263488672,0.002218797680793818,0.0021844138637655145,0.001963623954756443,0.0017603434286753612,0.0016987927604979504,0.0017745325561723544,0.0018722868993739411,0.0018353603509422836,0.0015480607679347295,0.0009884912012970257,0.0002271711427609725,-0.000620680923945029,-0.0014532520934396112,-0.0022104049796557185,-0.002856743917597276,-0.0033411774820301223,-0.0035750454498906653,-0.003456715911399757,-0.0029316890277957153,-0.0020448143761874066,-0.000942393043755958,0.0001829657922976743,0.0011701754701747306,0.0019402417816038833,0.002491983154241346,0.002856454595173556,0.003050659137479583,0.0030643736594435553,0.0028818753678749925,0.002511063051142986,0.0019894682914921346,0.0013603137509147606,0.0006410196710033419,-0.00018283452288034936,-0.0011223402779233214,-0.0021269460350085835,-0.003047248523758937,-0.003659725558837098,-0.003757518871553657,-0.003262908381988986,-0.0022920673912869825,-0.0011234007572516144,-7.716443901961364e-05,0.0006305062046752012,0.0009780012548753461,0.0011225257373857396,0.0012879272781353107,0.001620287864202762,0.002093614696418052,0.00251922587133025,0.002652759650432047,0.0023363387421503163,0.0015932136773882828,0.0006203934658774821,-0.00031467901258848955,-0.0010104144284787315,-0.001419077842503971,-0.0016372038770371387,-0.001810903969529965,-0.002020881088046755,-0.0022217874070657824,-0.002272057302909984,-0.0020297514569363583,-0.0014487852816467003,-0.0006151243279122367,0.0002934644942054303,0.0010916423100392652,0.0016609470563155536,0.0019760520638006,0.0020807071172463045,0.0020418270320967102,0.001915461502793879,0.001738517878584899,0.0015346591505030905,0.0013143507421923915,0.0010630778530299355,0.0007321852053658889,0.00025232585749508944,-0.0004259267683815269,-0.0012830426190931833,-0.0022040674123819867,-0.0029974404762718133,-0.0034578586166950495,-0.003446497220540576,-0.0029496670038264925,-0.0020854918223561043,-0.001053873495448906,-5.464780450263086e-05,0.0007838177888638634,0.0014290366797951495,0.0019130408134062405,0.002271609017616924,0.0024997399591136817,0.002555697555774184,0.002406731850166552,0.0020745220130780535,0.0016373054069597711,0.0011812414833024558,0.0007375575191745314,0.0002582373888262255,-0.00034311080889723455,-0.0011079738414587165,-0.0019648455099103308,-0.002727369196767511,-0.0031666115787282074,-0.0031173378051084985,-0.002558289247452113,-0.0016249009292650185,-0.0005529490692435815,0.00041376819334090114,0.0011070114375425473,0.001475970334629284,0.001578086305363302,0.0015317470576264674,0.0014561334011623174,0.0014237301677677535,0.0014415595482185012,0.0014628069231625348,0.0014170568945102492,0.0012412045358752885,0.0008978302414308279,0.0003797125019698065,-0.0002913665493449308,-0.0010633802194622865,-0.0018502104624211488,-0.002533212493205708,-0.0029775800864411473,-0.0030657902078053455,-0.002738933173633132,-0.002028202287871819,-0.0010591857654080495,-2.1385206820605576e-05,0.0008901913460511871,0.0015411890511118085,0.0019037684136772462,0.002056665512429486,0.0021317723140444195,0.002229419901808703,0.0023496246927838796,0.002385469174518871,0.0021903914546319726,0.0016814275391339602,0.0009098466985655784,4.597294946872161e-05,-0.0007178734295966425,-0.0012815915184289177,-0.0016862378174951442,-0.0020585781862778423,-0.002487844607594378,-0.002923638087108665,-0.003172934518541353,-0.003006651453336817,-0.0023102023967773045,-0.0011806711703870644,9.411142179319566e-05,0.001165715101671575,0.0017891589442127704,0.0019269628281623052,0.0017382679277981252,0.0014686618272878368,0.001312969010289331,0.001330564723212792,0.0014503945847335728,0.0015442539164881857,0.001511725914399997,0.0013257549744060263,0.0010219711660222328,0.0006511456886061158,0.0002322706936931811,-0.00026104770842332763,-0.0008695538529376815,-0.0015891998139468562,-0.002322662689119975,-0.002882662070400141,-0.0030621035659841407,-0.002741237623206043,-0.00196818228961547,-0.0009558831038823277,1.217603874586852e-05,0.0007157712845512817,0.0010925228464216488,0.001239404552533778,0.0013263698790986372,0.0014804934532294425,0.0017124892284251462,0.0019249279055004525,0.001986903925574072,0.0018205945638775124,0.001445453508265125,0.000960174778111655,0.00048278300518444194,8.874327277188729e-05,-0.000220324276620539,-0.000506548667008884,-0.000853900425880448,-0.0013149864654549057,-0.0018692783301817355,-0.002411868036773843,-0.0027825306753893257,-0.0028287870059103305,-0.0024773078481941093,-0.0017765963774207063,-0.000883007812316661,7.4035325884359285e-06,0.0007445739687717617,0.0012782993947338585,0.001651108524260504,0.001940500291940736,0.002191635669936152,0.0023833545178066243,0.002445123597345503,0.0023093448713858715,0.0019631339715774744,0.0014663392708361735,0.0009245631832569854,0.00043358886011347377,2.8738516856650573e-05,-0.0003304011463825156,-0.0007301419573374278,-0.0012434166236500478,-0.001872662027812813,-0.0025257187527587743,-0.003039730331907622,-0.0032444087424640155,-0.0030353627430920477,-0.002421631058058451,-0.0015243449087552511,-0.0005289727712569929,0.0003834854598066168,0.0010936227306196033,0.0015663649621638106,0.00183583799610212,0.0019663257461086854,0.002011581187791219,0.0019920012533030137,0.0018979509185406594,0.0017132653763599372,0.001442500208732479,0.0011243007405579916,0.0008216795086909933,0.0005926428692470439,0.00045489801635312124,0.00036290627155027963,0.00021325748825464988,-0.00011592297020720905,-0.0007029243643479206,-0.0015254649782951383,-0.0024404849175944507,-0.003218287407312141,-0.003622365896391373,-0.0035019564527860323,-0.0028551265324169824,-0.0018319552020865293,-0.0006755989271990705,0.0003707218177279826,0.0011475901484353573,0.0016186654169305136,0.0018543012710316763,0.0019748637689030817,0.002084628371953651,0.0022263793714176854,0.00237264894475785,0.002450434012196694,0.0023819045465201093,0.0021201504166049787,0.0016659569290770142,0.001062897203218592,0.00037707912067162395,-0.00032764867511707275,-0.0010073727151594847,-0.0016399914751457226,-0.002210828532068523,-0.0026923996715665843,-0.0030343399763637017,-0.003173517660794421,-0.003060077299046523,-0.0026837225315065787,-0.002084729032720422,-0.0013445144675227,-0.0005619710088457226,0.00017336877738717094,0.000802073512535081,0.0013040777227360549,0.0016941848073864084,0.0020050486565144857,0.0022639501911870434,0.002473515560327648,0.002605201423865079,0.0026084991421575616,0.002432851871365164,0.0020553751290031137,0.0015039745589005538,0.0008626680734096789,0.0002489244237624777,-0.00023449293061315809,-0.0005528941651063513,-0.0007671423540840565,-0.0010111611666790425,-0.0014206813368672065,-0.002045372883889455,-0.0027936868511432393,-0.0034488924511806227,-0.003757453282192595,-0.0035469735810466233,-0.0028092586340280057,-0.0017023611839256767,-0.00047407297203660385,0.0006448798007067213,0.0015178279945023087,0.0021163560982018067,0.002481748506413725,0.0026715680863739905,0.0027264251661048527,0.0026672344343650406,0.0025088790454230597,0.002269488091407518,0.001966166720631127,0.001604447579651462,0.0011748488289349658,0.0006619309865162438,5.889288587760385e-05,-0.0006232357782007778,-0.001355341874656688,-0.0020925802144250477,-0.0027719320532593374,-0.003307220595044314,-0.003594133251262277,-0.003536364422696914,-0.0030887357130433913,-0.0022952139310829494,-0.0012942303117481828,-0.00027764846218179394,0.0005831753847579168,0.001206948438608969,0.0016268297537927095,0.0019519569828008827,0.0022864949288442754,0.0026550333376313515,0.0029808559230907567,0.0031300349155518226,0.002991973133050072,0.0025451821616044043,0.0018699010633120732,0.0011056509261741924,0.00038496613548300485,-0.00021758260373609575,-0.0006997039729737635,-0.0011124025046700832,-0.0015241699515554622,-0.0019835836227958996,-0.0024902519184576534,-0.0029826725641249096,-0.0033509448682600786,-0.003474847097244119,-0.003273728306122244,-0.002744152272200049,-0.0019646176500208667,-0.0010639101254657985,-0.00016979506455642676,0.000634920830726434,0.0013270062900080084,0.001923214821580952,0.0024415908787095452,0.002870391918236377,0.0031658672771100694,0.0032791399388060758,0.00319059661070781,0.002925039159876417,0.0025367589676116046,0.002077113800543889,0.0015688837237694837,0.0010035960197014254,0.00035905328459614485,-0.00037865710517059133,-0.0012017362602189706,-0.002076401898174528,-0.002940488838235893,-0.0037003289077585455,-0.004234937179196945,-0.004418515592738839,-0.004161679867317503,-0.003455501273466256,-0.002394241293468028,-0.0011595778275021221,3.2946720456435456e-05,0.001005373597638156,0.0016755746376935676,0.0020741772895870652,0.002310441166950867,0.0025037431422617815,0.0027166619228706683,0.002924814222572814,0.0030372030940261424,0.0029524547205297728,0.002618318786474461,0.0020630971105309636,0.0013844537345818035,0.000702582239636281,0.00010151559827309192,-0.000410952303110273,-0.0009008944197578054,-0.001459661117481256,-0.0021317306785790364,-0.0028598655689653445,-0.003484255279440996,-0.003803601466455956,-0.003668528110577926,-0.003056482606005102,-0.0020878334515289864,-0.0009775366033324248,4.856500993842203e-05,0.0008301729046640578,0.0013108785723678399,0.0015326558056131911,0.0016010906369654048,0.0016407607304812044,0.0017526403832963228,0.0019781077871018427,0.002276045080307476,0.002526419608796266,0.002571858347297687,0.0022897871250102874,0.0016615240423862208,0.0007947976227232175,-0.00012169665332777981,-0.000909485984834075,-0.0014820103888400309,-0.0018659343761804896,-0.0021512912485720623,-0.0024068409858471066,-0.002618591788513376,-0.002691957254672645,-0.002514446893760602,-0.002035352147297223,-0.0013083644777436415,-0.00046968453176308674,0.0003304895791406625,0.000994224177100714,0.0014974816306335265,0.0018621745286782074,0.0021106006759869143,0.002241436135984968,0.0022416323742082333,0.002115516812034506,0.0018987312740139234,0.0016394513910046545,0.0013586763403999613,0.0010215436329357713,0.0005473571129468585,-0.00013943116904248994,-0.0010436193703382297,-0.002057924483613707,-0.002974275775487483,-0.0035499628905061916,-0.0036032373468494715,-0.003095999219839599,-0.002162445008588144,-0.0010639720625298787,-8.543608870502828e-05,0.0005803726463125639,0.0009033283626049121,0.0010060078794417943,0.001080213820113014,0.0012769781261402695,0.0016295991121067258,0.002046689731712452,0.0023701410317267147,0.0024591239584821445,0.0022548178845148807,0.0017991301795031631,0.00120686269996476,0.0006094130952685827,9.588279058943501e-05,-0.0003226669988432209,-0.0007080611094952476,-0.001148664497216249,-0.0016937470818741691,-0.0023047259295529247,-0.0028537435365862287,-0.0031740557808795007,-0.0031355251677510462,-0.0027035247992583398,-0.0019515588022412473,-0.0010271994735537452,-9.538312466103583e-05,0.0007124304963398177,0.001326845369092784,0.0017446151517328307,0.0020124917343871166,0.0021961057792529827,0.0023418974731138887,0.002446723154410034,0.002453694964669877,0.002284708531623946,0.0018983094743617783,0.0013383183944496166,0.0007342524427326442,0.00024023811254742582,-5.7602237064983876e-05,-0.00020578544616333782,-0.0003707934627820762,-0.0007466243310960618,-0.0014322340506898847,-0.002350557227253895,-0.003259016345125507,-0.003850362869511792,-0.003892561578567289,-0.0033349533363733436,-0.0023266485433186225,-0.0011415030879978558,-5.406099888404588e-05,0.00076692940955533,0.0012977775771719935,0.0016244373233816078,0.0018646630344081928,0.0020954252329390775,0.002320718328215335,0.002486696474253757,0.0025251614440851837,0.0023957380498016664,0.0021042242116753145,0.0016924097665257896,0.0012112069888176892,0.0006951829299903316,0.00015194310786915944,-0.0004294905027676435,-0.0010555029694187795,-0.0017005876813815976,-0.002291247783849283,-0.0027154588500286755,-0.0028610210411178106,-0.0026677790891108987,-0.002164881467017057,-0.00146755404710441,-0.0007300141663179786,-7.90957546461244e-05,0.0004327248167043258,0.0008273791708600067,0.0011570676102933143,0.0014477490051970365,0.0016698711927669915,0.0017568218758376684,0.0016582684056298655,0.001390237954082076,0.0010436476775553022,0.0007395025859582688,0.0005559040695571826,0.0004742234538184099,0.00038239747000002634,0.00013749829755779546,-0.00034789170801985403,-0.0010451692908664406,-0.001808163147000511,-0.002429741118347631,-0.0027261252064952677,-0.002607976162175017,-0.002107823914853542,-0.0013564873046977102,-0.0005243913780280266,0.00024300377954479232,0.0008673874405513452,0.0013422757287212797,0.0017039434629650184,0.0019885612330076178,0.0022012260757916786,0.002313973819438809,0.0022905942674297944,0.0021179608163211946,0.0018198571646954064,0.0014434505181572326,0.0010297665632069187,0.0005908901570418461,0.00010976595278144527,-0.00043947953785376,-0.0010662777767558229,-0.001748419747124234,-0.002431328562509658,-0.0030372511586009674,-0.0034788520118933823,-0.0036749069735174398,-0.0035666768720771062,-0.003131691072687827,-0.002391476443406739,-0.0014124429072382898,-0.0003006125663364041,0.0008113198089210872,0.0017875847802264332,0.002521418468017584,0.0029637538036282503,0.0031325929906151663,0.0030957220275316757,0.0029355363767559718,0.00271543905023018,0.0024644549864078656,0.0021837824294088197,0.0018658124527345882,0.0015103355283038271,0.0011264323762848981,0.000719667450335623,0.0002763824766441334,-0.00023863608408424062,-0.0008631904945280392,-0.0016059068528820404,-0.002422022903609498,-0.0032142267803266763,-0.0038601017006149336,-0.004250887877887327,-0.004320816791731243,-0.004054753639208416,-0.003476620341615751,-0.0026318475836506127,-0.0015782218854699984,-0.0003910128401014574,0.0008251418946233788,0.001934831907290459,0.002795415901712907,0.0033034053895409496,0.003441231787194043,0.0032933051972859903,0.003012905872508085,0.002750496066541563,0.0025811427968170106,0.0024736648851418404,0.002320524270158766,0.002009940275974514,0.0014959983347983805,0.000826053619529734,0.00011343795865814368,-0.0005238625711012205,-0.0010222541814699886,-0.001399848559863838,-0.0017416747480351995,-0.002150660991906859,-0.0026845033224673197,-0.0033054942634391012,-0.0038700799957754432,-0.004171942507950622,-0.004027013897731011,-0.0033631305706508137,-0.0022683035394725215,-0.0009683823937548476,0.0002602435936481614,0.001202874216046764,0.0017883367125116098,0.002098537018595616,0.0023013589782337755,0.0025449817772698483,0.0028734854554918234,0.0032093469526103544,0.0034062118228536343,0.0033336920759078036,0.0029430682609794642,0.002284047878785715,0.0014772073113941155,0.0006671493303020729,-2.1595134207750936e-05,-0.0005174745638142943,-0.0008220338846185215,-0.0010121065609827048,-0.0012154276147440183,-0.0015581240587200088,-0.0020995188350569106,-0.0027848168352667983,-0.0034460973433703295,-0.0038614866962803644,-0.003849994320588182,-0.0033548959365282353,-0.0024703734101459065,-0.00139680442419463,-0.00035096486832883743,0.0005187104488913381,0.001169708289634722,0.0016455948497218417,0.002020956285151611,0.0023469559458480886,0.0026248183113956507,0.002814223022560974,0.0028646858059377884,0.002748968074214813,0.002480477429743691,0.0021079936549694748,0.0016937836524087433,0.0012884697267842135,0.0009149832079670408,0.0005664555648366821,0.0002144903931852449,-0.00017906350414222442,-0.0006504277674335885,-0.0012210303766194961,-0.0018822904985317662,-0.0025825467228583598,-0.003225674238603181,-0.00368884140590174,-0.0038573091635152102,-0.0036635955720050167,-0.0031142822943679566,-0.002292602900266661,-0.0013348516785518614,-0.00038828490842840165,0.00043483344440854266,