0.74585,0.70313,0.66162,0.62256,0.58105,0.54443,0.50781,0.47363,0.43701,0.40283,0.37231,0.33813,0.30518,0.26611,0.22949,0.19165,0.15625,0.11719,0.07324,0.03174,-0.00488,-0.04517,-0.09033,-0.1355,-0.18433,-0.22705,-0.27344,-0.31738,-0.36133,-0.41016,-0.45166,-0.49438,-0.53589,-0.57861,-0.62378,-0.65674,-0.69092,-0.72388,-0.75806,-0.7959,-0.82275,-0.85449,-0.88135,-0.91309,-0.94727,-0.9729,-1.00098,-1.02783,-1.05469,-1.08765,-1.10962,-1.13525,-1.16089,-1.1853,-1.20972,-1.23169,-1.25366,-1.27197,-1.29272,-1.30981,-1.33423,-1.35254,-1.37207,-1.3916,-1.40503,-1.42822,-1.44653,-1.46118,-1.47949,-1.49658,-1.51245,-1.52954,-1.54907,-1.5686,-1.58691,-1.60156,-1.61621,-1.63086,-1.64673,-1.66016,-1.6748,-1.69067,-1.70166,-1.71631,-1.72974,-1.74438,-1.75781,-1.7688,-1.77979,-1.79077,-1.80542,-1.82007,-1.83472,-1.85181,-1.86646,-1.87988,-1.89453,-1.90674,-1.92139,-1.93726,-1.9519,-1.96655,-1.97998,-1.99219,-2.00195,-2.0105,-2.00928,-1.99829,-1.96777,-1.91528,-1.8396,-1.73584,-1.60522,-1.4563,-1.28662,-1.09985,-0.89355,-0.67505,-0.45044,-0.21973,0.00977,0.24048,0.46265,0.67017,0.86792,1.04858,1.2085,1.35376,1.47827,1.58203,1.66626,1.73218,1.78589,1.82617,1.85425,1.87256,1.87988,1.88477,1.8811,1.87744,1.86768,1.84692,1.83472,1.81641,1.79688,1.78223,1.76147,1.75659,1.74561,1.73462,1.72363,1.7041,1.69067,1.66504,1.64185,1.61377,1.57227,1.53809,1.4917,1.44043,1.38794,1.3208,1.26709,1.20361,1.14502,1.08643,1.02295,0.9729,0.92163,0.87402,0.8313,0.78369,0.75317,0.71899,0.68848,0.66162,0.62744,0.60913,0.58472,0.5603,0.53589,0.50415,0.48096,0.45288,0.42358,0.39307,0.354,0.32593,0.29053,0.25391,0.21729,0.17212,0.1355,0.09277,0.05005,0.00488,-0.04272,-0.08179,-0.12451,-0.16968,-0.21362,-0.26123,-0.30029,-0.34668,-0.39063,-0.43213,-0.47729,-0.50903,-0.54443,-0.57983,-0.61523,-0.6543,-0.68604,-0.71899,-0.75073,-0.78003,-0.81421,-0.83496,-0.86304,-0.88989,-0.91431,-0.94604,-0.96436,-0.98999,-1.01318,-1.03638,-1.06323,-1.07666,-1.09619,-1.1145,-1.13159,-1.15356,-1.16699,-1.18408,-1.20361,-1.21704,-1.23779,-1.24512,-1.26099,-1.27319,-1.28662,-1.30493,-1.31592,-1.33179,-1.34644,-1.36353,-1.38794,-1.40137,-1.41846,-1.43555,-1.4502,-1.47339,-1.48804,-1.51001,-1.53076,-1.54907,-1.57227,-1.58447,-1.60034,-1.61499,-1.62964,-1.64429,-1.65161,-1.65405,-1.64185,-1.61621,-1.5686,-1.49536,-1.39893,-1.2793,-1.1377,-0.979,-0.80811,-0.62378,-0.42725,-0.22217,-0.01709,0.19653,0.40283,0.60181,0.78979,0.96191,1.11694,1.25488,1.37329,1.47461,1.55884,1.62964,1.68579,1.72729,1.75903,1.77368,1.7749,1.77124,1.7627,1.74805,1.72852,1.70776,1.68457,1.66016,1.63452,1.60889,1.58936,1.5625,1.54175,1.521,1.49902,1.48193,1.45752,1.43433,1.40259,1.36597,1.33057,1.27686,1.22803,1.17554,1.11816,1.06567,1.00708,0.94971,0.896,0.84229,0.79468,0.74097,0.69824,0.65674,0.61768,0.58716,0.55664,0.52612,0.50415,0.47974,0.45898,0.43457,0.41626,0.39673,0.37842,0.36255,0.34058,0.31982,0.29907,0.27344,0.25024,0.21729,0.18921,0.15869,0.12207,0.09033,0.05127,0.01221,-0.02563,-0.06592,-0.1062,-0.15259,-0.19653,-0.24048,-0.28564,-0.32593,-0.36743,-0.40649,-0.44434,-0.48706,-0.52368,-0.56641,-0.60547,-0.64209,-0.68115,-0.71289,-0.74463,-0.77393,-0.80688,-0.83618,-0.86304,-0.88989,-0.91187,-0.93384,-0.95459,-0.9729,-0.99365,-1.01074,-1.02783,-1.04614,-1.06323,-1.08154,-1.09863,-1.1145,-1.12671,-1.14258,-1.15845,-1.17065,-1.18286,-1.19751,-1.21338,-1.23291,-1.24756,-1.26343,-1.28052,-1.29395,-1.31226,-1.3269,-1.34155,-1.35864,-1.37329,-1.39526,-1.41479,-1.43188,-1.4502,-1.46606,-1.48438,-1.49658,-1.50635,-1.50879,-1.49536,-1.47339,-1.42456,-1.35254,-1.25732,-1.1377,-0.99976,-0.83984,-0.66284,-0.47729,-0.2771,-0.07568,0.13428,0.34546,0.55664,0.75806,0.95093,1.12793,1.29395,1.43433,1.55884,1.65649,1.74927,1.82129,1.87744,1.92017,1.94946,1.97021,1.9812,1.97998,1.9751,1.96411,1.94946,1.93481,1.9165,1.89819,1.87866,1.86035,1.84326,1.82861,1.81396,1.79688,1.77979,1.76392,1.74438,1.72607,1.7041,1.67358,1.64185,1.60034,1.55151,1.49536,1.43433,1.37329,1.30981,1.24878,1.18774,1.12671,1.07056,1.01563,0.96069,0.90576,0.85693,0.81299,0.77026,0.7312,0.69946,0.6665,0.63965,0.61035,0.5835,0.5542,0.52368,0.49561,0.46509,0.43945,0.41016,0.38208,0.354,0.3186,0.28687,0.25024,0.2124,0.17578,0.13916,0.09888,0.05737,0.01343,-0.0293,-0.0769,-0.12329,-0.17334,-0.22095,-0.26733,-0.31128,-0.35645,-0.40039,-0.44556,-0.48706,-0.52734,-0.56396,-0.60425,-0.64453,-0.67993,-0.71533,-0.74829,-0.77759,-0.81055,-0.83618,-0.86548,-0.89478,-0.92529,-0.95703,-0.98145,-1.0083,-1.03271,-1.05713,-1.08398,-1.09863,-1.11816,-1.1377,-1.15967,-1.18408,-1.19873,-1.21704,-1.23169,-1.24878,-1.26709,-1.28052,-1.29761,-1.31104,-1.32813,-1.34521,-1.36353,-1.38062,-1.39893,-1.41724,-1.43433,-1.45386,-1.47217,-1.48926,-1.50757,-1.52588,-1.54541,-1.56372,-1.58081,-1.59912,-1.61133,-1.61865,-1.61743,-1.60278,-1.57104,-1.51978,-1.44165,-1.34155,-1.2146,-1.06445,-0.89355,-0.70313,-0.50049,-0.28564,-0.06348,0.15991,0.38574,0.60425,0.81543,1.0144,1.19751,1.36108,1.50635,1.63208,1.73828,1.82373,1.89209,1.94702,1.98975,2.02148,2.04468,2.06177,2.06299,2.06299,2.05566,2.04468,2.03369,2.01904,2.00806,1.99585,1.98364,1.9751,1.96533,1.95801,1.9458,1.93726,1.92383,1.90674,1.88721,1.86279,1.83472,1.80298,1.76392,1.71997,1.66382,1.60522,1.54419,1.47583,1.41235,1.34766,1.28296,1.2207,1.15356,1.09131,1.02905,0.96924,0.91553,0.86304,0.81665,0.77393,0.73364,0.69824,0.65796,0.62256,0.58716,0.55176,0.51758,0.47974,0.44556,0.40649,0.37476,0.34302,0.30273,0.26611,0.22583,0.18433,0.1416,0.09399,0.05127,0.00854,-0.03418,-0.0769,-0.12329,-0.16357,-0.21118,-0.25757,-0.30029,-0.3479,-0.3894,-0.43335,-0.47607,-0.51514,-0.55542,-0.59326,-0.63477,-0.67383,-0.70923,-0.74463,-0.77759,-0.81177,-0.84351,-0.87402,-0.90576,-0.93384,-0.96558,-0.99487,-1.02295,-1.05347,-1.07666,-1.10352,-1.12671,-1.14868,-1.17554,-1.19507,-1.2207,-1.24512,-1.26587,-1.29272,-1.30981,-1.33057,-1.35132,-1.36841,-1.39282,-1.40747,-1.42822,-1.44775,-1.46484,-1.48438,-1.49414,-1.50513,-1.51978,-1.53198,-1.55151,-1.56128,-1.57715,-1.59302,-1.60889,-1.62598,-1.64185,-1.65894,-1.67603,-1.69434,-1.71021,-1.73218,-1.75293,-1.77368,-1.79321,-1.8103,-1.82739,-1.84082,-1.85059,-1.85303,-1.85059,-1.83228,-1.80054,-1.74683,-1.67114,-1.56738,-1.43799,-1.2854,-1.11084,-0.91797,-0.71045,-0.49072,-0.26489,-0.03296,0.20142,0.43213,0.65063,0.86182,1.05713,1.23535,1.39282,1.52954,1.64795,1.74683,1.82739,1.89087,1.94214,1.97632,2.00439,2.02026,2.02881,2.03491,2.02881,2.02393,2.0166,2.00439,1.99219,1.97998,1.96899,1.95923,1.94946,1.94214,1.93115,1.92017,1.9104,1.89575,1.8811,1.85913,1.8335,1.80542,1.76636,1.72485,1.67236,1.61743,1.55884,1.49658,1.43555,1.36963,1.30615,1.24268,1.17676,1.11572,1.0498,0.99243,0.9375,0.88623,0.83984,0.79346,0.75195,0.71411,0.67383,0.63965,0.60181,0.57007,0.54077,0.50903,0.47485,0.43945,0.40405,0.36743,0.32837,0.29175,0.24902,0.20874,0.16724,0.12207,0.07935,0.03296,-0.00732,-0.04761,-0.09399,-0.13916,-0.18921,-0.23193,-0.2771,-0.31982,-0.36377,-0.41138,-0.448,-0.48828,-0.53101,-0.57007,-0.6189,-0.65308,-0.69214,-0.72998,-0.7666,-0.80688,-0.8374,-0.87036,-0.9021,-0.93628,-0.96924,-1.00464,-1.03394,-1.06567,-1.09619,-1.12061,-1.15112,-1.17554,-1.20361,-1.22803,-1.25244,-1.28174,-1.30493,-1.32813,-1.35254,-1.37451,-1.39893,-1.41846,-1.43799,-1.4563,-1.47583,-1.49414,-1.51123,-1.53076,-1.54663,-1.56372,-1.58081,-1.5918,-1.60889,-1.62354,-1.64307,-1.66016,-1.67358,-1.69067,-1.70532,-1.72119,-1.73706,-1.74683,-1.76025,-1.7749,-1.78955,-1.80786,-1.82495,-1.8396,-1.85425,-1.87012,-1.88721,-1.90063,-1.91528,-1.92627,-1.94336,-1.95923,-1.97266,-1.9873,-1.99829,-2.00806,-2.01782,-2.01416,-2.00684,-1.98242,-1.94336,-1.87866,-1.78589,-1.66992,-1.52588,-1.3562,-1.1731,-0.97168,-0.75439,-0.52612,-0.29419,-0.05859,0.17822,0.41016,0.6311,0.84229,1.03271,1.21216,1.36841,1.50635,1.62109,1.72119,1.79932,1.86401,1.91284,1.95068,1.97388,1.99097,1.99707,1.99829,1.99463,1.98486,1.9751,1.96533,1.94946,1.93726,1.92383,1.91284,1.90063,1.88843,1.87622,1.86279,1.85181,1.83594,1.81519,1.79321,1.76758,1.73828,1.69922,1.65894,1.60645,1.54907,1.48926,1.427,1.36353,1.30005,1.23779,1.17798,1.11938,1.06079,1.00464,0.95093,0.89966,0.85083,0.80566,0.76294,0.7251,0.68604,0.65186,0.61768,0.58228,0.55054,0.5127,0.47729,0.44312,0.41016,0.37476,0.3418,0.3064,0.27222,0.23193,0.19287,0.14648,0.10864,0.06592,0.02563,-0.01709,-0.06226,-0.10376,-0.14404,-0.18799,-0.23071,-0.27954,-0.31982,-0.36255,-0.40283,-0.44556,-0.49072,-0.52612,-0.56274,-0.60181,-0.63721,-0.67871,-0.70801,-0.74585,-0.77759,-0.81299,-0.84717,-0.87646,-0.90576,-0.93628,-0.96558,-0.99609,-1.02295,-1.04858,-1.07422,-1.09863,-1.12183,-1.1438,-1.16699,-1.18652,-1.21216,-1.23169,-1.2561,-1.27563,-1.29395,-1.31348,-1.32568,-1.34766,-1.3623,-1.37939,-1.39526,-1.40747,-1.42822,-1.44287,-1.45386,-1.46851,-1.47949,-1.49536,-1.50757,-1.521,-1.53442,-1.55151,-1.56738,-1.58325,-1.59912,-1.61377,-1.62964,-1.64307,-1.65894,-1.67236,-1.68823,-1.70288,-1.71875,-1.73462,-1.74683,-1.76025,-1.77246,-1.79077,-1.8042,-1.81885,-1.83472,-1.84814,-1.86279,-1.875,-1.87744,-1.86768,-1.84082,-1.7981,-1.72363,-1.62476,-1.50269,-1.35498,-1.19019,-1.00586,-0.80688,-0.59692,-0.37598,-0.15137,0.07935,0.30884,0.53101,0.74097,0.93384,1.11816,1.28174,1.42822,1.55396,1.66138,1.74927,1.81519,1.8689,1.90674,1.92993,1.94336,1.94946,1.9458,1.9397,1.92627,1.90674,1.88843,1.86768,1.84326,1.82251,1.7981,1.78101,1.7627,1.74683,1.72852,1.70776,1.69189,1.6687,1.64185,1.60767,1.56738,1.53076,1.48804,1.44043,1.38916,1.33179,1.2793,1.2207,1.15723,1.09863,1.03638,0.98511,0.93262,0.88623,0.84106,0.7959,0.75806,0.72144,0.68604,0.6543,0.625,0.60425,0.57983,0.5603,0.53711,0.5127,0.4895,0.46509,0.43579,0.40894,0.38086,0.3479,0.31494,0.2832,0.24658,0.21484,0.17212,0.13184,0.09033,0.04761,0.00732,-0.04028,-0.08301,-0.12451,-0.1709,-0.21362,-0.26245,-0.3064,-0.35034,-0.39429,-0.43945,-0.48218,-0.52368,-0.5603,-0.59814,-0.63477,-0.67139,-0.70801,-0.74219,-0.77759,-0.80933,-0.83862,-0.87036,-0.89478,-0.92163,-0.94604,-0.97168,-0.99609,-1.01685,-1.03882,-1.05713,-1.07544,-1.09253,-1.10718,-1.12305,-1.1377,-1.15601,-1.17188,-1.18896,-1.20483,-1.21704,-1.23291,-1.24634,-1.25732,-1.27197,-1.28418,-1.30005,-1.31348,-1.32813,-1.34521,-1.36108,-1.37817,-1.39404,-1.40869,-1.427,-1.44409,-1.46362,-1.48071,-1.4978,-1.51733,-1.53442,-1.55273,-1.56372,-1.5686,-1.56494,-1.54419,-1.50757,-1.44287,-1.3562,-1.24756,-1.1145,-0.9668,-0.79346,-0.60791,-0.4126,-0.2063,0,0.21729,0.43091,0.63721,0.8374,1.02905,1.19751,1.35376,1.49048,1.61011,1.71143,1.78955,1.85059,1.89575,1.92871,1.9458,1.95313,1.95557,1.94824,1.93604,1.91772,1.89331,1.87378,1.84692,1.82007,1.79321,1.76758,1.74683,1.72729,1.71021,1.69312,1.67358,1.65161,1.6272,1.5979,1.56494,1.5271,1.48682,1.43799,1.38794,1.33545,1.28296,1.22192,1.16455,1.10596,1.05103,1.0022,0.95093,0.90332,0.8606,0.82031,0.78613,0.74707,0.71289,0.67993,0.65552,0.63354,0.61035,0.58228,0.55786,0.53467,0.51147,0.48706,0.45898,0.43335,0.40283,0.37354,0.34058,0.30762,0.26978,0.23315,0.19165,0.15137,0.10498,0.06226,0.01709,-0.0293,-0.07446,-0.12085,-0.16846,-0.21362,-0.25635,-0.30396,-0.3479,-0.39185,-0.43457,-0.47607,-0.5188,-0.5603,-0.60059,-0.63721,-0.67383,-0.71289,-0.74951,-0.78491,-0.81665,-0.85083,-0.87891,-0.9082,-0.93262,-0.96191,-0.98877,-1.0144,-1.04248,-1.06812,-1.09009,-1.11572,-1.13647,-1.15723,-1.17554,-1.19507,-1.20972,-1.22803,-1.24512,-1.25977,-1.27563,-1.29028,-1.30493,-1.3147,-1.33179,-1.34644,-1.36475,-1.38672,-1.40259,-1.41968,-1.43555,-1.45264,-1.46973,-1.47949,-1.49048,-1.50757,-1.52344,-1.54663,-1.56494,-1.58203,-1.59668,-1.61133,-1.61499,-1.62231,-1.61133,-1.58691,-1.54053,-1.46729,-1.37451,-1.24878,-1.10229,-0.93384,-0.74219,-0.54565,-0.33081,-0.10498,0.12695,0.36133,0.5957,0.82642,1.04614,1.25366,1.44653,1.61621,1.77124,1.90308,2.01416,2.10571,2.17041,2.22778,2.2644,2.2876,2.30103,2.30347,2.29614,2.28516,2.26563,2.24243,2.21436,2.18384,2.15576,2.12646,2.10083,2.07642,2.052,2.03125,2.00562,1.98486,1.96045,1.93237,1.9043,1.87256,1.8396,1.79932,1.75537,1.70288,1.64795,1.58813,1.521,1.45264,1.3855,1.31958,1.25366,1.18896,1.12793,1.06934,1.00952,0.95215,0.89355,0.83496,0.78247,0.72754,0.67627,0.62378,0.57007,0.52368,0.47119,0.42236,0.37354,0.32227,0.27466,0.22583,0.18066,0.13306,0.08179,0.0354,-0.00977,-0.05737,-0.10742,-0.15625,-0.20142,-0.24536,-0.28809,-0.33447,-0.38574,-0.42847,-0.47485,-0.52002,-0.57007,-0.61768,-0.65796,-0.70068,-0.73975,-0.77881,-0.82275,-0.85449,-0.88867,-0.92285,-0.95947,-0.99487,-1.02661,-1.05835,-1.08765,-1.11694,-1.14502,-1.17432,-1.20483,-1.23169,-1.26099,-1.28662,-1.31348,-1.33911,-1.3623,-1.38428,-1.40137,-1.42578,-1.44531,-1.46118,-1.48315,-1.4978,-1.51611,-1.52954,-1.53931,-1.55273,-1.56494,-1.57471,-1.58447,-1.59668,-1.61133,-1.62476,-1.63818,-1.65161,-1.66138,-1.67603,-1.68823,-1.70044,-1.71753,-1.73462,-1.75415,-1.77124,-1.78833,-1.80542,-1.82007,-1.83594,-1.85181,-1.87012,-1.88477,-1.90063,-1.91528,-1.92017,-1.92017,-1.9043,-1.86768,-1.80786,-1.71997,-1.59912,-1.45264,-1.28296,-1.09741,-0.89355,-0.67749,-0.448,-0.21118,0.03052,0.26855,0.50293,0.72998,0.94604,1.1438,1.32813,1.49048,1.63696,1.76392,1.86768,1.95557,2.02515,2.07764,2.11548,2.13745,2.15454,2.1582,2.15332,2.146,2.13501,2.11792,2.09961,2.07397,2.05688,2.03247,2.0166,1.99829,1.97876,1.96533,1.95068,1.93237,1.91528,1.89209,1.87256,1.84448,1.81274,1.77612,1.73096,1.68457,1.63208,1.57593,1.51611,1.4563,1.39526,1.33057,1.26953,1.20728,1.1438,1.08398,1.02661,0.97168,0.91919,0.86792,0.82275,0.77881,0.73975,0.69824,0.65918,0.625,0.59204,0.55908,0.52734,0.49683,0.46509,0.42847,0.39307,0.35522,0.31494,0.2771,0.2356,0.19287,0.15015,0.10498,0.06348,0.01587,-0.02808,-0.07202,-0.11841,-0.16113,-0.2063,-0.25024,-0.29297,-0.33936,-0.38208,-0.42847,-0.47485,-0.51758,-0.56152,-0.59937,-0.63599,-0.67139,-0.70801,-0.74707,-0.78247,-0.82031,-0.85571,-0.88867,-0.93262,-0.95825,-0.98755,-1.01563,-1.04248,-1.07788,-1.10107,-1.13037,-1.15845,-1.18408,-1.21216,-1.23047,-1.25244,-1.27075,-1.28906,-1.30737,-1.32568,-1.34644,-1.36597,-1.38428,-1.39893,-1.41846,-1.43555,-1.44897,-1.46362,-1.47705,-1.49292,-1.50757,-1.52466,-1.53931,-1.55518,-1.5686,-1.58081,-1.59058,-1.60278,-1.61865,-1.63208,-1.65161,-1.66748,-1.68335,-1.70044,-1.71265,-1.72852,-1.74194,-1.75903,-1.77368,-1.78955,-1.80908,-1.82739,-1.84448,-1.85791,-1.87622,-1.88843,-1.89697,-1.89941,-1.89575,-1.87744,-1.84082,-1.77612,-1.68213,-1.55762,-1.40381,-1.22192,-1.01929,-0.802,-0.57373,-0.33447,-0.09033,0.16113,0.41138,0.65674,0.89111,1.11938,1.33057,1.52344,1.69556,1.85181,1.97754,2.0874,2.17773,2.24609,2.29858,2.33398,2.3584,2.37061,2.37061,2.36572,2.34985,2.33276,2.30957,2.28394,2.2583,2.23267,2.20947,2.19116,2.17041,2.15088,2.12646,2.10571,2.08252,2.05933,2.03613,2.01294,1.98486,1.9519,1.9104,1.86768,1.81519,1.7627,1.7041,1.64185,1.57959,1.51611,1.45264,1.39282,1.33179,1.27075,1.20728,1.15356,1.09863,1.04492,0.99976,0.95337,0.91064,0.8728,0.83618,0.80078,0.75806,0.72632,0.69092,0.6543,0.62134,0.58228,0.55054,0.5188,0.47974,0.44189,0.39795,0.36133,0.31982,0.2771,0.2356,0.18555,0.14404,0.1001,0.05615,0.00854,-0.04639,-0.08911,-0.13672,-0.18677,-0.23315,-0.2832,-0.32593,-0.36987,-0.41748,-0.46021,-0.50781,-0.55176,-0.59082,-0.63232,-0.67017,-0.70557,-0.73975,-0.77271,-0.80688,-0.8374,-0.86792,-0.9021,-0.93262,-0.96191,-0.98999,-1.01318,-1.0437,-1.06689,-1.09497,-1.11816,-1.14624,-1.16943,-1.19263,-1.21338,-1.22925,-1.24634,-1.26221,-1.27319,-1.29028,-1.30371,-1.32202,-1.33911,-1.35376,-1.37207,-1.38672,-1.40625,-1.4209,-1.43433,-1.44897,-1.46118,-1.47339,-1.48926,-1.50513,-1.51978,-1.5332,-1.54419,-1.56738,-1.57959,-1.59546,-1.60889,-1.62964,-1.64673,-1.66382,-1.68213,-1.698,-1.71509,-1.73584,-1.74805,-1.77002,-1.78467,-1.8042,-1.82251,-1.82983,-1.83716,-1.82739,-1.80054,-1.75049,-1.66992,-1.56128,-1.42578,-1.26343,-1.08398,-0.88135,-0.66772,-0.44312,-0.20874,0.02563,0.26733,0.50171,0.73242,0.94482,1.14868,1.33301,1.50024,1.64917,1.77856,1.88965,1.97754,2.04712,2.09961,2.13257,2.1521,2.15576,2.15576,2.146,2.13135,2.1106,2.08252,2.04834,2.0166,1.98242,1.95068,1.92383,1.89209,1.86768,1.84448,1.82251,1.8042,1.77979,1.75781,1.72852,1.698,1.66626,1.61987,1.57593,1.5271,1.47827,1.42822,1.37085,1.3147,1.25732,1.19751,1.1438,1.08887,1.0376,0.98877,0.9436,0.90454,0.86426,0.8313,0.7959,0.76416,0.73486,0.70801,0.68481,0.65918,0.63721,0.61401,0.5896,0.56641,0.53711,0.50903,0.47974,0.45166,0.41992,0.38696,0.35278,0.31738,0.27588,0.23804,0.19287,0.14771,0.10376,0.05615,0.00732,-0.03906,-0.08545,-0.13428,-0.18311,-0.22705,-0.27588,-0.32349,-0.36987,-0.41382,-0.46143,-0.49927,-0.53955,-0.57495,-0.61401,-0.64819,-0.68359,-0.71655,-0.75073,-0.78613,-0.81665,-0.84839,-0.87646,-0.90332,-0.93506,-0.96191,-0.98755,-1.01196,-1.03638,-1.06201,-1.08276,-1.10229,-1.12183,-1.13647,-1.15845,-1.17065,-1.18896,-1.20239,-1.22192,-1.23779,-1.25122,-1.26465,-1.27808,-1.28906,-1.30737,-1.31836,-1.33423,-1.3501,-1.36597,-1.38794,-1.40015,-1.41846,-1.43677,-1.45264,-1.47949,-1.4917,-1.51245,-1.53198,-1.55273,-1.57471,-1.58203,-1.58081,-1.56738,-1.53198,-1.47095,-1.3855,-1.27319,-1.13525,-0.97412,-0.79712,-0.60425,-0.40039,-0.18433,0.0354,0.25757,0.47607,0.6897,0.89478,1.08521,1.26221,1.42334,1.56738,1.69312,1.79932,1.88599,1.9519,1.99951,2.03247,2.04834,2.05566,2.05078,2.0459,2.03125,2.01172,1.9873,1.96289,1.93115,1.89941,1.86768,1.83472,1.80664,1.77734,1.75171,1.72852,1.70288,1.67603,1.64551,1.61133,1.57471,1.53198,1.48071,1.43433,1.38062,1.32813,1.27075,1.21582,1.15356,1.09497,1.03882,0.98145,0.93262,0.88135,0.83618,0.7959,0.75806,0.7251,0.69092,0.66284,0.63599,0.61035,0.5835,0.56152,0.54077,0.52124,0.49927,0.47607,0.44922,0.42236,0.39307,0.36377,0.33325,0.30029,0.26855,0.23438,0.19531,0.15991,0.11108,0.06958,0.02197,-0.02686,-0.07324,-0.12329,-0.1709,-0.21729,-0.26367,-0.30884,-0.36133,-0.40649,-0.45166,-0.49561,-0.53955,-0.58105,-0.62134,-0.65796,-0.69702,-0.73242,-0.77637,-0.81055,-0.84717,-0.88257,-0.91431,-0.95093,-0.97778,-0.99976,-1.03027,-1.05347,-1.08765,-1.10962,-1.13525,-1.16089,-1.18286,-1.20605,-1.22437,-1.24146,-1.25977,-1.27319,-1.29028,-1.30615,-1.32202,-1.33545,-1.34888,-1.35376,-1.37085,-1.38062,-1.39404,-1.40259,-1.41479,-1.43188,-1.44531,-1.46118,-1.47949,-1.4978,-1.51733,-1.5332,-1.55029,-1.56738,-1.58813,-1.60889,-1.6272,-1.64429,-1.6626,-1.67847,-1.69312,-1.70288,-1.70288,-1.68701,-1.65405,-1.59912,-1.51245,-1.40137,-1.25977,-1.09131,-0.90576,-0.7019,-0.48706,-0.26123,-0.0293,0.20142,0.43579,0.66528,0.88501,1.09619,1.28662,1.46973,1.6272,1.77124,1.88599,1.98608,2.06299,2.12646,2.17407,2.20825,2.23022,2.23877,2.23633,2.229,2.21191,2.19238,2.16553,2.13989,2.11182,2.0874,2.06055,2.03491,2.01294,1.99341,1.96899,1.94946,1.92627,1.90308,1.87988,1.85669,1.82495,1.79077,1.75171,1.70532,1.64917,1.59058,1.52466,1.46484,1.40137,1.33911,1.27686,1.21338,1.15601,1.10107,1.0437,0.99243,0.94238,0.89966,0.85815,0.82031,0.78613,0.75073,0.72144,0.69214,0.65918,0.62988,0.59814,0.56763,0.53589,0.50537,0.47485,0.44556,0.41138,0.37476,0.33691,0.29907,0.26123,0.21606,0.17578,0.13428,0.09399,0.05127,0.00366,-0.04272,-0.09033,-0.13794,-0.18555,-0.2356,-0.2832,-0.32715,-0.36987,-0.41138,-0.45288,-0.49316,-0.53589,-0.57617,-0.61646,-0.65674,-0.69336,-0.72754,-0.76172,-0.79346,-0.82886,-0.85815,-0.89233,-0.92407,-0.95459,-0.98633,-1.01318,-1.0376,-1.06445,-1.08643,-1.11328,-1.13403,-1.15845,-1.17798,-1.20117,-1.22314,-1.24268,-1.26099,-1.27686,-1.2915,-1.31104,-1.32568,-1.34521,-1.35986,-1.37695,-1.39526,-1.41235,-1.42822,-1.44165,-1.45386,-1.46973,-1.48071,-1.4978,-1.51367,-1.53076,-1.54785,-1.5625,-1.57471,-1.58936,-1.60034,-1.61499,-1.6272,-1.64429,-1.66016,-1.67969,-1.70166,-1.71753,-1.73462,-1.75171,-1.76636,-1.78345,-1.79443,-1.80542,-1.80664,-1.79443,-1.7627,-1.70288,-1.61499,-1.4978,-1.34888,-1.18042,-0.98633,-0.77881,-0.55664,-0.32593,-0.08667,0.16113,0.41016,0.6543,0.89233,1.11694,1.32324,1.51123,1.68091,1.83105,1.95801,2.06421,2.15454,2.22778,2.28516,2.32178,2.34863,2.36328,2.36816,2.36572,2.35718,2.33765,2.32544,2.30469,2.28394,2.26318,2.23999,2.21802,2.19482,2.17285,2.1521,2.12891,2.11426,2.09595,2.07642,2.05078,2.02148,1.98853,1.95068,1.90918,1.86157,1.80786,1.75415,1.69556,1.63574,1.57349,1.51367,1.44653,1.38306,1.3208,1.25977,1.20117,1.14624,1.09497,1.04736,0.99976,0.96191,0.91431,0.87402,0.83618,0.79712,0.76782,0.73242,0.7019,0.67139,0.63843,0.60791,0.56885,0.53223,0.49072,0.44922,0.40527,0.36377,0.32104,0.28076,0.2356,0.19165,0.1416,0.09399,0.04517,-0.00732,-0.05615,-0.10376,-0.15381,-0.20264,-0.25146,-0.29907,-0.35156,-0.39795,-0.44312,-0.4895,-0.53101,-0.57373,-0.61279,-0.64697,-0.68604,-0.72144,-0.75806,-0.7959,-0.82764,-0.86304,-0.89478,-0.92651,-0.95337,-0.98022,-1.00952,-1.03638,-1.06812,-1.09741,-1.12671,-1.15356,-1.18042,-1.20483,-1.22803,-1.24756,-1.26709,-1.28906,-1.31348,-1.33301,-1.35376,-1.37817,-1.40015,-1.42212,-1.43921,-1.4563,-1.47461,-1.48804,-1.50879,-1.52588,-1.54053,-1.5564,-1.57104,-1.58569,-1.59912,-1.61133,-1.62598,-1.63818,-1.65894,-1.67236,-1.68701,-1.70654,-1.72241,-1.73828,-1.75293,-1.76636,-1.78345,-1.7981,-1.82129,-1.8396,-1.85791,-1.87988,-1.89941,-1.92139,-1.93359,-1.94458,-1.9519,-1.95313,-1.9519,-1.92139,-1.87378,-1.80298,-1.69556,-1.56616,-1.40015,-1.20972,-1.00708,-0.78735,-0.56519,-0.3186,-0.07202,0.17944,0.42969,0.67505,0.90942,1.13281,1.33911,1.52832,1.69556,1.83838,1.96289,2.06665,2.15088,2.21802,2.26563,2.2998,2.323,2.33521,2.33276,2.323,2.30713,2.28638,2.26563,2.23999,2.21924,2.1936,2.17041,2.15088,2.13013,2.1106,2.09106,2.07275,2.052,2.03491,2.0105,1.98975,1.95923,1.92871,1.88599,1.84204,1.79321,1.73462,1.67603,1.61743,1.55518,1.49414,1.43188,1.37329,1.31226,1.25488,1.19629,1.14258,1.09009,1.04126,0.99487,0.95337,0.91431,0.87891,0.84106,0.80566,0.76538,0.72998,0.69702,0.66528,0.63721,0.59937,0.56274,0.52856,0.48828,0.45166,0.40649,0.36377,0.3186,0.27588,0.23438,0.18555,0.13794,0.09399,0.04395,-0.00244,-0.05493,-0.1062,-0.16113,-0.21118,-0.26001,-0.30884,-0.35522,-0.39795,-0.44434,-0.4834,-0.5249,-0.56396,-0.60181,-0.63843,-0.67139,-0.70557,-0.73853,-0.76904,-0.80444,-0.83496,-0.86792,-0.89966,-0.9314,-0.95825,-0.98511,-1.00586,-1.02905,-1.05103,-1.07544,-1.10107,-1.12549,-1.1499,-1.1731,-1.19507,-1.21704,-1.23657,-1.25732,-1.27441,-1.29883,-1.31836,-1.33789,-1.35864,-1.37695,-1.39282,-1.41113,-1.43066,-1.4502,-1.46729,-1.4856,-1.50024,-1.51855,-1.53442,-1.54785,-1.56006,-1.57349,-1.58813,-1.604,-1.61377,-1.63208,-1.64551,-1.66626,-1.68579,-1.70532,-1.72241,-1.73828,-1.75659,-1.7749,-1.79077,-1.81274,-1.8335,-1.85547,-1.875,-1.89209,-1.90918,-1.92505,-1.93848,-1.9519,-1.95923,-1.96289,-1.95313,-1.92993,-1.88354,-1.8042,-1.69556,-1.5564,-1.39038,-1.20361,-0.99731,-0.77881,-0.55176,-0.31372,-0.06836,0.17822,0.4248,0.66162,0.88501,1.10229,1.30493,1.48438,1.64551,1.78467,1.90552,2.00439,2.0874,2.15088,2.20093,2.23145,2.25464,2.2583,2.25464,2.24365,2.22412,2.20215,2.17529,2.146,2.12036,2.08984,2.06665,2.04102,2.0166,1.99341,1.96777,1.94824,1.92993,1.9104,1.88843,1.85791,1.83228,1.79443,1.75415,1.71021,1.65894,1.60889,1.55762,1.50024,1.44653,1.38306,1.33179,1.27441,1.21948,1.16699,1.10962,1.06567,1.02173,0.979,0.9436,0.9021,0.87402,0.83862,0.80811,0.77637,0.73853,0.71167,0.68237,0.6543,0.62256,0.58472,0.55786,0.51758,0.48096,0.44189,0.39673,0.35889,0.3186,0.27954,0.2417,0.19409,0.15991,0.11353,0.07324,0.02808,-0.02441,-0.06592,-0.11108,-0.15869,-0.20142,-0.25269,-0.29053,-0.33691,-0.38208,-0.42725,-0.47729,-0.51758,-0.55664,-0.59448,-0.63232,-0.67261,-0.70313,-0.73975,-0.77148,-0.802,-0.83496,-0.86182,-0.88745,-0.91675,-0.93994,-0.96436,-0.98755,-1.01196,-1.03271,-1.05469,-1.073,-1.09985,-1.11572,-1.14136,-1.15967,-1.17554,-1.19507,-1.21216,-1.22925,-1.24512,-1.25854,-1.27686,-1.28784,-1.29761,-1.30737,-1.31714,-1.33057,-1.34521,-1.35742,-1.37207,-1.38794,-1.40381,-1.41724,-1.43188,-1.44653,-1.46484,-1.48193,-1.50391,-1.52344,-1.54297,-1.56372,-1.58325,-1.60034,-1.61987,-1.63574,-1.65527,-1.67114,-1.68945,-1.7041,-1.71387,-1.71509,-1.70776,-1.67969,-1.62231,-1.53564,-1.42456,-1.28418,-1.12427,-0.94482,-0.75317,-0.54443,-0.33447,-0.11108,0.11841,0.34912,0.57373,0.78857,0.99121,1.17432,1.34521,1.49536,1.62842,1.74072,1.83594,1.91162,1.97021,2.01416,2.04102,2.05444,2.05811,2.04956,2.03369,2.01416,1.99097,1.96045,1.92627,1.89453,1.85425,1.81885,1.78345,1.75049,1.71997,1.68945,1.66138,1.63452,1.604,1.56982,1.52954,1.49048,1.44653,1.39648,1.34644,1.29517,1.24023,1.18652,1.13403,1.08154,1.02295,0.97534,0.92651,0.88135,0.83984,0.802,0.77026,0.73975,0.71289,0.6897,0.66284,0.64453,0.62012,0.60181,0.58228,0.56274,0.54565,0.52734,0.50537,0.48218,0.45044,0.42358,0.39429,0.36011,0.32593,0.28564,0.25513,0.22095,0.18311,0.1416,0.09033,0.05127,0.00366,-0.04395,-0.09155,-0.1416,-0.18433,-0.23071,-0.27832,-0.32227,-0.37354,-0.41382,-0.45776,-0.50171,-0.54443,-0.5835,-0.62134,-0.65674,-0.69092,-0.72876,-0.76294,-0.802,-0.83618,-0.87036,-0.90576,-0.93384,-0.96802,-0.99609,-1.02539,-1.04858,-1.07788,-1.10229,-1.12427,-1.14624,-1.16821,-1.18774,-1.20605,-1.2207,-1.23901,-1.25488,-1.27563,-1.29395,-1.31104,-1.3269,-1.34399,-1.35498,-1.36841,-1.37695,-1.39038,-1.39771,-1.41113,-1.427,-1.43921,-1.4563,-1.47339,-1.48926,-1.50757,-1.521,-1.53809,-1.55396,-1.57593,-1.5979,-1.61743,-1.6394,-1.65649,-1.67236,-1.68457,-1.68945,-1.68945,-1.67236,-1.64185,-1.58447,-1.49414,-1.37939,-1.23657,-1.07056,-0.88745,-0.68481,-0.47363,-0.24902,-0.02319,0.2063,0.43823,0.66284,0.87891,1.08154,1.27686,1.44775,1.60278,1.74072,1.85425,1.95068,2.02759,2.08496,2.13013,2.16187,2.17773,2.18018,2.17407,2.16064,2.13745,2.11426,2.08252,2.05444,2.02026,1.98975,1.95801,1.92505,1.90063,1.87256,1.84204,1.81274,1.77856,1.75293,1.72119,1.69067,1.65649,1.61377,1.57349,1.52832,1.47583,1.41846,1.35864,1.29883,1.23901,1.1792,1.12061,1.06201,1.00708,0.95337,0.90088,0.85327,0.80688,0.7666,0.72998,0.70068,0.67261,0.64697,0.62012,0.59448,0.57007,0.54565,0.52246,0.49683,0.47363,0.44922,0.42236,0.39673,0.36499,0.33691,0.30029,0.26245,0.22339,0.18066,0.1355,0.09521,0.05127,0.01099,-0.03784,-0.08301,-0.13428,-0.18188,-0.22827,-0.28076,-0.32837,-0.37476,-0.42358,-0.46631,-0.51636,-0.55908,-0.60425,-0.64697,-0.68604,-0.72632,-0.76172,-0.7959,-0.82886,-0.8606,-0.89233,-0.92163,-0.95581,-0.98633,-1.01807,-1.04736,-1.07544,-1.09863,-1.12549,-1.14502,-1.16699,-1.18774,-1.2146,-1.23657,-1.25977,-1.28296,-1.30249,-1.31836,-1.33423,-1.34644,-1.3623,-1.37573,-1.3916,-1.40747,-1.4209,-1.43799,-1.45142,-1.46362,-1.47461,-1.48438,-1.50024,-1.51123,-1.52466,-1.53809,-1.5564,-1.57471,-1.59302,-1.60889,-1.62598,-1.64307,-1.66138,-1.67847,-1.70288,-1.72119,-1.74316,-1.76392,-1.78345,-1.79565,-1.8042,-1.8042,-1.79443,-1.76025,-1.70776,-1.62354,-1.51245,-1.37573,-1.21094,-1.02661,-0.8252,-0.60913,-0.38696,-0.15015,0.08789,0.33081,0.57007,0.79834,1.02173,1.23169,1.42212,1.59546,1.74927,1.87988,1.98608,2.07153,2.13867,2.18872,2.22168,2.24731,2.26196,2.2644,2.25708,2.24365,2.2229,2.19482,2.16431,2.13257,2.10327,2.07397,2.04834,2.02637,2.00073,1.97998,1.95557,1.93359,1.91284,1.88599,1.86157,1.83472,1.80298,1.7688,1.72363,1.6748,1.62109,1.56494,1.50757,1.44775,1.38672,1.32813,1.27075,1.2146,1.15723,1.10352,1.05103,1.00342,0.95825,0.91553,0.87402,0.83862,0.80566,0.77271,0.73975,0.71045,0.68115,0.65063,0.62744,0.60059,0.57251,0.54565,0.52002,0.49072,0.45776,0.42236,0.3833,0.34424,0.29907,0.25879,0.21362,0.17212,0.12939,0.08545,0.03906,-0.01221,-0.05737,-0.10742,-0.15503,-0.20386,-0.25513,-0.29785,-0.3418,-0.38696,-0.43213,-0.47729,-0.52002,-0.56396,-0.60425,-0.64697,-0.68726,-0.72144,-0.75684,-0.79224,-0.82886,-0.8667,-0.89722,-0.93018,-0.96313,-0.99487,-1.02905,-1.05225,-1.07788,-1.10352,-1.13159,-1.15967,-1.18164,-1.20605,-1.22803,-1.25488,-1.28174,-1.29883,-1.31714,-1.33667,-1.3562,-1.37573,-1.39648,-1.41479,-1.43188,-1.45142,-1.46851,-1.48804,-1.50269,-1.51489,-1.5332,-1.54541,-1.56494,-1.57837,-1.59302,-1.60767,-1.62354,-1.64063,-1.65405,-1.66748,-1.68457,-1.70166,-1.72241,-1.74072,-1.76147,-1.78223,-1.80298,-1.82251,-1.84082,-1.85791,-1.87744,-1.89209,-1.90796,-1.92017,-1.92017,-1.90796,-1.87256,-1.81274,-1.72241,-1.60278,-1.4563,-1.28296,-1.09619,-0.89111,-0.67139,-0.43823,-0.19653,0.04761,0.29785,0.54443,0.78247,1.00952,1.21582,1.40747,1.57959,1.73096,1.86157,1.97144,2.06299,2.13623,2.18994,2.23022,2.2522,2.26318,2.26685,2.2583,2.24854,2.23267,2.20581,2.18384,2.1582,2.13135,2.10449,2.07275,2.04712,2.02271,1.99707,1.9751,1.95313,1.92993,1.90308,1.87744,1.84692,1.80908,1.77002,1.72485,1.67725,1.62476,1.56738,1.51001,1.45264,1.39526,1.33423,1.27441,1.21704,1.16211,1.11084,1.05957,1.01074,0.96558,0.91919,0.87769,0.83618,0.79712,0.76416,0.7312,0.70068,0.67139,0.63843,0.61035,0.57861,0.54688,0.51392,0.47729,0.44189,0.40405,0.36621,0.32959,0.28809,0.2478,0.20508,0.16113,0.11597,0.06836,0.02197,-0.02686,-0.07324,-0.11963,-0.16968,-0.21729,-0.26733,-0.31494,-0.36377,-0.41382,-0.45898,-0.50293,-0.54321,-0.5835,-0.62744,-0.66528,-0.7019,-0.73975,-0.77637,-0.81299,-0.84595,-0.87769,-0.90942,-0.93994,-0.96924,-0.99854,-1.02539,-1.05225,-1.08276,-1.11328,-1.14258,-1.16943,-1.19629,-1.21948,-1.24878,-1.27075,-1.29517,-1.31592,-1.33789,-1.35986,-1.37695,-1.39648,-1.41235,-1.427,-1.44165,-1.45386,-1.46973,-1.48193,-1.49902,-1.51489,-1.52954,-1.54541,-1.55884,-1.57227,-1.59058,-1.60278,-1.61743,-1.63086,-1.64795,-1.66382,-1.67847,-1.69067,-1.7041,-1.71753,-1.73096,-1.74072,-1.75659,-1.77002,-1.78589,-1.80542,-1.82129,-1.83716,-1.85303,-1.8689,-1.88477,-1.89331,-1.90063,-1.89453,-1.87622,-1.83716,-1.76758,-1.66992,-1.54053,-1.38428,-1.2085,-1.00952,-0.79956,-0.57617,-0.34668,-0.1123,0.1355,0.37231,0.61035,0.83618,1.05103,1.24756,1.427,1.58691,1.72485,1.8396,1.93604,2.01294,2.07275,2.11548,2.14355,2.16064,2.16431,2.16064,2.14355,2.12402,2.09595,2.06665,2.03369,2.00195,1.97021,1.93848,1.91162,1.88477,1.85425,1.82739,1.79688,1.77246,1.74927,1.72485,1.698,1.66626,1.6333,1.59424,1.55151,1.50146,1.44409,1.38916,1.33789,1.27686,1.22192,1.16333,1.10962,1.05713,1.00464,0.95459,0.90454,0.86426,0.82275,0.78491,0.74951,0.71533,0.6897,0.66406,0.63477,0.60669,0.57617,0.55054,0.52979,0.50171,0.47363,0.43945,0.41138,0.37842,0.3418,0.3064,0.26733,0.23315,0.19897,0.15991,0.11963,0.07202,0.03174,-0.01465,-0.06104,-0.10864,-0.16113,-0.20386,-0.25024,-0.29541,-0.33936,-0.3894,-0.43091,-0.47363,-0.51758,-0.56152,-0.60913,-0.64697,-0.68359,-0.72021,-0.75439,-0.78979,-0.82642,-0.85938,-0.89355,-0.92407,-0.95215,-0.98267,-1.00708,-1.02905,-1.05225,-1.07422,-1.10352,-1.12549,-1.1499,-1.17432,-1.19263,-1.21704,-1.23413,-1.25366,-1.27197,-1.2854,-1.30371,-1.31836,-1.33423,-1.34766,-1.35986,-1.37451,-1.38672,-1.40015,-1.41357,-1.427,-1.44287,-1.45508,-1.47339,-1.48926,-1.50391,-1.521,-1.53687,-1.55151,-1.56616,-1.58081,-1.59668,-1.61133,-1.62964,-1.64551,-1.66138,-1.67847,-1.68701,-1.68945,-1.67969,-1.65283,-1.60767,-1.5332,-1.43066,-1.30371,-1.15112,-0.98389,-0.79346,-0.59326,-0.37964,-0.15503,0.06714,0.29541,0.52124,0.74341,0.95459,1.14868,1.33057,1.49292,1.63574,1.76025,1.86401,1.9458,2.00806,2.05444,2.08618,2.10327,2.1106,2.10815,2.09839,2.08252,2.05811,2.03125,1.99707,1.96045,1.92627,1.89087,1.85669,1.82617,1.7981,1.7688,1.74194,1.71387,1.68701,1.66016,1.62964,1.59668,1.55762,1.51489,1.46973,1.41968,1.36597,1.30737,1.24512,1.18652,1.12915,1.07178,1.01807,0.96558,0.91553,0.86792,0.82642,0.78491,0.74585,0.71289,0.68237,0.6543,0.62988,0.61035,0.5896,0.57373,0.55298,0.53101,0.50903,0.48218,0.45654,0.42725,0.39795,0.36987,0.33813,0.3064,0.26978,0.23071,0.19043,0.14893,0.10742,0.06348,0.01831,-0.03052,-0.07446,-0.12085,-0.1709,-0.21973,-0.26733,-0.31738,-0.36621,-0.41138,-0.46021,-0.50171,-0.54321,-0.58472,-0.62866,-0.67383,-0.71289,-0.75317,-0.79346,-0.83252,-0.87402,-0.90332,-0.93384,-0.96313,-0.99243,-1.02539,-1.05103,-1.08032,-1.10474,-1.13159,-1.15601,-1.17798,-1.19995,-1.22192,-1.2439,-1.26221,-1.28906,-1.30859,-1.32935,-1.3501,-1.36353,-1.38062,-1.3916,-1.40381,-1.41724,-1.427,-1.44287,-1.45874,-1.47583,-1.49048,-1.50635,-1.52222,-1.53809,-1.55396,-1.57349,-1.5918,-1.61743,-1.63818,-1.66016,-1.68213,-1.70044,-1.72363,-1.7395,-1.75415,-1.76636,-1.7749,-1.7749,-1.75659,-1.71753,-1.65283,-1.5625,-1.44165,-1.29395,-1.12427,-0.9375,-0.73486,-0.5249,-0.29907,-0.06592,0.16968,0.40649,0.6311,0.85938,1.07178,1.26587,1.44531,1.60522,1.74194,1.86157,1.96289,2.04956,2.1167,2.16553,2.20337,2.22534,2.23389,2.23389,2.2229,2.20947,2.19116,2.16919,2.13867,2.10693,2.07886,2.04834,2.02148,1.99341,1.96533,1.9458,1.92383,1.90308,1.8811,1.85303,1.82739,1.79688,1.76392,1.72119,1.67114,1.62354,1.5686,1.51245,1.45264,1.38916,1.33179,1.27075,1.20728,1.14624,1.08398,1.03516,0.98267,0.93506,0.88745,0.8374,0.802,0.76416,0.72998,0.6958,0.65796,0.6311,0.60181,0.57251,0.54199,0.51025,0.4834,0.45166,0.42236,0.38696,0.34912,0.31494,0.27954,0.2417,0.20264,0.15747,0.11475,0.06958,0.02441,-0.02319,-0.07202,-0.11475,-0.16113,-0.20508,-0.25146,-0.29785,-0.34058,-0.38574,-0.43457,-0.47729,-0.52246,-0.56519,-0.60791,-0.64819,-0.6897,-0.72632,-0.76782,-0.80688,-0.84351,-0.88257,-0.91431,-0.95215,-0.98389,-1.0144,-1.0437,-1.07178,-1.10107,-1.12793,-1.15723,-1.1853,-1.2146,-1.24268,-1.27075,-1.29395,-1.31836,-1.34033,-1.36108,-1.38184,-1.39893,-1.41968,-1.43555,-1.4563,-1.47095,-1.48438,-1.50024,-1.51367,-1.52588,-1.54175,-1.55396,-1.57104,-1.58447,-1.59912,-1.61377,-1.6272,-1.64185,-1.65649,-1.6748,-1.69067,-1.70654,-1.72485,-1.74194,-1.76025,-1.77979,-1.7981,-1.81519,-1.83716,-1.85303,-1.8689,-1.88232,-1.89331,-1.89819,-1.88721,-1.86035,-1.80908,-1.7334,-1.62476,-1.4917,-1.33179,-1.1499,-0.95093,-0.7373,-0.51147,-0.2771,-0.03174,0.21484,0.46021,0.69336,0.92529,1.13525,1.33057,1.50635,1.66626,1.79932,1.92017,2.0166,2.09717,2.16064,2.20337,2.23511,2.25098,2.2583,2.2583,2.24854,2.23999,2.22412,2.20337,2.18018,2.15332,2.13135,2.10571,2.08374,2.06299,2.03857,2.02271,2.00439,1.98486,1.96655,1.93848,1.9165,1.88477,1.84692,1.80786,1.75537,1.71143,1.65771,1.604,1.54419,1.47705,1.41846,1.35498,1.2915,1.22925,1.16577,1.11816,1.06567,1.01929,0.9729,0.92651,0.88745,0.84961,0.81421,0.78369,0.74707,0.72388,0.6958,0.66528,0.63354,0.5957,0.56885,0.53467,0.50293,0.46875,0.4248,0.39429,0.35278,0.3125,0.26855,0.21729,0.17822,0.12939,0.08301,0.0354,-0.01953,-0.06104,-0.10498,-0.15015,-0.19409,-0.24536,-0.28564,-0.33203,-0.3772,-0.41992,-0.46875,-0.50415,-0.54565,-0.58594,-0.62378,-0.66772,-0.70313,-0.74097,-0.77759,-0.81055,-0.84595,-0.87402,-0.90454,-0.93628,-0.96558,-0.99609,-1.02783,-1.05713,-1.08398,-1.11084,-1.13525,-1.15967,-1.18408,-1.2085,-1.23291,-1.25244,-1.27686,-1.29883,-1.31836,-1.33789,-1.35376,-1.37451,-1.3916,-1.40869,-1.42212,-1.43677,-1.45752,-1.47339,-1.48804,-1.50513,-1.51733,-1.5332,-1.54907,-1.56128,-1.57471,-1.58813,-1.60278,-1.61987,-1.63452,-1.65039,-1.66992,-1.68335,-1.70288,-1.71997,-1.7395,-1.76025,-1.77856,-1.79932,-1.81641,-1.83228,-1.84937,-1.85913,-1.86768,-1.86768,-1.85669,-1.82739,-1.7749,-1.69434,-1.58691,-1.44775,-1.28662,-1.10107,-0.90088,-0.68848,-0.46631,-0.23438,0.00244,0.24048,0.47852,0.70923,0.92896,1.13525,1.32324,1.49414,1.64429,1.7749,1.88232,1.9751,2.04712,2.10449,2.14478,2.17651,2.18872,2.19482,2.1936,2.18384,2.16675,2.14478,2.12158,2.09473,2.06909,2.04468,2.01904,1.99585,1.97144,1.94702,1.92505,1.90308,1.8811,1.85669,1.82861,1.79688,1.76392,1.72852,1.68579,1.63696,1.58325,1.5271,1.46606,1.40503,1.34399,1.28296,1.22437,1.16577,1.10596,1.0498,0.99609,0.94482,0.90088,0.85693,0.81787,0.78247,0.74829,0.72021,0.6897,0.65918,0.62866,0.5957,0.56396,0.53345,0.50049,0.46997,0.43579,0.40283,0.36987,0.33325,0.29419,0.24902,0.20752,0.16479,0.12207,0.08057,0.0354,-0.00732,-0.05127,-0.09644,-0.1416,-0.19043,-0.23682,-0.27954,-0.32349,-0.36377,-0.40894,-0.45166,-0.49072,-0.53101,-0.56885,-0.61035,-0.64819,-0.68359,-0.71533,-0.74463,-0.77759,-0.80933,-0.83862,-0.8667,-0.89355,-0.92407,-0.95093,-0.97778,-1.00342,-1.02539,-1.05347,-1.07788,-1.10352,-1.12915,-1.15112,-1.17676,-1.20117,-1.21704,-1.23535,-1.25244,-1.27075,-1.28662,-1.30127,-1.31836,-1.33301,-1.35254,-1.36597,-1.37939,-1.39526,-1.40503,-1.42212,-1.43311,-1.44775,-1.46362,-1.47949,-1.49902,-1.51611,-1.53442,-1.55273,-1.56738,-1.58691,-1.60156,-1.61865,-1.63696,-1.65527,-1.67358,-1.68945,-1.70532,-1.71509,-1.71631,-1.70898,-1.68457,-1.64185,-1.57471,-1.48071,-1.36353,-1.2207,-1.05469,-0.87402,-0.67627,-0.47241,-0.25635,-0.03784,0.18433,0.40649,0.61768,0.8252,1.01807,1.19141,1.35132,1.48926,1.60767,1.70776,1.78955,1.85425,1.90063,1.93481,1.95557,1.96411,1.96777,1.95923,1.94458,1.92627,1.90552,1.87988,1.85059,1.81885,1.79077,1.76514,1.74072,1.71509,1.69067,1.6687,1.64429,1.61865,1.59058,1.55884,1.52466,1.4856,1.44531,1.39648,1.34521,1.29028,1.23413,1.17676,1.11816,1.06079,1.00586,0.95093,0.90088,0.84961,0.802,0.76172,0.72021,0.68359,0.65186,0.62134,0.59692,0.57373,0.5542,0.53223,0.5127,0.49194,0.46997,0.44678,0.42358,0.39795,0.37354,0.34668,0.31616,0.28564,0.25269,0.21973,0.18433,0.14282,0.10254,0.05737,0.01831,-0.02441,-0.0647,-0.10742,-0.15259,-0.19897,-0.2417,-0.28687,-0.33081,-0.3772,-0.4187,-0.46265,-0.50293,-0.54321,-0.5835,-0.625,-0.66406,-0.70068,-0.7373,-0.77515,-0.80688,-0.83862,-0.86548,-0.89478,-0.92285,-0.95337,-0.98267,-1.00952,-1.03882,-1.06201,-1.08398,-1.10352,-1.11816,-1.13647,-1.15356,-1.17065,-1.18652,-1.20605,-1.22437,-1.24268,-1.2561,-1.26953,-1.28296,-1.29761,-1.30981,-1.32324,-1.34033,-1.3562,-1.37573,-1.39404,-1.41113,-1.42944,-1.44531,-1.46484,-1.47827,-1.49658,-1.51367,-1.52344,-1.53076,-1.52222,-1.49658,-1.45386,-1.3855,-1.29761,-1.18042,-1.04492,-0.88989,-0.72021,-0.53711,-0.34058,-0.13672,0.0708,0.2832,0.49194,0.6958,0.88989,1.06934,1.23291,1.38184,1.50879,1.62354,1.71631,1.79321,1.84814,1.89087,1.92017,1.93481,1.94092,1.93481,1.92139,1.90674,1.88843,1.86768,1.84326,1.82007,1.79077,1.76392,1.73828,1.71143,1.69067,1.66626,1.64551,1.62354,1.5979,1.56982,1.5332,1.49536,1.45264,1.40259,1.35376,1.29517,1.23535,1.17676,1.1145,1.05103,0.98389,0.92407,0.86792,0.81421,0.7666,0.72144,0.68237,0.64697,0.61401,0.58472,0.55786,0.53223,0.50903,0.48462,0.45776,0.44067,0.41748,0.39673,0.37231,0.3418,0.32227,0.29419,0.26611,0.23193,0.19531,0.16602,0.13062,0.09766,0.05737,0.01343,-0.02441,-0.06836,-0.11108,-0.15869,-0.20996,-0.25146,-0.29785,-0.3418,-0.3894,-0.43457,-0.47363,-0.51392,-0.55298,-0.59692,-0.64331,-0.67383,-0.71411,-0.74951,-0.78613,-0.8252,-0.85815,-0.89355,-0.92529,-0.95703,-0.98999,-1.01196,-1.03882,-1.06323,-1.08643,-1.11328,-1.13159,-1.15479,-1.17554,-1.19629,-1.21948,-1.23169,-1.24756,-1.26221,-1.27686,-1.29883,-1.30981,-1.3269,-1.34155,-1.35742,-1.37695,-1.38794,-1.40259,-1.41846,-1.43433,-1.45874,-1.47339,-1.4917,-1.51001,-1.52954,-1.54907,-1.55884,-1.56738,-1.57471,-1.57837,-1.57104,-1.54785,-1.50391,-1.43311,-1.34033,-1.21948,-1.073,-0.90698,-0.72144,-0.52612,-0.32227,-0.1062,0.11475,0.33691,0.55542,0.77393,0.9729,1.16089,1.33301,1.4856,1.61865,1.73218,1.82617,1.90186,1.95923,2.00195,2.03247,2.052,2.06421,2.06421,2.05811,2.04346,2.02881,2.0105,1.98975,1.96899,1.9458,1.92993,1.91528,1.89819,1.88232,1.86157,1.84814,1.82983,1.80786,1.78345,1.75049,1.72119,1.68579,1.64307,1.59546,1.5332,1.47827,1.41235,1.34521,1.27563,1.2085,1.14502,1.08398,1.02173,0.96436,0.90454,0.85449,0.80322,0.75806,0.71411,0.67261,0.63843,0.60791,0.57617,0.54932,0.51636,0.48828,0.45776,0.42358,0.39673,0.36621,0.33936,0.31128,0.27832,0.24414,0.2063,0.16968,0.13184,0.09155,0.05005,0.00977,-0.03052,-0.0708,-0.11353,-0.15503,-0.20386,-0.24902,-0.29541,-0.34058,-0.38574,-0.43091,-0.47119,-0.5127,-0.55298,-0.5896,-0.6311,-0.66895,-0.70801,-0.74463,-0.78003,-0.81421,-0.84595,-0.87646,-0.9082,-0.9375,-0.9729,-1.00464,-1.03271,-1.06323,-1.09497,-1.12305,-1.14868,-1.1731,-1.19751,-1.21704,-1.24023,-1.25977,-1.27808,-1.29883,-1.31714,-1.33423,-1.3501,-1.3623,-1.38062,-1.39404,-1.41846,-1.44043,-1.45874,-1.47949,-1.49902,-1.52222,-1.54175,-1.55762,-1.57837,-1.59668,-1.62231,-1.6394,-1.66016,-1.67969,-1.70044,-1.71875,-1.73218,-1.7395,-1.74316,-1.73584,-1.71753,-1.67236,-1.60034,-1.50879,-1.39038,-1.24756,-1.08154,-0.896,-0.70068,-0.48706,-0.271,-0.04517,0.18433,0.41138,0.6311,0.83862,1.0376,1.21826,1.37939,1.52344,1.64185,1.74194,1.82495,1.89087,1.9397,1.97998,2.00439,2.02393,2.03125,2.03125,2.02148,2.00928,1.99463,1.97754,1.96045,1.94458,1.92383,1.90918,1.89209,1.87988,1.86035,1.84204,1.82373,1.80298,1.77979,1.75659,1.72485,1.69312,1.64917,1.60645,1.55151,1.49292,1.43188,1.36597,1.29883,1.23413,1.16821,1.10474,1.04126,0.98145,0.92041,0.86304,0.81055,0.75806,0.71045,0.67017,0.62622,0.59204,0.55786,0.5249,0.49072,0.45776,0.4248,0.39307,0.36255,0.33325,0.29785,0.26733,0.23193,0.19653,0.16113,0.12085,0.08301,0.04272,0.00244,-0.03784,-0.08423,-0.12451,-0.1709,-0.20996,-0.25635,-0.30396,-0.34912,-0.39429,-0.44067,-0.48096,-0.52734,-0.56763,-0.60791,-0.64697,-0.68848,-0.72876,-0.76904,-0.80811,-0.84473,-0.87891,-0.91431,-0.94727,-0.98145,-1.01074,-1.04248,-1.07422,-1.10352,-1.13525,-1.16333,-1.18896,-1.21704,-1.24023,-1.26709,-1.29028,-1.31836,-1.34033,-1.3623,-1.38428,-1.40625,-1.42456,-1.44287,-1.45996,-1.47949,-1.49658,-1.51489,-1.53198,-1.54907,-1.56616,-1.58447,-1.60156,-1.61743,-1.63086,-1.64795,-1.6626,-1.68091,-1.69678,-1.71143,-1.72729,-1.74438,-1.76147,-1.77979,-1.79565,-1.81396,-1.82983,-1.85181,-1.87134,-1.89087,-1.90552,-1.92383,-1.93481,-1.94458,-1.94092,-1.92993,-1.89819,-1.84814,-1.77246,-1.67114,-1.54541,-1.39404,-1.2207,-1.03027,-0.82153,-0.60303,-0.37109,-0.1355,0.09766,0.33447,0.56152,0.77759,0.98022,1.15967,1.32935,1.47217,1.5979,1.70288,1.78833,1.85791,1.91162,1.95068,1.97876,1.98853,2.00439,2.00562,2.00439,1.99585,1.98853,1.97144,1.95557,1.93848,1.92139,1.90796,1.89575,1.87744,1.86646,1.84937,1.83105,1.81396,1.79321,1.77002,1.74438,1.70532,1.67236,1.62964,1.57837,1.521,1.45508,1.39404,1.32813,1.25732,1.19141,1.12061,1.06079,0.99854,0.9375,0.87646,0.81909,0.77026,0.72266,0.67993,0.63965,0.59937,0.57007,0.53833,0.50903,0.47485,0.44312,0.4126,0.37964,0.34668,0.31494,0.27954,0.2478,0.21118,0.17578,0.13428,0.09399,0.05249,0.01099,-0.0293,-0.07202,-0.11963,-0.16113,-0.20264,-0.24292,-0.28442,-0.32959,-0.36987,-0.4126,-0.45654,-0.49927,-0.53955,-0.57739,-0.61768,-0.65674,-0.69702,-0.73608,-0.77515,-0.81421,-0.85083,-0.88257,-0.91553,-0.94604,-0.97656,-1.00586,-1.03882,-1.07056,-1.10107,-1.13159,-1.16089,-1.18652,-1.21704,-1.23779,-1.26343,-1.28662,-1.31348,-1.34155,-1.36353,-1.38184,-1.40503,-1.42456,-1.44287,-1.45874,-1.47583,-1.49048,-1.50879,-1.52588,-1.54297,-1.56006,-1.58081,-1.5979,-1.61499,-1.6272,-1.64063,-1.65405,-1.66992,-1.68701,-1.70044,-1.71631,-1.72974,-1.74438,-1.75781,-1.77124,-1.78467,-1.80054,-1.82007,-1.83838,-1.85425,-1.87378,-1.89087,-1.90674,-1.92139,-1.93481,-1.94824,-1.96533,-1.98486,-1.99951,-2.01294,-2.02759,-2.03857,-2.04468,-2.04468,-2.02759,-1.99707,-1.94092,-1.86279,-1.75659,-1.62354,-1.46606,-1.2854,-1.08276,-0.8667,-0.63599,-0.39673,-0.15015,0.09766,0.34058,0.57983,0.80566,1.01685,1.21216,1.38306,1.54419,1.67847,1.79199,1.88477,1.96167,2.01782,2.06055,2.0874,2.1106,2.12036,2.12524,2.12158,2.11426,2.09595,2.07764,2.05688,2.03613,2.0166,1.99951,1.98608,1.97021,1.95679,1.94336,1.92749,1.90918,1.88721,1.86279,1.83716,1.80664,1.7688,1.72974,1.67969,1.62842,1.56616,1.50391,1.43799,1.37085,1.30371,1.23657,1.17432,1.11084,1.05225,0.99731,0.93994,0.89478,0.84351,0.79956,0.76172,0.72876,0.69458,0.66528,0.63232,0.60303,0.57129,0.53589,0.50659,0.47485,0.44312,0.4126,0.37231,0.34424,0.30396,0.26978,0.23193,0.18433,0.14648,0.10376,0.06104,0.01953,-0.02808,-0.06226,-0.10986,-0.15259,-0.20142,-0.25024,-0.28931,-0.33325,-0.3772,-0.41748,-0.46631,-0.50049,-0.53833,-0.57373,-0.61401,-0.65674,-0.68726,-0.7251,-0.7605,-0.79468,-0.83252,-0.85815,-0.88989,-0.91675,-0.94727,-0.98267,-1.00952,-1.03882,-1.06567,-1.09253,-1.12183,-1.14014,-1.16577,-1.18652,-1.21216,-1.23535,-1.2561,-1.27563,-1.29639,-1.3147,-1.33667,-1.3501,-1.36963,-1.3855,-1.40625,-1.42944,-1.44775,-1.46606,-1.48315,-1.49902,-1.51733,-1.52832,-1.54419,-1.5564,-1.57349,-1.5918,-1.60645,-1.62354,-1.6394,-1.65283,-1.6687,-1.68213,-1.698,-1.71143,-1.72974,-1.74805,-1.7627,-1.78101,-1.79932,-1.81274,-1.82983,-1.84204,-1.85791,-1.87256,-1.88965,-1.90796,-1.92139,-1.93237,-1.93481,-1.92139,-1.89209,-1.8335,-1.75049,-1.63818,-1.50391,-1.34766,-1.16943,-0.97534,-0.7666,-0.54688,-0.31982,-0.08301,0.15503,0.39307,0.6189,0.82886,1.03149,1.21582,1.38184,1.5271,1.65527,1.76025,1.84448,1.91406,1.96045,1.99463,2.01416,2.02271,2.02026,2.01294,1.99829,1.97998,1.95557,1.93115,1.90063,1.87012,1.84204,1.81396,1.79077,1.77002,1.74927,1.72852,1.70654,1.68457,1.65649,1.6272,1.58813,1.54663,1.50024,1.45264,1.39893,1.34277,1.28052,1.2207,1.15723,1.09741,1.03516,0.97778,0.92651,0.88013,0.83862,0.79834,0.76172,0.72876,0.6958,0.66528,0.63721,0.61035,0.58838,0.56274,0.54321,0.52368,0.50293,0.48218,0.4541,0.42725,0.40039,0.37109,0.3418,0.31372,0.27954,0.24536,0.20752,0.16846,0.12329,0.07568,0.03296,-0.01709,-0.0647,-0.11108,-0.15747,-0.20142,-0.2478,-0.29175,-0.34058,-0.38696,-0.43335,-0.47974,-0.52246,-0.56152,-0.59814,-0.63965,-0.67627,-0.70923,-0.74707,-0.77881,-0.81665,-0.84839,-0.88135,-0.91064,-0.93628,-0.96558,-0.99121,-1.0144,-1.04126,-1.06567,-1.08887,-1.10962,-1.13037,-1.1499,-1.16943,-1.18408,-1.20239,-1.21704,-1.23779,-1.26099,-1.27197,-1.28662,-1.30249,-1.31592,-1.33301,-1.33911,-1.35376,-1.36841,-1.38306,-1.40259,-1.41235,-1.43066,-1.44531,-1.4624,-1.48315,-1.49414,-1.51001,-1.52466,-1.54541,-1.5686,-1.58691,-1.60767,-1.6272,-1.64185,-1.65527,-1.65161,-1.64063,-1.60889,-1.55762,-1.48438,-1.37817,-1.25366,-1.10352,-0.93506,-0.75317,-0.55054,-0.34668,-0.13062,0.08423,0.29907,0.52002,0.73242,0.9314,1.11572,1.28296,1.43188,1.56006,1.67358,1.76514,1.83594,1.89087,1.92993,1.95557,1.97388,1.97754,1.97266,1.96045,1.94458,1.91895,1.89209,1.86279,1.83228,1.80298,1.77734,1.74927,1.72363,1.69678,1.67236,1.64673,1.62354,1.59424,1.56372,1.52954,1.49048,1.4502,1.40137,1.34766,1.29639,1.23535,1.17432,1.11206,1.04614,0.98511,0.92651,0.87158,0.82031,0.77148,0.72754,0.68481,0.64575,0.60791,0.57373,0.54321,0.51514,0.49072,0.46631,0.44312,0.42358,0.40161,0.3772,0.35522,0.33325,0.30518,0.27954,0.25146,0.22461,0.19409,0.16235,0.12451,0.09033,0.04883,0.00854,-0.03418,-0.07568,-0.11475,-0.16479,-0.2124,-0.25757,-0.3064,-0.35278,-0.40405,-0.44922,-0.49561,-0.53833,-0.5835,-0.62134,-0.66162,-0.69458,-0.73486,-0.77759,-0.81055,-0.84839,-0.88379,-0.91675,-0.95581,-0.97656,-1.0083,-1.03271,-1.06079,-1.09253,-1.11206,-1.13647,-1.16211,-1.18408,-1.20972,-1.22314,-1.24268,-1.25854,-1.27686,-1.29639,-1.30737,-1.32202,-1.33301,-1.34766,-1.36597,-1.37939,-1.39404,-1.40991,-1.43066,-1.4502,-1.46729,-1.4856,-1.50391,-1.52222,-1.54175,-1.55396,-1.56982,-1.58691,-1.60645,-1.6272,-1.64429,-1.66016,-1.67725,-1.69189,-1.70654,-1.71143,-1.71265,-1.70166,-1.67725,-1.63452,-1.56128,-1.46362,-1.33911,-1.18652,-1.01807,-0.8252,-0.62012,-0.40283,-0.18066,0.05127,0.29053,0.52368,0.75073,0.96924,1.16943,1.35986,1.52954,1.67969,1.8042,1.90918,1.99463,2.06177,2.11426,2.1521,2.17773,2.19238,2.19727,2.19604,2.18384,2.16919,2.14478,2.11914,2.09229,2.07031,2.04468,2.02271,2.00073,1.97998,1.95679,1.93604,1.91284,1.88721,1.86523,1.8396,1.80908,1.77612,1.73584,1.69067,1.63818,1.57959,1.51733,1.45508,1.38916,1.32813,1.26343,1.20117,1.14014,1.08521,1.02539,0.9729,0.91431,0.86792,0.82031,0.77881,0.74219,0.70557,0.67139,0.63843,0.60547,0.57373,0.54199,0.51025,0.47974,0.45288,0.41626,0.39185,0.36011,0.32837,0.29053,0.2478,0.2124,0.16968,0.12695,0.08423,0.03662,-0.00244,-0.04639,-0.09277,-0.1416,-0.19287,-0.23926,-0.28809,-0.33569,-0.3833,-0.43213,-0.47485,-0.5188,-0.56152,-0.60547,-0.65063,-0.69092,-0.72998,-0.77026,-0.80688,-0.84473,-0.87402,-0.90698,-0.94116,-0.97168,-1.00708,-1.03638,-1.06689,-1.09741,-1.12305,-1.15112,-1.1731,-1.19629,-1.21704,-1.24146,-1.26343,-1.2854,-1.30737,-1.32568,-1.34033,-1.35986,-1.37329,-1.3916,-1.40625,-1.42456,-1.44409,-1.46118,-1.47827,-1.49658,-1.51001,-1.52466,-1.53564,-1.55151,-1.56494,-1.57837,-1.59546,-1.61133,-1.6272,-1.64185,-1.65527,-1.66992,-1.68579,-1.69922,-1.71265,-1.72974,-1.74927,-1.76392,-1.78345,-1.8042,-1.82007,-1.8396,-1.85425,-1.87012,-1.88477,-1.89697,-1.90063,-1.89331,-1.86768,-1.82007,-1.74316,-1.6394,-1.50146,-1.33911,-1.15234,-0.95093,-0.73364,-0.50293,-0.26123,-0.01343,0.24414,0.49194,0.73975,0.97412,1.19629,1.39771,1.58081,1.74561,1.88843,2.00928,2.11182,2.1875,2.2522,2.29858,2.33032,2.34497,2.35352,2.34131,2.32788,2.30835,2.28516,2.26318,2.23633,2.20947,2.18628,2.15942,2.13867,2.11182,2.08862,2.06543,2.04834,2.02759,2.00928,1.98486,1.96289,1.93237,1.89453,1.85669,1.80786,1.75537,1.69922,1.63696,1.58325,1.51978,1.45752,1.39038,1.3208,1.26221,1.19873,1.13892,1.08276,1.02783,0.98267,0.93384,0.89111,0.84717,0.80566,0.77026,0.73364,0.69702,0.66406,0.62622,0.5957,0.55786,0.52612,0.48828,0.44678,0.4126,0.37354,0.33447,0.29663,0.25391,0.21362,0.16968,0.12329,0.07324,0.02197,-0.02441,-0.07324,-0.12085,-0.16846,-0.21484,-0.26001,-0.30518,-0.35156,-0.39795,-0.44434,-0.4895,-0.53467,-0.57617,-0.61768,-0.65674,-0.69214,-0.72998,-0.7666,-0.80444,-0.84106,-0.87402,-0.9082,-0.94238,-0.97168,-1.00708,-1.03516,-1.06567,-1.09375,-1.12183,-1.15601,-1.18042,-1.20605,-1.23291,-1.25488,-1.27686,-1.29517,-1.31836,-1.34033,-1.36475,-1.38916,-1.41235,-1.43311,-1.45264,-1.46851,-1.48682,-1.50391,-1.52466,-1.54053,-1.55762,-1.57593,-1.5918,-1.60889,-1.6272,-1.6394,-1.65527,-1.6687,-1.68579,-1.698,-1.71509,-1.73096,-1.75049,-1.76758,-1.78467,-1.80298,-1.82007,-1.83228,-1.85059,-1.86768,-1.89209,-1.90552,-1.92261,-1.93848,-1.95435,-1.97021,-1.97998,-1.98853,-1.99219,-1.98608,-1.96777,-1.92505,-1.85547,-1.76025,-1.63208,-1.47949,-1.30127,-1.09863,-0.88501,-0.65918,-0.42358,-0.17944,0.06958,0.31616,0.55908,0.79346,1.01807,1.22925,1.41846,1.58936,1.73462,1.85791,1.96289,2.0459,2.11182,2.16431,2.19971,2.22412,2.23755,2.23755,2.22778,2.21069,2.18994,2.16675,2.13623,2.10938,2.08252,2.05811,2.03491,2.01416,1.98853,1.96533,1.94824,1.92871,1.90918,1.89087,1.86523,1.84204,1.8103,1.77612,1.73462,1.68457,1.63086,1.57471,1.51489,1.4563,1.3916,1.33057,1.27075,1.20972,1.14624,1.09131,1.04004,0.98877,0.9436,0.89844,0.86304,0.82764,0.79102,0.75684,0.71777,0.68604,0.65186,0.62012,0.58716,0.5542,0.52246,0.49316,0.45898,0.42603,0.38696,0.34912,0.31006,0.271,0.22949,0.18799,0.14404,0.10376,0.05859,0.01587,-0.03296,-0.08179,-0.12817,-0.17822,-0.22583,-0.271,-0.31982,-0.36255,-0.40649,-0.44922,-0.49561,-0.53955,-0.5835,-0.62378,-0.66162,-0.70313,-0.74097,-0.77515,-0.81177,-0.84351,-0.87891,-0.91309,-0.94604,-0.97656,-1.00586,-1.03516,-1.06079,-1.08643,-1.11206,-1.13525,-1.15967,-1.18042,-1.20361,-1.22437,-1.24756,-1.26709,-1.2854,-1.30127,-1.31714,-1.33179,-1.34888,-1.36597,-1.37573,-1.38916,-1.40137,-1.41602,-1.427,-1.43799,-1.45142,-1.4563,-1.47217,-1.48804,-1.50269,-1.52222,-1.54053,-1.5564,-1.57349,-1.58936,-1.60767,-1.6272,-1.64429,-1.6626,-1.68091,-1.69678,-1.71265,-1.71509,-1.70654,-1.68091,-1.63452,-1.56494,-1.46606,-1.34399,-1.19629,-1.03027,-0.85327,-0.65063,-0.43945,-0.21729,0.0061,0.22827,0.4541,0.67017,0.87646,1.06812,1.24146,1.40259,1.54175,1.66748,1.7688,1.85425,1.91406,1.96045,1.99219,2.0105,2.01782,2.01416,2.00317,1.98608,1.96045,1.93604,1.90063,1.86646,1.82861,1.79199,1.76025,1.72852,1.69678,1.67236,1.64551,1.61621,1.58569,1.55518,1.51978,1.48193,1.44165,1.39282,1.34399,1.2915,1.23535,1.18286,1.11938,1.06079,1.00098,0.9436,0.88623,0.83496,0.78857,0.74707,0.70679,0.67017,0.63965,0.61157,0.58228,0.55542,0.52612,0.51025,0.4895,0.46997,0.448,0.4248,0.40283,0.37842,0.35645,0.33203,0.30151,0.27588,0.24536,0.21606,0.18066,0.1416,0.10254,0.05981,0.01587,-0.0293,-0.0769,-0.12085,-0.16724,-0.21362,-0.26123,-0.3064,-0.354,-0.40039,-0.44556,-0.49072,-0.53711,-0.57861,-0.62012,-0.65918,-0.70068,-0.73853,-0.77759,-0.81665,-0.84839,-0.88501,-0.91797,-0.94849,-0.97778,-1.00342,-1.03027,-1.05469,-1.07788,-1.10229,-1.12305,-1.14014,-1.16333,-1.17798,-1.19385,-1.20605,-1.21826,-1.23291,-1.24634,-1.26099,-1.27563,-1.28784,-1.30493,-1.3147,-1.3269,-1.33667,-1.35132,-1.35986,-1.37329,-1.38672,-1.39893,-1.42334,-1.43555,-1.4502,-1.46606,-1.48071,-1.50146,-1.51367,-1.53076,-1.54297,-1.54907,-1.54419,-1.52222,-1.47705,-1.40991,-1.31348,-1.19507,-1.04858,-0.88379,-0.70557,-0.51025,-0.30884,-0.09277,0.12695,0.35034,0.57373,0.78491,0.99121,1.18286,1.35864,1.51245,1.64185,1.7627,1.86035,1.94214,2.00806,2.05444,2.08618,2.10693,2.11182,2.1106,2.09839,2.08008,2.05811,2.03125,2.00439,1.97021,1.94458,1.9104,1.87988,1.85181,1.82617,1.7981,1.77368,1.74927,1.72729,1.69678,1.66748,1.6333,1.59424,1.54785,1.49048,1.43799,1.37939,1.31958,1.25977,1.19507,1.14014,1.08032,1.02539,0.97046,0.91431,0.86914,0.8252,0.78369,0.74463,0.71045,0.67749,0.64697,0.61768,0.59326,0.56641,0.54199,0.52002,0.49316,0.47729,0.45166,0.42969,0.40283,0.37476,0.34424,0.30884,0.26978,0.23071,0.19287,0.15381,0.11353,0.0708,0.02319,-0.02319,-0.07324,-0.12451,-0.17456,-0.22339,-0.271,-0.3125,-0.36133,-0.40527,-0.45166,-0.49805,-0.53955,-0.58716,-0.62744,-0.66528,-0.70435,-0.73853,-0.77393,-0.80933,-0.84595,-0.88257,-0.91675,-0.94604,-0.97656,-1.00464,-1.03149,-1.05957,-1.08154,-1.10229,-1.12671,-1.1499,-1.17676,-1.19507,-1.21704,-1.23169,-1.24878,-1.26587,-1.2793,-1.29395,-1.30981,-1.32446,-1.34155,-1.35498,-1.36841,-1.38062,-1.39404,-1.40625,-1.42334,-1.43799,-1.45508,-1.47339,-1.4917,-1.51123,-1.52954,-1.54663,-1.56616,-1.58203,-1.5979,-1.60889,-1.61987,-1.62354,-1.61377,-1.58813,-1.53687,-1.46118,-1.3562,-1.22314,-1.06812,-0.88989,-0.69824,-0.49194,-0.27466,-0.04883,0.18555,0.4248,0.66284,0.89233,1.10962,1.31348,1.49658,1.66138,1.8042,1.92627,2.02759,2.10938,2.17285,2.21802,2.25098,2.27173,2.27905,2.27905,2.26318,2.25098,2.23145,2.20947,2.18018,2.15454,2.12769,2.10205,2.07764,2.05322,2.02515,2.00806,1.98853,1.96899,1.94946,1.92993,1.90918,1.88232,1.84937,1.8103,1.76392,1.71021,1.65527,1.59546,1.5332,1.46606,1.40015,1.33667,1.27197,1.20728,1.14624,1.08643,1.02905,0.97778,0.92651,0.88257,0.84106,0.80078,0.76294,0.72632,0.69092,0.65796,0.62744,0.5957,0.56396,0.53589,0.50293,0.47241,0.43823,0.40649,0.36621,0.32715,0.28687,0.24658,0.20752,0.16602,0.12451,0.08057,0.0354,-0.01343,-0.06226,-0.10986,-0.16357,-0.2124,-0.26245,-0.30396,-0.34912,-0.39429,-0.43701,-0.48462,-0.5249,-0.56885,-0.61035,-0.64819,-0.6897,-0.72144,-0.75684,-0.78857,-0.82275,-0.8606,-0.89111,-0.92407,-0.95703,-0.98877,-1.02173,-1.04858,-1.0791,-1.10474,-1.13281,-1.15967,-1.1853,-1.21216,-1.23535,-1.25854,-1.28174,-1.30005,-1.3208,-1.33911,-1.35498,-1.37573,-1.39282,-1.41235,-1.42944,-1.44165,-1.45752,-1.46729,-1.48071,-1.49536,-1.51123,-1.5271,-1.54419,-1.56372,-1.58447,-1.60156,-1.61987,-1.63452,-1.65161,-1.66748,-1.68457,-1.70898,-1.72852,-1.74927,-1.76758,-1.78101,-1.80176,-1.81396,-1.82617,-1.83105,-1.83105,-1.81396,-1.77612,-1.71753,-1.63086,-1.521,-1.37329,-1.20361,-1.01318,-0.80688,-0.5896,-0.35767,-0.11475,0.13428,0.38208,0.62256,0.8606,1.08643,1.29395,1.48315,1.64917,1.79443,1.92017,2.02026,2.10205,2.17041,2.21313,2.24854,2.26807,2.27661,2.27417,2.26563,2.25098,2.229,2.20459,2.17773,2.14966,2.12891,2.10327,2.08008,2.05933,2.03369,2.01294,1.99097,1.96899,1.94824,1.92383,1.89697,1.86157,1.82617,1.77856,1.7334,1.67847,1.61865,1.55151,1.48438,1.41846,1.35132,1.28296,1.21704,1.15234,1.09131,1.03271,0.97534,0.92407,0.87524,0.83008,0.78857,0.74829,0.71289,0.67627,0.64331,0.61035,0.57861,0.54688,0.5188,0.48462,0.45166,0.42114,0.38574,0.34912,0.3125,0.27466,0.23315,0.19653,0.15259,0.1123,0.07324,0.02808,-0.01953,-0.06592,-0.11353,-0.16235,-0.2124,-0.27222,-0.31616,-0.36377,-0.41016,-0.45532,-0.50171,-0.54565,-0.58594,-0.62988,-0.67261,-0.71289,-0.75073,-0.78979,-0.82397,-0.85815,-0.896,-0.92773,-0.96313,-0.99609,-1.03271,-1.06567,-1.09619,-1.12671,-1.15356,-1.18408,-1.21216,-1.23901,-1.26465,-1.28784,-1.31348,-1.33911,-1.36108,-1.38428,-1.40137,-1.41846,-1.43921,-1.45752,-1.47705,-1.49414,-1.51123,-1.52832,-1.54297,-1.55884,-1.57349,-1.58936,-1.60522,-1.61743,-1.63086,-1.64429,-1.66016,-1.67725,-1.68945,-1.70288,-1.71631,-1.72607,-1.74438,-1.76147,-1.77612,-1.79077,-1.81152,-1.82617,-1.84326,-1.86157,-1.87622,-1.89819,-1.9104,-1.92627,-1.94214,-1.95679,-1.97266,-1.97632,-1.97144,-1.95313,-1.91162,-1.84937,-1.75415,-1.6333,-1.48804,-1.31714,-1.13159,-0.92896,-0.70923,-0.47852,-0.2356,0.01221,0.26245,0.51025,0.74707,0.96924,1.17065,1.35986,1.52588,1.67114,1.79932,1.90063,1.98608,2.05322,2.09961,2.13379,2.15332,2.15576,2.15454,2.14111,2.13013,2.10938,2.0813,2.05322,2.02393,1.99463,1.96777,1.93848,1.91528,1.89087,1.87134,1.84814,1.8335,1.81274,1.78955,1.76147,1.72241,1.68823,1.64551,1.59668,1.54663,1.48804,1.43311,1.37329,1.30981,1.24634,1.18286,1.12305,1.06445,1.01196,0.96069,0.91064,0.86548,0.8252,0.78613,0.74951,0.71533,0.68481,0.65796,0.63232,0.61035,0.5835,0.55908,0.53467,0.50903,0.47974,0.44922,0.41992,0.38696,0.354,0.32227,0.28442,0.2478,0.20996,0.16846,0.12695,0.0769,0.03174,-0.01221,-0.05859,-0.1062,-0.14771,-0.19165,-0.23682,-0.27954,-0.32959,-0.37354,-0.41626,-0.46021,-0.50415,-0.54688,-0.5835,-0.62256,-0.65918,-0.69824,-0.73486,-0.77148,-0.80811,-0.84106,-0.87402,-0.90332,-0.9314,-0.95825,-0.98389,-1.01196,-1.03638,-1.06079,-1.07788,-1.09863,-1.11816,-1.1377,-1.15845,-1.17188,-1.1853,-1.19873,-1.21582,-1.23047,-1.24268,-1.25854,-1.27441,-1.28784,-1.30249,-1.31348,-1.32935,-1.34399,-1.35986,-1.37817,-1.39404,-1.41235,-1.427,-1.4502,-1.46851,-1.48804,-1.50757,-1.52588,-1.54785,-1.57349,-1.59058,-1.60767,-1.62109,-1.61987,-1.60645,-1.57593,-1.52466,-1.4563,-1.35132,-1.22925,-1.08154,-0.91553,-0.7373,-0.53711,-0.33081,-0.11475,0.1062,0.32471,0.54443,0.75195,0.95093,1.13403,1.29517,1.44775,1.57837,1.68701,1.77856,1.84692,1.89941,1.93237,1.95435,1.96289,1.96411,1.9519,1.93604,1.9165,1.89331,1.86401,1.83838,1.80908,1.77856,1.75049,1.72363,1.69922,1.6748,1.65405,1.6333,1.61377,1.58813,1.5564,1.52832,1.48926,1.44165,1.39893,1.34644,1.29395,1.23413,1.17432,1.11938,1.05957,1.0022,0.94971,0.89478,0.84961,0.80566,0.76294,0.72632,0.6897,0.65918,0.63232,0.61035,0.58838,0.56641,0.5481,0.52612,0.51147,0.49561,0.47241,0.45044,0.42603,0.40283,0.3772,0.35156,0.32471,0.29541,0.26611,0.23438,0.19287,0.15381,0.11108,0.06836,0.02441,-0.02075,-0.06348,-0.10986,-0.15259,-0.20264,-0.2417,-0.28442,-0.33325,-0.37964,-0.42725,-0.46509,-0.50659,-0.54688,-0.58472,-0.62378,-0.65918,-0.6958,-0.73364,-0.7666,-0.802,-0.83008,-0.85693,-0.88135,-0.90576,-0.9314,-0.95703,-0.97778,-1.0022,-1.02295,-1.04248,-1.06323,-1.08154,-1.10229,-1.12427,-1.14258,-1.16089,-1.17676,-1.19751,-1.21826,-1.23413,-1.25122,-1.26709,-1.28296,-1.29883,-1.31836,-1.33789,-1.35864,-1.38184,-1.40137,-1.42578,-1.44531,-1.45996,-1.47949,-1.49536,-1.50879,-1.51978,-1.51489,-1.50024,-1.46973,-1.40991,-1.32935,-1.22192,-1.09253,-0.94604,-0.76904,-0.58105,-0.37964,-0.1709,0.04761,0.26978,0.49438,0.71655,0.93018,1.12549,1.30981,1.47217,1.61377,1.73462,1.83472,1.92505,1.99341,2.0459,2.08252,2.10693,2.1167,2.12036,2.11548,2.10083,2.08618,2.06299,2.04224,2.01904,1.99585,1.9751,1.94824,1.92383,1.90674,1.88477,1.86157,1.84326,1.82129,1.7981,1.77246,1.7395,1.71143,1.67114,1.62842,1.57349,1.51123,1.4502,1.38184,1.31836,1.25244,1.18774,1.12427,1.05957,1.00098,0.94116,0.88501,0.83618,0.79224,0.74951,0.71045,0.67383,0.63965,0.60791,0.57861,0.54565,0.51636,0.4895,0.45776,0.42725,0.39673,0.36133,0.32715,0.29419,0.25513,0.21362,0.17212,0.13184,0.08911,0.05005,0.00488,-0.03418,-0.07446,-0.11963,-0.16602,-0.21484,-0.26123,-0.30762,-0.354,-0.39673,-0.44312,-0.48706,-0.52979,-0.57251,-0.61279,-0.65796,-0.69824,-0.73608,-0.77759,-0.81299,-0.85205,-0.88623,-0.91797,-0.95215,-0.98511,-1.01929,-1.04858,-1.08032,-1.1084,-1.13647,-1.16577,-1.19263,-1.2146,-1.24023,-1.26099,-1.28906,-1.31226,-1.33789,-1.36108,-1.38428,-1.40015,-1.4209,-1.43799,-1.45996,-1.48071,-1.4978,-1.51611,-1.53442,-1.55273,-1.56982,-1.58447,-1.60156,-1.61743,-1.63696,-1.65649,-1.67847,-1.69922,-1.72241,-1.74438,-1.76392,-1.78223,-1.80054,-1.81763,-1.8335,-1.84937,-1.86035,-1.86279,-1.85181,-1.82617,-1.77734,-1.70654,-1.61011,-1.49048,-1.35132,-1.19141,-1.0144,-0.8252,-0.62378,-0.41992,-0.20142,0.01465,0.22827,0.43335,0.62988,0.80444,0.96436,1.10718,1.23413,1.34033,1.43188,1.50757,1.56738,1.61621,1.65283,1.6748,1.68701,1.69312,1.69434,1.69312,1.68579,1.68091,1.67236,1.66016,1.65161,1.63818,1.62598,1.61255,1.5979,1.58203,1.56738,1.55273,1.53564,1.51978,1.49902,1.47095,1.43677,1.39893,1.35376,1.30615,1.25488,1.20239,1.14502,1.08521,1.01685,0.95947,0.89233,0.83252,0.77026,0.70923,0.6543,0.59814,0.5481,0.50293,0.45776,0.41626,0.37476,0.33569,0.29907,0.26367,0.23071,0.19897,0.16479,0.13428,0.09888,0.0647,0.0293,-0.01099,-0.04395,-0.08423,-0.12207,-0.16479,-0.2002,-0.23804,-0.28198,-0.32471,-0.37109,-0.41748,-0.46021,-0.50903,-0.5542,-0.59692,-0.63965,-0.68237,-0.72144,-0.7605,-0.80322,-0.84351,-0.88745,-0.92285,-0.95947,-0.99731,-1.03271,-1.07056,-1.10352,-1.1377,-1.1731,-1.20483,-1.24023,-1.27197,-1.30371,-1.33545,-1.36475,-1.39526,-1.42456,-1.4502,-1.48071,-1.50757,-1.53564,-1.56006,-1.58447,-1.60767,-1.62598,-1.64673,-1.66748,-1.68701,-1.70898,-1.72974,-1.75293,-1.77124,-1.78955,-1.80786,-1.82373,-1.83838,-1.85303,-1.86523,-1.8811,-1.89819,-1.91284,-1.93115,-1.94946,-1.96655,-1.97754,-1.99707,-2.01294,-2.02759,-2.0459,-2.05933,-2.07764,-2.09473,-2.11304,-2.13135,-2.14844,-2.16064,-2.17773,-2.19116,-2.20947,-2.22778,-2.23633,-2.24731,-2.24609,-2.23633,-2.21191,-2.1582,-2.09351,-2.00684,-1.90674,-1.79321,-1.65283,-1.50757,-1.34888,-1.18286,-1.01196,-0.83496,-0.65918,-0.48584,-0.32104,-0.16846,-0.02319,0.10986,0.22705,0.33447,0.4248,0.51392,0.58228,0.64331,0.68604,0.72388,0.75073,0.77148,0.78735,0.79956,0.81055,0.81665,0.82153,0.8252,0.8252,0.8252,0.82764,0.82764,0.82886,0.83008,0.83252,0.83252,0.83252,0.83496,0.8252,0.82031,0.80322,0.78491,0.76294,0.73853,0.71045,0.67871,0.64209,0.60669,0.56396,0.51758,0.4834,0.44189,0.40283,0.36865,0.32959,0.30029,0.26855,0.2417,0.2124,0.18188,0.15869,0.13306,0.11108,0.09033,0.06958,0.05127,0.03296,0.01221,-0.01221,-0.03784,-0.06348,-0.09033,-0.11963,-0.14648,-0.17456,-0.19897,-0.22949,-0.25635,-0.29053,-0.32349,-0.35522,-0.38818,-0.42114,-0.45044,-0.48584,-0.51392,-0.54688,-0.57861,-0.61279,-0.64697,-0.67871,-0.71045,-0.74341,-0.77393,-0.80078,-0.82642,-0.85449,-0.88013,-0.90332,-0.93262,-0.95947,-0.98511,-1.00952,-1.03027,-1.05469,-1.07544,-1.09375,-1.1145,-1.13892,-1.15601,-1.17676,-1.19629,-1.21216,-1.23169,-1.24023,-1.25122,-1.26465,-1.27563,-1.29272,-1.30371,-1.31836,-1.33301,-1.34521,-1.35498,-1.36475,-1.36963,-1.38184,-1.39038,-1.40625,-1.41724,-1.427,-1.43799,-1.44775,-1.45508,-1.46606,-1.47583,-1.48926,-1.50024,-1.51978,-1.53442,-1.54785,-1.56616,-1.57837,-1.59302,-1.60278,-1.61255,-1.61987,-1.62476,-1.62476,-1.61255,-1.58813,-1.54907,-1.49658,-1.4209,-1.33545,-1.23047,-1.11938,-0.99487,-0.87036,-0.7373,-0.60791,-0.47607,-0.3479,-0.22827,-0.1123,-0.00244,0.09521,0.18311,0.25757,0.32227,0.37598,0.4187,0.45654,0.48584,0.51025,0.52856,0.53955,0.5481,0.55664,0.55298,0.55908,0.55908,0.5603,0.5603,0.56274,0.56274,0.56396,0.56641,0.56519,0.56519,0.56763,0.56519,0.56396,0.55664,0.54688,0.53711,0.52124,0.50415,0.48096,0.45776,0.43091,0.40039,0.36865,0.34058,0.31494,0.29053,0.26733,0.2478,0.22095,0.20142,0.18311,0.16724,0.15137,0.14282,0.13672,0.13306,0.12451,0.11719,0.11597,0.10864,0.1001,0.09155,0.08179,0.07324,0.06592,0.05737,0.04517,0.0293,0.01343,-0.00366,-0.02319,-0.04272,-0.0647,-0.08423,-0.10498,-0.12695,-0.15381,-0.17456,-0.19897,-0.22217,-0.24658,-0.26855,-0.29175,-0.31616,-0.33691,-0.36011,-0.38452,-0.40527,-0.42847,-0.448,-0.46753,-0.48462,-0.50293,-0.52002,-0.53711,-0.55176,-0.56396,-0.57983,-0.5957,-0.60913,-0.62256,-0.63721,-0.64209,-0.65063,-0.65674,-0.66284,-0.67505,-0.67871,-0.68726,-0.6958,-0.70435,-0.71655,-0.72144,-0.72754,-0.73364,-0.73853,-0.75073,-0.75806,-0.76904,-0.78125,-0.79224,-0.80688,-0.81543,-0.82642,-0.83862,-0.84473,-0.85693,-0.8667,-0.87524,-0.88745,-0.89478,-0.90698,-0.91309,-0.91309,-0.90576,-0.88257,-0.84839,-0.79712,-0.7312,-0.65186,-0.5603,-0.46021,-0.34546,-0.22949,-0.11108,0.01099,0.12207,0.2356,0.34424,0.44312,0.53223,0.60913,0.67993,0.74097,0.79224,0.83984,0.87402,0.90454,0.92896,0.94727,0.96436,0.97046,0.979,0.98511,0.98999,0.99487,0.99731,1.00098,1.00342,1.00464,1.00464,1.00586,1.00708,1.0083,1.01074,1.01807,1.02051,1.02539,1.02539,1.02295,1.01807,1.00708,0.99243,0.97412,0.95337,0.93018,0.9021,0.87646,0.84961,0.82397,0.80078,0.76782,0.74341,0.71899,0.6958,0.67505,0.65796,0.64087,0.62256,0.60791,0.58594,0.57495,0.56152,0.5481,0.53467,0.5188,0.50781,0.49438,0.48096,0.46631,0.448,0.43091,0.41504,0.39795,0.3772,0.35645,0.33447,0.31372,0.29053,0.26611,0.2417,0.21606,0.19165,0.16724,0.14038,0.11597,0.09033,0.06714,0.04272,0.01709,-0.00732,-0.03174,-0.05371,-0.07568,-0.09399,-0.11597,-0.1355,-0.15503,-0.177,-0.19653,-0.21973,-0.2417,-0.25879,-0.27466,-0.29785,-0.30762,-0.32349,-0.34058,-0.354,-0.37109,-0.38696,-0.40283,-0.41748,-0.43091,-0.44556,-0.45532,-0.46631,-0.48218,-0.49072,-0.50415,-0.51514,-0.52979,-0.54199,-0.55542,-0.57007,-0.57739,-0.58716,-0.5957,-0.60425,-0.61768,-0.63232,-0.64941,-0.66406,-0.67627,-0.69336,-0.70557,-0.71899,-0.72998,-0.74097,-0.75073,-0.75684,-0.76294,-0.7605,-0.75317,-0.73486,-0.69946,-0.65186,-0.58838,-0.51147,-0.42725,-0.32959,-0.22949,-0.11719,-0.00854,0.10986,0.22583,0.33691,0.44189,0.53833,0.63354,0.71655,0.78857,0.85205,0.9082,0.94727,0.98267,1.01074,1.03638,1.05347,1.06812,1.08032,1.08521,1.09131,1.09741,1.10107,1.10718,1.1145,1.11938,1.12183,1.11816,1.12305,1.12427,1.12793,1.13281,1.13525,1.14014,1.1438,1.1438,1.14502,1.14014,1.13403,1.12183,1.1084,1.09375,1.06934,1.04736,1.02173,0.99731,0.96802,0.94238,0.91553,0.88745,0.85693,0.8252,0.80078,0.77759,0.75195,0.7312,0.70801,0.69214,0.67627,0.65674,0.64087,0.61768,0.60303,0.5896,0.57617,0.5603,0.54443,0.52856,0.5127,0.49438,0.47485,0.45654,0.43579,0.41748,0.39551,0.37476,0.35156,0.32715,0.3064,0.27954,0.25391,0.22827,0.20508,0.18188,0.15869,0.1355,0.1123,0.09033,0.06714,0.0415,0.01831,-0.00366,-0.03174,-0.05005,-0.07202,-0.08789,-0.1123,-0.13306,-0.15137,-0.17334,-0.19775,-0.21362,-0.23438,-0.24658,-0.26367,-0.28809,-0.30029,-0.31982,-0.33813,-0.35889,-0.37842,-0.39307,-0.40649,-0.41992,-0.43213,-0.44434,-0.45654,-0.46875,-0.47607,-0.4895,-0.50537,-0.52002,-0.53345,-0.54443,-0.55664,-0.57007,-0.58105,-0.59326,-0.60547,-0.62134,-0.63599,-0.64941,-0.66528,-0.67749,-0.69336,-0.70557,-0.72021,-0.73486,-0.74707,-0.76416,-0.77637,-0.79102,-0.80444,-0.81787,-0.82397,-0.83008,-0.82397,-0.80811,-0.77637,-0.72998,-0.67139,-0.59692,-0.50659,-0.40405,-0.29785,-0.17456,-0.05249,0.06958,0.18799,0.29907,0.41138,0.51758,0.61035,0.6958,0.7666,0.8374,0.89478,0.94482,0.98755,1.01929,1.04004,1.06079,1.07544,1.08643,1.09619,1.10229,1.11084,1.11816,1.12305,1.12549,1.12915,1.13281,1.13403,1.13647,1.13892,1.14258,1.1499,1.15479,1.15845,1.16333,1.16333,1.16455,1.16211,1.15723,1.14868,1.13525,1.11572,1.09497,1.073,1.04248,1.02051,0.99243,0.9668,0.93994,0.91064,0.88989,0.86426,0.84106,0.82031,0.79468,0.77637,0.75806,0.73853,0.72266,0.70679,0.69458,0.67871,0.66284,0.64819,0.62744,0.61035,0.5896,0.57251,0.55786,0.53589,0.5188,0.50049,0.48096,0.46143,0.43457,0.4126,0.38574,0.36133,0.33325,0.30518,0.28076,0.25513,0.22705,0.20142,0.17212,0.14282,0.1123,0.08545,0.0647,0.03662,0.01465,-0.00977,-0.03296,-0.05615,-0.08057,-0.1062,-0.12817,-0.15137,-0.18066,-0.19653,-0.21729,-0.23315,-0.25269,-0.27344,-0.29297,-0.31372,-0.33325,-0.35645,-0.37842,-0.39429,-0.4126,-0.42847,-0.44434,-0.46021,-0.47852,-0.49438,-0.50903,-0.52612,-0.54199,-0.5542,-0.56396,-0.57129,-0.58228,-0.5957,-0.61035,-0.62378,-0.63599,-0.64819,-0.66162,-0.67139,-0.68237,-0.69092,-0.70679,-0.71777,-0.73364,-0.74707,-0.76416,-0.77881,-0.79834,-0.81421,-0.82886,-0.84106,-0.85205,-0.86792,-0.88257,-0.896,-0.9082,-0.91553,-0.92285,-0.91797,-0.90576,-0.87524,-0.8374,-0.77026,-0.69702,-0.60791,-0.50781,-0.40039,-0.28076,-0.15503,-0.0293,0.09521,0.21484,0.33325,0.43945,0.53955,0.63232,0.71045,0.78491,0.84961,0.90454,0.95215,0.98267,1.01929,1.04126,1.06079,1.073,1.0791,1.08765,1.09375,1.09619,1.10107,1.10596,1.10474,1.10352,1.10107,1.09985,1.09619,1.09619,1.09863,1.09863,1.10107,1.09863,1.10474,1.10229,1.09985,1.09253,1.07666,1.06445,1.04736,1.02783,1.0083,0.98267,0.95947,0.9314,0.90454,0.87646,0.84717,0.82397,0.80078,0.78125,0.76172,0.73975,0.72266,0.70313,0.68604,0.67139,0.65552,0.64087,0.62866,0.61401,0.60547,0.59082,0.57861,0.56274,0.54932,0.53711,0.51636,0.50049,0.48218,0.46265,0.44067,0.4187,0.39673,0.37109,0.34546,0.31494,0.29053,0.26367,0.23682,0.21118,0.18433,0.15625,0.13428,0.1062,0.0769,0.05005,0.02075,-0.0061,-0.0293,-0.05371,-0.07446,-0.09644,-0.11719,-0.13916,-0.16113,-0.18677,-0.21118,-0.23071,-0.25269,-0.27466,-0.29053,-0.31006,-0.32593,-0.34668,-0.36377,-0.3833,-0.40283,-0.42114,-0.43823,-0.45166,-0.46753,-0.47974,-0.4895,-0.50415,-0.52002,-0.52734,-0.54077,-0.5542,-0.56885,-0.58594,-0.59326,-0.60547,-0.6189,-0.63721,-0.65674,-0.67261,-0.6897,-0.70557,-0.72021,-0.7373,-0.75195,-0.76782,-0.78369,-0.802,-0.81787,-0.83374,-0.85083,-0.86548,-0.87891,-0.89233,-0.89355,-0.88745,-0.8667,-0.83374,-0.78857,-0.7251,-0.64819,-0.55542,-0.45288,-0.33936,-0.21729,-0.09399,0.03174,0.15503,0.27344,0.39063,0.50049,0.59937,0.69214,0.7666,0.83618,0.89478,0.94238,0.98022,1.00586,1.02295,1.03516,1.04126,1.0498,1.05347,1.05713,1.05591,1.05713,1.05225,1.04736,1.0437,1.03638,1.03271,1.02905,1.02295,1.02539,1.02417,1.02295,1.02051,1.01318,1.0083,0.99487,0.98267,0.9729,0.94971,0.93018,0.90454,0.87646,0.85327,0.81909,0.79102,0.7605,0.73364,0.70679,0.68359,0.66528,0.64453,0.625,0.61035,0.60059,0.5896,0.57739,0.56763,0.55542,0.54565,0.53955,0.52856,0.52124,0.50903,0.49683,0.4834,0.46875,0.45166,0.43335,0.41626,0.39673,0.37354,0.35278,0.32593,0.29907,0.26978,0.23926,0.20752,0.17822,0.15015,0.12329,0.09277,0.06714,0.0354,0.00732,-0.02075,-0.04761,-0.07813,-0.1001,-0.12573,-0.14771,-0.1709,-0.2002,-0.22095,-0.24292,-0.26489,-0.28931,-0.31372,-0.33203,-0.35156,-0.36621,-0.3833,-0.40283,-0.41992,-0.43701,-0.4541,-0.47241,-0.48828,-0.50171,-0.51392,-0.52368,-0.53711,-0.55176,-0.56396,-0.57983,-0.59326,-0.60913,-0.62378,-0.63721,-0.64941,-0.66162,-0.67749,-0.69092,-0.70557,-0.72144,-0.73486,-0.74829,-0.76538,-0.78003,-0.7959,-0.80811,-0.82275,-0.83252,-0.84229,-0.84961,-0.84961,-0.84717,-0.81909,-0.78003,-0.7251,-0.65552,-0.57129,-0.47363,-0.36621,-0.2478,-0.12329,0.00366,0.13794,0.26978,0.39917,0.52734,0.64575,0.75684,0.85693,0.94604,1.02295,1.08887,1.14624,1.19263,1.23047,1.26343,1.28296,1.30127,1.31592,1.32324,1.32568,1.32202,1.32446,1.32568,1.32568,1.32446,1.31714,1.31958,1.3147,1.31348,1.31226,1.30371,1.30493,1.30127,1.29517,1.29395,1.28296,1.27319,1.25732,1.23779,1.21338,1.1853,1.15845,1.12549,1.09009,1.05835,1.01929,0.98511,0.94971,0.91431,0.88135,0.84595,0.81543,0.78857,0.76416,0.74707,0.7251,0.70923,0.69458,0.67749,0.6604,0.63965,0.62134,0.60303,0.58228,0.5603,0.54321,0.52246,0.50049,0.47363,0.44312,0.41382,0.38696,0.35645,0.32471,0.29175,0.26123,0.23071,0.19653,0.16479,0.13062,0.09521,0.0647,0.03296,0.00244,-0.03052,-0.06104,-0.09033,-0.11841,-0.15015,-0.18188,-0.21484,-0.24658,-0.27954,-0.31006,-0.33813,-0.36255,-0.39063,-0.41626,-0.43823,-0.46875,-0.49561,-0.5127,-0.53345,-0.5542,-0.57495,-0.59448,-0.61401,-0.6311,-0.6543,-0.66528,-0.68359,-0.70068,-0.71655,-0.73608,-0.74951,-0.76538,-0.77881,-0.79346,-0.80933,-0.82397,-0.84229,-0.85693,-0.87402,-0.89233,-0.9082,-0.92529,-0.94238,-0.95825,-0.98022,-0.99365,-1.0144,-1.03027,-1.04126,-1.0498,-1.04614,-1.03394,-1.00586,-0.96313,-0.9021,-0.82397,-0.7312,-0.62378,-0.49927,-0.37476,-0.23315,-0.08789,0.06104,0.20508,0.35278,0.49316,0.62256,0.74463,0.85205,0.95337,1.04248,1.11938,1.18286,1.23901,1.27808,1.3147,1.34033,1.35864,1.36719,1.37573,1.38306,1.38672,1.38916,1.38794,1.38672,1.38306,1.37817,1.37207,1.36841,1.36597,1.36841,1.36841,1.36597,1.36963,1.35742,1.35254,1.34399,1.32935,1.30615,1.28906,1.26465,1.23291,1.19995,1.15967,1.12183,1.08276,1.04004,0.99731,0.95093,0.91064,0.87036,0.83252,0.79346,0.75928,0.72754,0.6958,0.66284,0.63232,0.60303,0.57617,0.55298,0.52979,0.50415,0.47729,0.45166,0.42725,0.39917,0.37354,0.34668,0.3186,0.29053,0.26245,0.2356,0.20142,0.16724,0.12939,0.09521,0.05493,0.01709,-0.02075,-0.05371,-0.08911,-0.12817,-0.15747,-0.19165,-0.22705,-0.26367,-0.30273,-0.33691,-0.36987,-0.40039,-0.42969,-0.46143,-0.48584,-0.51636,-0.54443,-0.57495,-0.60425,-0.63354,-0.6604,-0.68726,-0.71167,-0.7373,-0.75928,-0.78369,-0.802,-0.82397,-0.84717,-0.8667,-0.88867,-0.90454,-0.92041,-0.93994,-0.95337,-0.96924,-0.98389,-1.00342,-1.02051,-1.0376,-1.05591,-1.073,-1.09009,-1.11206,-1.13037,-1.1499,-1.16821,-1.19019,-1.21216,-1.22925,-1.24878,-1.26709,-1.28784,-1.30005,-1.31348,-1.32935,-1.34277,-1.35986,-1.36353,-1.36353,-1.3501,-1.3208,-1.27686,-1.20972,-1.12427,-1.02539,-0.90942,-0.78491,-0.64331,-0.49438,-0.33813,-0.17578,-0.01709,0.14282,0.29663,0.44434,0.58105,0.70068,0.80811,0.90698,0.99121,1.05957,1.11938,1.16699,1.20483,1.23291,1.25732,1.26587,1.27686,1.28052,1.28052,1.2793,1.27197,1.27563,1.27319,1.26953,1.26343,1.25122,1.25,1.24512,1.24146,1.23901,1.23169,1.22803,1.22314,1.21216,1.19873,1.17554,1.15234,1.12305,1.09009,1.05591,1.01563,0.97656,0.9375,0.89355,0.85327,0.80566,0.76294,0.71899,0.67627,0.63721,0.59937,0.56519,0.53589,0.50537,0.47852,0.44556,0.4187,0.39307,0.36621,0.34546,0.32104,0.29785,0.2771,0.25146,0.21973,0.19409,0.16602,0.1355,0.10376,0.0708,0.04395,0.01343,-0.01831,-0.05249,-0.08667,-0.12207,-0.15625,-0.19409,-0.23071,-0.26733,-0.30151,-0.33203,-0.36743,-0.40405,-0.43579,-0.47241,-0.50659,-0.54077,-0.57373,-0.60547,-0.63721,-0.66528,-0.68726,-0.71167,-0.7373,-0.76416,-0.78979,-0.81421,-0.83862,-0.86426,-0.88623,-0.90698,-0.92651,-0.94849,-0.96924,-0.98877,-1.0144,-1.03516,-1.05225,-1.07422,-1.09131,-1.10962,-1.12427,-1.14502,-1.16089,-1.18042,-1.19751,-1.21704,-1.24268,-1.2561,-1.27319,-1.28784,-1.30249,-1.31836,-1.32935,-1.34277,-1.3501,-1.35132,-1.34277,-1.3147,-1.27075,-1.20972,-1.13159,-1.03882,-0.92896,-0.80933,-0.67871,-0.53955,-0.39551,-0.24658,-0.09521,0.05127,0.2002,0.33203,0.45898,0.56763,0.66528,0.75195,0.82397,0.88501,0.93628,0.97534,1.0083,1.03271,1.05103,1.05957,1.06567,1.06689,1.06445,1.06445,1.05713,1.05103,1.0437,1.03027,1.02295,1.0083,0.99854,0.98877,0.97778,0.96924,0.96191,0.95093,0.94116,0.92407,0.9021,0.87402,0.84106,0.80566,0.76416,0.7251,0.68237,0.64087,0.60181,0.55786,0.51514,0.47241,0.43457,0.40161,0.35889,0.32471,0.29297,0.26245,0.23193,0.20874,0.18433,0.15869,0.13306,0.10742,0.08545,0.06348,0.0415,0.02075,-0.00366,-0.02686,-0.05127,-0.08057,-0.10986,-0.13794,-0.16724,-0.19775,-0.22461,-0.25513,-0.28564,-0.3186,-0.34668,-0.38452,-0.41626,-0.45166,-0.48462,-0.5188,-0.55054,-0.5835,-0.61279,-0.64453,-0.67261,-0.70557,-0.73242,-0.76416,-0.79224,-0.82031,-0.84595,-0.87646,-0.89722,-0.92163,-0.9436,-0.97168,-0.99854,-1.02173,-1.04858,-1.07178,-1.09253,-1.1145,-1.13037,-1.1499,-1.16821,-1.18896,-1.21094,-1.22803,-1.24512,-1.26343,-1.27686,-1.29272,-1.30493,-1.3208,-1.33423,-1.34644,-1.36597,-1.37939,-1.3855,-1.38428,-1.36841,-1.33789,-1.28906,-1.22803,-1.14746,-1.05469,-0.95215,-0.8374,-0.71045,-0.57983,-0.44312,-0.30029,-0.15747,-0.01953,0.11475,0.24048,0.35278,0.45654,0.54321,0.6189,0.68604,0.73853,0.78369,0.81665,0.84229,0.85693,0.86792,0.8728,0.87524,0.87158,0.86914,0.8606,0.85693,0.84717,0.83984,0.83008,0.81665,0.80566,0.7959,0.78369,0.77881,0.76904,0.76294,0.75195,0.73853,0.71777,0.69214,0.6665,0.63232,0.59692,0.56152,0.51636,0.47852,0.43701,0.39795,0.35522,0.31738,0.27954,0.24048,0.20264,0.1709,0.14038,0.11597,0.08911,0.06714,0.0415,0.01953,-0.00244,-0.02319,-0.04517,-0.06226,-0.08179,-0.1001,-0.11719,-0.13916,-0.16113,-0.18311,-0.2063,-0.23071,-0.25513,-0.28076,-0.30762,-0.33203,-0.36133,-0.3894,-0.42114,-0.45044,-0.47974,-0.51025,-0.53711,-0.57007,-0.59937,-0.625,-0.65308,-0.68115,-0.71045,-0.73975,-0.76904,-0.79712,-0.83008,-0.85205,-0.87769,-0.89844,-0.92163,-0.94604,-0.97046,-0.99243,-1.0144,-1.0376,-1.05957,-1.07788,-1.09863,-1.11694,-1.13892,-1.15723,-1.17798,-1.19629,-1.21338,-1.23047,-1.24756,-1.26099,-1.27563,-1.28784,-1.30127,-1.31836,-1.33301,-1.34521,-1.3562,-1.36597,-1.37085,-1.36597,-1.34888,-1.31592,-1.26709,-1.20239,-1.12061,-1.02661,-0.91797,-0.7959,-0.6665,-0.53101,-0.39185,-0.25269,-0.12085,0.01709,0.14526,0.26245,0.36987,0.46631,0.54443,0.61646,0.67749,0.72632,0.76294,0.79346,0.81421,0.82397,0.83496,0.83618,0.8374,0.8374,0.83618,0.83374,0.82886,0.8252,0.81665,0.80688,0.79712,0.78857,0.77881,0.77271,0.76416,0.75928,0.74829,0.73608,0.72021,0.69946,0.67505,0.64453,0.61035,0.57861,0.54443,0.51025,0.47852,0.43945,0.40405,0.36865,0.33813,0.30762,0.27954,0.25391,0.23071,0.20874,0.18555,0.1709,0.15381,0.13672,0.11963,0.10254,0.09033,0.0769,0.06104,0.04639,0.0293,0.01099,-0.00732,-0.02808,-0.05005,-0.07568,-0.10132,-0.12451,-0.15259,-0.177,-0.20874,-0.23193,-0.26001,-0.28809,-0.31616,-0.34912,-0.37842,-0.40771,-0.43579,-0.46143,-0.4895,-0.51514,-0.54321,-0.57373,-0.59814,-0.6311,-0.65308,-0.67505,-0.69702,-0.71777,-0.74097,-0.76172,-0.78369,-0.80811,-0.8374,-0.85571,-0.88013,-0.9021,-0.92529,-0.94727,-0.96436,-0.98267,-1.00098,-1.01929,-1.03882,-1.05713,-1.07056,-1.08521,-1.10107,-1.11328,-1.12427,-1.13525,-1.14136,-1.1499,-1.15356,-1.1499,-1.13892,-1.11328,-1.07056,-1.01196,-0.93628,-0.84473,-0.73975,-0.625,-0.50049,-0.36865,-0.23193,-0.09155,0.05005,0.18555,0.3186,0.44434,0.55664,0.65796,0.74219,0.81543,0.87524,0.92651,0.96924,1.0022,1.02661,1.04126,1.04858,1.05225,1.04858,1.04004,1.03149,1.02051,1.0083,0.99976,0.98877,0.979,0.9668,0.95703,0.94727,0.93506,0.92529,0.91431,0.90088,0.88623,0.87036,0.84839,0.82275,0.79224,0.75928,0.72632,0.69092,0.65674,0.625,0.58716,0.5542,0.52368,0.49438,0.46021,0.43579,0.40771,0.3833,0.36011,0.33813,0.32349,0.30762,0.29175,0.27588,0.26001,0.24658,0.22949,0.21118,0.19165,0.16968,0.15259,0.13184,0.11353,0.09033,0.06836,0.04639,0.02075,-0.0061,-0.03052,-0.05859,-0.08545,-0.1123,-0.14038,-0.16968,-0.20264,-0.23193,-0.26489,-0.29419,-0.32104,-0.35522,-0.38086,-0.41138,-0.43823,-0.46875,-0.49561,-0.52124,-0.5481,-0.57495,-0.60059,-0.62012,-0.63843,-0.65918,-0.67871,-0.7019,-0.71777,-0.73486,-0.75562,-0.77393,-0.79468,-0.81421,-0.83008,-0.84717,-0.86548,-0.88257,-0.90088,-0.92041,-0.93994,-0.95459,-0.9729,-0.98511,-0.99365,-0.99854,-0.99487,-0.98389,-0.95825,-0.91675,-0.86304,-0.78979,-0.70068,-0.59692,-0.47852,-0.3479,-0.20874,-0.0708,0.07202,0.2124,0.3479,0.47607,0.60425,0.72021,0.82764,0.92163,1.0083,1.07056,1.12793,1.1731,1.20605,1.23291,1.25244,1.26587,1.27441,1.28174,1.2854,1.2854,1.28296,1.28174,1.27808,1.27563,1.26709,1.26465,1.26099,1.2561,1.25366,1.25122,1.24634,1.24268,1.23291,1.22314,1.20361,1.18286,1.15845,1.13159,1.09131,1.06079,1.01929,0.97656,0.93262,0.88379,0.84229,0.802,0.76538,0.72998,0.69214,0.66162,0.62988,0.59937,0.56763,0.53711,0.51025,0.48584,0.46265,0.43945,0.4126,0.39185,0.37354,0.34668,0.32227,0.29541,0.26855,0.24414,0.22095,0.19775,0.16968,0.1416,0.10986,0.07935,0.04028,0.01099,-0.02319,-0.05981,-0.09644,-0.13062,-0.16479,-0.19897,-0.23315,-0.26733,-0.30518,-0.33691,-0.36987,-0.40161,-0.42969,-0.46021,-0.48706,-0.51392,-0.54077,-0.56519,-0.59692,-0.62256,-0.64941,-0.67627,-0.69336,-0.72266,-0.74463,-0.76904,-0.79102,-0.81909,-0.83862,-0.85815,-0.88013,-0.90088,-0.92041,-0.93994,-0.95703,-0.97168,-0.99243,-1.00952,-1.02539,-1.03882,-1.0498,-1.05347,-1.05103,-1.03638,-1.0083,-0.96313,-0.89966,-0.82275,-0.72998,-0.62012,-0.49805,-0.36865,-0.22705,-0.08301,0.06348,0.20874,0.35034,0.48584,0.61279,0.72876,0.83252,0.92651,1.00586,1.07544,1.13525,1.18286,1.22437,1.25244,1.27075,1.28296,1.29028,1.29517,1.29639,1.29639,1.29517,1.29395,1.29272,1.28784,1.2793,1.27075,1.26221,1.25977,1.25488,1.25,1.24268,1.23657,1.22681,1.21216,1.19019,1.16577,1.13403,1.09131,1.05835,1.01685,0.97046,0.92407,0.8728,0.82764,0.77881,0.73486,0.69092,0.64575,0.60425,0.56274,0.52246,0.48462,0.44678,0.41504,0.38208,0.35278,0.32471,0.29419,0.26855,0.24536,0.21851,0.19531,0.16968,0.14404,0.11475,0.08545,0.05859,0.02441,-0.00732,-0.03906,-0.0708,-0.10986,-0.14526,-0.18066,-0.22339,-0.26245,-0.30518,-0.34058,-0.3772,-0.4126,-0.44678,-0.4834,-0.52124,-0.55542,-0.5957,-0.63232,-0.6665,-0.69702,-0.72754,-0.75806,-0.78247,-0.81177,-0.8374,-0.85938,-0.88379,-0.90576,-0.92896,-0.95215,-0.9729,-0.99487,-1.01563,-1.03638,-1.05713,-1.07666,-1.09863,-1.1145,-1.13647,-1.15601,-1.17065,-1.18896,-1.21094,-1.22681,-1.2439,-1.26343,-1.28418,-1.30493,-1.31958,-1.33789,-1.35498,-1.37085,-1.38916,-1.40259,-1.41479,-1.42334,-1.43188,-1.43311,-1.42334,-1.40747,-1.36475,-1.30859,-1.23779,-1.14746,-1.04248,-0.92041,-0.79224,-0.65063,-0.50293,-0.34912,-0.19775,-0.04761,0.09766,0.2356,0.36133,0.47485,0.57739,0.66162,0.73853,0.80322,0.85449,0.896,0.9314,0.95947,0.98267,0.99854,1.00952,1.01318,1.01685,1.01685,1.01685,1.01929,1.0144,1.01318,1.00708,1.0022,0.99487,0.98633,0.979,0.96924,0.96313,0.95337,0.9375,0.92285,0.90088,0.87646,0.84839,0.81421,0.77881,0.74219,0.70435,0.65674,0.61768,0.57861,0.53589,0.49561,0.44556,0.40771,0.36499,0.32715,0.29175,0.25635,0.22705,0.19897,0.17212,0.14771,0.11841,0.09521,0.07202,0.04883,0.02563,0.00244,-0.02197,-0.04639,-0.07202,-0.09399,-0.12573,-0.15381,-0.18188,-0.20996,-0.23926,-0.27222,-0.30518,-0.33813,-0.37109,-0.40283,-0.43823,-0.47119,-0.50537,-0.54077,-0.57251,-0.60425,-0.63721,-0.66528,-0.69702,-0.72876,-0.75806,-0.78613,-0.81421,-0.84106,-0.87158,-0.89111,-0.91553,-0.93506,-0.95703,-0.98022,-1.00342,-1.02417,-1.04736,-1.06812,-1.09131,-1.1084,-1.12671,-1.1438,-1.15967,-1.17432,-1.19263,-1.20972,-1.22437,-1.24146,-1.25488,-1.26831,-1.28052,-1.29028,-1.30127,-1.31226,-1.32446,-1.33667,-1.34766,-1.36475,-1.37939,-1.39282,-1.40625,-1.41602,-1.42944,-1.44287,-1.45752,-1.47339,-1.49048,-1.50635,-1.51855,-1.52832,-1.53564,-1.54053,-1.54785,-1.53564,-1.52466,-1.49658,-1.45142,-1.39404,-1.30981,-1.21338,-1.10107,-0.97168,-0.8374,-0.68726,-0.53955,-0.38452,-0.2356,-0.08911,0.05127,0.18677,0.31494,0.42969,0.52856,0.61768,0.68848,0.75073,0.80322,0.83984,0.87524,0.89722,0.91431,0.92651,0.92651,0.93628,0.93506,0.93384,0.92773,0.92041,0.91431,0.9082,0.90088,0.89478,0.88623,0.88501,0.87769,0.8728,0.86548,0.85693,0.84717,0.8374,0.82153,0.80322,0.77515,0.74829,0.71289,0.67749,0.64087,0.60181,0.56274,0.52612,0.4895,0.4541,0.42114,0.39185,0.35767,0.32593,0.30029,0.271,0.24658,0.22827,0.20508,0.18555,0.16968,0.15259,0.13306,0.11475,0.09277,0.07202,0.05127,0.03052,0.01099,-0.00977,-0.03052,-0.05127,-0.07568,-0.1001,-0.12817,-0.15625,-0.18555,-0.21484,-0.24658,-0.27588,-0.30762,-0.34058,-0.37109,-0.40283,-0.43823,-0.47241,-0.50293,-0.53345,-0.56763,-0.5896,-0.61646,-0.64453,-0.67139,-0.69824,-0.72266,-0.74463,-0.77026,-0.79102,-0.81421,-0.8313,-0.85205,-0.86914,-0.88989,-0.90698,-0.92163,-0.93628,-0.95337,-0.96558,-0.98389,-0.99487,-1.00708,-1.01929,-1.03516,-1.04858,-1.06323,-1.07666,-1.09009,-1.10107,-1.11206,-1.11938,-1.13159,-1.14014,-1.15112,-1.16577,-1.17432,-1.18652,-1.19751,-1.21216,-1.21948,-1.22803,-1.23901,-1.24756,-1.26221,-1.27075,-1.28418,-1.29639,-1.31226,-1.32324,-1.33545,-1.34521,-1.3562,-1.35742,-1.35498,-1.33667,-1.30493,-1.25854,-1.19141,-1.10718,-1.00708,-0.89111,-0.76538,-0.62744,-0.48706,-0.33813,-0.18677,-0.03906,0.10986,0.24658,0.37964,0.50293,0.61035,0.70557,0.78247,0.85083,0.90454,0.94971,0.98511,1.01318,1.03516,1.05225,1.06079,1.06689,1.06323,1.05591,1.0437,1.03394,1.02539,1.01074,0.99854,0.98755,0.97656,0.96436,0.95215,0.9436,0.93384,0.92041,0.9082,0.88867,0.87036,0.84961,0.82764,0.802,0.77148,0.74097,0.70801,0.67261,0.63477,0.60791,0.58105,0.55664,0.53223,0.50781,0.48584,0.46509,0.44189,0.42236,0.40283,0.3894,0.3772,0.36499,0.35645,0.33936,0.32715,0.31372,0.30151,0.28564,0.26978,0.25146,0.23193,0.2124,0.19165,0.1709,0.14893,0.12573,0.1001,0.07202,0.04395,0.01587,-0.01099,-0.03784,-0.07202,-0.09277,-0.12207,-0.15137,-0.18311,-0.21851,-0.2478,-0.27832,-0.30884,-0.33569,-0.36621,-0.39185,-0.42114,-0.448,-0.47485,-0.50415,-0.52612,-0.54688,-0.56885,-0.58594,-0.60669,-0.62378,-0.64453,-0.66406,-0.68359,-0.70313,-0.72144,-0.73853,-0.75562,-0.76416,-0.78491,-0.79712,-0.81177,-0.82764,-0.84473,-0.85571,-0.86792,-0.87769,-0.88867,-0.89844,-0.90576,-0.92163,-0.93262,-0.94482,-0.96069,-0.97656,-0.99121,-1.0022,-1.01318,-1.02051,-1.02539,-1.02173,-1.01318,-0.99365,-0.96313,-0.91553,-0.85083,-0.76782,-0.67017,-0.55664,-0.43335,-0.29907,-0.16235,-0.01953,0.12695,0.26978,0.4126,0.55176,0.67627,0.80444,0.91187,1.0083,1.09009,1.15845,1.21582,1.25732,1.29028,1.31348,1.33301,1.34277,1.34766,1.34766,1.34399,1.34033,1.33057,1.32324,1.3147,1.30493,1.30005,1.29272,1.2854,1.28052,1.27197,1.25977,1.25122,1.23779,1.22314,1.20605,1.18408,1.16455,1.13892,1.10962,1.07422,1.03638,0.99854,0.95825,0.91919,0.88135,0.84473,0.81421,0.78369,0.75562,0.72632,0.69946,0.67749,0.6543,0.63354,0.6189,0.59937,0.58594,0.56885,0.5542,0.53467,0.52246,0.50659,0.4895,0.46997,0.44678,0.42969,0.40771,0.38452,0.36255,0.33691,0.30884,0.27954,0.24658,0.21729,0.18066,0.14771,0.11475,0.08057,0.04517,0.00977,-0.02563,-0.05981,-0.09521,-0.12817,-0.16724,-0.20386,-0.23438,-0.26855,-0.3064,-0.33325,-0.36377,-0.39429,-0.42358,-0.45166,-0.47607,-0.49927,-0.52002,-0.54321,-0.56763,-0.5896,-0.61279,-0.6311,-0.64941,-0.67017,-0.68848,-0.70801,-0.72388,-0.74219,-0.7605,-0.77637,-0.79468,-0.81299,-0.8313,-0.84961,-0.86792,-0.88745,-0.90332,-0.91797,-0.93262,-0.94482,-0.95581,-0.96069,-0.96802,-0.95215,-0.92773,-0.88623,-0.82642,-0.74951,-0.65308,-0.54321,-0.41992,-0.28687,-0.14648,0.0061,0.16235,0.31738,0.47485,0.62744,0.77026,0.90454,1.02173,1.12915,1.21704,1.29639,1.36353,1.41968,1.46851,1.50146,1.53076,1.55151,1.56494,1.57227,1.57104,1.56982,1.5686,1.56372,1.5564,1.54541,1.53564,1.52588,1.51123,1.50024,1.4856,1.47583,1.46606,1.45264,1.44409,1.42456,1.40625,1.38184,1.35376,1.3147,1.2793,1.23901,1.19751,1.15723,1.11328,1.07178,1.02905,0.98633,0.93872,0.89478,0.85083,0.80933,0.77026,0.73486,0.7019,0.67017,0.64331,0.61401,0.59082,0.56396,0.53955,0.51758,0.49561,0.46753,0.45532,0.43457,0.41138,0.38574,0.35767,0.33203,0.30029,0.26978,0.23438,0.20142,0.16846,0.13306,0.1001,0.06592,0.02686,-0.00854,-0.04883,-0.08789,-0.12695,-0.16724,-0.20508,-0.24414,-0.28076,-0.31494,-0.354,-0.38818,-0.4248,-0.4541,-0.49561,-0.52368,-0.55298,-0.58472,-0.61157,-0.63965,-0.66772,-0.69458,-0.72266,-0.74829,-0.77271,-0.79468,-0.81421,-0.83496,-0.85327,-0.87402,-0.89233,-0.91187,-0.9314,-0.95215,-0.97168,-0.99121,-1.00952,-1.03027,-1.04248,-1.06323,-1.08032,-1.09619,-1.11694,-1.13892,-1.1499,-1.16455,-1.17432,-1.18164,-1.18896,-1.18286,-1.16577,-1.13892,-1.09375,-1.02905,-0.94238,-0.83618,-0.71289,-0.57495,-0.42603,-0.26611,-0.09888,0.07324,0.24048,0.41016,0.57495,0.7312,0.87891,1.01318,1.13037,1.23779,1.33057,1.41113,1.47583,1.52588,1.56494,1.59546,1.61865,1.62964,1.63452,1.63696,1.63208,1.62598,1.61255,1.60278,1.58936,1.57837,1.56494,1.55151,1.53687,1.52588,1.51489,1.50269,1.48682,1.47217,1.45508,1.43311,1.41113,1.38428,1.3501,1.31714,1.27563,1.23413,1.1853,1.14014,1.09131,1.04248,0.99487,0.94727,0.9021,0.85815,0.81299,0.77393,0.7312,0.6958,0.66284,0.6311,0.60303,0.57495,0.55176,0.52734,0.50537,0.47974,0.45044,0.42114,0.39063,0.35889,0.32837,0.29175,0.26001,0.22827,0.19531,0.15869,0.12329,0.08423,0.04395,0.00244,-0.0415,-0.0769,-0.12085,-0.16113,-0.20386,-0.2478,-0.29175,-0.33447,-0.3772,-0.41626,-0.45532,-0.49316,-0.53345,-0.56763,-0.60303,-0.63721,-0.67383,-0.70679,-0.73975,-0.77637,-0.80933,-0.8374,-0.86792,-0.89478,-0.92041,-0.94604,-0.97046,-0.99243,-1.01563,-1.03271,-1.05225,-1.07178,-1.09253,-1.11206,-1.13647,-1.1499,-1.16943,-1.19019,-1.2085,-1.23047,-1.24756,-1.26709,-1.2854,-1.30249,-1.32202,-1.33789,-1.35742,-1.37329,-1.39404,-1.41357,-1.42578,-1.44043,-1.44775,-1.45142,-1.4502,-1.43188,-1.39893,-1.34644,-1.27441,-1.18042,-1.06934,-0.93994,-0.80078,-0.64331,-0.48218,-0.30762,-0.13306,0.04395,0.21851,0.39063,0.55542,0.70679,0.84351,0.96313,1.07422,1.16821,1.24512,1.30859,1.35742,1.39771,1.42944,1.4502,1.4624,1.47217,1.46851,1.46484,1.45752,1.4502,1.44043,1.42578,1.41113,1.39771,1.38184,1.37329,1.35742,1.34644,1.33057,1.3147,1.2915,1.27563,1.25122,1.22192,1.19019,1.15112,1.11206,1.07056,1.02661,0.98022,0.93262,0.88257,0.83984,0.79102,0.74707,0.70068,0.65918,0.61768,0.57617,0.53467,0.49683,0.46265,0.43335,0.40283,0.3772,0.34912,0.31982,0.29541,0.26733,0.23926,0.21118,0.18555,0.15747,0.12695,0.09766,0.06714,0.03418,0.00488,-0.03418,-0.07324,-0.10986,-0.14771,-0.18799,-0.22095,-0.26367,-0.30151,-0.33813,-0.37842,-0.41992,-0.46265,-0.50171,-0.54077,-0.57617,-0.61279,-0.64575,-0.67871,-0.71289,-0.74341,-0.77637,-0.81177,-0.84351,-0.87402,-0.9021,-0.93262,-0.95581,-0.97656,-1.00098,-1.02539,-1.05591,-1.07666,-1.10107,-1.12549,-1.14502,-1.16821,-1.18408,-1.20239,-1.22314,-1.24512,-1.26709,-1.28662,-1.30371,-1.32324,-1.34033,-1.35864,-1.37573,-1.38916,-1.40747,-1.41968,-1.44165,-1.45752,-1.47705,-1.49414,-1.50757,-1.52344,-1.53687,-1.54663,-1.56128,-1.57227,-1.58813,-1.59424,-1.5979,-1.59424,-1.58081,-1.54297,-1.4856,-1.40869,-1.3147,-1.20239,-1.0791,-0.93994,-0.79102,-0.63721,-0.47607,-0.31128,-0.14771,0.01343,0.16602,0.3125,0.44189,0.56274,0.66895,0.76172,0.8374,0.90332,0.95581,1.00098,1.03027,1.05103,1.06201,1.06812,1.06934,1.06445,1.05591,1.05103,1.0437,1.03638,1.02295,1.0083,0.98877,0.97168,0.95703,0.94238,0.92896,0.91675,0.90332,0.89111,0.87036,0.84839,0.82153,0.78857,0.75073,0.71411,0.67017,0.62622,0.58472,0.5481,0.49805,0.46021,0.41748,0.38086,0.34302,0.30762,0.2771,0.25024,0.22339,0.19775,0.177,0.15503,0.13306,0.11108,0.08911,0.0647,0.04639,0.02686,0.00854,-0.01099,-0.03418,-0.05493,-0.08057,-0.10498,-0.12817,-0.15991,-0.18921,-0.21729,-0.24658,-0.27832,-0.31006,-0.34058,-0.37231,-0.40161,-0.43823,-0.46997,-0.50049,-0.52979,-0.56152,-0.59326,-0.625,-0.65308,-0.68481,-0.71533,-0.74829,-0.77881,-0.80933,-0.83496,-0.8606,-0.88623,-0.91064,-0.93262,-0.96069,-0.98511,-1.00586,-1.02905,-1.04858,-1.06445,-1.0791,-1.09375,-1.10718,-1.11938,-1.13525,-1.15601,-1.16943,-1.1853,-1.20117,-1.21582,-1.22925,-1.23657,-1.25,-1.26221,-1.27563,-1.29028,-1.30371,-1.31714,-1.32935,-1.33911,-1.35132,-1.35986,-1.37085,-1.38062,-1.39038,-1.40137,-1.40991,-1.41479,-1.41235,-1.39404,-1.36597,-1.31714,-1.2561,-1.1731,-1.08032,-0.9729,-0.85449,-0.72632,-0.59082,-0.44556,-0.30396,-0.15747,-0.01465,0.12207,0.24658,0.35767,0.45898,0.54688,0.6189,0.68726,0.73486,0.77515,0.80566,0.82764,0.83862,0.84351,0.84106,0.83374,0.82642,0.81665,0.80444,0.79346,0.77881,0.7666,0.74951,0.73242,0.71533,0.70068,0.68481,0.67383,0.65552,0.64209,0.62256,0.60181,0.57861,0.5481,0.51758,0.48584,0.45044,0.4126,0.38452,0.35522,0.32471,0.29785,0.26489,0.23926,0.21606,0.19287,0.17212,0.15625,0.1416,0.13062,0.11841,0.10986,0.09521,0.08301,0.07202,0.06226,0.05005,0.0415,0.03174,0.01953,0.00854,-0.00366,-0.02441,-0.04395,-0.06348,-0.08789,-0.11597,-0.13184,-0.15869,-0.17822,-0.20386,-0.23438,-0.26001,-0.29053,-0.31982,-0.35156,-0.38452,-0.4126,-0.44189,-0.46753,-0.49561,-0.5188,-0.54443,-0.57129,-0.59814,-0.62134,-0.64819,-0.66895,-0.69092,-0.70923,-0.7312,-0.75073,-0.77026,-0.79102,-0.80933,-0.8252,-0.84473,-0.85693,-0.87036,-0.88257,-0.90332,-0.91187,-0.92529,-0.93994,-0.95337,-0.97046,-0.98145,-0.99243,-1.00464,-1.0144,-1.02783,-1.03271,-1.04614,-1.05591,-1.06689,-1.0791,-1.08887,-1.09375,-1.09985,-1.09375,-1.08765,-1.06323,-1.02783,-0.9729,-0.90454,-0.82153,-0.72021,-0.60669,-0.4834,-0.34912,-0.21729,-0.07935,0.05615,0.19287,0.32227,0.45166,0.57007,0.67749,0.77393,0.85815,0.92285,0.98022,1.02295,1.05591,1.08276,1.09619,1.10596,1.11328,1.11084,1.10718,1.09741,1.08765,1.07544,1.06445,1.05103,1.0376,1.02417,1.01074,0.99854,0.99609,0.98022,0.9729,0.96313,0.95215,0.93262,0.91675,0.89478,0.87036,0.84229,0.81421,0.78369,0.75562,0.72388,0.69092,0.65674,0.625,0.59448,0.57129,0.54077,0.5127,0.48584,0.46631,0.44556,0.42603,0.41016,0.39307,0.37964,0.36743,0.35889,0.34546,0.33325,0.32227,0.3064,0.28564,0.27588,0.25757,0.23926,0.22217,0.2002,0.18433,0.16357,0.1416,0.11475,0.08545,0.05737,0.02686,-0.0061,-0.03662,-0.07202,-0.10132,-0.13428,-0.16113,-0.19043,-0.22095,-0.25269,-0.28198,-0.3125,-0.33936,-0.36499,-0.38818,-0.4126,-0.43579,-0.46387,-0.4834,-0.50415,-0.52368,-0.54199,-0.56152,-0.57617,-0.59326,-0.61279,-0.6311,-0.65063,-0.66772,-0.68359,-0.7019,-0.71777,-0.73486,-0.75073,-0.76538,-0.77881,-0.79346,-0.80811,-0.82153,-0.83862,-0.85327,-0.8667,-0.88135,-0.89111,-0.89478,-0.89844,-0.89233,-0.87402,-0.84229,-0.79468,-0.73242,-0.6543,-0.55664,-0.448,-0.32471,-0.19653,-0.05981,0.08057,0.22217,0.36377,0.49927,0.62744,0.74463,0.85693,0.95825,1.0437,1.11938,1.18896,1.24023,1.28418,1.31592,1.34155,1.36108,1.37329,1.38306,1.38794,1.38794,1.39038,1.38794,1.38428,1.38184,1.36719,1.36108,1.35376,1.34766,1.34155,1.33545,1.33057,1.32446,1.31958,1.30981,1.29761,1.28174,1.26343,1.24512,1.21826,1.18774,1.15479,1.11816,1.0791,1.03516,0.99487,0.95825,0.91919,0.88379,0.84351,0.81421,0.78369,0.75439,0.7251,0.69702,0.67261,0.65186,0.62866,0.60547,0.57983,0.55542,0.52856,0.50415,0.48096,0.4541,0.42725,0.40405,0.37964,0.35645,0.32715,0.30029,0.26978,0.23804,0.20996,0.17334,0.1416,0.1123,0.08057,0.04517,0.01709,-0.01465,-0.04761,-0.08301,-0.11475,-0.14771,-0.17822,-0.20874,-0.23804,-0.26733,-0.29663,-0.32471,-0.3479,-0.37354,-0.39917,-0.42603,-0.44678,-0.46997,-0.49316,-0.5127,-0.53467,-0.55542,-0.57495,-0.5957,-0.61646,-0.63843,-0.65918,-0.68115,-0.70557,-0.72021,-0.74097,-0.76172,-0.78247,-0.80566,-0.82153,-0.83862,-0.85449,-0.86914,-0.88379,-0.896,-0.91064,-0.92651,-0.94116,-0.95337,-0.96313,-0.96802,-0.96558,-0.95093,-0.92407,-0.87769,-0.81665,-0.73853,-0.64575,-0.53711,-0.41626,-0.28809,-0.14893,-0.00977,0.14038,0.28564,0.42603,0.56396,0.69092,0.81299,0.91919,1.01196,1.09375,1.15601,1.21582,1.26709,1.30615,1.33789,1.36108,1.37695,1.38794,1.39282,1.39648,1.39771,1.39282,1.3916,1.38794,1.38306,1.38062,1.37207,1.36841,1.35986,1.35376,1.34155,1.33667,1.33179,1.32202,1.31104,1.29517,1.27563,1.25122,1.21826,1.18408,1.1438,1.10352,1.06079,1.01807,0.97534,0.9314,0.88623,0.84473,0.802,0.76416,0.72388,0.68848,0.65552,0.62256,0.59082,0.56763,0.54077,0.51514,0.48462,0.45654,0.43335,0.41138,0.38696,0.36377,0.33813,0.31128,0.2832,0.25513,0.22339,0.19287,0.16235,0.13184,0.10254,0.07202,0.03662,0.00366,-0.0293,-0.06348,-0.1001,-0.13428,-0.16968,-0.20264,-0.23438,-0.26367,-0.29907,-0.32715,-0.36011,-0.39185,-0.42969,-0.45654,-0.48706,-0.51636,-0.54443,-0.57373,-0.59692,-0.62256,-0.64941,-0.67505,-0.70068,-0.72266,-0.74585,-0.76782,-0.78857,-0.81055,-0.82886,-0.84717,-0.86426,-0.88745,-0.90576,-0.92407,-0.94116,-0.95825,-0.96924,-0.98511,-0.99731,-1.01196,-1.02661,-1.0437,-1.05591,-1.07422,-1.08765,-1.10352,-1.11938,-1.13159,-1.14624,-1.16089,-1.17798,-1.19507,-1.21216,-1.22437,-1.23901,-1.25244,-1.26221,-1.27563,-1.2854,-1.29517,-1.30005,-1.29639,-1.2793,-1.24756,-1.19873,-1.12793,-1.04614,-0.94238,-0.82397,-0.69214,-0.55664,-0.39917,-0.2478,-0.08545,0.06592,0.21606,0.36499,0.50415,0.62988,0.74829,0.84473,0.93994,1.01318,1.07544,1.12671,1.16455,1.20117,1.22314,1.24023,1.25244,1.2561,1.26587,1.26465,1.26587,1.26587,1.25977,1.26343,1.26221,1.25854,1.2561,1.24756,1.24634,1.24146,1.23535,1.23291,1.22314,1.21216,1.19629,1.17432,1.14868,1.11572,1.08154,1.0437,1.0022,0.95947,0.91553,0.87646,0.83374,0.79468,0.75806,0.71533,0.67871,0.63965,0.60303,0.56274,0.53345,0.50903,0.48462,0.45776,0.42847,0.40527,0.38208,0.35767,0.33325,0.30762,0.2832,0.26001,0.23315,0.20874,0.17944,0.15015,0.12207,0.09155,0.06104,0.03296,0.00244,-0.02686,-0.05737,-0.09033,-0.12573,-0.16357,-0.20142,-0.24048,-0.2832,-0.31616,-0.354,-0.38818,-0.4248,-0.45898,-0.48828,-0.51636,-0.54443,-0.57373,-0.60059,-0.625,-0.65063,-0.67505,-0.69946,-0.72144,-0.74341,-0.76538,-0.78491,-0.80688,-0.82642,-0.84595,-0.86548,-0.88257,-0.9021,-0.92041,-0.93628,-0.95459,-0.96924,-0.98633,-1.00586,-1.02051,-1.03882,-1.05347,-1.073,-1.08032,-1.09009,-1.10352,-1.11572,-1.13403,-1.14746,-1.16089,-1.17676,-1.18774,-1.19751,-1.2085,-1.21948,-1.23291,-1.2439,-1.26343,-1.27441,-1.28784,-1.30493,-1.3147,-1.32935,-1.33911,-1.35132,-1.36597,-1.37451,-1.39282,-1.40381,-1.41602,-1.427,-1.43311,-1.43311,-1.42334,-1.40015,-1.36353,-1.31592,-1.23901,-1.15112,-1.0437,-0.92285,-0.78857,-0.64209,-0.48584,-0.32349,-0.16357,0,0.15625,0.30762,0.45044,0.57983,0.69702,0.80688,0.90088,0.98145,1.0498,1.10474,1.1499,1.18408,1.21094,1.22559,1.23657,1.2439,1.24756,1.24756,1.24268,1.23535,1.22803,1.2207,1.21338,1.20361,1.19507,1.18896,1.18652,1.18164,1.17798,1.17065,1.15967,1.14746,1.12915,1.10962,1.08643,1.05469,1.02661,0.98877,0.94971,0.9082,0.86304,0.82275,0.78247,0.74097,0.70679,0.67383,0.64087,0.61035,0.57617,0.54932,0.52124,0.49805,0.47485,0.44678,0.42236,0.40161,0.37842,0.35889,0.33447,0.3125,0.28687,0.26123,0.23682,0.20874,0.18311,0.15625,0.12817,0.09766,0.0708,0.0415,0.00977,-0.02319,-0.05859,-0.09033,-0.12329,-0.15747,-0.18921,-0.21973,-0.25269,-0.2832,-0.3186,-0.35278,-0.38574,-0.41748,-0.44556,-0.47607,-0.50537,-0.53467,-0.56519,-0.59326,-0.62378,-0.65308,-0.67871,-0.70557,-0.72998,-0.75562,-0.77515,-0.79834,-0.81909,-0.8374,-0.85571,-0.88013,-0.89111,-0.90942,-0.92529,-0.9436,-0.96436,-0.97778,-0.99487,-1.0083,-1.02417,-1.04004,-1.05591,-1.07178,-1.08276,-1.10107,-1.1145,-1.12427,-1.13525,-1.14502,-1.15723,-1.17065,-1.18286,-1.19385,-1.20239,-1.21216,-1.22192,-1.23169,-1.24268,-1.25488,-1.26343,-1.28052,-1.29395,-1.30981,-1.32324,-1.34399,-1.34888,-1.3623,-1.37451,-1.3855,-1.40137,-1.40991,-1.4209,-1.42822,-1.43311,-1.42944,-1.41357,-1.3855,-1.34033,-1.27441,-1.19751,-1.09741,-0.98145,-0.85571,-0.71411,-0.56396,-0.40894,-0.24658,-0.08911,0.07446,0.22705,0.3772,0.5188,0.64697,0.76172,0.86182,0.94971,1.02417,1.08521,1.13525,1.17065,1.19995,1.2207,1.23657,1.24634,1.25122,1.25244,1.24634,1.23901,1.22925,1.2146,1.20117,1.18652,1.17065,1.15845,1.14502,1.13403,1.12305,1.1084,1.09497,1.073,1.05347,1.02783,1.00098,0.96558,0.9375,0.90332,0.87036,0.83496,0.79834,0.76172,0.72754,0.69214,0.65796,0.62744,0.60059,0.57495,0.55054,0.52856,0.51025,0.49072,0.47485,0.46143,0.44678,0.43213,0.4187,0.40283,0.3894,0.37109,0.354,0.33325,0.31494,0.29175,0.26489,0.24292,0.21606,0.19165,0.16846,0.13794,0.11108,0.07935,0.05005,0.01709,-0.01831,-0.05005,-0.08301,-0.11841,-0.15137,-0.18921,-0.22217,-0.25879,-0.29053,-0.32104,-0.354,-0.38574,-0.41382,-0.44434,-0.47119,-0.50049,-0.52368,-0.55298,-0.58594,-0.61768,-0.63843,-0.66528,-0.68726,-0.70923,-0.72754,-0.74585,-0.7605,-0.77881,-0.79834,-0.81421,-0.83008,-0.84351,-0.85571,-0.8667,-0.87891,-0.88745,-0.89478,-0.9082,-0.91919,-0.93018,-0.94238,-0.95215,-0.96191,-0.97046,-0.98145,-0.98999,-0.99731,-1.01196,-1.02661,-1.03882,-1.05225,-1.06567,-1.07666,-1.09375,-1.10229,-1.11206,-1.12183,-1.13403,-1.14014,-1.1438,-1.14136,-1.12427,-1.09619,-1.05225,-0.98755,-0.91064,-0.81299,-0.70679,-0.58716,-0.4541,-0.31128,-0.15991,0.00122,0.15869,0.31738,0.47241,0.625,0.76416,0.88989,1.00342,1.10352,1.19263,1.26953,1.33057,1.38306,1.42212,1.4563,1.47339,1.48438,1.49048,1.4856,1.48071,1.47217,1.45996,1.45142,1.43799,1.427,1.40869,1.39282,1.37939,1.36475,1.35254,1.34033,1.32446,1.30737,1.2854,1.26343,1.22925,1.20239,1.17065,1.13037,1.09375,1.05225,1.0144,0.97656,0.93506,0.89722,0.85571,0.82153,0.78735,0.75806,0.72876,0.70313,0.67993,0.6604,0.63721,0.6311,0.60791,0.59448,0.57861,0.56274,0.54321,0.52979,0.5127,0.49683,0.47607,0.45532,0.43091,0.40649,0.38086,0.35645,0.32715,0.30151,0.27222,0.24292,0.21118,0.17944,0.14038,0.10132,0.0647,0.02686,-0.01099,-0.04517,-0.08423,-0.11475,-0.15503,-0.18555,-0.21973,-0.25391,-0.28687,-0.31982,-0.3479,-0.37231,-0.39917,-0.4248,-0.45288,-0.47729,-0.50537,-0.53101,-0.55542,-0.5835,-0.60547,-0.62866,-0.65186,-0.66895,-0.68604,-0.70068,-0.72021,-0.73975,-0.75806,-0.78125,-0.80078,-0.81665,-0.83496,-0.85205,-0.86304,-0.87646,-0.89355,-0.90942,-0.92896,-0.94604,-0.96558,-0.98022,-0.99731,-1.01196,-1.03027,-1.04614,-1.06689,-1.07788,-1.09497,-1.10596,-1.11084,-1.10474,-1.08643,-1.0498,-0.99976,-0.93018,-0.84351,-0.73608,-0.6189,-0.48584,-0.34058,-0.18311,-0.02197,0.15259,0.32349,0.49438,0.66162,0.81665,0.96802,1.10596,1.22925,1.34033,1.43188,1.51489,1.58081,1.63452,1.67603,1.70288,1.72729,1.74072,1.74561,1.74561,1.7334,1.72485,1.71021,1.69678,1.68091,1.65894,1.64551,1.6272,1.60889,1.59302,1.57471,1.56494,1.54907,1.53442,1.51123,1.48682,1.45752,1.427,1.39282,1.35742,1.3147,1.27563,1.23291,1.19019,1.14502,1.09741,1.0498,1.0022,0.95825,0.91919,0.8728,0.83862,0.802,0.76904,0.73242,0.7019,0.67017,0.63843,0.60913,0.57983,0.5542,0.53223,0.50781,0.48462,0.45654,0.42969,0.40039,0.37354,0.34058,0.3125,0.28076,0.24902,0.21484,0.18066,0.1416,0.10254,0.06348,0.02075,-0.02319,-0.06226,-0.10254,-0.13916,-0.18188,-0.22217,-0.26123,-0.30273,-0.3418,-0.38086,-0.4187,-0.45166,-0.48706,-0.51636,-0.55054,-0.58472,-0.61646,-0.64697,-0.67627,-0.70923,-0.7373,-0.76416,-0.78857,-0.81421,-0.8374,-0.86426,-0.88623,-0.90698,-0.92896,-0.95337,-0.9729,-0.98999,-1.00952,-1.02295,-1.04248,-1.05469,-1.07544,-1.09131,-1.10962,-1.13037,-1.14502,-1.16089,-1.17554,-1.18896,-1.20605,-1.2207,-1.23779,-1.2561,-1.27075,-1.2915,-1.30737,-1.3208,-1.33545,-1.34766,-1.36108,-1.36597,-1.36841,-1.35986,-1.33545,-1.30005,-1.24146,-1.16333,-1.06445,-0.94971,-0.81177,-0.66406,-0.50293,-0.33203,-0.15503,0.02808,0.21118,0.39429,0.57373,0.74341,0.90332,1.05225,1.18408,1.29883,1.39893,1.48315,1.55518,1.61377,1.66016,1.69556,1.72485,1.74072,1.74927,1.74683,1.7395,1.73096,1.71997,1.70898,1.698,1.68091,1.66748,1.65283,1.63818,1.62354,1.61011,1.5979,1.58813,1.57593,1.5625,1.54419,1.521,1.49536,1.4624,1.42578,1.38306,1.33667,1.28906,1.24023,1.19385,1.14014,1.09375,1.04614,0.99731,0.94727,0.90698,0.86548,0.8252,0.78857,0.75439,0.72266,0.69092,0.6604,0.62988,0.59937,0.56885,0.53833,0.51025,0.48462,0.45532,0.42725,0.39795,0.36743,0.33447,0.29907,0.26367,0.22583,0.18677,0.14893,0.10986,0.07202,0.03296,-0.00488,-0.04761,-0.08423,-0.12695,-0.16968,-0.20752,-0.25146,-0.29053,-0.32837,-0.36865,-0.40771,-0.44678,-0.48584,-0.52124,-0.55786,-0.59204,-0.62866,-0.65918,-0.68848,-0.72021,-0.74219,-0.77393,-0.79834,-0.82764,-0.85449,-0.88257,-0.90454,-0.93018,-0.95093,-0.97168,-0.99365,-1.01196,-1.03394,-1.05347,-1.07422,-1.09375,-1.11206,-1.12793,-1.14136,-1.15601,-1.16821,-1.18286,-1.19751,-1.21094,-1.22803,-1.25122,-1.26831,-1.28906,-1.30615,-1.33057,-1.34277,-1.36108,-1.37939,-1.39771,-1.41968,-1.43555,-1.45386,-1.47217,-1.48804,-1.50757,-1.51978,-1.52832,-1.52344,-1.50879,-1.48193,-1.43188,-1.36353,-1.27686,-1.16821,-1.04492,-0.90332,-0.74829,-0.58105,-0.39917,-0.21973,-0.03296,0.15625,0.33936,0.5188,0.6897,0.84717,0.98755,1.11084,1.21704,1.30371,1.37939,1.43799,1.48438,1.52954,1.55396,1.57471,1.58447,1.58569,1.58203,1.5686,1.55884,1.54785,1.5332,1.52222,1.50024,1.48438,1.47095,1.4563,1.43799,1.42822,1.41113,1.39404,1.37329,1.3501,1.32568,1.29883,1.26587,1.23047,1.18896,1.1438,1.09863,1.04858,1.0022,0.95337,0.90332,0.85571,0.81177,0.76416,0.7251,0.68237,0.64209,0.60425,0.57129,0.53345,0.50171,0.47241,0.44312,0.40894,0.38452,0.354,0.32349,0.29419,0.25879,0.23193,0.19897,0.16724,0.13428,0.10132,0.06714,0.03174,-0.00366,-0.03784,-0.07813,-0.1123,-0.14893,-0.18433,-0.21973,-0.25879,-0.29785,-0.3418,-0.3833,-0.42603,-0.46631,-0.50293,-0.54077,-0.57861,-0.62134,-0.65918,-0.69702,-0.73853,-0.77271,-0.80811,-0.83984,-0.8728,-0.9082,-0.93872,-0.9729,-1.00342,-1.03516,-1.06567,-1.09253,-1.11816,-1.14502,-1.16577,-1.18896,-1.21094,-1.23413,-1.2561,-1.27563,-1.29639,-1.31958,-1.33667,-1.35498,-1.36963,-1.3855,-1.40015,-1.41235,-1.42822,-1.44165,-1.4563,-1.47095,-1.48438,-1.49658,-1.50635,-1.51978,-1.53198,-1.54541,-1.56006,-1.57471,-1.59058,-1.60645,-1.62231,-1.63818,-1.65283,-1.66748,-1.68579,-1.70166,-1.71631,-1.73096,-1.74438,-1.75781,-1.76392,-1.76514,-1.75415,-1.73462,-1.68823,-1.62598,-1.54663,-1.44775,-1.33545,-1.20605,-1.06201,-0.90698,-0.74707,-0.57983,-0.40894,-0.23682,-0.0708,0.08911,0.23315,0.36743,0.4895,0.59814,0.69824,0.77637,0.84229,0.896,0.93994,0.9729,0.99243,1.00708,1.01318,1.01318,1.01074,1.0022,0.99365,0.98389,0.97534,0.96558,0.95093,0.9375,0.92407,0.91064,0.9021,0.88989,0.88501,0.87524,0.86304,0.84717,0.82397,0.80078,0.77393,0.74219,0.70923,0.67749,0.64209,0.60791,0.57373,0.53467,0.49683,0.46021,0.42603,0.39063,0.36133,0.33447,0.30762,0.28564,0.26367,0.2417,0.21973,0.20142,0.18311,0.16602,0.14893,0.13428,0.11475,0.09644,0.07446,0.05615,0.03296,0.00732,-0.01831,-0.04639,-0.06958,-0.09399,-0.12085,-0.14648,-0.177,-0.20752,-0.23926,-0.27222,-0.30396,-0.33936,-0.36865,-0.39917,-0.43213,-0.46265,-0.49438,-0.5249,-0.55786,-0.58716,-0.61401,-0.64819,-0.67505,-0.7019,-0.72754,-0.75806,-0.77881,-0.80322,-0.8313,-0.85449,-0.87891,-0.896,-0.91309,-0.93018,-0.94849,-0.96313,-0.97534,-0.99121,-1.00464,-1.01685,-1.03027,-1.0437,-1.05591,-1.06934,-1.08154,-1.09253,-1.10352,-1.11694,-1.13037,-1.1438,-1.15356,-1.16577,-1.17554,-1.19019,-1.19751,-1.21094,-1.22314,-1.23291,-1.24756,-1.26709,-1.27441,-1.28662,-1.29395,-1.29761,-1.29272,-1.27686,-1.24878,-1.20239,-1.14502,-1.07178,-0.979,-0.87524,-0.75562,-0.625,-0.49194,-0.35156,-0.21362,-0.07202,0.06104,0.19287,0.31494,0.42725,0.52979,0.6189,0.69824,0.7666,0.82153,0.86548,0.89722,0.92285,0.93872,0.94971,0.95581,0.95459,0.95215,0.94727,0.9375,0.93018,0.91919,0.90576,0.89355,0.87769,0.86548,0.85693,0.84473,0.83618,0.82642,0.81909,0.79712,0.78613,0.7666,0.74707,0.72021,0.68848,0.65918,0.6311,0.59692,0.56885,0.53345,0.50171,0.47119,0.44189,0.41626,0.39185,0.37231,0.35645,0.33936,0.33203,0.30884,0.29663,0.2832,0.27222,0.25635,0.25146,0.24414,0.2356,0.22217,0.20996,0.19531,0.18188,0.16357,0.14404,0.12695,0.10742,0.08667,0.0647,0.04272,0.01709,-0.00977,-0.03784,-0.06958,-0.09766,-0.12939,-0.15991,-0.18921,-0.21606,-0.25146,-0.27466,-0.3064,-0.33447,-0.36499,-0.39673,-0.41992,-0.44312,-0.46509,-0.4834,-0.50415,-0.52246,-0.54443,-0.56519,-0.58594,-0.60791,-0.625,-0.64331,-0.66284,-0.67871,-0.69458,-0.70801,-0.72632,-0.74219,-0.75562,-0.77148,-0.78125,-0.79468,-0.80688,-0.82153,-0.83252,-0.84473,-0.85815,-0.87158,-0.88501,-0.896,-0.90576,-0.91797,-0.92773,-0.94116,-0.95215,-0.96313,-0.97778,-0.98877,-0.99365,-0.99487,-0.98633,-0.96191,-0.92285,-0.87036,-0.79956,-0.71167,-0.61157,-0.50415,-0.37354,-0.2417,-0.10254,0.0415,0.18433,0.32959,0.46753,0.60181,0.71899,0.82764,0.92407,1.00708,1.08154,1.14624,1.19995,1.24756,1.2854,1.30981,1.3208,1.33301,1.33423,1.33423,1.33057,1.3269,1.31836,1.31348,1.30737,1.30127,1.28906,1.27563,1.27075,1.26343,1.25854,1.2561,1.25122,1.24756,1.24268,1.23535,1.21704,1.19873,1.17554,1.14746,1.11816,1.08643,1.04614,1.01196,0.97412,0.93872,0.89233,0.8606,0.82275,0.78857,0.75928,0.72876,0.70313,0.67749,0.65308,0.6311,0.60791,0.58838,0.56763,0.5481,0.52979,0.51025,0.49194,0.47485,0.4541,0.43457,0.40649,0.38208,0.35645,0.32959,0.30273,0.27588,0.24658,0.21973,0.18677,0.15259,0.11963,0.08789,0.05615,0.02197,-0.01099,-0.0415,-0.07324,-0.10376,-0.14038,-0.16846,-0.20142,-0.23193,-0.26123,-0.29541,-0.32349,-0.3479,-0.37354,-0.39429,-0.41504,-0.44067,-0.46509,-0.48706,-0.50903,-0.53589,-0.55298,-0.57129,-0.5896,-0.60547,-0.62256,-0.63721,-0.65796,-0.67505,-0.69458,-0.71411,-0.72998,-0.74219,-0.75928,-0.77026,-0.78613,-0.802,-0.82153,-0.8374,-0.85449,-0.87402,-0.88867,-0.9021,-0.91553,-0.93018,-0.94238,-0.95337,-0.9668,-0.98022,-0.98633,-0.979,-0.96313,-0.9314,-0.88623,-0.82397,-0.74463,-0.64697,-0.54321,-0.4248,-0.29663,-0.16113,-0.01709,0.13184,0.28076,0.42603,0.56763,0.69702,0.81543,0.91919,1.00952,1.08887,1.15479,1.21338,1.25732,1.29395,1.31958,1.34155,1.35376,1.36108,1.36475,1.36597,1.36475,1.36475,1.36353,1.36108,1.35742,1.35376,1.34644,1.33911,1.33301,1.32813,1.32202,1.31714,1.30981,1.30371,1.29517,1.28296,1.26587,1.23901,1.21582,1.18408,1.14868,1.1084,1.06689,1.02905,0.98755,0.94604,0.90576,0.86182,0.82031,0.77759,0.73975,0.70313,0.66895,0.63843,0.60913,0.58105,0.5542,0.52856,0.50415,0.47852,0.4541,0.43213,0.40649,0.38452,0.36011,0.33325,0.30518,0.2771,0.25024,0.21973,0.19043,0.15991,0.13062,0.1062,0.07568,0.04272,0.01343,-0.01831,-0.05127,-0.08789,-0.11963,-0.15015,-0.18555,-0.21484,-0.25024,-0.28198,-0.31494,-0.34912,-0.38086,-0.41504,-0.44556,-0.47363,-0.50171,-0.52734,-0.55054,-0.57495,-0.59937,-0.62378,-0.64819,-0.67017,-0.69458,-0.71167,-0.72998,-0.74463,-0.76172,-0.77515,-0.79224,-0.80688,-0.8252,-0.84473,-0.86182,-0.87646,-0.89233,-0.90576,-0.92407,-0.93628,-0.95093,-0.9668,-0.98267,-1.0022,-1.02051,-1.03638,-1.05347,-1.06812,-1.08643,-1.10229,-1.12061,-1.13892,-1.15356,-1.17065,-1.18164,-1.19019,-1.19995,-1.20483,-1.19751,-1.1792,-1.1499,-1.10596,-1.04248,-0.96436,-0.86914,-0.7605,-0.63965,-0.50659,-0.37109,-0.22949,-0.09399,0.04272,0.17334,0.29785,0.41382,0.5188,0.60669,0.68604,0.74951,0.80688,0.85205,0.88745,0.91309,0.93262,0.94727,0.95703,0.96313,0.9668,0.9668,0.9668,0.96558,0.96558,0.96191,0.95825,0.95825,0.95581,0.95337,0.95581,0.95215,0.94971,0.94482,0.93994,0.92896,0.91553,0.89966,0.87769,0.84839,0.82642,0.7959,0.76294,0.72754,0.6897,0.6543,0.61768,0.58105,0.54321,0.50415,0.47119,0.43335,0.40405,0.37476,0.34302,0.31738,0.29053,0.26733,0.24658,0.22217,0.20264,0.18188,0.16235,0.13794,0.11963,0.09888,0.07324,0.05005,0.02197,-0.00244,-0.02441,-0.05127,-0.07568,-0.10498,-0.13428,-0.16357,-0.19409,-0.22217,-0.25635,-0.28564,-0.31494,-0.34668,-0.3772,-0.40894,-0.43823,-0.46631,-0.49683,-0.52612,-0.55542,-0.58228,-0.60547,-0.62866,-0.6543,-0.67505,-0.69702,-0.71899,-0.74219,-0.7666,-0.78857,-0.80933,-0.8252,-0.84473,-0.86548,-0.88379,-0.9021,-0.91919,-0.93994,-0.95581,-0.96924,-0.98755,-0.99976,-1.00952,-1.03027,-1.0437,-1.05713,-1.06812,-1.08887,-1.09985,-1.11084,-1.12427,-1.13403,-1.14868,-1.15967,-1.16943,-1.18286,-1.19507,-1.21094,-1.22437,-1.23779,-1.25122,-1.26099,-1.27808,-1.2915,-1.30249,-1.31714,-1.33057,-1.34399,-1.3562,-1.36719,-1.37573,-1.37329,-1.37817,-1.37085,-1.35742,-1.33179,-1.29639,-1.24268,-1.17554,-1.09619,-1.00342,-0.89966,-0.78369,-0.66284,-0.53711,-0.41504,-0.29541,-0.17822,-0.06592,0.04028,0.13428,0.21973,0.29541,0.35889,0.41382,0.45654,0.49438,0.52124,0.54321,0.55786,0.56641,0.57739,0.58472,0.58594,0.58472,0.5835,0.58228,0.57983,0.57617,0.57373,0.56885,0.56885,0.56885,0.56885,0.56763,0.56519,0.56274,0.55664,0.55176,0.54077,0.53345,0.51514,0.49561,0.47607,0.4541,0.42358,0.40161,0.37354,0.34546,0.31616,0.28687,0.26245,0.23682,0.21118,0.18921,0.16602,0.14771,0.12939,0.11353,0.1001,0.08545,0.07568,0.06348,0.05127,0.0415,0.02075,0.0061,-0.01221,-0.0293,-0.05127,-0.06592,-0.08423,-0.10376,-0.12451,-0.14893,-0.16968,-0.19287,-0.21729,-0.23926,-0.26245,-0.2832,-0.3064,-0.32959,-0.35522,-0.38086,-0.40527,-0.42725,-0.45166,-0.47363,-0.49683,-0.52002,-0.53833,-0.5603,-0.58472,-0.60059,-0.62134,-0.63965,-0.65918,-0.68115,-0.69824,-0.71777,-0.73364,-0.75073,-0.76782,-0.78003,-0.7959,-0.81055,-0.8252,-0.84106,-0.85449,-0.86914,-0.88013,-0.89111,-0.9021,-0.91187,-0.92407,-0.93506,-0.94727,-0.95825,-0.97046,-0.979,-0.99365,-1.0083,-1.01563,-1.02539,-1.03516,-1.0437,-1.05713,-1.06934,-1.08154,-1.09375,-1.10107,-1.11084,-1.11816,-1.12793,-1.1377,-1.14868,-1.16211,-1.1731,-1.18164,-1.19385,-1.19751,-1.21094,-1.21704,-1.22314,-1.22925,-1.23535,-1.22803,-1.21094,-1.18164,-1.14014,-1.08154,-1.00952,-0.92773,-0.83496,-0.73486,-0.63354,-0.5249,-0.41504,-0.30518,-0.19897,-0.09766,0,0.08911,0.16724,0.2356,0.29053,0.33569,0.3772,0.40894,0.43457,0.45166,0.46631,0.47485,0.48096,0.47852,0.47485,0.47119,0.46875,0.46265,0.46143,0.46143,0.46021,0.46021,0.46265,0.46143,0.46143,0.46021,0.46143,0.46143,0.46265,0.45898,0.45532,0.44678,0.43701,0.41626,0.40771,0.3894,0.36987,0.35156,0.32837,0.31006,0.29053,0.271,0.25513,0.23926,0.22461,0.20996,0.19775,0.18677,0.17456,0.16846,0.16113,0.15381,0.15137,0.13916,0.13184,0.11963,0.1123,0.09766,0.09155,0.08179,0.06958,0.05737,0.0415,0.02686,0.01343,-0.00488,-0.02197,-0.0415,-0.06226,-0.08179,-0.09888,-0.11841,-0.13916,-0.15869,-0.17822,-0.20142,-0.21973,-0.24658,-0.26855,-0.28809,-0.3064,-0.33081,-0.34546,-0.36499,-0.38208,-0.40039,-0.42114,-0.43701,-0.45288,-0.46509,-0.47729,-0.49316,-0.50537,-0.52124,-0.53223,-0.5481,-0.56152,-0.57617,-0.59082,-0.60547,-0.61768,-0.62988,-0.63965,-0.65063,-0.66162,-0.67627,-0.68237,-0.6897,-0.69824,-0.70313,-0.71289,-0.71777,-0.72632,-0.73486,-0.74219,-0.7605,-0.77271,-0.78491,-0.7959,-0.80322,-0.81665,-0.82397,-0.8313,-0.84106,-0.84717,-0.86182,-0.86792,-0.87646,-0.87891,-0.88013,-0.86182,-0.83618,-0.79712,-0.74463,-0.68237,-0.60791,-0.52734,-0.43823,-0.34668,-0.24658,-0.14771,-0.04761,0.05371,0.14893,0.23682,0.31738,0.39185,0.45288,0.51025,0.5542,0.59204,0.625,0.65308,0.67505,0.6897,0.70068,0.70923,0.71655,0.72144,0.72632,0.72998,0.73364,0.73853,0.74219,0.74463,0.74341,0.74097,0.74219,0.74463,0.74829,0.75439,0.75806,0.75928,0.74951,0.74951,0.7373,0.7251,0.71045,0.68726,0.6665,0.64575,0.62622,0.60547,0.58228,0.56519,0.54077,0.5188,0.50049,0.47974,0.46509,0.45166,0.43945,0.43335,0.41748,0.41138,0.40405,0.39551,0.38086,0.37476,0.36377,0.354,0.34424,0.33325,0.32104,0.31128,0.29419,0.28076,0.26123,0.24536,0.22827,0.21118,0.19165,0.17456,0.15503,0.13428,0.1123,0.09033,0.06104,0.03784,0.01465,-0.00732,-0.03052,-0.04517,-0.06104,-0.07935,-0.1001,-0.11963,-0.14038,-0.16113,-0.17944,-0.19653,-0.21362,-0.22705,-0.2478,-0.26123,-0.28076,-0.29785,-0.31372,-0.32837,-0.3418,-0.35522,-0.36987,-0.38086,-0.39551,-0.40894,-0.42725,-0.43701,-0.4541,-0.46875,-0.48096,-0.49561,-0.50537,-0.51392,-0.5249,-0.53467,-0.55054,-0.56396,-0.57617,-0.58838,-0.59937,-0.61279,-0.62622,-0.63843,-0.65186,-0.65918,-0.67749,-0.68726,-0.69702,-0.7019,-0.70679,-0.69092,-0.67017,-0.63721,-0.59448,-0.53467,-0.46753,-0.38818,-0.30029,-0.20508,-0.10498,-0.00122,0.10254,0.20752,0.30884,0.40649,0.49805,0.5835,0.65796,0.72266,0.78125,0.83496,0.88013,0.91919,0.94727,0.97412,0.99243,1.0083,1.02295,1.03638,1.04248,1.05225,1.06201,1.07056,1.07788,1.08154,1.08032,1.08154,1.08521,1.08887,1.09009,1.09619,1.09985,1.10596,1.10352,1.10962,1.10596,1.09985,1.09009,1.07544,1.05957,1.03882,1.01563,0.99365,0.9668,0.94238,0.91431,0.88623,0.85938,0.83008,0.80566,0.78247,0.76172,0.73853,0.7251,0.70923,0.6897,0.67139,0.65186,0.63843,0.62622,0.61401,0.59814,0.58594,0.56763,0.5542,0.53467,0.51636,0.49561,0.47607,0.45532,0.43579,0.41626,0.38818,0.36377,0.33813,0.30762,0.27466,0.25024,0.22217,0.19165,0.16357,0.13184,0.10986,0.08423,0.06226,0.03418,0.0061,-0.02197,-0.05005,-0.0769,-0.10254,-0.12939,-0.14893,-0.16724,-0.18555,-0.2063,-0.22705,-0.24902,-0.26978,-0.29053,-0.31372,-0.32837,-0.34424,-0.36255,-0.3772,-0.39673,-0.4126,-0.42725,-0.44434,-0.46265,-0.47729,-0.49072,-0.50293,-0.51758,-0.53101,-0.54565,-0.55908,-0.57373,-0.5896,-0.60181,-0.62012,-0.63354,-0.64697,-0.66284,-0.67993,-0.69092,-0.70557,-0.71899,-0.73242,-0.74829,-0.75928,-0.7666,-0.77148,-0.77271,-0.76538,-0.75195,-0.72388,-0.68359,-0.6311,-0.56152,-0.47852,-0.38574,-0.28198,-0.16968,-0.06104,0.05127,0.16724,0.28076,0.38696,0.49683,0.59692,0.6897,0.77393,0.84473,0.91187,0.96802,1.01318,1.05103,1.07666,1.10474,1.12793,1.14624,1.16089,1.17188,1.18774,1.19385,1.19995,1.20728,1.20728,1.21338,1.21826,1.2207,1.22803,1.22925,1.23535,1.23657,1.23779,1.23901,1.23413,1.22803,1.22192,1.2146,1.20483,1.18042,1.15845,1.13525,1.10596,1.07056,1.0376,1.00708,0.97534,0.94238,0.91064,0.88379,0.85449,0.82764,0.80078,0.77515,0.75195,0.72876,0.70923,0.68848,0.66895,0.64697,0.62744,0.60669,0.5835,0.56152,0.54077,0.5188,0.49438,0.46875,0.44678,0.4187,0.39673,0.37109,0.34302,0.31738,0.28687,0.25879,0.23193,0.20264,0.177,0.14771,0.11963,0.08545,0.05493,0.02686,-0.00244,-0.03174,-0.06226,-0.08667,-0.11108,-0.1355,-0.16113,-0.18921,-0.21362,-0.23804,-0.26489,-0.28687,-0.30884,-0.32959,-0.35034,-0.37231,-0.39185,-0.41626,-0.43945,-0.46021,-0.4834,-0.50171,-0.52124,-0.53955,-0.5542,-0.57129,-0.59204,-0.60425,-0.61768,-0.63354,-0.64941,-0.6665,-0.68115,-0.6958,-0.70679,-0.72266,-0.73486,-0.74951,-0.76782,-0.78491,-0.80444,-0.82153,-0.83862,-0.85327,-0.86792,-0.88257,-0.89966,-0.91431,-0.92896,-0.9436,-0.96436,-0.9729,-0.98267,-0.99121,-0.99854,-1.00098,-0.99487,-0.97778,-0.9436,-0.896,-0.83496,-0.7605,-0.66895,-0.56885,-0.45898,-0.34424,-0.22339,-0.1001,0.01831,0.13794,0.2478,0.35767,0.46021,0.55298,0.64087,0.70679,0.77148,0.82275,0.8667,0.90332,0.92651,0.94727,0.96558,0.97778,0.99243,0.99609,1.0022,1.00464,1.0083,1.01196,1.01196,1.01196,1.01074,1.01074,1.0083,1.01318,1.01685,1.01685,1.0144,1.00952,1.00342,0.99243,0.98267,0.9668,0.94971,0.92896,0.90454,0.87769,0.84839,0.82031,0.78979,0.75806,0.72876,0.70313,0.67505,0.65063,0.62744,0.60303,0.57129,0.55298,0.52979,0.50415,0.48462,0.46143,0.44312,0.42358,0.40405,0.38208,0.36377,0.34424,0.32227,0.30151,0.28076,0.25635,0.23682,0.21606,0.19775,0.17944,0.15381,0.12939,0.10498,0.07813,0.05005,0.02563,0.00244,-0.02441,-0.05249,-0.0769,-0.1062,-0.13062,-0.15991,-0.18555,-0.21118,-0.2356,-0.25635,-0.27832,-0.29907,-0.32593,-0.34912,-0.37476,-0.39795,-0.42114,-0.43823,-0.45654,-0.47485,-0.49194,-0.51147,-0.53101,-0.55054,-0.57007,-0.59204,-0.61401,-0.62744,-0.63843,-0.64941,-0.65796,-0.67383,-0.68604,-0.69824,-0.71045,-0.7251,-0.73975,-0.75317,-0.76782,-0.77881,-0.79712,-0.80933,-0.82397,-0.83862,-0.85205,-0.86426,-0.88257,-0.896,-0.91064,-0.92407,-0.94604,-0.95337,-0.96558,-0.979,-0.98877,-0.99854,-0.99854,-0.98877,-0.96802,-0.93018,-0.88257,-0.82031,-0.74341,-0.65796,-0.56152,-0.46143,-0.35156,-0.24048,-0.12695,-0.00977,0.10132,0.21118,0.31128,0.40527,0.4895,0.5542,0.61646,0.6665,0.70679,0.74585,0.77271,0.79712,0.81665,0.82764,0.83862,0.83862,0.84351,0.84595,0.84839,0.85449,0.85327,0.85571,0.85571,0.85205,0.84717,0.84717,0.84595,0.84595,0.84473,0.84229,0.84106,0.83862,0.82764,0.81543,0.79834,0.77759,0.75684,0.73486,0.70923,0.68726,0.66162,0.63599,0.61279,0.58472,0.56152,0.53589,0.51392,0.49194,0.46265,0.44678,0.42725,0.41138,0.39551,0.3772,0.36621,0.35156,0.33936,0.32837,0.31738,0.3064,0.29297,0.27832,0.26367,0.24414,0.22461,0.20142,0.18188,0.15991,0.13184,0.10986,0.08789,0.06348,0.03296,0.01343,-0.01099,-0.03906,-0.06592,-0.09277,-0.11719,-0.13916,-0.16235,-0.18433,-0.20508,-0.22827,-0.24658,-0.271,-0.29053,-0.3125,-0.33325,-0.34912,-0.36865,-0.3833,-0.40283,-0.42114,-0.43823,-0.45532,-0.47852,-0.48706,-0.50659,-0.52002,-0.53345,-0.54688,-0.55908,-0.57495,-0.58594,-0.60303,-0.61646,-0.63232,-0.64575,-0.65674,-0.67139,-0.68604,-0.69458,-0.70923,-0.72388,-0.73853,-0.75562,-0.76538,-0.78003,-0.79102,-0.80811,-0.81299,-0.81665,-0.81665,-0.80811,-0.79346,-0.76538,-0.72388,-0.67017,-0.60059,-0.5249,-0.44067,-0.3479,-0.25269,-0.14893,-0.05005,0.05127,0.15381,0.25146,0.34668,0.43945,0.52124,0.59448,0.65552,0.70801,0.74829,0.78247,0.81177,0.83374,0.84961,0.86304,0.87158,0.87769,0.88013,0.88135,0.88013,0.87769,0.87402,0.86914,0.85938,0.85938,0.85449,0.85205,0.84961,0.84717,0.84106,0.8374,0.8313,0.82275,0.81299,0.802,0.78613,0.76904,0.74707,0.72266,0.69458,0.66895,0.64087,0.61279,0.58716,0.56274,0.53955,0.5188,0.49438,0.47607,0.45532,0.43335,0.41626,0.39795,0.38452,0.36865,0.354,0.3418,0.32715,0.3125,0.29541,0.27588,0.26001,0.23804,0.22095,0.20264,0.18555,0.15381,0.13672,0.11353,0.08911,0.06592,0.0415,0.01709,-0.0061,-0.03174,-0.05615,-0.08057,-0.1062,-0.13062,-0.15747,-0.18066,-0.2063,-0.22827,-0.25146,-0.27222,-0.29053,-0.31372,-0.33203,-0.35034,-0.37354,-0.39795,-0.41382,-0.43335,-0.45288,-0.47119,-0.4895,-0.50293,-0.52124,-0.53955,-0.5603,-0.57983,-0.59692,-0.61523,-0.63354,-0.65186,-0.67017,-0.68359,-0.7019,-0.71289,-0.72876,-0.74463,-0.75806,-0.77271,-0.78369,-0.79834,-0.80078,-0.80078,-0.79712,-0.78369,-0.76538,-0.7312,-0.68359,-0.62744,-0.55664,-0.47607,-0.38574,-0.28931,-0.18799,-0.08179,0.01343,0.11475,0.2124,0.3064,0.39307,0.47119,0.53833,0.60181,0.65308,0.69458,0.72876,0.75317,0.77026,0.78369,0.79346,0.79956,0.80078,0.802,0.79712,0.79346,0.78369,0.77515,0.76904,0.76172,0.74829,0.74707,0.73975,0.7373,0.72754,0.72266,0.71045,0.70068,0.6897,0.67139,0.65308,0.6311,0.60791,0.58472,0.55786,0.53223,0.50415,0.47607,0.44678,0.4187,0.39063,0.36499,0.34058,0.31982,0.29541,0.27832,0.25635,0.23804,0.21851,0.20142,0.18555,0.1709,0.15381,0.13916,0.11963,0.10376,0.08423,0.06592,0.04883,0.02441,0.00366,-0.01343,-0.03418,-0.05737,-0.07568,-0.09521,-0.12451,-0.15015,-0.17822,-0.20142,-0.22339,-0.24414,-0.26855,-0.29419,-0.31982,-0.34302,-0.36987,-0.39429,-0.4187,-0.43945,-0.45898,-0.47974,-0.50415,-0.5188,-0.54077,-0.55664,-0.57617,-0.59814,-0.61401,-0.63477,-0.65186,-0.6665,-0.68237,-0.69458,-0.70923,-0.72021,-0.73608,-0.75439,-0.7666,-0.78125,-0.79468,-0.80444,-0.82397,-0.83496,-0.84961,-0.85938,-0.88257,-0.88989,-0.90454,-0.91797,-0.92651,-0.93262,-0.93262,-0.92285,-0.90454,-0.86914,-0.8313,-0.77393,-0.7019,-0.62134,-0.53345,-0.43701,-0.33447,-0.22949,-0.12573,-0.02808,0.07202,0.16602,0.25024,0.32837,0.39063,0.45288,0.50171,0.54199,0.57373,0.59326,0.61279,0.62622,0.6311,0.63232,0.62622,0.62866,0.625,0.6189,0.61279,0.60303,0.60059,0.59204,0.5835,0.57251,0.56396,0.55908,0.55176,0.54565,0.53711,0.52734,0.51514,0.50049,0.47852,0.4541,0.42725,0.40283,0.3772,0.35278,0.32471,0.30396,0.2771,0.25635,0.2356,0.2124,0.19531,0.17822,0.16602,0.15503,0.14404,0.13672,0.12573,