-1.25,-1.26831,-1.28784,-1.30371,-1.3208,-1.33423,-1.35132,-1.37085,-1.38428,-1.40137,-1.41602,-1.43311,-1.4502,-1.46118,-1.47095,-1.47583,-1.46973,-1.4563,-1.41235,-1.3501,-1.25977,-1.13892,-0.99609,-0.8313,-0.65186,-0.46265,-0.26733,-0.07202,0.13306,0.33203,0.52979,0.72144,0.89966,1.06689,1.21826,1.35742,1.47827,1.58447,1.67236,1.74683,1.80664,1.85669,1.88965,1.91284,1.92993,1.93726,1.9397,1.93359,1.92505,1.90796,1.89087,1.87134,1.84814,1.82861,1.80664,1.78833,1.77002,1.75049,1.73096,1.7041,1.67725,1.64795,1.61377,1.57715,1.5332,1.48804,1.43677,1.38306,1.32446,1.26221,1.19873,1.13892,1.07544,1.02173,0.96558,0.91431,0.86548,0.81909,0.77271,0.72632,0.68726,0.65063,0.61523,0.58472,0.55054,0.52612,0.50049,0.47119,0.44312,0.41016,0.38452,0.35522,0.32471,0.29663,0.26611,0.23071,0.19653,0.15869,0.11963,0.08057,0.03174,-0.00732,-0.05371,-0.09766,-0.14404,-0.19043,-0.23438,-0.2832,-0.32959,-0.37964,-0.42603,-0.47119,-0.51636,-0.55542,-0.59448,-0.63477,-0.67261,-0.71045,-0.74585,-0.78125,-0.81787,-0.84839,-0.88013,-0.90942,-0.9375,-0.9668,-0.99365,-1.01929,-1.04248,-1.06812,-1.09497,-1.11938,-1.14136,-1.16333,-1.18774,-1.21338,-1.23291,-1.25488,-1.27441,-1.30127,-1.33057,-1.34521,-1.36963,-1.38794,-1.40747,-1.42212,-1.43799,-1.44409,-1.44165,-1.427,-1.39038,-1.33545,-1.25,-1.1377,-1.0022,-0.84351,-0.67139,-0.48584,-0.29419,-0.09766,0.09888,0.29541,0.48828,0.68115,0.85938,1.02417,1.17676,1.31348,1.43555,1.53809,1.62598,1.69922,1.75903,1.80786,1.8457,1.87378,1.89331,1.90308,1.90674,1.90186,1.89453,1.88721,1.87134,1.85913,1.84204,1.82739,1.8103,1.79077,1.77856,1.75781,1.74072,1.71875,1.69067,1.67114,1.64063,1.60522,1.5686,1.521,1.46851,1.40869,1.34644,1.28296,1.21582,1.14502,1.0791,1.01318,0.94727,0.88501,0.82153,0.75928,0.70313,0.65186,0.60303,0.55908,0.52002,0.47974,0.44312,0.40527,0.36987,0.33325,0.30029,0.26489,0.23071,0.19775,0.16113,0.12573,0.09155,0.05615,0.01587,-0.02319,-0.0647,-0.1062,-0.14771,-0.18921,-0.22827,-0.271,-0.31372,-0.35645,-0.40283,-0.44922,-0.49561,-0.54321,-0.59082,-0.63477,-0.67627,-0.71655,-0.75439,-0.79468,-0.83618,-0.87402,-0.91064,-0.94727,-0.98145,-1.01563,-1.04736,-1.07666,-1.10718,-1.13647,-1.16089,-1.19263,-1.21948,-1.24512,-1.26953,-1.28906,-1.31348,-1.33545,-1.35742,-1.38062,-1.40259,-1.42944,-1.45264,-1.47461,-1.4978,-1.51733,-1.53931,-1.55884,-1.57715,-1.59668,-1.61743,-1.64063,-1.66016,-1.67847,-1.69434,-1.70776,-1.71875,-1.71753,-1.70166,-1.66748,-1.61133,-1.53442,-1.42456,-1.28662,-1.13281,-0.95703,-0.77515,-0.57251,-0.36621,-0.15991,0.05371,0.26001,0.45776,0.64941,0.82397,0.98999,1.13892,1.27075,1.38794,1.48682,1.57227,1.63818,1.68945,1.73218,1.76392,1.78711,1.80176,1.81152,1.81274,1.80908,1.80298,1.79077,1.77368,1.75537,1.73828,1.72119,1.70532,1.69189,1.67725,1.66138,1.64307,1.62231,1.60034,1.57227,1.53809,1.50391,1.46118,1.41235,1.35986,1.30371,1.24268,1.18042,1.11206,1.04492,0.97778,0.91431,0.85083,0.79224,0.73486,0.68115,0.62988,0.58105,0.53589,0.49316,0.45532,0.4187,0.3833,0.34668,0.3125,0.28076,0.24902,0.21118,0.17578,0.13306,0.10132,0.06592,0.03052,-0.00488,-0.04272,-0.08423,-0.11963,-0.16357,-0.20264,-0.2417,-0.28809,-0.32959,-0.36865,-0.40894,-0.448,-0.49072,-0.53101,-0.57495,-0.61768,-0.6604,-0.70557,-0.74829,-0.78857,-0.82764,-0.85938,-0.89722,-0.93018,-0.96558,-0.99854,-1.02783,-1.05957,-1.08643,-1.1145,-1.13892,-1.16211,-1.19019,-1.20972,-1.23657,-1.26221,-1.28662,-1.31348,-1.33179,-1.35376,-1.37329,-1.39038,-1.41357,-1.42578,-1.44531,-1.4624,-1.48071,-1.49902,-1.521,-1.53809,-1.55884,-1.57715,-1.59546,-1.61377,-1.6333,-1.65161,-1.6687,-1.68579,-1.69922,-1.71021,-1.71875,-1.72852,-1.73584,-1.7395,-1.73828,-1.72119,-1.68579,-1.6272,-1.54053,-1.427,-1.28906,-1.12671,-0.94971,-0.76172,-0.56396,-0.36255,-0.15381,0.05127,0.25146,0.45776,0.6543,0.8374,1.00586,1.15845,1.29028,1.40991,1.51123,1.59668,1.66748,1.72363,1.76758,1.80298,1.82373,1.84082,1.8457,1.84082,1.83472,1.82373,1.8103,1.79443,1.77368,1.75903,1.7395,1.72485,1.70532,1.68457,1.6626,1.63818,1.60889,1.57837,1.54541,1.50635,1.4624,1.41846,1.36108,1.30249,1.24146,1.17798,1.11572,1.05591,0.99487,0.93872,0.87891,0.82642,0.77271,0.71777,0.67017,0.62256,0.57861,0.53833,0.49683,0.46387,0.43213,0.40283,0.36621,0.32715,0.29419,0.26001,0.22705,0.19287,0.16235,0.12573,0.09155,0.05737,0.02075,-0.01831,-0.06104,-0.10254,-0.14404,-0.18433,-0.23071,-0.27222,-0.31982,-0.36377,-0.4126,-0.46021,-0.51025,-0.55664,-0.60303,-0.64697,-0.69214,-0.73364,-0.77637,-0.81543,-0.85693,-0.89722,-0.9375,-0.97656,-1.0144,-1.04858,-1.08398,-1.11938,-1.15112,-1.18042,-1.21094,-1.24146,-1.26831,-1.29028,-1.31348,-1.33545,-1.35742,-1.37817,-1.39404,-1.41357,-1.43311,-1.4502,-1.46606,-1.48926,-1.50757,-1.521,-1.53442,-1.54541,-1.56006,-1.57227,-1.58936,-1.604,-1.61987,-1.63696,-1.65161,-1.66748,-1.68091,-1.69434,-1.71265,-1.72852,-1.74683,-1.76514,-1.78467,-1.8042,-1.82129,-1.83472,-1.84448,-1.85791,-1.86523,-1.86279,-1.85425,-1.82495,-1.7749,-1.69922,-1.59058,-1.45508,-1.29639,-1.11816,-0.93628,-0.7312,-0.52734,-0.31982,-0.10742,0.10254,0.30029,0.49683,0.67993,0.85327,1.0083,1.1499,1.26587,1.36963,1.45508,1.52466,1.57593,1.62598,1.65771,1.68091,1.69189,1.69556,1.69189,1.68213,1.66748,1.64795,1.6272,1.604,1.58203,1.56372,1.54053,1.52222,1.4978,1.47705,1.4502,1.42456,1.39648,1.36353,1.32935,1.2915,1.24512,1.19873,1.1438,1.08765,1.03149,0.97168,0.91675,0.85449,0.80322,0.75439,0.70435,0.6604,0.61523,0.57617,0.54321,0.50903,0.47852,0.45166,0.4187,0.39673,0.36987,0.34668,0.32715,0.30029,0.27588,0.25146,0.22583,0.19897,0.16846,0.1416,0.10864,0.07568,0.03784,0.00122,-0.03784,-0.08057,-0.12207,-0.16357,-0.20874,-0.24902,-0.29297,-0.33691,-0.38208,-0.42603,-0.47119,-0.52002,-0.56152,-0.60547,-0.64697,-0.68481,-0.7251,-0.76416,-0.802,-0.84229,-0.87646,-0.91187,-0.9436,-0.97412,-1.0083,-1.03271,-1.06323,-1.08887,-1.11328,-1.14624,-1.16577,-1.19263,-1.2146,-1.23413,-1.25732,-1.27319,-1.2915,-1.30615,-1.32568,-1.34033,-1.3623,-1.37939,-1.39648,-1.41235,-1.42944,-1.44287,-1.45874,-1.47217,-1.4856,-1.50024,-1.51855,-1.53442,-1.55029,-1.56616,-1.58081,-1.59424,-1.60522,-1.61011,-1.60645,-1.58813,-1.55151,-1.4917,-1.40137,-1.28662,-1.14624,-0.98877,-0.81421,-0.62744,-0.43945,-0.2478,-0.05737,0.13428,0.32349,0.50659,0.67627,0.8374,0.97534,1.10229,1.21338,1.30737,1.38794,1.44897,1.50146,1.53931,1.56738,1.58447,1.58691,1.58813,1.57715,1.56372,1.54175,1.521,1.49292,1.46484,1.43311,1.40747,1.38062,1.3562,1.33057,1.30493,1.27808,1.24878,1.21338,1.17676,1.13647,1.09131,1.04614,0.99121,0.93628,0.88013,0.82397,0.7666,0.71289,0.66284,0.61157,0.56885,0.52979,0.4895,0.45898,0.42847,0.40161,0.37598,0.34912,0.32837,0.3064,0.28809,0.26733,0.24292,0.22705,0.20752,0.18921,0.16357,0.14282,0.11353,0.08789,0.0647,0.03662,0.01099,-0.02319,-0.05615,-0.09033,-0.12573,-0.16357,-0.19897,-0.23926,-0.27588,-0.31738,-0.35522,-0.39673,-0.43945,-0.48096,-0.52368,-0.56274,-0.60425,-0.64453,-0.67749,-0.71289,-0.74585,-0.78125,-0.81299,-0.84229,-0.87402,-0.9021,-0.93384,-0.96069,-0.98511,-1.0083,-1.03271,-1.05591,-1.07544,-1.09619,-1.11816,-1.1377,-1.16211,-1.17676,-1.19141,-1.20605,-1.2207,-1.23657,-1.25244,-1.26587,-1.28418,-1.30249,-1.31714,-1.33667,-1.35132,-1.36597,-1.38062,-1.39526,-1.41113,-1.42456,-1.44409,-1.45508,-1.46606,-1.47461,-1.46851,-1.44897,-1.40747,-1.34033,-1.25,-1.12915,-0.98999,-0.82764,-0.65186,-0.46509,-0.26733,-0.06592,0.13794,0.3418,0.53955,0.73364,0.91187,1.0791,1.23169,1.36841,1.4917,1.59668,1.68701,1.7627,1.82129,1.86523,1.89697,1.92139,1.93359,1.94214,1.94336,1.9397,1.93115,1.92139,1.90552,1.88354,1.86279,1.84326,1.82495,1.8042,1.78955,1.76514,1.74316,1.72119,1.69556,1.66748,1.63086,1.59546,1.5564,1.51001,1.45752,1.40015,1.34277,1.28418,1.22192,1.16333,1.09985,1.04004,0.98267,0.92285,0.87158,0.82031,0.77393,0.72998,0.6897,0.6543,0.61768,0.58838,0.56152,0.53223,0.50781,0.48096,0.45654,0.42969,0.40405,0.37842,0.34424,0.31372,0.27954,0.24414,0.20874,0.16846,0.13306,0.09277,0.05005,0.0061,-0.04272,-0.08057,-0.12451,-0.16846,-0.2124,-0.25757,-0.30151,-0.34668,-0.39063,-0.43457,-0.47974,-0.52124,-0.56396,-0.60547,-0.64575,-0.68359,-0.72632,-0.76172,-0.80078,-0.83374,-0.86792,-0.90454,-0.93994,-0.97046,-0.99976,-1.02661,-1.05347,-1.07666,-1.10229,-1.12427,-1.14868,-1.16943,-1.19263,-1.21582,-1.23535,-1.25366,-1.27686,-1.29395,-1.31226,-1.33057,-1.35254,-1.37207,-1.39282,-1.41113,-1.42822,-1.44653,-1.4624,-1.47949,-1.4978,-1.51245,-1.53198,-1.54785,-1.55762,-1.56372,-1.55762,-1.53687,-1.49902,-1.43066,-1.33667,-1.21582,-1.073,-0.91187,-0.72998,-0.54077,-0.3418,-0.13672,0.06836,0.27954,0.4834,0.68115,0.86182,1.03394,1.18896,1.33057,1.45752,1.5686,1.66626,1.74438,1.8103,1.86401,1.89941,1.92993,1.94458,1.95557,1.96045,1.95923,1.95313,1.9458,1.92505,1.91162,1.89453,1.87256,1.85791,1.8335,1.81641,1.7981,1.77979,1.76392,1.7395,1.71997,1.68945,1.65405,1.61743,1.57471,1.5271,1.47339,1.41602,1.35864,1.29517,1.23291,1.16821,1.10352,1.04126,0.979,0.92041,0.8667,0.81299,0.76904,0.72021,0.67749,0.63354,0.59326,0.55542,0.5188,0.48706,0.45532,0.42603,0.39551,0.36133,0.32837,0.29175,0.25635,0.21851,0.177,0.13916,0.09521,0.05493,0.01343,-0.03174,-0.0708,-0.11719,-0.16479,-0.21118,-0.26123,-0.30273,-0.34912,-0.39063,-0.43701,-0.49072,-0.52734,-0.57495,-0.6189,-0.66284,-0.70679,-0.74829,-0.78735,-0.82886,-0.8667,-0.90332,-0.94116,-0.97778,-1.0144,-1.04736,-1.08154,-1.11206,-1.1377,-1.16333,-1.18652,-1.21338,-1.23657,-1.26343,-1.28784,-1.31104,-1.33301,-1.3562,-1.37573,-1.39526,-1.40991,-1.42822,-1.44409,-1.46362,-1.47949,-1.49902,-1.51733,-1.53564,-1.55029,-1.56738,-1.58203,-1.60034,-1.61621,-1.63574,-1.65527,-1.67358,-1.69434,-1.71387,-1.72852,-1.74438,-1.75781,-1.77246,-1.78711,-1.7981,-1.80542,-1.80176,-1.78467,-1.74805,-1.67603,-1.58203,-1.4563,-1.30737,-1.1377,-0.95337,-0.75562,-0.54932,-0.33691,-0.11841,0.09399,0.30884,0.51514,0.70923,0.896,1.05835,1.20972,1.34521,1.46118,1.5625,1.64673,1.72119,1.77979,1.82129,1.85303,1.87744,1.88477,1.88965,1.88721,1.87988,1.8689,1.85181,1.83838,1.82129,1.80664,1.78833,1.7688,1.75415,1.74072,1.72363,1.70776,1.68823,1.66748,1.64063,1.61255,1.57349,1.52832,1.48071,1.42822,1.36963,1.3147,1.25244,1.19385,1.13281,1.07544,1.01563,0.95703,0.90332,0.84961,0.80078,0.75317,0.70557,0.67017,0.6311,0.59814,0.56152,0.52368,0.49438,0.46021,0.42603,0.39551,0.36377,0.33325,0.29785,0.26489,0.22705,0.19287,0.14893,0.1062,0.0647,0.02563,-0.01465,-0.05493,-0.1001,-0.14282,-0.19165,-0.23804,-0.28687,-0.33447,-0.37842,-0.42358,-0.46753,-0.5127,-0.55786,-0.59814,-0.64331,-0.68237,-0.72632,-0.76782,-0.80811,-0.84595,-0.87891,-0.91309,-0.94727,-0.979,-1.01196,-1.04736,-1.08032,-1.11206,-1.14258,-1.16943,-1.19385,-1.21948,-1.24268,-1.26709,-1.2915,-1.31592,-1.34277,-1.36475,-1.38428,-1.40137,-1.4209,-1.44165,-1.45386,-1.46851,-1.4856,-1.50146,-1.51489,-1.5332,-1.54785,-1.5625,-1.57715,-1.58936,-1.60767,-1.61499,-1.63574,-1.65283,-1.66748,-1.68335,-1.69678,-1.71143,-1.72607,-1.7395,-1.75903,-1.77368,-1.79199,-1.81152,-1.82983,-1.84937,-1.87012,-1.88354,-1.89697,-1.90552,-1.91772,-1.91406,-1.89941,-1.86646,-1.80542,-1.71875,-1.59424,-1.44287,-1.26343,-1.07178,-0.87158,-0.64941,-0.42847,-0.2063,0.01709,0.23926,0.44556,0.65063,0.84229,1.02295,1.18408,1.32568,1.45264,1.56006,1.65039,1.72119,1.77368,1.82373,1.85425,1.87744,1.88599,1.88721,1.88599,1.875,1.86035,1.83594,1.81519,1.79077,1.77002,1.75049,1.73096,1.71021,1.69189,1.67236,1.65405,1.63086,1.60767,1.57715,1.54663,1.51245,1.46973,1.42578,1.37329,1.31836,1.26221,1.20239,1.1438,1.08154,1.02905,0.979,0.92529,0.87524,0.82153,0.77759,0.73364,0.68848,0.64941,0.61157,0.57617,0.54565,0.51514,0.48828,0.46021,0.42603,0.39673,0.36621,0.33813,0.30884,0.27832,0.24902,0.21973,0.18677,0.15137,0.11597,0.07935,0.03662,-0.0061,-0.04761,-0.09521,-0.1355,-0.18188,-0.22461,-0.26733,-0.3186,-0.36377,-0.4126,-0.46021,-0.50781,-0.55664,-0.59937,-0.64331,-0.68726,-0.7251,-0.76782,-0.80078,-0.83862,-0.87524,-0.91064,-0.94604,-0.97412,-1.00708,-1.03271,-1.06079,-1.09375,-1.11572,-1.1438,-1.16821,-1.19385,-1.2146,-1.23779,-1.25977,-1.27808,-1.29883,-1.31958,-1.34033,-1.3562,-1.37695,-1.39282,-1.40747,-1.41968,-1.43188,-1.44531,-1.4563,-1.46729,-1.48071,-1.49536,-1.50879,-1.51978,-1.53198,-1.54541,-1.56006,-1.57227,-1.58691,-1.60278,-1.62354,-1.64185,-1.66016,-1.67847,-1.698,-1.71753,-1.72974,-1.74683,-1.75903,-1.76636,-1.76025,-1.73828,-1.69312,-1.61987,-1.51855,-1.38184,-1.22437,-1.0437,-0.84839,-0.64697,-0.43579,-0.22705,-0.01587,0.19165,0.39429,0.58716,0.76294,0.92773,1.07788,1.21216,1.32813,1.41846,1.50513,1.57227,1.62354,1.6626,1.68701,1.69922,1.70532,1.69678,1.68457,1.6626,1.63818,1.61133,1.58081,1.54785,1.51367,1.47827,1.45142,1.41968,1.38916,1.35742,1.32202,1.29761,1.26587,1.23657,1.19751,1.15479,1.11084,1.05957,1.00952,0.95459,0.90576,0.85083,0.80078,0.75439,0.71045,0.6665,0.62866,0.59082,0.55908,0.52368,0.49561,0.46875,0.44556,0.42603,0.40649,0.39063,0.37231,0.35767,0.3418,0.32104,0.30273,0.2832,0.25879,0.24048,0.21729,0.18921,0.16113,0.13428,0.10376,0.06958,0.03662,0,-0.03906,-0.07446,-0.11475,-0.15503,-0.19897,-0.24048,-0.2832,-0.32837,-0.37109,-0.4187,-0.45776,-0.50049,-0.54321,-0.58594,-0.62988,-0.66528,-0.69824,-0.73364,-0.7666,-0.79834,-0.83374,-0.86304,-0.89233,-0.92041,-0.94971,-0.97534,-0.99609,-1.02173,-1.04492,-1.06323,-1.08276,-1.09619,-1.11084,-1.12793,-1.14136,-1.15967,-1.17676,-1.19263,-1.20728,-1.22192,-1.23779,-1.24878,-1.26221,-1.27319,-1.28296,-1.29883,-1.31104,-1.32446,-1.33911,-1.35254,-1.36841,-1.38062,-1.3916,-1.40503,-1.41235,-1.41968,-1.40747,-1.3855,-1.34033,-1.27319,-1.1792,-1.05225,-0.90454,-0.7373,-0.55908,-0.36987,-0.17944,0.01221,0.21118,0.40649,0.59937,0.78491,0.95703,1.11694,1.26343,1.39282,1.50879,1.60645,1.68701,1.75415,1.80664,1.84937,1.87744,1.89697,1.90552,1.90552,1.90063,1.88232,1.86523,1.84448,1.82251,1.79321,1.76758,1.74072,1.71631,1.69312,1.66992,1.64185,1.61865,1.59302,1.56128,1.52954,1.49048,1.45264,1.40869,1.35742,1.30615,1.24268,1.19141,1.13403,1.07666,1.02173,0.96436,0.91309,0.86426,0.81665,0.77393,0.73486,0.69702,0.66284,0.63232,0.60425,0.5835,0.55786,0.53589,0.51514,0.49316,0.46631,0.44312,0.41992,0.39307,0.36499,0.33569,0.3064,0.27588,0.2417,0.20752,0.17212,0.13062,0.09033,0.04883,0.0061,-0.03662,-0.08057,-0.12329,-0.16968,-0.21484,-0.26367,-0.31128,-0.36011,-0.40649,-0.45166,-0.49561,-0.53833,-0.57861,-0.6189,-0.65796,-0.69824,-0.73975,-0.77026,-0.80444,-0.8374,-0.86792,-0.89722,-0.92651,-0.95337,-0.97656,-1.00342,-1.02295,-1.05225,-1.07544,-1.09619,-1.11572,-1.13403,-1.15112,-1.16943,-1.18896,-1.20605,-1.22314,-1.24146,-1.25854,-1.27441,-1.28906,-1.30127,-1.3147,-1.33301,-1.34888,-1.36841,-1.38428,-1.40137,-1.41602,-1.42578,-1.43311,-1.43188,-1.41846,-1.38672,-1.32935,-1.24878,-1.14136,-1.00708,-0.84595,-0.66772,-0.47852,-0.27832,-0.08057,0.12695,0.33081,0.52856,0.71899,0.90332,1.07056,1.22803,1.37207,1.50024,1.61499,1.70898,1.79199,1.85669,1.9043,1.94458,1.97021,1.99707,2.01294,2.02026,2.02271,2.01904,2.0105,1.99585,1.97876,1.96167,1.9458,1.92383,1.9104,1.89209,1.87744,1.85791,1.83838,1.81641,1.79199,1.76636,1.73218,1.69189,1.65039,1.60156,1.54907,1.4917,1.43188,1.36841,1.30493,1.24023,1.17798,1.11328,1.05957,1.00342,0.95093,0.89966,0.84839,0.80566,0.7605,0.71777,0.68481,0.64819,0.62012,0.59204,0.56641,0.53833,0.51392,0.48218,0.45044,0.42114,0.38696,0.35645,0.32227,0.28687,0.25513,0.21606,0.17822,0.13428,0.08911,0.04517,-0.00122,-0.04517,-0.09277,-0.1355,-0.18066,-0.22583,-0.26733,-0.31616,-0.36133,-0.40649,-0.45288,-0.49683,-0.54077,-0.57983,-0.6189,-0.65552,-0.69092,-0.7312,-0.76538,-0.79956,-0.83618,-0.86792,-0.9021,-0.92773,-0.95215,-0.97778,-1.0022,-1.03027,-1.05469,-1.0791,-1.10474,-1.12915,-1.14868,-1.17188,-1.19019,-1.2085,-1.22437,-1.24512,-1.26343,-1.28052,-1.29761,-1.31836,-1.33545,-1.35498,-1.37085,-1.38916,-1.40869,-1.43188,-1.4563,-1.47705,-1.4978,-1.51733,-1.5332,-1.55029,-1.55762,-1.56128,-1.55151,-1.52588,-1.48071,-1.40137,-1.30127,-1.17065,-1.01685,-0.84961,-0.66162,-0.47363,-0.27588,-0.07446,0.12695,0.33447,0.53101,0.71899,0.89111,1.05103,1.19873,1.32813,1.44165,1.53687,1.61865,1.68579,1.7395,1.78345,1.81885,1.84326,1.86646,1.87256,1.87744,1.87256,1.86768,1.85669,1.84082,1.82251,1.80786,1.78955,1.77856,1.76147,1.74927,1.73218,1.71997,1.70044,1.67847,1.65771,1.63208,1.60034,1.56494,1.51978,1.47217,1.41724,1.35742,1.29883,1.23169,1.17065,1.10962,1.05103,0.99487,0.9375,0.88501,0.83252,0.78125,0.73242,0.68237,0.64575,0.60791,0.57251,0.53955,0.50171,0.47119,0.43945,0.40527,0.37109,0.33691,0.29907,0.26611,0.23071,0.19653,0.16235,0.12451,0.08545,0.04639,0.00366,-0.04028,-0.08545,-0.12695,-0.1709,-0.21118,-0.25513,-0.29907,-0.34424,-0.3894,-0.43457,-0.4834,-0.52979,-0.57251,-0.61401,-0.6543,-0.69458,-0.73486,-0.77148,-0.81055,-0.84717,-0.88501,-0.92285,-0.95581,-0.98755,-1.01807,-1.04736,-1.0791,-1.10718,-1.13403,-1.16089,-1.18652,-1.2146,-1.23413,-1.25366,-1.27441,-1.29272,-1.3147,-1.33179,-1.35132,-1.36841,-1.38672,-1.40259,-1.41968,-1.43799,-1.45264,-1.46973,-1.48682,-1.50635,-1.52466,-1.54541,-1.56738,-1.58691,-1.60522,-1.62231,-1.63574,-1.65283,-1.66504,-1.68457,-1.69922,-1.71631,-1.72729,-1.73706,-1.73828,-1.72607,-1.70044,-1.65405,-1.57959,-1.48438,-1.35864,-1.21338,-1.05225,-0.87646,-0.69214,-0.50171,-0.30273,-0.1062,0.08911,0.2771,0.46509,0.63843,0.79834,0.94482,1.07666,1.19629,1.30127,1.39526,1.47095,1.53198,1.57837,1.61743,1.64063,1.65894,1.67114,1.67358,1.67603,1.67236,1.66504,1.65283,1.6394,1.62354,1.60767,1.58936,1.57471,1.55762,1.54541,1.53076,1.51611,1.49536,1.47095,1.44165,1.40625,1.37329,1.32935,1.28174,1.23413,1.18042,1.12549,1.07178,1.0144,0.95825,0.90088,0.84717,0.79712,0.75073,0.70801,0.66528,0.62744,0.58838,0.55298,0.5188,0.4895,0.46021,0.43213,0.40405,0.37354,0.34912,0.31982,0.28931,0.25879,0.22461,0.18921,0.15503,0.12207,0.08789,0.05737,0.01709,-0.02075,-0.06104,-0.10132,-0.14404,-0.18921,-0.23071,-0.27344,-0.31738,-0.35645,-0.40283,-0.44434,-0.48828,-0.53223,-0.57373,-0.61768,-0.6604,-0.69702,-0.73486,-0.77026,-0.80811,-0.84106,-0.87158,-0.90576,-0.93506,-0.9668,-0.99731,-1.02539,-1.05347,-1.0791,-1.1084,-1.13037,-1.15356,-1.17798,-1.20117,-1.22925,-1.24878,-1.26953,-1.29028,-1.30615,-1.3208,-1.34277,-1.35742,-1.37573,-1.3916,-1.40747,-1.42334,-1.43677,-1.45142,-1.45996,-1.47217,-1.4856,-1.49658,-1.51001,-1.52344,-1.53687,-1.55396,-1.5686,-1.58203,-1.59424,-1.60889,-1.62354,-1.63574,-1.65161,-1.66382,-1.67847,-1.69678,-1.71143,-1.72607,-1.74072,-1.75659,-1.77368,-1.78101,-1.79321,-1.79932,-1.80176,-1.78955,-1.75537,-1.69556,-1.60522,-1.48804,-1.34155,-1.1792,-0.99976,-0.80811,-0.60913,-0.40405,-0.2002,0.00732,0.21484,0.41382,0.60425,0.78125,0.9436,1.09253,1.22314,1.33667,1.43188,1.521,1.59546,1.65649,1.70532,1.74194,1.76758,1.78467,1.79199,1.79443,1.78833,1.77734,1.76147,1.74194,1.72241,1.7041,1.68213,1.66382,1.64307,1.62354,1.604,1.58081,1.56738,1.54541,1.521,1.49292,1.45508,1.42212,1.37939,1.33423,1.28906,1.23657,1.18774,1.13647,1.08765,1.03882,0.99243,0.93872,0.88989,0.84473,0.802,0.75928,0.72266,0.68848,0.65674,0.62744,0.59692,0.56519,0.53589,0.50781,0.48096,0.4541,0.42847,0.40283,0.37598,0.34912,0.31982,0.29053,0.25513,0.22217,0.18555,0.14648,0.10864,0.07446,0.03662,-0.00366,-0.04517,-0.09277,-0.13062,-0.17334,-0.21484,-0.25513,-0.29541,-0.33936,-0.38086,-0.4187,-0.45898,-0.49683,-0.53833,-0.57495,-0.61157,-0.64819,-0.67993,-0.71533,-0.74707,-0.77515,-0.80566,-0.83374,-0.8667,-0.89722,-0.92529,-0.95093,-0.97412,-0.99854,-1.01807,-1.03882,-1.05957,-1.0791,-1.10229,-1.11816,-1.13525,-1.15234,-1.16699,-1.18774,-1.19751,-1.21094,-1.22559,-1.24268,-1.25854,-1.27686,-1.29272,-1.30737,-1.31958,-1.33545,-1.34521,-1.3562,-1.36963,-1.38184,-1.39893,-1.41235,-1.42578,-1.44165,-1.45264,-1.46729,-1.4856,-1.50024,-1.51733,-1.5332,-1.55273,-1.57104,-1.58569,-1.60034,-1.61011,-1.61621,-1.61743,-1.5979,-1.56372,-1.50513,-1.4209,-1.31348,-1.16821,-1.00586,-0.82764,-0.63843,-0.44434,-0.24902,-0.05005,0.14648,0.33569,0.52002,0.69214,0.85449,1.00708,1.14258,1.26221,1.36475,1.4563,1.52954,1.58691,1.62964,1.66626,1.68213,1.69556,1.69556,1.69189,1.68213,1.66626,1.64795,1.62231,1.59424,1.56738,1.53809,1.51123,1.48804,1.46484,1.44165,1.41113,1.38916,1.35864,1.32568,1.29028,1.24878,1.2085,1.16089,1.1145,1.06445,1.01318,0.96191,0.91064,0.85815,0.81299,0.76904,0.72632,0.69214,0.65796,0.62866,0.60181,0.57373,0.54932,0.52856,0.51147,0.49316,0.47729,0.46021,0.44189,0.42725,0.40894,0.38696,0.36377,0.33813,0.31372,0.28931,0.26245,0.23804,0.21118,0.18066,0.14771,0.10742,0.06958,0.02808,-0.01343,-0.05615,-0.09399,-0.13794,-0.177,-0.21729,-0.25757,-0.29419,-0.33936,-0.37964,-0.41992,-0.46021,-0.49683,-0.53467,-0.56763,-0.59937,-0.6311,-0.66284,-0.69702,-0.72876,-0.75928,-0.78613,-0.81299,-0.83862,-0.85938,-0.88013,-0.90088,-0.91919,-0.9436,-0.96069,-0.97778,-0.99365,-1.0083,-1.02539,-1.03271,-1.0437,-1.05713,-1.06689,-1.07788,-1.09497,-1.10474,-1.1145,-1.12305,-1.13281,-1.14258,-1.15112,-1.16333,-1.17554,-1.19263,-1.21094,-1.23047,-1.25366,-1.27441,-1.29761,-1.32202,-1.34155,-1.36353,-1.38062,-1.39648,-1.40381,-1.39648,-1.37085,-1.31958,-1.24146,-1.13525,-0.99731,-0.84106,-0.67139,-0.49316,-0.31372,-0.11963,0.07202,0.26245,0.44922,0.62744,0.80078,0.95825,1.10352,1.23413,1.3501,1.4502,1.53687,1.61011,1.66748,1.71265,1.74927,1.7688,1.78467,1.78589,1.78345,1.77612,1.76147,1.74805,1.72729,1.70776,1.68701,1.66016,1.64307,1.61865,1.59546,1.57715,1.55273,1.53442,1.51245,1.48926,1.4624,1.42456,1.39404,1.35376,1.30859,1.26465,1.20972,1.16333,1.11206,1.06079,1.0144,0.9668,0.91675,0.87036,0.82642,0.78613,0.74829,0.71289,0.68237,0.65552,0.63232,0.61035,0.5896,0.56763,0.5481,0.52856,0.50903,0.48706,0.46631,0.44556,0.42603,0.40039,0.37354,0.34424,0.31006,0.27588,0.24048,0.2002,0.16357,0.12451,0.08545,0.04395,0,-0.04028,-0.08423,-0.12817,-0.1709,-0.20874,-0.25269,-0.29297,-0.33081,-0.36987,-0.41016,-0.45166,-0.49072,-0.52979,-0.56885,-0.60303,-0.64209,-0.67383,-0.70557,-0.73608,-0.76294,-0.79468,-0.82275,-0.84839,-0.87402,-0.89844,-0.92163,-0.94238,-0.96069,-0.97778,-0.99243,-1.0144,-1.02905,-1.04736,-1.06323,-1.08032,-1.09741,-1.11328,-1.12793,-1.14502,-1.16211,-1.1792,-1.19873,-1.21704,-1.23779,-1.25488,-1.27197,-1.29028,-1.30493,-1.32202,-1.33789,-1.35742,-1.37573,-1.39038,-1.40381,-1.41235,-1.41357,-1.40015,-1.36353,-1.30737,-1.21948,-1.11084,-0.979,-0.81665,-0.64575,-0.46143,-0.26855,-0.07568,0.12817,0.32837,0.5249,0.71167,0.88745,1.05225,1.20361,1.34277,1.46729,1.57593,1.66748,1.74927,1.81274,1.86157,1.89819,1.92627,1.93848,1.94702,1.94946,1.94702,1.94214,1.92993,1.91895,1.89941,1.8811,1.86035,1.83838,1.82251,1.80786,1.79199,1.77979,1.76025,1.74683,1.72485,1.7041,1.67725,1.65161,1.61865,1.58325,1.54785,1.50513,1.4563,1.40381,1.34766,1.28784,1.23047,1.1731,1.1145,1.06201,1.01074,0.96436,0.92285,0.87646,0.84229,0.80444,0.76904,0.73486,0.70313,0.67383,0.64697,0.62012,0.59326,0.56763,0.53955,0.51147,0.47974,0.44678,0.41138,0.37964,0.3479,0.31372,0.27832,0.23438,0.19531,0.15259,0.1062,0.06104,0.01709,-0.02686,-0.0708,-0.11475,-0.15991,-0.19897,-0.2478,-0.29053,-0.33447,-0.37476,-0.41626,-0.45532,-0.49072,-0.52246,-0.55664,-0.58472,-0.6189,-0.65063,-0.67993,-0.71045,-0.74097,-0.76904,-0.7959,-0.82275,-0.84839,-0.87158,-0.9021,-0.92407,-0.94727,-0.9729,-0.99609,-1.02051,-1.03394,-1.04858,-1.06201,-1.0791,-1.09375,-1.1145,-1.12915,-1.15112,-1.17065,-1.1853,-1.20483,-1.21948,-1.23779,-1.25366,-1.27563,-1.29395,-1.31714,-1.33667,-1.35986,-1.37817,-1.39893,-1.41846,-1.44043,-1.45874,-1.48071,-1.50513,-1.52466,-1.54785,-1.5686,-1.57837,-1.58569,-1.56616,-1.53564,-1.47461,-1.39404,-1.27563,-1.13892,-0.97778,-0.80078,-0.61279,-0.4126,-0.20874,0,0.2124,0.4187,0.62134,0.81299,0.99487,1.15845,1.31104,1.44653,1.5625,1.66504,1.75171,1.81885,1.875,1.9165,1.94824,1.97266,1.98975,1.99463,1.99951,1.98975,1.98608,1.97632,1.96167,1.94824,1.92627,1.9165,1.90063,1.88599,1.87012,1.85791,1.8396,1.81885,1.79443,1.77368,1.74316,1.71021,1.67358,1.63086,1.58569,1.53442,1.47705,1.41724,1.3562,1.29395,1.23169,1.16943,1.10962,1.05103,0.99731,0.9436,0.88989,0.83984,0.78979,0.74341,0.69946,0.6543,0.61768,0.58105,0.54932,0.51636,0.47974,0.45166,0.41748,0.38452,0.35156,0.32227,0.28687,0.25391,0.22339,0.18921,0.15381,0.11353,0.07446,0.03296,-0.01099,-0.05127,-0.09399,-0.13794,-0.17944,-0.22583,-0.26855,-0.31738,-0.36255,-0.40649,-0.45166,-0.49438,-0.54077,-0.57861,-0.61768,-0.65796,-0.69458,-0.73608,-0.77026,-0.80688,-0.84229,-0.87769,-0.91187,-0.93872,-0.9668,-0.99609,-1.02417,-1.05103,-1.08154,-1.11206,-1.13892,-1.16577,-1.19019,-1.2146,-1.23535,-1.25854,-1.2793,-1.30249,-1.32568,-1.34644,-1.36719,-1.38672,-1.40503,-1.41846,-1.43066,-1.44653,-1.45874,-1.47461,-1.49292,-1.50635,-1.51855,-1.53198,-1.54297,-1.5625,-1.56616,-1.57837,-1.58936,-1.604,-1.61743,-1.63818,-1.65649,-1.6748,-1.68945,-1.7041,-1.72119,-1.73584,-1.75049,-1.7688,-1.78345,-1.80176,-1.81763,-1.83594,-1.84937,-1.86401,-1.87256,-1.87744,-1.875,-1.86157,-1.83105,-1.78345,-1.698,-1.58447,-1.44287,-1.27686,-1.09375,-0.89355,-0.68359,-0.46875,-0.24902,-0.0293,0.18921,0.40527,0.61279,0.80688,0.99365,1.16089,1.3147,1.4502,1.5686,1.67114,1.76025,1.82739,1.88477,1.92871,1.95923,1.97998,1.99219,1.99707,1.99829,1.99097,1.9812,1.96167,1.94946,1.93115,1.9165,1.89819,1.87988,1.86401,1.84937,1.83228,1.81274,1.7981,1.77368,1.75049,1.72485,1.698,1.66138,1.61987,1.57227,1.51978,1.4624,1.40625,1.34399,1.28662,1.22803,1.16699,1.10962,1.05713,1.00342,0.95337,0.90576,0.86182,0.81787,0.77881,0.74707,0.71167,0.68237,0.65186,0.62378,0.59448,0.56274,0.53101,0.49194,0.45898,0.42358,0.3833,0.34546,0.30518,0.25635,0.20874,0.15869,0.11108,0.06348,0.01587,-0.0293,-0.0769,-0.12451,-0.17212,-0.22339,-0.27222,-0.32349,-0.36865,-0.41626,-0.46265,-0.50537,-0.54688,-0.58716,-0.62988,-0.67383,-0.71167,-0.74951,-0.79102,-0.82642,-0.8667,-0.89233,-0.92529,-0.95459,-0.98267,-1.00708,-1.03882,-1.06812,-1.09375,-1.12305,-1.14746,-1.1731,-1.19751,-1.2207,-1.2439,-1.26221,-1.28784,-1.30981,-1.33057,-1.34888,-1.36719,-1.38428,-1.40503,-1.42212,-1.43921,-1.45386,-1.46851,-1.47949,-1.49048,-1.50146,-1.51245,-1.5271,-1.5332,-1.54419,-1.55396,-1.56616,-1.57959,-1.59424,-1.60767,-1.62231,-1.63818,-1.65161,-1.66748,-1.68457,-1.69922,-1.71387,-1.72974,-1.74927,-1.76514,-1.78467,-1.80176,-1.81519,-1.8335,-1.84692,-1.86035,-1.86768,-1.86768,-1.86401,-1.84326,-1.80054,-1.73096,-1.63086,-1.50513,-1.34399,-1.16821,-0.97412,-0.77026,-0.5603,-0.34546,-0.13062,0.08423,0.29419,0.49683,0.68604,0.86792,1.03027,1.18042,1.30981,1.41846,1.521,1.60278,1.67358,1.72607,1.76514,1.79077,1.8042,1.81152,1.80908,1.79932,1.78711,1.7688,1.75171,1.72729,1.70654,1.68335,1.66138,1.64063,1.61499,1.59424,1.56982,1.55273,1.53442,1.51001,1.48438,1.44775,1.41479,1.37329,1.32568,1.27441,1.22437,1.16699,1.11572,1.06323,1.01074,0.96191,0.91064,0.86426,0.81909,0.77637,0.73853,0.70435,0.67383,0.64453,0.61646,0.59326,0.56885,0.54443,0.52002,0.49561,0.47363,0.45166,0.42847,0.40527,0.37842,0.35034,0.3186,0.28809,0.25391,0.22217,0.18799,0.15015,0.11597,0.07935,0.04272,0.00244,-0.04272,-0.08301,-0.12817,-0.17578,-0.22217,-0.271,-0.3125,-0.35278,-0.39673,-0.43701,-0.47607,-0.52002,-0.55908,-0.59937,-0.63599,-0.67505,-0.70801,-0.73975,-0.77271,-0.80322,-0.83252,-0.8606,-0.88867,-0.91553,-0.94238,-0.9668,-0.99121,-1.01318,-1.03271,-1.05225,-1.07422,-1.09497,-1.1145,-1.12915,-1.14624,-1.15845,-1.17188,-1.18408,-1.19751,-1.2085,-1.22314,-1.23901,-1.25,-1.26343,-1.27808,-1.29395,-1.30615,-1.32202,-1.34155,-1.35498,-1.37451,-1.39038,-1.41357,-1.42822,-1.44531,-1.46606,-1.48071,-1.49658,-1.51001,-1.521,-1.52588,-1.51733,-1.49902,-1.45508,-1.38306,-1.2854,-1.15723,-1.00952,-0.84229,-0.66162,-0.48218,-0.29297,-0.10376,0.09033,0.2832,0.46997,0.65063,0.81665,0.96924,1.11328,1.23779,1.3501,1.44165,1.51733,1.57959,1.62842,1.66748,1.69189,1.70044,1.70776,1.7041,1.69434,1.67603,1.65649,1.62842,1.60278,1.57349,1.54175,1.51245,1.48438,1.45752,1.43188,1.40381,1.37939,1.3501,1.31958,1.2854,1.24878,1.20728,1.15967,1.1084,1.05347,0.99854,0.9436,0.88745,0.83496,0.78369,0.73242,0.68604,0.63843,0.59814,0.5603,0.52979,0.49805,0.46509,0.44312,0.42358,0.40649,0.39185,0.37598,0.36499,0.354,0.33813,0.32471,0.3125,0.28931,0.27466,0.25391,0.23315,0.20386,0.17334,0.1416,0.10376,0.0647,0.03052,-0.01221,-0.05005,-0.08667,-0.12695,-0.16724,-0.21118,-0.25269,-0.29663,-0.33936,-0.38208,-0.42725,-0.46753,-0.51025,-0.5481,-0.58472,-0.62744,-0.65918,-0.69702,-0.73242,-0.76416,-0.80322,-0.8252,-0.85083,-0.87646,-0.89844,-0.92041,-0.94482,-0.9668,-0.98633,-1.00464,-1.02173,-1.0376,-1.05103,-1.06689,-1.0791,-1.09375,-1.10962,-1.12671,-1.14136,-1.15479,-1.16943,-1.18408,-1.19629,-1.20728,-1.21582,-1.22681,-1.24268,-1.25732,-1.27197,-1.28784,-1.30249,-1.3208,-1.33301,-1.34521,-1.35986,-1.37085,-1.38916,-1.39526,-1.39648,-1.38306,-1.34766,-1.28296,-1.19873,-1.08765,-0.94849,-0.79224,-0.6189,-0.43823,-0.24658,-0.05005,0.15259,0.35522,0.55908,0.75806,0.94849,1.12305,1.2854,1.42944,1.55884,1.67603,1.7749,1.86035,1.92749,1.97876,2.01904,2.04468,2.06299,2.06909,2.06909,2.06787,2.05933,2.05078,2.04102,2.02393,2.01294,1.99707,1.98486,1.96655,1.95313,1.94092,1.92505,1.9104,1.89209,1.86523,1.84692,1.81641,1.78467,1.74072,1.69189,1.64551,1.59546,1.54419,1.49048,1.43555,1.37817,1.3208,1.26465,1.20728,1.15356,1.09985,1.0498,1.00464,0.96069,0.92285,0.88745,0.85327,0.82153,0.78491,0.75195,0.71777,0.68604,0.65796,0.62988,0.60181,0.57373,0.53955,0.50659,0.46753,0.42847,0.38696,0.3479,0.30884,0.26733,0.22583,0.18433,0.14404,0.1001,0.05493,0.00732,-0.04517,-0.09155,-0.13672,-0.18188,-0.22705,-0.27588,-0.3186,-0.35889,-0.40405,-0.44678,-0.4834,-0.52856,-0.56274,-0.59937,-0.63354,-0.67017,-0.70557,-0.73975,-0.77515,-0.81055,-0.84229,-0.87891,-0.90576,-0.93384,-0.96191,-0.98755,-1.01685,-1.04126,-1.06812,-1.09131,-1.11572,-1.1377,-1.15845,-1.17798,-1.19629,-1.2146,-1.24146,-1.25488,-1.27319,-1.2915,-1.30981,-1.32813,-1.34644,-1.36353,-1.38062,-1.39893,-1.41968,-1.43921,-1.45874,-1.47949,-1.49658,-1.51611,-1.53198,-1.54541,-1.54907,-1.54297,-1.51611,-1.47461,-1.40625,-1.31104,-1.18652,-1.04004,-0.8728,-0.6897,-0.49561,-0.29297,-0.08789,0.11963,0.32715,0.53223,0.7312,0.91553,1.09375,1.24756,1.38916,1.51611,1.62354,1.72119,1.79321,1.85669,1.90796,1.94702,1.9751,1.99097,2.00684,2.01416,2.0166,2.01416,2.00562,1.99097,1.9751,1.95923,1.94336,1.93115,1.91772,1.90674,1.89087,1.87744,1.85913,1.83594,1.81519,1.78955,1.76147,1.72852,1.68579,1.64185,1.5918,1.53931,1.47827,1.41357,1.3501,1.28174,1.21704,1.15601,1.09131,1.03638,0.979,0.92407,0.86792,0.81909,0.77148,0.72876,0.68848,0.64941,0.60669,0.57739,0.54321,0.5127,0.47729,0.44312,0.40405,0.36865,0.33447,0.30151,0.26978,0.23315,0.19531,0.15991,0.11719,0.07568,0.03296,-0.01099,-0.05249,-0.09644,-0.14038,-0.18799,-0.2356,-0.28076,-0.32837,-0.37354,-0.42114,-0.46631,-0.51147,-0.5542,-0.59814,-0.63965,-0.67871,-0.71655,-0.7605,-0.79834,-0.83984,-0.87646,-0.91187,-0.94604,-0.98145,-1.01318,-1.04492,-1.07056,-1.10107,-1.13037,-1.15967,-1.18408,-1.20728,-1.22681,-1.24756,-1.26343,-1.28662,-1.30371,-1.32446,-1.34399,-1.3623,-1.3855,-1.40259,-1.41724,-1.43066,-1.44409,-1.46118,-1.47461,-1.49292,-1.51123,-1.52588,-1.54785,-1.56494,-1.58081,-1.5979,-1.61377,-1.62964,-1.64429,-1.66504,-1.68457,-1.70288,-1.72729,-1.74438,-1.76025,-1.77612,-1.78711,-1.80176,-1.79932,-1.79443,-1.76514,-1.71631,-1.63696,-1.53687,-1.40015,-1.24268,-1.06323,-0.87402,-0.67383,-0.46753,-0.25635,-0.04272,0.17212,0.38086,0.58594,0.78125,0.95825,1.12549,1.27197,1.39893,1.51611,1.61133,1.69189,1.75659,1.80908,1.85181,1.88232,1.90186,1.91895,1.92261,1.92505,1.92017,1.91406,1.90186,1.88599,1.87622,1.86401,1.85059,1.8396,1.82617,1.81396,1.80054,1.78467,1.76514,1.74927,1.72119,1.698,1.66016,1.62354,1.57471,1.521,1.46118,1.40381,1.33911,1.27563,1.21094,1.14868,1.08643,1.02539,0.96436,0.90454,0.85205,0.79956,0.75195,0.70923,0.66772,0.62988,0.59204,0.55908,0.52246,0.4895,0.45532,0.41992,0.38696,0.354,0.31616,0.28564,0.24902,0.21362,0.17212,0.12817,0.09033,0.04883,0.00488,-0.03662,-0.08301,-0.12451,-0.16968,-0.2124,-0.25757,-0.30029,-0.35156,-0.39673,-0.44189,-0.48096,-0.52612,-0.56396,-0.60303,-0.64331,-0.68359,-0.72021,-0.75928,-0.79956,-0.83496,-0.86792,-0.9021,-0.9314,-0.95947,-0.98633,-1.0144,-1.04248,-1.07056,-1.09985,-1.12671,-1.15234,-1.1792,-1.20605,-1.22925,-1.25,-1.27197,-1.29639,-1.32324,-1.34277,-1.36353,-1.38062,-1.40015,-1.41602,-1.43677,-1.45264,-1.47217,-1.48804,-1.50513,-1.52466,-1.54175,-1.5564,-1.57471,-1.58691,-1.604,-1.61743,-1.63452,-1.65039,-1.66504,-1.68457,-1.698,-1.71265,-1.72607,-1.73584,-1.75049,-1.76025,-1.77612,-1.79199,-1.8103,-1.83105,-1.84814,-1.86523,-1.88477,-1.90063,-1.92383,-1.93726,-1.95435,-1.96899,-1.98486,-1.99219,-1.99463,-1.97998,-1.94702,-1.88721,-1.80054,-1.68335,-1.53564,-1.36475,-1.17554,-0.97168,-0.7605,-0.53833,-0.31006,-0.07813,0.14771,0.36865,0.57983,0.78125,0.96436,1.13403,1.28662,1.41846,1.53564,1.63818,1.72485,1.79565,1.8457,1.89209,1.92139,1.94092,1.95435,1.95557,1.95679,1.95313,1.94214,1.92993,1.9104,1.89087,1.87256,1.85425,1.83838,1.82739,1.80786,1.79199,1.77368,1.75537,1.7334,1.7041,1.67236,1.6333,1.59668,1.54907,1.49658,1.44531,1.3855,1.32935,1.26831,1.20605,1.14624,1.08154,1.02417,0.96924,0.91431,0.8667,0.82031,0.77759,0.73608,0.6958,0.66162,0.625,0.5896,0.55908,0.5249,0.49927,0.46997,0.44189,0.40894,0.37231,0.34424,0.30762,0.271,0.2356,0.19653,0.15869,0.11841,0.07935,0.03784,-0.00244,-0.04639,-0.08667,-0.13062,-0.17456,-0.22095,-0.26367,-0.30884,-0.35156,-0.39673,-0.43701,-0.47974,-0.52246,-0.56396,-0.60425,-0.64331,-0.67993,-0.71655,-0.74951,-0.78491,-0.81909,-0.85327,-0.88623,-0.91797,-0.94604,-0.97534,-1.00586,-1.03027,-1.05591,-1.08276,-1.11084,-1.13892,-1.16455,-1.18652,-1.2085,-1.22681,-1.24512,-1.26587,-1.28662,-1.30493,-1.32324,-1.34155,-1.35864,-1.37451,-1.38672,-1.40137,-1.41113,-1.427,-1.43799,-1.4502,-1.4624,-1.47583,-1.48926,-1.50146,-1.51123,-1.52222,-1.53198,-1.54907,-1.5564,-1.57227,-1.58569,-1.60156,-1.62231,-1.63696,-1.65161,-1.6687,-1.68457,-1.698,-1.71997,-1.7395,-1.75781,-1.77734,-1.79688,-1.81152,-1.82495,-1.83716,-1.84326,-1.84814,-1.84326,-1.82739,-1.78711,-1.72852,-1.6394,-1.52344,-1.37329,-1.19995,-1.01074,-0.80933,-0.60303,-0.38452,-0.1709,0.04639,0.26001,0.46753,0.66284,0.84839,1.02295,1.18042,1.32324,1.43921,1.54175,1.6272,1.698,1.75415,1.79077,1.82251,1.84204,1.84937,1.84937,1.84082,1.82739,1.80664,1.77979,1.75293,1.72607,1.69312,1.66748,1.63818,1.61377,1.58813,1.5625,1.53687,1.51001,1.48193,1.45264,1.41602,1.38062,1.33545,1.2915,1.23657,1.18286,1.12915,1.07056,1.01807,0.96313,0.90698,0.86426,0.81909,0.77515,0.73608,0.69824,0.66528,0.63354,0.60791,0.58105,0.56274,0.54321,0.52612,0.51025,0.49438,0.47485,0.45776,0.43945,0.41992,0.40161,0.37964,0.35889,0.33325,0.30762,0.2771,0.24414,0.20752,0.16968,0.12939,0.08789,0.04517,0.00122,-0.04395,-0.09033,-0.13672,-0.18311,-0.2356,-0.27954,-0.32227,-0.36743,-0.41016,-0.44922,-0.4895,-0.52734,-0.56274,-0.59937,-0.62988,-0.66528,-0.6958,-0.72632,-0.75195,-0.78369,-0.81543,-0.84595,-0.8728,-0.90088,-0.92651,-0.95459,-0.979,-1.00464,-1.02661,-1.04858,-1.07056,-1.08887,-1.10596,-1.12183,-1.13892,-1.15845,-1.16943,-1.18286,-1.19629,-1.20728,-1.22437,-1.23535,-1.24756,-1.26221,-1.27563,-1.28662,-1.30371,-1.3147,-1.32935,-1.34033,-1.35498,-1.36963,-1.38306,-1.40381,-1.42334,-1.44165,-1.4624,-1.47827,-1.4978,-1.51367,-1.52954,-1.54785,-1.5625,-1.57715,-1.58691,-1.58936,-1.57959,-1.54663,-1.49048,-1.40381,-1.28906,-1.1499,-0.98267,-0.80322,-0.61157,-0.4126,-0.2063,0.00366,0.21729,0.42969,0.63477,0.83252,1.01318,1.18042,1.33301,1.46973,1.58936,1.69189,1.77979,1.85425,1.91162,1.95679,1.98853,2.00439,2.01294,2.0166,2.0105,2.00073,1.98853,1.97632,1.95557,1.93726,1.9165,1.88843,1.87012,1.84692,1.82495,1.8042,1.77734,1.76025,1.73828,1.71265,1.68213,1.64063,1.60522,1.56006,1.51123,1.45996,1.40625,1.35376,1.29639,1.24146,1.1853,1.13159,1.07666,1.02173,0.9729,0.92407,0.87891,0.8374,0.79834,0.76294,0.7312,0.69824,0.66895,0.63843,0.61279,0.58594,0.55786,0.53223,0.50781,0.48218,0.45654,0.42603,0.39429,0.35889,0.32104,0.2832,0.24048,0.19897,0.15503,0.1123,0.06714,0.02197,-0.0293,-0.07568,-0.12695,-0.177,-0.22827,-0.28076,-0.32471,-0.37231,-0.41748,-0.46631,-0.51025,-0.55908,-0.60425,-0.64819,-0.69092,-0.7251,-0.76172,-0.79468,-0.8252,-0.85571,-0.88501,-0.91797,-0.94482,-0.97168,-0.99854,-1.02417,-1.05103,-1.07544,-1.09741,-1.11938,-1.13892,-1.15967,-1.1792,-1.19751,-1.21582,-1.22803,-1.24512,-1.25244,-1.26343,-1.27441,-1.2854,-1.30127,-1.31226,-1.32446,-1.33545,-1.34399,-1.35376,-1.36353,-1.37817,-1.39038,-1.40503,-1.4209,-1.44165,-1.4563,-1.47339,-1.48804,-1.50269,-1.52466,-1.54175,-1.56128,-1.57837,-1.59668,-1.60889,-1.61011,-1.5979,-1.56738,-1.51245,-1.43311,-1.3208,-1.18042,-1.01807,-0.84106,-0.65063,-0.44189,-0.22949,-0.00732,0.21606,0.44312,0.6604,0.87158,1.06934,1.25366,1.42212,1.5686,1.69922,1.8103,1.90796,1.98364,2.04224,2.09106,2.12524,2.14478,2.1582,2.16309,2.16431,2.15942,2.14844,2.13501,2.12158,2.09717,2.07886,2.05566,2.03735,2.01782,1.99829,1.98486,1.96899,1.95435,1.9397,1.9165,1.89575,1.87134,1.83838,1.80298,1.75293,1.70776,1.65527,1.5979,1.54175,1.47339,1.41724,1.35254,1.2915,1.23291,1.17188,1.11938,1.06812,1.01807,0.9729,0.93262,0.88745,0.84961,0.81299,0.77881,0.74585,0.71533,0.68359,0.6543,0.62134,0.58716,0.55298,0.51392,0.47852,0.44312,0.40405,0.36743,0.32959,0.28687,0.24292,0.19775,0.14526,0.09644,0.04517,-0.00488,-0.05371,-0.10376,-0.14893,-0.19653,-0.24292,-0.29175,-0.3418,-0.38696,-0.43091,-0.47363,-0.51636,-0.55786,-0.59692,-0.63477,-0.67261,-0.71167,-0.74219,-0.78369,-0.82031,-0.85571,-0.88989,-0.92041,-0.95093,-0.98022,-1.00586,-1.03394,-1.05835,-1.08765,-1.1145,-1.14014,-1.15967,-1.18164,-1.20239,-1.21948,-1.23657,-1.2561,-1.27319,-1.29395,-1.30737,-1.3269,-1.34644,-1.3623,-1.38184,-1.39404,-1.40747,-1.42212,-1.43677,-1.45996,-1.47339,-1.49048,-1.51123,-1.5271,-1.53931,-1.56128,-1.57471,-1.5918,-1.61011,-1.63208,-1.65039,-1.66992,-1.68823,-1.70532,-1.72485,-1.74438,-1.7627,-1.77979,-1.79443,-1.8042,-1.80908,-1.79688,-1.7688,-1.71387,-1.63086,-1.52222,-1.38184,-1.21948,-1.03638,-0.84229,-0.63477,-0.41748,-0.19409,0.03418,0.26245,0.48584,0.70313,0.9082,1.09985,1.27319,1.43555,1.57593,1.69922,1.80908,1.89941,1.9751,2.03125,2.07764,2.1106,2.12646,2.13989,2.14355,2.14111,2.13745,2.12524,2.11182,2.09717,2.07642,2.05811,2.04224,2.02637,2.01172,1.99707,1.98608,1.97144,1.95923,1.9397,1.91772,1.88965,1.85791,1.81885,1.77734,1.72607,1.67603,1.62476,1.5686,1.51001,1.44531,1.39038,1.33057,1.27197,1.21826,1.15845,1.11206,1.06812,1.02783,0.98877,0.95703,0.91797,0.88501,0.85449,0.82642,0.7959,0.76782,0.74097,0.71533,0.68726,0.65796,0.62622,0.5896,0.5542,0.51636,0.47485,0.43701,0.39673,0.35645,0.31372,0.26733,0.22217,0.17456,0.12573,0.07813,0.03174,-0.01709,-0.06226,-0.10986,-0.15869,-0.20386,-0.25391,-0.29663,-0.34424,-0.38818,-0.43213,-0.47607,-0.51758,-0.55542,-0.59082,-0.62622,-0.65796,-0.6958,-0.72754,-0.75806,-0.78735,-0.81299,-0.83984,-0.8667,-0.89111,-0.91675,-0.94116,-0.97168,-0.99609,-1.02173,-1.04614,-1.06934,-1.09375,-1.11572,-1.13647,-1.15845,-1.1792,-1.20239,-1.22314,-1.24023,-1.25977,-1.27441,-1.29395,-1.30737,-1.3208,-1.33667,-1.35132,-1.37329,-1.38794,-1.40381,-1.42456,-1.43921,-1.45996,-1.47461,-1.4917,-1.51123,-1.5332,-1.55396,-1.58081,-1.60156,-1.62231,-1.64185,-1.66016,-1.67725,-1.69312,-1.71143,-1.72852,-1.74683,-1.76636,-1.78101,-1.80176,-1.81519,-1.82617,-1.82739,-1.81885,-1.79321,-1.74561,-1.6748,-1.57715,-1.44897,-1.29639,-1.12305,-0.9375,-0.73975,-0.52856,-0.31494,-0.09521,0.12207,0.33447,0.54932,0.75195,0.94238,1.11694,1.27686,1.4209,1.54663,1.65405,1.7395,1.81396,1.8689,1.91406,1.94702,1.96777,1.97998,1.9873,1.98486,1.98364,1.97266,1.95801,1.94092,1.92383,1.90674,1.89209,1.87988,1.86768,1.85669,1.84448,1.82983,1.81763,1.8042,1.78345,1.76147,1.73462,1.7041,1.6687,1.62231,1.57593,1.51978,1.4624,1.40015,1.33911,1.28174,1.22559,1.1731,1.11938,1.06689,1.01685,0.96924,0.92407,0.88257,0.84106,0.80444,0.77026,0.73853,0.70801,0.67383,0.64453,0.61035,0.57739,0.54321,0.50537,0.47485,0.44312,0.41016,0.3772,0.33691,0.3064,0.26611,0.23193,0.19409,0.15625,0.11353,0.07446,0.0293,-0.01465,-0.05859,-0.1062,-0.15503,-0.20264,-0.2478,-0.29419,-0.33691,-0.37842,-0.41992,-0.46021,-0.50049,-0.54077,-0.58105,-0.62378,-0.66284,-0.69824,-0.73364,-0.76538,-0.7959,-0.82153,-0.85083,-0.87524,-0.9021,-0.93018,-0.95825,-0.98755,-1.01685,-1.04004,-1.06689,-1.09009,-1.11572,-1.14258,-1.16577,-1.19019,-1.21338,-1.23779,-1.26709,-1.28174,-1.30127,-1.31836,-1.33667,-1.35498,-1.37573,-1.39526,-1.41602,-1.43555,-1.4502,-1.46851,-1.4856,-1.4978,-1.51245,-1.52466,-1.54053,-1.55396,-1.56616,-1.57959,-1.58936,-1.60278,-1.61499,-1.62598,-1.6394,-1.65161,-1.67114,-1.68579,-1.7041,-1.72241,-1.74072,-1.75903,-1.77368,-1.78833,-1.80298,-1.81519,-1.83105,-1.83716,-1.83838,-1.83105,-1.80908,-1.76758,-1.69556,-1.59668,-1.47339,-1.32446,-1.15845,-0.98267,-0.79224,-0.59448,-0.38818,-0.17334,0.03906,0.25513,0.46143,0.66528,0.84839,1.02051,1.17798,1.31958,1.44165,1.54785,1.6333,1.71265,1.77246,1.81885,1.84937,1.87012,1.87866,1.88232,1.87744,1.87134,1.86279,1.84692,1.83105,1.81396,1.79443,1.77612,1.75293,1.73706,1.72119,1.70654,1.69189,1.67358,1.65771,1.6394,1.61133,1.57837,1.54175,1.49292,1.44775,1.39893,1.34766,1.29639,1.23779,1.1853,1.12915,1.07666,1.02539,0.97412,0.92896,0.88989,0.84839,0.81665,0.77759,0.74707,0.71289,0.68481,0.6543,0.625,0.59692,0.57251,0.5481,0.52246,0.49438,0.46997,0.44067,0.4126,0.3833,0.35034,0.3186,0.28809,0.25513,0.22339,0.18188,0.14893,0.10498,0.06592,0.02441,-0.02563,-0.0647,-0.10498,-0.14648,-0.18555,-0.22461,-0.26489,-0.3064,-0.34546,-0.38574,-0.4248,-0.46387,-0.50293,-0.53955,-0.57495,-0.61523,-0.65063,-0.68726,-0.72144,-0.75562,-0.78857,-0.82397,-0.85449,-0.88501,-0.91187,-0.94116,-0.96924,-0.99854,-1.02417,-1.05103,-1.07422,-1.10229,-1.12427,-1.14746,-1.16577,-1.18652,-1.2085,-1.22559,-1.2439,-1.26343,-1.28296,-1.30493,-1.32202,-1.33789,-1.35376,-1.36841,-1.38184,-1.40259,-1.41846,-1.43677,-1.45508,-1.47339,-1.48926,-1.50513,-1.51855,-1.53687,-1.55396,-1.57715,-1.5979,-1.61621,-1.63818,-1.65771,-1.67969,-1.698,-1.71509,-1.7334,-1.74805,-1.7627,-1.76758,-1.76147,-1.74072,-1.698,-1.62964,-1.53076,-1.40381,-1.26221,-1.10107,-0.92896,-0.74463,-0.55298,-0.35645,-0.15503,0.04272,0.2478,0.44678,0.63354,0.80933,0.96558,1.10962,1.23413,1.34155,1.43433,1.50513,1.56494,1.61621,1.65283,1.67725,1.69556,1.70044,1.698,1.68945,1.6748,1.65894,1.63818,1.61743,1.59424,1.57227,1.55151,1.52954,1.50635,1.48071,1.46118,1.43921,1.41357,1.38428,1.3501,1.31592,1.27563,1.22803,1.18042,1.13037,1.0791,1.02905,0.98022,0.92896,0.88013,0.83252,0.78613,0.74219,0.69824,0.66162,0.62744,0.59692,0.56885,0.54199,0.52124,0.50049,0.47852,0.45776,0.44067,0.41626,0.39551,0.37476,0.354,0.33569,0.30884,0.28687,0.25635,0.22827,0.19775,0.16357,0.12695,0.09155,0.05249,0.01709,-0.02563,-0.06592,-0.1062,-0.15015,-0.19287,-0.23804,-0.2832,-0.32593,-0.36865,-0.40527,-0.44312,-0.47852,-0.51636,-0.55298,-0.58594,-0.62744,-0.6604,-0.6958,-0.72998,-0.76294,-0.802,-0.82886,-0.85693,-0.88867,-0.91797,-0.95337,-0.979,-1.00464,-1.02905,-1.04614,-1.06201,-1.08398,-1.09985,-1.11694,-1.13525,-1.15356,-1.1731,-1.18896,-1.20361,-1.2146,-1.22559,-1.2439,-1.25732,-1.27319,-1.28784,-1.30371,-1.3208,-1.33423,-1.34521,-1.35742,-1.37085,-1.3855,-1.40259,-1.41724,-1.43188,-1.4502,-1.46729,-1.48438,-1.50146,-1.51489,-1.5271,-1.5332,-1.53076,-1.51489,-1.47705,-1.41846,-1.33545,-1.2207,-1.08521,-0.92773,-0.75928,-0.5835,-0.39185,-0.19775,0,0.19409,0.39307,0.58228,0.76538,0.93872,1.09497,1.23901,1.36353,1.47583,1.5686,1.64551,1.70898,1.75537,1.79688,1.82861,1.84814,1.85791,1.86523,1.86279,1.85913,1.84814,1.83838,1.82495,1.80664,1.79199,1.77612,1.7627,1.74927,1.73218,1.71997,1.70288,1.68579,1.66626,1.64063,1.61377,1.57959,1.54053,1.4978,1.44531,1.39648,1.34033,1.2854,1.22681,1.17065,1.11694,1.06323,1.01196,0.96436,0.91187,0.87158,0.82642,0.78735,0.75073,0.71655,0.69458,0.66895,0.64453,0.62378,0.60059,0.57251,0.54565,0.52246,0.49683,0.47241,0.44556,0.41748,0.38818,0.35522,0.3186,0.2832,0.24414,0.20386,0.16235,0.11841,0.07446,0.02808,-0.01587,-0.0647,-0.11108,-0.15991,-0.2063,-0.25146,-0.29907,-0.34424,-0.38818,-0.43091,-0.47363,-0.5127,-0.55054,-0.58838,-0.62622,-0.66162,-0.6958,-0.72876,-0.76416,-0.79346,-0.82397,-0.85083,-0.87891,-0.9082,-0.9314,-0.95581,-0.97656,-0.99854,-1.01563,-1.03027,-1.0437,-1.05591,-1.06934,-1.08276,-1.09985,-1.11572,-1.13037,-1.14502,-1.15967,-1.17432,-1.18652,-1.20117,-1.21216,-1.22803,-1.24878,-1.26587,-1.28296,-1.30127,-1.31714,-1.33667,-1.35498,-1.37207,-1.39282,-1.41113,-1.43677,-1.45264,-1.47339,-1.49048,-1.50024,-1.51245,-1.51001,-1.50024,-1.47583,-1.42822,-1.36597,-1.26587,-1.1438,-0.99976,-0.83252,-0.65063,-0.46021,-0.25635,-0.04272,0.177,0.39673,0.61401,0.82642,1.03027,1.22437,1.40015,1.56006,1.7041,1.82495,1.92993,2.01538,2.0813,2.13989,2.1814,2.21313,2.23389,2.24487,2.24854,2.24731,2.24243,2.23267,2.21924,2.20093,2.18384,2.16919,2.15088,2.13745,2.11914,2.10327,2.0874,2.06909,2.05078,2.02881,2.00562,1.97998,1.94946,1.91528,1.8689,1.82495,1.7749,1.71631,1.65649,1.5918,1.52832,1.46484,1.40137,1.34155,1.28174,1.21704,1.16089,1.10352,1.05225,1.0022,0.95825,0.91431,0.87158,0.83496,0.79834,0.7605,0.72388,0.68481,0.65063,0.61401,0.57617,0.53833,0.50049,0.46265,0.42358,0.37964,0.33813,0.29053,0.2478,0.20386,0.15503,0.1123,0.06592,0.02075,-0.02563,-0.0769,-0.12329,-0.17578,-0.22217,-0.271,-0.32349,-0.36621,-0.4126,-0.45776,-0.50171,-0.55298,-0.59326,-0.63843,-0.68237,-0.72266,-0.76294,-0.79834,-0.83374,-0.8667,-0.90088,-0.93384,-0.96924,-1.0022,-1.03516,-1.06445,-1.09741,-1.12671,-1.15601,-1.18164,-1.20483,-1.22803,-1.2561,-1.28174,-1.30859,-1.33179,-1.35376,-1.37451,-1.3916,-1.40869,-1.42578,-1.44409,-1.46118,-1.47705,-1.49414,-1.50879,-1.52466,-1.54419,-1.55151,-1.56372,-1.57593,-1.59302,-1.60522,-1.62598,-1.64185,-1.65894,-1.67969,-1.698,-1.71753,-1.73706,-1.75415,-1.77246,-1.79077,-1.81152,-1.83105,-1.84814,-1.86279,-1.87012,-1.875,-1.86401,-1.83472,-1.78345,-1.70532,-1.60278,-1.46851,-1.31226,-1.13525,-0.94116,-0.73853,-0.52612,-0.30762,-0.08667,0.13672,0.3479,0.5603,0.75928,0.9436,1.11816,1.27319,1.41235,1.5332,1.63452,1.71997,1.78589,1.83838,1.87988,1.9104,1.93481,1.9458,1.95557,1.95557,1.95435,1.94946,1.93726,1.92383,1.90674,1.89453,1.88599,1.875,1.86768,1.85913,1.84937,1.84204,1.82861,1.81641,1.79688,1.77368,1.74927,1.71875,1.68213,1.64063,1.59668,1.54419,1.4856,1.42944,1.36353,1.30493,1.24634,1.1853,1.12915,1.07056,1.01807,0.96924,0.91797,0.87036,0.82153,0.78491,0.74341,0.70557,0.67017,0.6311,0.60059,0.56641,0.52979,0.49072,0.45532,0.41748,0.38208,0.34546,0.30884,0.2771,0.23438,0.19531,0.15259,0.11108,0.07324,0.02686,-0.01343,-0.05371,-0.09277,-0.13062,-0.17456,-0.21118,-0.25757,-0.30029,-0.34302,-0.38818,-0.42847,-0.46753,-0.50781,-0.54321,-0.58228,-0.62012,-0.66162,-0.69824,-0.73608,-0.77148,-0.80322,-0.83374,-0.86304,-0.89111,-0.92163,-0.94849,-0.98022,-1.00952,-1.03638,-1.06689,-1.09009,-1.11694,-1.14258,-1.16699,-1.19751,-1.21582,-1.24512,-1.26831,-1.2915,-1.31836,-1.33423,-1.35254,-1.37207,-1.38794,-1.40137,-1.41968,-1.43921,-1.4563,-1.47583,-1.49414,-1.51245,-1.52832,-1.54175,-1.5564,-1.57349,-1.5918,-1.61377,-1.63086,-1.64795,-1.66504,-1.68335,-1.70166,-1.71997,-1.73584,-1.75537,-1.77368,-1.79443,-1.81396,-1.83472,-1.85425,-1.87622,-1.89087,-1.90674,-1.91528,-1.91895,-1.91528,-1.88843,-1.84204,-1.77124,-1.66992,-1.54175,-1.39038,-1.21704,-1.02539,-0.82642,-0.61279,-0.40649,-0.18799,0.03052,0.24658,0.45776,0.65918,0.84717,1.02173,1.18042,1.32202,1.43799,1.54663,1.63452,1.70532,1.7627,1.80664,1.83838,1.86768,1.8811,1.88965,1.89087,1.88354,1.87622,1.86157,1.8457,1.82983,1.81274,1.80176,1.78711,1.77368,1.75781,1.74072,1.72974,1.71509,1.69556,1.67847,1.65894,1.63208,1.59912,1.5625,1.51611,1.46606,1.41113,1.35132,1.29028,1.22803,1.16455,1.10474,1.0437,0.98633,0.9314,0.88013,0.82764,0.78125,0.73853,0.69946,0.66406,0.62988,0.5957,0.57007,0.53955,0.50903,0.47729,0.44556,0.4126,0.3833,0.3479,0.31494,0.27832,0.24292,0.20264,0.16479,0.12085,0.07813,0.03418,-0.00854,-0.05249,-0.09888,-0.14282,-0.18677,-0.2356,-0.28442,-0.33813,-0.38452,-0.43335,-0.48218,-0.52856,-0.57129,-0.62012,-0.66406,-0.70801,-0.75195,-0.79224,-0.83374,-0.86914,-0.90332,-0.93872,-0.9668,-0.99976,-1.02783,-1.05835,-1.08643,-1.1145,-1.1438,-1.17065,-1.19141,-1.21704,-1.23779,-1.25732,-1.27319,-1.2915,-1.30859,-1.32568,-1.34644,-1.36108,-1.37695,-1.38672,-1.39771,-1.41479,-1.42456,-1.43921,-1.45386,-1.46729,-1.48682,-1.50024,-1.51489,-1.53198,-1.54785,-1.55884,-1.57959,-1.59546,-1.61133,-1.62964,-1.65039,-1.66992,-1.68701,-1.7041,-1.71631,-1.73096,-1.74194,-1.74805,-1.74438,-1.72607,-1.68945,-1.6272,-1.53687,-1.41968,-1.27563,-1.11694,-0.94482,-0.7605,-0.57251,-0.37842,-0.17822,0.01831,0.21851,0.41016,0.59326,0.76294,0.91675,1.05469,1.17554,1.28174,1.37207,1.44653,1.50513,1.55029,1.58936,1.61377,1.62964,1.63086,1.63086,1.62231,1.61011,1.59546,1.57593,1.55396,1.53442,1.51367,1.49414,1.47583,1.45752,1.44165,1.4209,1.40259,1.38306,1.35742,1.33179,1.29883,1.26221,1.21826,1.16943,1.11816,1.06201,1.0083,0.95581,0.89844,0.85083,0.802,0.75562,0.71167,0.66895,0.63354,0.59692,0.56519,0.53833,0.50781,0.4895,0.46997,0.45044,0.43335,0.41504,0.39551,0.37354,0.354,0.33447,0.31494,0.29297,0.26978,0.24414,0.21729,0.18433,0.15015,0.11597,0.08057,0.04517,0.0061,-0.03296,-0.07813,-0.11841,-0.16113,-0.2063,-0.25146,-0.29663,-0.34058,-0.3833,-0.42725,-0.46631,-0.50903,-0.54688,-0.58716,-0.625,-0.66528,-0.70313,-0.73853,-0.77393,-0.80933,-0.84351,-0.87402,-0.90088,-0.92773,-0.95459,-0.98389,-1.00342,-1.02661,-1.0498,-1.07178,-1.09131,-1.11084,-1.12915,-1.14746,-1.16455,-1.17798,-1.19995,-1.21704,-1.23413,-1.25244,-1.26709,-1.28052,-1.29517,-1.30859,-1.32446,-1.33789,-1.35742,-1.37329,-1.38794,-1.40381,-1.41968,-1.43799,-1.45386,-1.47217,-1.4917,-1.51123,-1.53442,-1.55029,-1.56616,-1.57593,-1.57593,-1.56494,-1.52832,-1.46851,-1.38428,-1.27563,-1.14746,-0.98877,-0.81665,-0.63354,-0.43579,-0.23682,-0.03052,0.17822,0.3833,0.58472,0.77515,0.95459,1.11816,1.27075,1.40381,1.51978,1.61743,1.70288,1.77124,1.82617,1.86768,1.90308,1.92505,1.94092,1.95435,1.95801,1.95679,1.95068,1.93848,1.92505,1.9104,1.89575,1.87988,1.86401,1.84937,1.83594,1.82251,1.8042,1.78711,1.76636,1.74072,1.71387,1.68213,1.65039,1.61255,1.5686,1.521,1.46484,1.41479,1.35864,1.30005,1.24023,1.18042,1.11938,1.06567,1.00952,0.95947,0.91431,0.86304,0.81909,0.77515,0.7373,0.69824,0.66284,0.6311,0.59814,0.56641,0.53833,0.50537,0.47607,0.44312,0.41016,0.37964,0.34424,0.31494,0.28076,0.24658,0.20874,0.16846,0.12695,0.08179,0.0354,-0.00977,-0.05981,-0.10376,-0.15137,-0.19653,-0.2417,-0.29297,-0.33569,-0.38452,-0.42969,-0.47607,-0.5249,-0.56274,-0.60059,-0.63721,-0.67383,-0.71533,-0.74707,-0.78613,-0.82275,-0.8606,-0.88989,-0.92529,-0.95337,-0.98022,-1.00464,-1.03149,-1.05591,-1.08276,-1.10474,-1.13037,-1.15479,-1.17432,-1.19263,-1.21216,-1.23047,-1.24634,-1.26343,-1.28296,-1.30127,-1.31958,-1.33911,-1.35376,-1.36841,-1.38184,-1.39771,-1.41479,-1.43188,-1.44775,-1.46362,-1.47827,-1.49658,-1.51367,-1.52954,-1.54907,-1.56494,-1.58447,-1.60645,-1.62354,-1.64429,-1.6626,-1.68213,-1.69678,-1.71509,-1.72852,-1.73462,-1.73096,-1.70898,-1.67358,-1.60889,-1.51611,-1.40015,-1.25,-1.08643,-0.90088,-0.70557,-0.49561,-0.27954,-0.06226,0.16113,0.38208,0.59814,0.80566,0.99609,1.1792,1.34521,1.4917,1.62354,1.73462,1.82373,1.9043,1.96655,2.0166,2.05688,2.07886,2.09595,2.10571,2.10938,2.10327,2.08984,2.0813,2.06787,2.05566,2.04224,2.03125,2.01904,2.00806,1.99829,1.98486,1.97266,1.95557,1.93848,1.92139,1.90063,1.87744,1.84326,1.80908,1.76758,1.71753,1.6626,1.60278,1.54297,1.48071,1.4209,1.35864,1.29883,1.23779,1.1792,1.12061,1.06689,1.0144,0.96436,0.92041,0.87524,0.83252,0.7959,0.75806,0.72266,0.68481,0.64941,0.61157,0.57495,0.54321,0.50903,0.47485,0.44189,0.40649,0.37231,0.33081,0.29053,0.24658,0.20996,0.17212,0.13184,0.09033,0.04517,0.00244,-0.04272,-0.08911,-0.13672,-0.18188,-0.22949,-0.27466,-0.3186,-0.36255,-0.40039,-0.44678,-0.48828,-0.53223,-0.57495,-0.61523,-0.65674,-0.69092,-0.72754,-0.7605,-0.79346,-0.82642,-0.85693,-0.88745,-0.91553,-0.94238,-0.97412,-0.99976,-1.02417,-1.0498,-1.07422,-1.10229,-1.12427,-1.1499,-1.17554,-1.20117,-1.22559,-1.24634,-1.26709,-1.2854,-1.30493,-1.3269,-1.34155,-1.36353,-1.38306,-1.39771,-1.41602,-1.42944,-1.44409,-1.45874,-1.47217,-1.49292,-1.50269,-1.52344,-1.54175,-1.55762,-1.57837,-1.5918,-1.60645,-1.61865,-1.62964,-1.64063,-1.65649,-1.67236,-1.68457,-1.69678,-1.70654,-1.71631,-1.72485,-1.73096,-1.73584,-1.74072,-1.74438,-1.74316,-1.72607,-1.68945,-1.6333,-1.55029,-1.43799,-1.29761,-1.13403,-0.95337,-0.75806,-0.55298,-0.33569,-0.11353,0.11475,0.33936,0.57251,0.79712,1.01074,1.20972,1.39771,1.56128,1.71143,1.83838,1.9458,2.03735,2.10938,2.16675,2.21069,2.23755,2.2583,2.26318,2.26807,2.26318,2.2522,2.23877,2.22046,2.20093,2.1814,2.16309,2.146,2.12646,2.10571,2.08618,2.07031,2.05078,2.03735,2.01782,2.00195,1.97876,1.95068,1.91162,1.86646,1.81763,1.76514,1.70654,1.64673,1.58325,1.52222,1.45874,1.39282,1.32446,1.25977,1.19995,1.1438,1.09009,1.04004,0.98755,0.94727,0.90454,0.8667,0.82886,0.79468,0.75684,0.72021,0.68604,0.65308,0.61768,0.58228,0.54443,0.50903,0.46753,0.42603,0.38086,0.33691,0.29175,0.24658,0.20142,0.15503,0.10742,0.06104,0.00977,-0.03784,-0.08911,-0.13672,-0.18433,-0.23193,-0.2771,-0.32227,-0.36499,-0.40649,-0.45166,-0.49438,-0.53955,-0.57861,-0.6189,-0.65552,-0.69336,-0.7312,-0.76294,-0.7959,-0.83252,-0.86792,-0.9021,-0.94116,-0.97168,-1.00342,-1.03394,-1.06079,-1.09131,-1.11694,-1.14624,-1.17188,-1.19629,-1.21948,-1.24268,-1.26343,-1.28296,-1.29883,-1.32202,-1.33667,-1.35864,-1.37695,-1.39771,-1.42212,-1.43921,-1.4563,-1.47583,-1.48926,-1.51001,-1.5271,-1.54541,-1.56616,-1.58447,-1.60645,-1.62354,-1.63818,-1.65527,-1.6687,-1.68945,-1.70166,-1.71875,-1.73706,-1.75659,-1.77124,-1.79565,-1.81152,-1.82861,-1.84326,-1.86401,-1.87988,-1.89941,-1.91772,-1.93359,-1.95068,-1.96533,-1.96777,-1.96045,-1.93237,-1.88232,-1.80542,-1.70166,-1.56982,-1.41479,-1.23901,-1.0498,-0.84717,-0.63721,-0.4187,-0.19897,0.02075,0.24048,0.45166,0.64941,0.83252,1.00342,1.15845,1.29517,1.41602,1.51611,1.60156,1.66626,1.71387,1.74805,1.7688,1.77856,1.77979,1.77612,1.7688,1.74927,1.72852,1.70166,1.67236,1.64551,1.61865,1.59546,1.57471,1.55273,1.53564,1.51611,1.50024,1.48193,1.45874,1.43311,1.40137,1.36597,1.32568,1.27808,1.23047,1.1792,1.12549,1.06812,1.00952,0.95337,0.89966,0.84717,0.80078,0.75439,0.71533,0.67627,0.64575,0.61157,0.57983,0.55664,0.53101,0.50659,0.48706,0.46021,0.44312,0.42114,0.39917,0.37598,0.3479,0.32471,0.29541,0.26733,0.23926,0.21118,0.177,0.1416,0.10742,0.0647,0.02563,-0.02319,-0.06958,-0.11597,-0.16235,-0.20874,-0.25269,-0.29663,-0.34058,-0.3833,-0.42725,-0.46753,-0.50537,-0.54199,-0.57861,-0.61279,-0.64697,-0.67749,-0.70923,-0.73975,-0.76904,-0.79712,-0.82397,-0.85327,-0.87524,-0.89966,-0.92407,-0.94849,-0.9729,-0.99731,-1.02051,-1.04492,-1.06689,-1.08887,-1.10718,-1.12549,-1.14502,-1.15601,-1.16943,-1.18408,-1.19873,-1.21704,-1.23413,-1.25122,-1.26709,-1.2854,-1.29639,-1.31714,-1.33179,-1.34644,-1.3623,-1.37817,-1.39404,-1.41113,-1.427,-1.44409,-1.45874,-1.47949,-1.49536,-1.51367,-1.53076,-1.54907,-1.56616,-1.57593,-1.57471,-1.5564,-1.51611,-1.4563,-1.36597,-1.25244,-1.11816,-0.96313,-0.79834,-0.61523,-0.42358,-0.22583,-0.02319,0.17334,0.37964,0.57739,0.76416,0.93872,1.09863,1.24268,1.37329,1.48438,1.58203,1.66138,1.72119,1.77246,1.80908,1.8335,1.85059,1.85913,1.85547,1.84814,1.84082,1.82983,1.81641,1.79565,1.77368,1.75293,1.7334,1.71265,1.69434,1.67847,1.66504,1.64795,1.63086,1.61011,1.58691,1.56128,1.52588,1.4856,1.43799,1.38794,1.33301,1.27686,1.21948,1.15845,1.10474,1.04736,0.98999,0.9375,0.88379,0.84229,0.80078,0.75928,0.72266,0.68481,0.65674,0.6311,0.60303,0.57861,0.55786,0.53467,0.51758,0.49927,0.47852,0.46021,0.43457,0.4126,0.38818,0.36377,0.33813,0.30884,0.28076,0.25024,0.21973,0.18799,0.15137,0.11475,0.07568,0.0354,-0.0061,-0.05127,-0.09155,-0.13184,-0.17578,-0.21851,-0.26245,-0.30029,-0.34546,-0.38452,-0.42603,-0.47119,-0.50659,-0.54688,-0.58472,-0.62134,-0.65674,-0.68726,-0.72144,-0.75317,-0.78247,-0.81909,-0.83984,-0.8667,-0.88989,-0.91187,-0.9314,-0.95337,-0.97412,-0.99487,-1.01563,-1.03516,-1.05103,-1.06812,-1.08032,-1.09619,-1.11206,-1.12915,-1.14868,-1.16699,-1.18408,-1.20117,-1.2146,-1.22925,-1.24756,-1.26343,-1.28296,-1.30249,-1.32446,-1.34644,-1.36841,-1.39038,-1.41479,-1.43311,-1.44775,-1.46973,-1.48682,-1.50391,-1.50269,-1.48804,-1.45142,-1.38794,-1.29761,-1.18774,-1.0498,-0.89478,-0.72144,-0.53345,-0.34058,-0.1355,0.07568,0.28809,0.50171,0.70923,0.90698,1.09253,1.25977,1.41357,1.54419,1.66382,1.76514,1.85181,1.92383,1.97998,2.01782,2.04712,2.06787,2.07886,2.08252,2.07886,2.06909,2.05566,2.03979,2.02759,2.00562,1.99097,1.97266,1.95557,1.9397,1.92139,1.9104,1.89575,1.88232,1.86768,1.84448,1.82861,1.80054,1.76514,1.72119,1.67358,1.61743,1.56128,1.50146,1.43799,1.37695,1.30981,1.24268,1.17798,1.11328,1.05103,0.99487,0.94238,0.896,0.84961,0.80688,0.76416,0.7251,0.68848,0.65552,0.62378,0.5896,0.55786,0.53101,0.50415,0.47119,0.44067,0.40771,0.3772,0.3418,0.30396,0.26489,0.22583,0.18799,0.14893,0.10742,0.0647,0.01953,-0.02319,-0.07202,-0.12085,-0.17334,-0.21851,-0.26367,-0.30884,-0.35522,-0.40039,-0.44189,-0.48828,-0.53223,-0.57617,-0.61401,-0.65918,-0.6958,-0.7312,-0.76904,-0.80078,-0.83496,-0.8667,-0.89844,-0.92896,-0.95947,-0.98999,-1.01807,-1.04614,-1.07544,-1.10229,-1.13281,-1.15723,-1.18408,-1.2085,-1.23291,-1.25977,-1.28296,-1.30371,-1.32568,-1.34155,-1.36719,-1.38428,-1.40259,-1.42212,-1.43799,-1.45874,-1.47217,-1.48804,-1.50513,-1.521,-1.54541,-1.55762,-1.57837,-1.59546,-1.61377,-1.62842,-1.64795,-1.66138,-1.67725,-1.69312,-1.71021,-1.72729,-1.74438,-1.75903,-1.77002,-1.77246,-1.7688,-1.74683,-1.70044,-1.62964,-1.53442,-1.41357,-1.27075,-1.1084,-0.92773,-0.73242,-0.5249,-0.3064,-0.08179,0.14526,0.37231,0.58838,0.79834,0.99365,1.1731,1.33667,1.48438,1.61255,1.72485,1.82129,1.90186,1.96411,2.0105,2.04834,2.07275,2.0874,2.09351,2.09595,2.09351,2.08496,2.07153,2.05933,2.03735,2.01904,2.00317,1.98486,1.96899,1.95068,1.93115,1.9165,1.89941,1.8811,1.85669,1.83228,1.8042,1.77124,1.72974,1.68457,1.6333,1.57837,1.51855,1.45386,1.38428,1.3147,1.25122,1.18408,1.12061,1.05713,0.99121,0.94238,0.88867,0.84106,0.79102,0.74829,0.70068,0.65674,0.61768,0.57739,0.54077,0.49927,0.45898,0.42114,0.37842,0.33813,0.29663,0.25146,0.20874,0.16724,0.12573,0.08301,0.04028,0,-0.04639,-0.08911,-0.13428,-0.18188,-0.22461,-0.26855,-0.30884,-0.35278,-0.39551,-0.43945,-0.48218,-0.52368,-0.57129,-0.60791,-0.65063,-0.69092,-0.72876,-0.76416,-0.79834,-0.83252,-0.86792,-0.90576,-0.9314,-0.96802,-0.99487,-1.02539,-1.05347,-1.08154,-1.10962,-1.13281,-1.16333,-1.19141,-1.21704,-1.24634,-1.26953,-1.2915,-1.31226,-1.33301,-1.35498,-1.37207,-1.39404,-1.41357,-1.43066,-1.4502,-1.46362,-1.47827,-1.4917,-1.50269,-1.51489,-1.52588,-1.54175,-1.55762,-1.57227,-1.5918,-1.604,-1.61865,-1.63452,-1.64917,-1.66138,-1.67725,-1.69678,-1.71265,-1.72974,-1.75049,-1.76758,-1.78589,-1.80176,-1.81763,-1.83716,-1.85425,-1.87256,-1.88477,-1.89087,-1.88965,-1.87378,-1.83472,-1.77124,-1.67847,-1.56128,-1.41602,-1.25244,-1.073,-0.88013,-0.67993,-0.46265,-0.2417,-0.01831,0.20752,0.42603,0.63965,0.8313,1.01563,1.18408,1.33423,1.46729,1.58081,1.68091,1.76392,1.82739,1.87866,1.90674,1.93604,1.95435,1.96045,1.96533,1.96533,1.96045,1.95435,1.94214,1.92993,1.91406,1.89819,1.88354,1.87256,1.86157,1.85303,1.84082,1.83105,1.81519,1.79932,1.77368,1.74561,1.71509,1.67603,1.6333,1.58569,1.53442,1.48438,1.42578,1.36841,1.30493,1.23901,1.17798,1.11572,1.05713,1.0022,0.9436,0.89966,0.84839,0.80078,0.75684,0.71289,0.67139,0.63354,0.59692,0.55908,0.52612,0.49072,0.45776,0.42603,0.39063,0.354,0.3186,0.28198,0.2417,0.20508,0.16602,0.12329,0.07935,0.03784,-0.00854,-0.05249,-0.09766,-0.1416,-0.18677,-0.23193,-0.271,-0.3125,-0.35156,-0.39063,-0.43213,-0.47119,-0.51636,-0.55298,-0.59326,-0.6311,-0.66772,-0.70435,-0.73608,-0.77026,-0.80811,-0.84229,-0.87646,-0.91187,-0.94849,-0.98022,-1.01318,-1.0376,-1.06934,-1.09619,-1.12549,-1.15356,-1.1792,-1.20728,-1.23169,-1.25244,-1.27563,-1.29395,-1.31836,-1.34033,-1.36108,-1.38062,-1.40137,-1.42212,-1.43799,-1.45508,-1.47339,-1.48682,-1.50635,-1.51855,-1.53442,-1.54907,-1.56616,-1.58447,-1.59912,-1.61621,-1.63086,-1.64673,-1.66748,-1.67725,-1.69434,-1.71021,-1.72852,-1.74316,-1.76636,-1.78223,-1.79932,-1.81274,-1.82983,-1.84937,-1.86646,-1.88599,-1.90552,-1.92505,-1.94336,-1.95801,-1.97144,-1.98486,-1.99341,-1.99707,-1.99097,-1.96899,-1.92627,-1.86035,-1.76758,-1.64551,-1.50024,-1.33301,-1.1499,-0.95459,-0.74463,-0.52856,-0.30762,-0.08545,0.13672,0.354,0.56274,0.76172,0.94116,1.10962,1.2561,1.38428,1.49658,1.58936,1.6687,1.73218,1.78223,1.82373,1.85181,1.8689,1.87988,1.87988,1.87988,1.87256,1.86157,1.85303,1.83838,1.82739,1.81641,1.8042,1.79321,1.78223,1.77368,1.76025,1.74805,1.73706,1.72119,1.7041,1.67725,1.65039,1.61499,1.57227,1.52588,1.47339,1.41846,1.35864,1.29761,1.24268,1.18408,1.12671,1.06812,1.01074,0.96191,0.91187,0.86426,0.82153,0.78247,0.74463,0.70923,0.67993,0.65186,0.62256,0.59448,0.56885,0.54077,0.51392,0.48462,0.46021,0.43091,0.40283,0.37354,0.34302,0.3064,0.26978,0.23315,0.19653,0.15991,0.11963,0.07935,0.04028,-0.00244,-0.04272,-0.08667,-0.12939,-0.17334,-0.21362,-0.25513,-0.29541,-0.33691,-0.37476,-0.41504,-0.45288,-0.49438,-0.53101,-0.56763,-0.60059,-0.63843,-0.67139,-0.70068,-0.72998,-0.75928,-0.78857,-0.82153,-0.84473,-0.87036,-0.89478,-0.91919,-0.94238,-0.96191,-0.98022,-1.00098,-1.01929,-1.03394,-1.05713,-1.07178,-1.08887,-1.10474,-1.11694,-1.13159,-1.14136,-1.15234,-1.16455,-1.1792,-1.19507,-1.2085,-1.21948,-1.23047,-1.23901,-1.25488,-1.26831,-1.28174,-1.29639,-1.31348,-1.33301,-1.35132,-1.37207,-1.39282,-1.41357,-1.43555,-1.45752,-1.47583,-1.49658,-1.51611,-1.54053,-1.55518,-1.56494,-1.5686,-1.55518,-1.53442,-1.48315,-1.41235,-1.31714,-1.20605,-1.07178,-0.91675,-0.74829,-0.57007,-0.38086,-0.19165,0.00977,0.20996,0.40527,0.59692,0.77393,0.93872,1.09009,1.22559,1.34277,1.44775,1.52954,1.59912,1.65039,1.68945,1.71143,1.72729,1.73096,1.72974,1.72241,1.71143,1.69556,1.6748,1.65283,1.62842,1.60156,1.57471,1.54907,1.52466,1.50024,1.47705,1.45264,1.42944,1.40259,1.37085,1.33545,1.29272,1.24634,1.19751,1.14868,1.09497,1.04492,0.98999,0.9375,0.88623,0.83618,0.78735,0.73853,0.69946,0.66162,0.62378,0.59082,0.55664,0.53467,0.51025,0.48828,0.46875,0.44678,0.42603,0.41016,0.38818,0.36987,0.354,0.32837,0.3064,0.27954,0.25391,0.22583,0.19531,0.16968,0.1355,0.10376,0.06836,0.03052,-0.00854,-0.05005,-0.09399,-0.13794,-0.18677,-0.22949,-0.27588,-0.3186,-0.36377,-0.41016,-0.45166,-0.49683,-0.53955,-0.57983,-0.62134,-0.65674,-0.69214,-0.72388,-0.75562,-0.78979,-0.81787,-0.85083,-0.88135,-0.91064,-0.9436,-0.96436,-0.98999,-1.01196,-1.03394,-1.05347,-1.07544,-1.09497,-1.1084,-1.12183,-1.13647,-1.14868,-1.16089,-1.17188,-1.18286,-1.19629,-1.20728,-1.22437,-1.23779,-1.25488,-1.26953,-1.28662,-1.30371,-1.31958,-1.33667,-1.3562,-1.37695,-1.39526,-1.41479,-1.43311,-1.45264,-1.46851,-1.48438,-1.49902,-1.51001,-1.52222,-1.52832,-1.51978,-1.4978,-1.45264,-1.3855,-1.29639,-1.17188,-1.03027,-0.87402,-0.70068,-0.52002,-0.32715,-0.12573,0.08057,0.28809,0.50049,0.69824,0.88745,1.06567,1.22681,1.37573,1.49902,1.61011,1.70166,1.77734,1.83838,1.87744,1.91162,1.93481,1.9458,1.94946,1.94458,1.93115,1.9165,1.90063,1.8811,1.86035,1.83594,1.81641,1.79565,1.77734,1.75781,1.73462,1.71509,1.69678,1.67847,1.65649,1.63086,1.60156,1.56128,1.51855,1.46973,1.41235,1.35498,1.29395,1.23291,1.16943,1.10718,1.04736,0.98755,0.93018,0.87402,0.81787,0.77393,0.72876,0.6897,0.65674,0.61768,0.58838,0.55664,0.52612,0.49683,0.46875,0.43457,0.40649,0.38086,0.354,0.32837,0.29907,0.26733,0.23193,0.19165,0.15625,0.11353,0.0708,0.03174,-0.01099,-0.05249,-0.09766,-0.14282,-0.18921,-0.23682,-0.28687,-0.33691,-0.38696,-0.43457,-0.48218,-0.52856,-0.57495,-0.61768,-0.66162,-0.70435,-0.74463,-0.78979,-0.82275,-0.85571,-0.88867,-0.91797,-0.94971,-0.97778,-1.00342,-1.03394,-1.06079,-1.08765,-1.11694,-1.14136,-1.16089,-1.18408,-1.20361,-1.22314,-1.23901,-1.25854,-1.27686,-1.29272,-1.31226,-1.32568,-1.34033,-1.35498,-1.36963,-1.38794,-1.40259,-1.4209,-1.43799,-1.45752,-1.47583,-1.4917,-1.50757,-1.52344,-1.54053,-1.5625,-1.57959,-1.59912,-1.61865,-1.63574,-1.66016,-1.67358,-1.68701,-1.69312,-1.69189,-1.68335,-1.64429,-1.59058,-1.50635,-1.39648,-1.26587,-1.10718,-0.93262,-0.74341,-0.54077,-0.32837,-0.11719,0.1001,0.32104,0.53467,0.74341,0.93628,1.11816,1.28174,1.42822,1.5564,1.6626,1.75537,1.82983,1.88843,1.93237,1.96533,1.98975,2.00317,2.00928,2.00806,2.00439,1.98853,1.97144,1.95435,1.93359,1.91528,1.89575,1.8811,1.86768,1.85547,1.84448,1.82373,1.80786,1.78833,1.76758,1.74927,1.71509,1.68701,1.64795,1.60156,1.55151,1.4917,1.43311,1.37085,1.30493,1.24023,1.16821,1.10962,1.04858,0.98511,0.92407,0.8606,0.80566,0.75195,0.7019,0.65796,0.62012,0.57739,0.54321,0.50659,0.47119,0.43701,0.39673,0.36133,0.32593,0.29175,0.25879,0.22217,0.18799,0.15015,0.1123,0.0708,0.02808,-0.01587,-0.05859,-0.10376,-0.14526,-0.19043,-0.23682,-0.2832,-0.32959,-0.37598,-0.4248,-0.47241,-0.51758,-0.56396,-0.60669,-0.64697,-0.6897,-0.7312,-0.77148,-0.81421,-0.85449,-0.89355,-0.93262,-0.96924,-1.0022,-1.04126,-1.073,-1.1084,-1.14136,-1.17432,-1.20728,-1.23413,-1.26343,-1.28906,-1.31348,-1.34033,-1.3562,-1.37573,-1.3916,-1.41113,-1.427,-1.45142,-1.46973,-1.48804,-1.50635,-1.52344,-1.53931,-1.55762,-1.57104,-1.5918,-1.61011,-1.62842,-1.64551,-1.66382,-1.67725,-1.69556,-1.71143,-1.72852,-1.74316,-1.7627,-1.77734,-1.7981,-1.81641,-1.83594,-1.85181,-1.8689,-1.88477,-1.89941,-1.91528,-1.93481,-1.94458,-1.95801,-1.95679,-1.94336,-1.90674,-1.84448,-1.75537,-1.63208,-1.48193,-1.31592,-1.12793,-0.93384,-0.72021,-0.50049,-0.27344,-0.04395,0.18799,0.40894,0.625,0.8252,1.01318,1.18408,1.33545,1.46973,1.58813,1.68579,1.77002,1.82861,1.88354,1.9165,1.93848,1.94824,1.95068,1.9458,1.94092,1.92993,1.9165,1.89697,1.8811,1.85669,1.83838,1.81885,1.80176,1.78345,1.77002,1.75781,1.74561,1.73096,1.71143,1.68823,1.66016,1.6272,1.58936,1.54541,1.50024,1.4502,1.39771,1.33911,1.28052,1.21948,1.15845,1.09741,1.0376,0.9729,0.92407,0.86792,0.82153,0.77515,0.7312,0.6897,0.65063,0.61157,0.57251,0.53711,0.49927,0.46265,0.42847,0.39063,0.35889,0.31616,0.27954,0.2417,0.2002,0.15869,0.11963,0.08057,0.04028,-0.00122,-0.04395,-0.08789,-0.13184,-0.177,-0.22095,-0.26611,-0.31128,-0.35522,-0.39795,-0.44312,-0.48462,-0.53345,-0.57617,-0.62256,-0.6665,-0.71045,-0.75195,-0.79346,-0.83008,-0.86792,-0.90576,-0.94482,-0.979,-1.0144,-1.05103,-1.08276,-1.11938,-1.14868,-1.17676,-1.20605,-1.23291,-1.26343,-1.28906,-1.31592,-1.34277,-1.36719,-1.39648,-1.41479,-1.43311,-1.45508,-1.47339,-1.49902,-1.51489,-1.5332,-1.55029,-1.56738,-1.57715,-1.59668,-1.60889,-1.62231,-1.6333,-1.64673,-1.66016,-1.6748,-1.69067,-1.70776,-1.72119,-1.73462,-1.74805,-1.76392,-1.77856,-1.79199,-1.81274,-1.82861,-1.8457,-1.86279,-1.8811,-1.89819,-1.91284,-1.92871,-1.94336,-1.95923,-1.97876,-1.99219,-2.00439,-2.01416,-2.0105,-1.99707,-1.95557,-1.89331,-1.79688,-1.67358,-1.5271,-1.34277,-1.14868,-0.94116,-0.71899,-0.49805,-0.26001,-0.02808,0.20508,0.42847,0.64453,0.85083,1.0376,1.21216,1.37085,1.51123,1.63208,1.73584,1.82373,1.88965,1.94092,1.97388,2.00195,2.0166,2.02271,2.02026,2.01172,1.99951,1.9812,1.95801,1.93481,1.9104,1.88354,1.86401,1.84204,1.82251,1.80664,1.78467,1.76758,1.74561,1.72119,1.69434,1.65894,1.62354,1.58447,1.54175,1.49658,1.44165,1.38916,1.33057,1.27075,1.20972,1.14624,1.08765,1.03271,0.979,0.93018,0.88013,0.83984,0.79712,0.75684,0.71655,0.67749,0.64209,0.60791,0.57495,0.54565,0.50903,0.48462,0.45166,0.42114,0.3894,0.34912,0.32349,0.28809,0.25391,0.21973,0.17944,0.13916,0.09888,0.05615,0.01221,-0.03052,-0.08057,-0.12817,-0.17578,-0.21973,-0.26733,-0.31128,-0.35889,-0.40405,-0.44922,-0.49438,-0.53833,-0.57861,-0.6189,-0.65552,-0.69458,-0.7312,-0.76904,-0.80444,-0.8374,-0.8728,-0.90576,-0.93872,-0.96802,-0.99854,-1.03027,-1.06201,-1.08887,-1.11816,-1.1438,-1.1731,-1.19995,-1.22192,-1.24634,-1.26587,-1.28662,-1.31104,-1.3269,-1.34888,-1.36719,-1.38672,-1.40991,-1.42334,-1.43799,-1.44897,-1.46118,-1.47583,-1.4856,-1.49658,-1.50879,-1.521,-1.5271,-1.54175,-1.55273,-1.5625,-1.57715,-1.59058,-1.60522,-1.62231,-1.63818,-1.65649,-1.67236,-1.69067,-1.70898,-1.72241,-1.7395,-1.75415,-1.77246,-1.79199,-1.80908,-1.82983,-1.84692,-1.86157,-1.86523,-1.85669,-1.83105,-1.78223,-1.70898,-1.60278,-1.46484,-1.30249,-1.11816,-0.92041,-0.70679,-0.48828,-0.26611,-0.03784,0.18188,0.40283,0.61279,0.81177,1.0022,1.17676,1.33057,1.47217,1.59424,1.69556,1.78345,1.8457,1.89941,1.93359,1.95557,1.96899,1.96899,1.96167,1.94702,1.92627,1.89941,1.87134,1.83838,1.8042,1.77368,1.74316,1.71509,1.68579,1.66138,1.63696,1.61255,1.58447,1.55518,1.52222,1.48804,1.44897,1.40625,1.36108,1.31348,1.26953,1.21948,1.16943,1.11938,1.07178,1.02295,0.97778,0.93506,0.89722,0.86304,0.8313,0.802,0.77515,0.74829,0.72632,0.70801,0.69092,0.67383,0.65308,0.64209,0.62744,0.61279,0.59448,0.57983,0.55664,0.53589,0.5127,0.48584,0.45898,0.42725,0.39429,0.36011,0.32349,0.28564,0.2417,0.2002,0.15381,0.1062,0.06104,0.01343,-0.03296,-0.08057,-0.12939,-0.17334,-0.22461,-0.271,-0.31738,-0.36255,-0.40283,-0.44312,-0.48218,-0.52124,-0.55786,-0.5957,-0.63232,-0.66162,-0.69458,-0.72266,-0.74829,-0.77637,-0.80078,-0.82397,-0.84473,-0.86426,-0.89111,-0.90942,-0.93018,-0.94971,-0.96436,-0.98633,-0.99976,-1.01318,-1.03027,-1.04614,-1.06201,-1.08154,-1.09985,-1.1145,-1.12915,-1.14258,-1.15845,-1.16943,-1.19019,-1.20483,-1.22681,-1.24634,-1.26587,-1.28662,-1.30249,-1.32202,-1.34033,-1.35498,-1.37085,-1.38428,-1.39282,-1.39038,-1.37085,-1.3269,-1.25366,-1.15845,-1.03638,-0.88867,-0.7251,-0.54565,-0.36011,-0.16479,0.03784,0.2417,0.45044,0.65063,0.84106,1.03271,1.20483,1.36597,1.50757,1.6333,1.74072,1.83228,1.90796,1.96899,2.0166,2.04834,2.06787,2.07764,2.0752,2.06665,2.04712,2.03247,2.0105,1.98486,1.95557,1.92871,1.89453,1.86401,1.82983,1.7981,1.76636,1.73462,1.70776,1.67358,1.64307,1.60889,1.56494,1.52222,1.47095,1.41846,1.35986,1.30127,1.24268,1.18286,1.12549,1.06934,1.01318,0.96313,0.91064,0.86426,0.82153,0.77759,0.74341,0.70923,0.67871,0.65186,0.62134,0.60181,0.57861,0.55542,0.53467,0.50781,0.49072,0.46875,0.44556,0.4187,0.39673,0.36377,0.32959,0.29297,0.25635,0.21851,0.177,0.1355,0.09033,0.04639,-0.00122,-0.04761,-0.1001,-0.14893,-0.2002,-0.24902,-0.29907,-0.34668,-0.39307,-0.44067,-0.48706,-0.53223,-0.57495,-0.6189,-0.65674,-0.69458,-0.73242,-0.76172,-0.79468,-0.82397,-0.85571,-0.88867,-0.91675,-0.94482,-0.97412,-0.99976,-1.02661,-1.04492,-1.06567,-1.08276,-1.10352,-1.11694,-1.14136,-1.15723,-1.17554,-1.19263,-1.20483,-1.2207,-1.23535,-1.24878,-1.26587,-1.28296,-1.30493,-1.3208,-1.33545,-1.35742,-1.37085,-1.39526,-1.41235,-1.42944,-1.44775,-1.46729,-1.48804,-1.50391,-1.50879,-1.50269,-1.47583,-1.427,-1.34766,-1.24023,-1.1084,-0.95215,-0.78247,-0.59326,-0.39551,-0.19043,0.02075,0.23804,0.44678,0.65918,0.86182,1.05225,1.22925,1.3916,1.53931,1.6687,1.77979,1.87744,1.95313,2.02271,2.07031,2.10693,2.13013,2.14233,2.14966,2.14478,2.13745,2.12891,2.11426,2.09595,2.0752,2.05444,2.02881,2.00806,1.98364,1.96167,1.94336,1.92383,1.90674,1.88354,1.86279,1.83716,1.8042,1.77002,1.72485,1.67725,1.62842,1.57349,1.51611,1.45142,1.3916,1.32813,1.26221,1.20117,1.13525,1.07788,1.02173,0.96924,0.92041,0.87524,0.83008,0.79102,0.74951,0.71289,0.68237,0.64575,0.61279,0.58105,0.54932,0.51636,0.48218,0.45166,0.41626,0.38208,0.3479,0.3064,0.26978,0.23071,0.19043,0.15015,0.10254,0.05615,0.00732,-0.0415,-0.08911,-0.1416,-0.19165,-0.23926,-0.28687,-0.33447,-0.3833,-0.42847,-0.47729,-0.5249,-0.57251,-0.6189,-0.65918,-0.69702,-0.7373,-0.77759,-0.82031,-0.85449,-0.89355,-0.92896,-0.96436,-1.00464,-1.03027,-1.06201,-1.08887,-1.11328,-1.13892,-1.16455,-1.19019,-1.21216,-1.23413,-1.25732,-1.28052,-1.30005,-1.32202,-1.34155,-1.3623,-1.38062,-1.40137,-1.4209,-1.44165,-1.46118,-1.48315,-1.49902,-1.51978,-1.53687,-1.55884,-1.57837,-1.60034,-1.61987,-1.6394,-1.66138,-1.68457,-1.70044,-1.71631,-1.73218,-1.74683,-1.76025,-1.76392,-1.75537,-1.72607,-1.67603,-1.60034,-1.48804,-1.3501,-1.18408,-1.0022,-0.80322,-0.60303,-0.38818,-0.16602,0.05371,0.27832,0.50049,0.71289,0.92041,1.10962,1.29028,1.44531,1.58569,1.70654,1.8103,1.89575,1.96899,2.01904,2.06299,2.09106,2.1106,2.11792,2.11548,2.1106,2.09717,2.0813,2.06299,2.03979,2.02271,2.00317,1.98242,1.96289,1.93726,1.9165,1.89575,1.87622,1.85547,1.82617,1.80664,1.78101,1.75049,1.71265,1.67114,1.62109,1.5686,1.51001,1.45508,1.39771,1.33423,1.27197,1.21338,1.1499,1.09253,1.03516,0.97778,0.92529,0.87646,0.82886,0.78369,0.74219,0.70435,0.6604,0.62256,0.58228,0.54077,0.50537,0.46875,0.43091,0.39673,0.35767,0.32227,0.28198,0.24414,0.20264,0.16235,0.11841,0.07568,0.0354,-0.00977,-0.04883,-0.09155,-0.14038,-0.19043,-0.24658,-0.29175,-0.34058,-0.38818,-0.43579,-0.4834,-0.52856,-0.57007,-0.61523,-0.65918,-0.69702,-0.74463,-0.78369,-0.82275,-0.86182,-0.896,-0.93384,-0.96802,-1.0022,-1.0376,-1.07056,-1.10229,-1.13281,-1.16089,-1.18774,-1.21094,-1.23779,-1.26221,-1.2854,-1.31104,-1.33423,-1.36108,-1.38306,-1.40503,-1.42456,-1.44165,-1.4624,-1.47705,-1.4978,-1.51245,-1.52954,-1.54907,-1.56494,-1.57837,-1.59424,-1.60889,-1.62964,-1.64185,-1.6626,-1.68335,-1.70288,-1.72974,-1.75049,-1.77246,-1.78955,-1.80786,-1.82495,-1.8396,-1.85059,-1.85303,-1.84692,-1.82129,-1.77612,-1.7041,-1.59912,-1.46362,-1.30859,-1.12793,-0.93262,-0.72876,-0.51636,-0.30029,-0.07935,0.14404,0.36499,0.58105,0.78735,0.97412,1.15234,1.30981,1.45264,1.57349,1.68213,1.76392,1.8335,1.89209,1.93481,1.96655,1.98364,1.99463,1.99707,1.98975,1.9812,1.96289,1.94702,1.92749,1.90308,1.88599,1.85669,1.84204,1.82495,1.80664,1.79077,1.7688,1.75537,1.73828,1.71509,1.68945,1.65649,1.61865,1.57227,1.52344,1.46729,1.41357,1.3501,1.29395,1.23413,1.17188,1.11206,1.05103,0.99731,0.93994,0.88501,0.83252,0.78247,0.73853,0.69458,0.65552,0.61523,0.57495,0.54077,0.50415,0.46997,0.43945,0.40527,0.37476,0.33936,0.30518,0.271,0.23315,0.19409,0.15259,0.1123,0.0708,0.02686,-0.01465,-0.05981,-0.10498,-0.15137,-0.20264,-0.24902,-0.29663,-0.3418,-0.38818,-0.43701,-0.47729,-0.52124,-0.56396,-0.60791,-0.65796,-0.69702,-0.73975,-0.77881,-0.81665,-0.85327,-0.88867,-0.92529,-0.95947,-0.99365,-1.02539,-1.05957,-1.09253,-1.12183,-1.15112,-1.18042,-1.20605,-1.23169,-1.25732,-1.28174,-1.30737,-1.33179,-1.35864,-1.38306,-1.40503,-1.42578,-1.44409,-1.4624,-1.47949,-1.49658,-1.51245,-1.53076,-1.54663,-1.56128,-1.57837,-1.59668,-1.61377,-1.63208,-1.64429,-1.66016,-1.67725,-1.698,-1.70898,-1.72729,-1.74561,-1.76025,-1.7749,-1.79321,-1.80908,-1.82739,-1.84448,-1.85913,-1.88354,-1.90186,-1.91895,-1.93848,-1.9519,-1.96167,-1.96045,-1.94824,-1.91406,-1.85547,-1.77124,-1.65649,-1.51001,-1.34155,-1.14746,-0.94482,-0.7251,-0.50537,-0.2771,-0.05127,0.17334,0.39673,0.60913,0.81177,1.0022,1.17432,1.33057,1.46973,1.58813,1.68579,1.76758,1.82861,1.87744,1.91162,1.93848,1.95313,1.95435,1.95557,1.94946,1.93604,1.91406,1.89209,1.8689,1.8457,1.82617,1.8042,1.78589,1.76392,1.74561,1.72607,1.70654,1.68457,1.66138,1.63208,1.60156,1.56616,1.52466,1.47949,1.42822,1.37451,1.31592,1.25977,1.19873,1.14014,1.08765,1.03149,0.97656,0.92651,0.88013,0.83496,0.79102,0.75195,0.71045,0.67627,0.64087,0.60669,0.57373,0.54077,0.51025,0.47852,0.44434,0.41016,0.37354,0.34546,0.31616,0.28076,0.2478,0.20752,0.17334,0.13428,0.08911,0.04517,0.00122,-0.04517,-0.08545,-0.12939,-0.17456,-0.21729,-0.26733,-0.31494,-0.36499,-0.4126,-0.46021,-0.50659,-0.5481,-0.5896,-0.6311,-0.67139,-0.70923,-0.74829,-0.78735,-0.82397,-0.85938,-0.89844,-0.93262,-0.9668,-0.99854,-1.02905,-1.05957,-1.08765,-1.11694,-1.14502,-1.17065,-1.19751,-1.21826,-1.23901,-1.25854,-1.27686,-1.29761,-1.31104,-1.32935,-1.34521,-1.35986,-1.38306,-1.39282,-1.40381,-1.41479,-1.427,-1.44165,-1.45142,-1.46973,-1.48315,-1.4978,-1.51001,-1.52832,-1.54053,-1.55762,-1.57349,-1.5918,-1.61011,-1.62842,-1.64795,-1.66626,-1.68457,-1.70166,-1.71631,-1.72852,-1.73828,-1.74194,-1.73096,-1.70532,-1.65283,-1.57471,-1.46729,-1.33545,-1.17798,-1.00586,-0.81787,-0.62378,-0.41992,-0.2124,0,0.21362,0.41992,0.62378,0.81177,0.98755,1.15112,1.29517,1.42334,1.52832,1.61743,1.68945,1.74438,1.78955,1.81274,1.83472,1.84082,1.8335,1.82373,1.80298,1.77734,1.74927,1.71509,1.68213,1.64307,1.60767,1.57471,1.54175,1.51001,1.47827,1.44531,1.41235,1.37939,1.34399,1.30859,1.26587,1.22192,1.17065,1.11938,1.06567,1.00952,0.95337,0.89844,0.84717,0.79712,0.75073,0.71289,0.67139,0.63599,0.59814,0.56519,0.53833,0.51147,0.48828,0.46509,0.43945,0.4248,0.40039,0.3833,0.36011,0.33081,0.31494,0.28931,0.26733,0.2417,0.2124,0.18799,0.15747,0.12451,0.08667,0.05249,0.00854,-0.03418,-0.07446,-0.11963,-0.16357,-0.21118,-0.25757,-0.30396,-0.35278,-0.40039,-0.448,-0.49438,-0.53711,-0.57983,-0.62256,-0.66284,-0.70435,-0.74097,-0.78003,-0.81543,-0.85449,-0.88867,-0.92041,-0.95459,-0.98389,-1.01318,-1.03882,-1.06567,-1.09375,-1.11816,-1.14136,-1.16333,-1.18042,-1.19751,-1.2146,-1.23413,-1.24512,-1.25854,-1.27441,-1.28906,-1.30493,-1.31836,-1.33301,-1.34644,-1.36108,-1.36963,-1.38916,-1.40137,-1.41846,-1.43433,-1.44897,-1.46606,-1.48071,-1.49536,-1.50879,-1.52344,-1.54053,-1.55518,-1.57104,-1.58447,-1.59058,-1.59058,-1.56982,-1.52466,-1.45508,-1.35376,-1.22803,-1.07544,-0.9082,-0.72266,-0.52734,-0.32227,-0.10742,0.10864,0.32349,0.53955,0.73975,0.94116,1.11938,1.28784,1.43799,1.56982,1.68579,1.78467,1.86768,1.93604,1.9873,2.02393,2.04712,2.06421,2.06665,2.06421,2.05688,2.04468,2.02759,2.00806,1.98242,1.96289,1.93481,1.91162,1.89087,1.86768,1.84326,1.82495,1.80298,1.78345,1.75781,1.73096,1.69434,1.65649,1.61133,1.56006,1.50879,1.4502,1.39282,1.33423,1.27441,1.21704,1.15723,1.09985,1.04492,0.99243,0.94727,0.9021,0.86182,0.82764,0.79346,0.7605,0.72876,0.69946,0.67017,0.64331,0.6189,0.59204,0.57251,0.55054,0.5249,0.50171,0.46875,0.44312,0.4126,0.3772,0.34424,0.3064,0.26978,0.23438,0.19287,0.15381,0.10986,0.06104,0.01343,-0.03418,-0.08179,-0.12695,-0.17822,-0.22461,-0.27222,-0.31738,-0.36743,-0.41626,-0.46143,-0.50781,-0.55054,-0.59082,-0.63232,-0.67139,-0.71045,-0.74829,-0.78735,-0.82397,-0.85815,-0.89111,-0.92285,-0.95337,-0.98267,-1.00586,-1.03394,-1.05713,-1.08154,-1.10596,-1.12549,-1.14624,-1.16577,-1.18042,-1.19995,-1.21338,-1.22803,-1.24023,-1.25977,-1.2793,-1.29395,-1.31348,-1.32935,-1.34399,-1.3623,-1.37573,-1.39404,-1.41357,-1.43555,-1.45508,-1.47705,-1.49902,-1.521,-1.54053,-1.56128,-1.58081,-1.59912,-1.61255,-1.62598,-1.6333,-1.62842,-1.60889,-1.5625,-1.48682,-1.38062,-1.25,-1.09497,-0.91919,-0.7312,-0.52979,-0.3186,-0.10132,0.12329,0.35156,0.57495,0.79102,0.99976,1.19629,1.37329,1.53809,1.68457,1.80542,1.91406,2.00684,2.0813,2.14478,2.18872,2.22656,2.24487,2.25464,2.2583,2.24854,2.23877,2.22412,2.20337,2.18262,2.15332,2.13501,2.10938,2.08618,2.06421,2.04346,2.02271,2.00195,1.97876,1.95557,1.93237,1.90063,1.86401,1.82373,1.77856,1.72974,1.67358,1.61377,1.55273,1.49048,1.42334,1.35742,1.29028,1.22437,1.16089,1.09985,1.04004,0.98877,0.93628,0.89111,0.84595,0.802,0.75806,0.71777,0.67871,0.64209,0.60791,0.57495,0.54321,0.51392,0.48096,0.44678,0.41138,0.3772,0.33936,0.30029,0.25757,0.22095,0.18188,0.14404,0.10498,0.06348,0.02441,-0.01709,-0.05737,-0.1001,-0.14526,-0.17944,-0.22095,-0.26001,-0.29907,-0.34424,-0.38086,-0.42358,-0.46387,-0.50781,-0.54932,-0.58838,-0.62622,-0.66284,-0.69824,-0.72876,-0.76904,-0.80566,-0.83862,-0.8728,-0.90454,-0.93628,-0.96436,-0.98877,-1.01807,-1.0437,-1.07056,-1.09863,-1.12549,-1.1499,-1.17188,-1.19751,-1.22192,-1.24146,-1.26343,-1.28052,-1.30127,-1.31836,-1.33545,-1.35376,-1.37085,-1.39038,-1.40747,-1.42456,-1.44531,-1.46118,-1.48438,-1.50269,-1.52222,-1.54419,-1.56494,-1.58936,-1.604,-1.62354,-1.64551,-1.66504,-1.69434,-1.71021,-1.73096,-1.75415,-1.7688,-1.78467,-1.7981,-1.80054,-1.79688,-1.77368,-1.73218,-1.6687,-1.57104,-1.44653,-1.29272,-1.11694,-0.92285,-0.71167,-0.49316,-0.26367,-0.03296,0.20142,0.43579,0.66162,0.87891,1.08398,1.27319,1.4502,1.604,1.7395,1.85181,1.94214,2.02271,2.0813,2.12524,2.15332,2.16675,2.17529,2.17407,2.16553,2.15332,2.13379,2.10815,2.08252,2.06055,2.03857,2.01782,1.99951,1.97754,1.96045,1.94092,1.92139,1.89697,1.87256,1.84326,1.81274,1.77979,1.7395,1.69556,1.64795,1.59302,1.53564,1.47217,1.41113,1.34766,1.28662,1.22314,1.15845,1.10107,1.0437,0.98877,0.93506,0.87891,0.83374,0.78857,0.74341,0.70313,0.66284,0.62622,0.5896,0.5542,0.51758,0.48462,0.44312,0.40894,0.37354,0.33813,0.30396,0.26245,0.22705,0.18311,0.1416,0.09888,0.05371,0.00732,-0.0354,-0.07813,-0.11963,-0.16479,-0.2063,-0.25024,-0.29541,-0.33691,-0.38696,-0.43091,-0.47729,-0.52124,-0.56519,-0.61035,-0.65308,-0.69336,-0.73364,-0.77515,-0.81787,-0.85693,-0.89722,-0.93384,-0.96924,-1.00586,-1.04004,-1.07178,-1.10474,-1.13403,-1.16821,-1.19385,-1.22437,-1.25122,-1.27563,-1.30371,-1.32813,-1.34766,-1.37085,-1.39648,-1.41357,-1.44165,-1.46118,-1.47949,-1.4978,-1.51367,-1.53564,-1.55151,-1.56982,-1.58936,-1.60889,-1.6272,-1.64429,-1.66382,-1.67725,-1.69556,-1.71509,-1.7334,-1.75415,-1.77246,-1.79077,-1.80908,-1.82617,-1.8457,-1.86401,-1.88232,-1.90186,-1.92139,-1.9397,-1.95679,-1.97632,-1.99341,-2.00195,-2.00439,-1.99097,-1.96167,-1.90918,-1.82617,-1.71509,-1.57959,-1.41846,-1.2439,-1.04614,-0.83984,-0.61523,-0.38818,-0.15503,0.07568,0.30396,0.52734,0.74097,0.93994,1.12549,1.2915,1.44531,1.57471,1.68457,1.77002,1.84814,1.90552,1.9458,1.9751,1.99097,1.99829,1.99951,1.99341,1.9812,1.96289,1.9397,1.91528,1.89087,1.86768,1.84692,1.82373,1.80786,1.78589,1.7688,1.75171,1.72974,1.70776,1.67969,1.64917,1.61377,1.5686,1.5271,1.47461,1.4209,1.36353,1.30005,1.24268,1.18164,1.12305,1.06567,1.00342,0.95459,0.90454,0.85571,0.80811,0.76294,0.72632,0.68848,0.65552,0.625,0.59692,0.56885,0.54321,0.51636,0.49072,0.46753,0.43579,0.40527,0.37476,0.3418,0.30884,0.271,0.23193,0.19531,0.15625,0.1123,0.06958,0.02197,-0.02197,-0.06714,-0.11108,-0.15747,-0.20264,-0.24536,-0.29053,-0.33569,-0.38208,-0.42969,-0.47119,-0.5127,-0.55542,-0.59326,-0.63354,-0.67383,-0.71045,-0.74585,-0.78613,-0.82275,-0.85815,-0.89233,-0.92896,-0.96191,-0.99487,-1.02173,-1.0498,-1.07788,-1.1084,-1.13159,-1.15479,-1.18042,-1.20483,-1.22803,-1.24878,-1.26831,-1.28784,-1.30615,-1.31958,-1.34155,-1.35986,-1.37939,-1.39893,-1.41357,-1.42944,-1.44287,-1.45874,-1.47583,-1.49048,-1.50757,-1.52222,-1.53809,-1.55273,-1.5686,-1.58569,-1.60278,-1.62231,-1.6394,-1.65649,-1.67725,-1.69434,-1.71265,-1.73462,-1.75171,-1.77124,-1.78833,-1.8042,-1.81885,-1.82739,-1.83228,-1.81885,-1.78223,-1.72241,-1.63452,-1.51978,-1.37695,-1.21216,-1.03149,-0.83618,-0.63843,-0.4248,-0.20874,0.00854,0.23071,0.448,0.65063,0.84595,1.02661,1.19019,1.34033,1.46118,1.56982,1.66016,1.73462,1.79321,1.83228,1.86157,1.87622,1.8811,1.87134,1.86035,1.83838,1.81641,1.79321,1.76636,1.73828,1.71387,1.68579,1.66138,1.63696,1.61499,1.5918,1.56738,1.54419,1.51611,1.48438,1.44775,1.40869,1.36597,1.31958,1.26465,1.21094,1.15601,1.10107,1.04614,0.99487,0.94482,0.89722,0.85205,0.80811,0.76904,0.73242,0.69946,0.67383,0.64819,0.62744,0.60181,0.58105,0.5603,0.53711,0.51514,0.49316,0.47241,0.45166,0.42847,0.40405,0.37354,0.34912,0.3186,0.28564,0.24902,0.2063,0.16968,0.12939,0.08911,0.05005,0.00244,-0.04028,-0.08545,-0.13428,-0.17822,-0.21973,-0.26855,-0.31006,-0.354,-0.39917,-0.43579,-0.48218,-0.52246,-0.56763,-0.60425,-0.64331,-0.67871,-0.71167,-0.74341,-0.77393,-0.80078,-0.83374,-0.86304,-0.89478,-0.92529,-0.95093,-0.97778,-0.99609,-1.01563,-1.0376,-1.05469,-1.07544,-1.09375,-1.1145,-1.13037,-1.14502,-1.16455,-1.17798,-1.19019,-1.20361,-1.21826,-1.23413,-1.24512,-1.26343,-1.27808,-1.29395,-1.31836,-1.32935,-1.34521,-1.36353,-1.37695,-1.39526,-1.41357,-1.43188,-1.44897,-1.46606,-1.48071,-1.50146,-1.51611,-1.52222,-1.52222,-1.51123,-1.47705,-1.42456,-1.34155,-1.23291,-1.10352,-0.95337,-0.78613,-0.60425,-0.41138,-0.21118,-0.01221,0.19287,0.40283,0.60791,0.802,0.98389,1.15601,1.30859,1.44531,1.56494,1.67358,1.75537,1.82739,1.88232,1.92139,1.95313,1.97021,1.98242,1.98608,1.98242,1.97388,1.95435,1.94214,1.92261,1.90063,1.8811,1.86157,1.84204,1.82861,1.81274,1.7981,1.78223,1.75903,1.73462,1.70898,1.67969,1.64551,1.60522,1.5625,1.51001,1.4563,1.39526,1.33545,1.27563,1.2146,1.15967,1.10718,1.05347,1.00708,0.96191,0.91919,0.87891,0.83984,0.80566,0.77393,0.74707,0.72021,0.69702,0.67627,0.65552,0.63477,0.61401,0.58838,0.56763,0.54199,0.5188,0.49561,0.46631,0.44189,0.41138,0.3772,0.33691,0.29053,0.25146,0.20874,0.16602,0.12329,0.07202,0.0354,-0.01221,-0.05981,-0.11108,-0.15625,-0.2063,-0.25269,-0.29663,-0.33936,-0.37842,-0.4187,-0.45654,-0.49438,-0.53345,-0.57251,-0.60791,-0.64453,-0.67749,-0.70923,-0.73975,-0.77026,-0.80078,-0.82764,-0.85571,-0.88013,-0.9082,-0.93384,-0.95825,-0.98022,-1.00342,-1.02417,-1.04492,-1.06323,-1.08521,-1.10596,-1.12793,-1.14746,-1.16699,-1.18286,-1.19995,-1.21948,-1.23779,-1.25366,-1.27686,-1.29395,-1.32202,-1.34033,-1.36108,-1.38184,-1.40015,-1.42212,-1.43921,-1.4563,-1.47827,-1.49658,-1.50879,-1.52344,-1.52466,-1.51367,-1.48438,-1.43188,-1.35864,-1.25732,-1.13647,-0.98999,-0.82642,-0.64941,-0.45654,-0.25269,-0.0415,0.17822,0.39185,0.60791,0.80933,1.00708,1.18774,1.34521,1.49414,1.62354,1.73462,1.82861,1.9043,1.96777,2.0105,2.04712,2.07275,2.08374,2.09106,2.09473,2.09106,2.08618,2.0752,2.05811,2.04468,2.02759,2.01172,1.99097,1.97144,1.95557,1.9397,1.92261,1.90308,1.88599,1.85791,1.83228,1.80176,1.7627,1.71997,1.67236,1.61987,1.56616,1.50513,1.44043,1.37329,1.30371,1.23779,1.16943,1.10474,1.04126,0.98145,0.93018,0.87891,0.83252,0.78125,0.73608,0.69336,0.65186,0.61157,0.57495,0.54077,0.50781,0.47363,0.44067,0.40161,0.36621,0.32959,0.29053,0.25513,0.2124,0.17578,0.13794,0.09521,0.05859,0.00977,-0.03052,-0.0769,-0.12573,-0.17334,-0.21484,-0.26489,-0.30762,-0.35522,-0.40283,-0.45166,-0.50171,-0.54688,-0.59204,-0.63354,-0.67261,-0.71289,-0.74951,-0.78857,-0.82397,-0.8606,-0.89722,-0.92896,-0.96436,-0.99487,-1.02417,-1.05469,-1.08154,-1.10962,-1.13647,-1.16455,-1.19019,-1.21704,-1.24268,-1.26831,-1.28906,-1.3147,-1.32935,-1.35132,-1.36719,-1.38794,-1.41357,-1.42822,-1.44775,-1.46484,-1.48193,-1.4978,-1.51367,-1.53076,-1.54663,-1.56372,-1.57959,-1.60034,-1.61865,-1.63696,-1.65405,-1.67725,-1.69312,-1.71387,-1.73096,-1.75293,-1.77368,-1.79688,-1.82007,-1.83594,-1.84814,-1.85425,-1.84814,-1.82739,-1.78223,-1.71631,-1.62598,-1.51001,-1.36963,-1.20972,-1.03027,-0.83618,-0.62988,-0.41138,-0.18677,0.0415,0.26855,0.48584,0.6958,0.89355,1.07544,1.23779,1.38672,1.51001,1.62109,1.70898,1.78223,1.84082,1.87988,1.91406,1.93481,1.94946,1.95923,1.96289,1.95557,1.94824,1.93481,1.92017,1.90063,1.88354,1.86768,1.85303,1.84082,1.82739,1.81396,1.7981,1.78345,1.7627,1.73828,1.70654,1.67603,1.63452,1.5918,1.54053,1.4856,1.42578,1.3623,1.29883,1.23169,1.16211,1.09619,1.03149,0.96802,0.9082,0.84717,0.79102,0.73486,0.68481,0.63232,0.58105,0.54443,0.50659,0.47119,0.43701,0.40283,0.36499,0.33081,0.29663,0.26123,0.22827,0.19409,0.16113,0.12939,0.09277,0.05493,0.01587,-0.02808,-0.0708,-0.11475,-0.15869,-0.20386,-0.24536,-0.28564,-0.32837,-0.36865,-0.41382,-0.45532,-0.50049,-0.54565,-0.58838,-0.63232,-0.67017,-0.70923,-0.74951,-0.78979,-0.83496,-0.87158,-0.90942,-0.94849,-0.98389,-1.02051,-1.05103,-1.08032,-1.11206,-1.13892,-1.16333,-1.19507,-1.22437,-1.25244,-1.27686,-1.30005,-1.32202,-1.34155,-1.3623,-1.38184,-1.40381,-1.42822,-1.44897,-1.47095,-1.49048,-1.51123,-1.52954,-1.54419,-1.55884,-1.57227,-1.58691,-1.604,-1.61743,-1.63208,-1.64673,-1.65894,-1.6748,-1.67847,-1.69189,-1.70044,-1.71265,-1.73096,-1.74683,-1.76025,-1.77734,-1.79321,-1.80664,-1.82251,-1.83838,-1.85425,-1.87134,-1.88599,-1.90186,-1.9165,-1.92993,-1.94092,-1.94336,-1.9397,-1.92139,-1.88599,-1.82495,-1.7395,-1.6272,-1.49048,-1.32813,-1.14868,-0.95459,-0.74341,-0.52246,-0.29297,-0.05981,0.17334,0.40039,0.62134,0.8313,1.02295,1.19995,1.36108,1.50024,1.61987,1.72363,1.8042,1.8689,1.91772,1.95801,1.98486,2.00439,2.01416,2.02026,2.01416,2.00806,1.99463,1.97998,1.96289,1.94214,1.92627,1.90796,1.89575,1.8811,1.86401,1.84692,1.82861,1.80786,1.78467,1.75659,1.72607,1.69189,1.64917,1.59912,1.54663,1.49048,1.43066,1.36597,1.30005,1.23535,1.17188,1.1084,1.0498,0.99243,0.93628,0.88379,0.83252,0.78369,0.7373,0.6897,0.6543,0.61646,0.58228,0.54932,0.51758,0.4834,0.448,0.41626,0.38208,0.34912,0.31128,0.27588,0.23926,0.2002,0.16235,0.12085,0.07935,0.03784,-0.00732,-0.05005,-0.09277,-0.1355,-0.17822,-0.21973,-0.26123,-0.30396,-0.34668,-0.38696,-0.42969,-0.46631,-0.50415,-0.54077,-0.57373,-0.60791,-0.63965,-0.67505,-0.70557,-0.73486,-0.76538,-0.79346,-0.82642,-0.85449,-0.88013,-0.9082,-0.93506,-0.96436,-0.98511,-1.01196,-1.0376,-1.06079,-1.08765,-1.11084,-1.13159,-1.15234,-1.17188,-1.19019,-1.21216,-1.23047,-1.25244,-1.27197,-1.2915,-1.31104,-1.32568,-1.34277,-1.35864,-1.37207,-1.38916,-1.40503,-1.42578,-1.44287,-1.46118,-1.48071,-1.49658,-1.51611,-1.5332,-1.54907,-1.5686,-1.58325,-1.604,-1.61865,-1.63574,-1.65771,-1.66748,-1.68213,-1.698,-1.71265,-1.73218,-1.75171,-1.77124,-1.78833,-1.80908,-1.82617,-1.8396,-1.84814,-1.85303,-1.84326,-1.81885,-1.77246,-1.69922,-1.59912,-1.47339,-1.32324,-1.15356,-0.96313,-0.76294,-0.54932,-0.32593,-0.09888,0.13306,0.36255,0.58716,0.79712,0.99121,1.17432,1.33789,1.47949,1.5979,1.70044,1.77856,1.84326,1.89453,1.92993,1.95679,1.96777,1.9751,1.97266,1.96289,1.9458,1.92627,1.90186,1.87744,1.84937,1.82861,1.8042,1.78101,1.7627,1.74072,1.72119,1.69678,1.6748,1.64917,1.61865,1.58813,1.55151,1.50757,1.46118,1.40991,1.35376,1.29395,1.23047,1.16943,1.11206,1.05591,1.00098,0.94849,0.90088,0.85205,0.80811,0.76294,0.72266,0.68726,0.6543,0.625,0.59448,0.56641,0.54443,0.5188,0.49438,0.46875,0.44189,0.41504,0.38696,0.36255,0.33325,0.30518,0.26978,0.2356,0.20142,0.16113,0.11963,0.07813,0.03418,-0.00732,-0.05127,-0.09399,-0.13794,-0.18433,-0.22827,-0.27344,-0.31616,-0.36011,-0.40161,-0.43945,-0.47852,-0.51758,-0.55786,-0.59326,-0.63232,-0.67139,-0.70679,-0.74585,-0.77637,-0.80933,-0.83984,-0.86792,-0.90088,-0.92285,-0.95093,-0.98022,-1.00952,-1.03271,-1.05835,-1.0791,-1.10107,-1.12061,-1.14014,-1.16211,-1.18164,-1.20117,-1.21704,-1.23413,-1.24634,-1.25854,-1.26831,-1.27808,-1.28296,-1.29761,-1.30493,-1.31592,-1.32813,-1.34155,-1.35498,-1.36719,-1.38062,-1.39282,-1.40503,-1.42578,-1.44409,-1.46729,-1.48682,-1.50757,-1.53076,-1.54907,-1.57104,-1.59058,-1.60767,-1.62354,-1.6272,-1.62231,-1.5979,-1.55029,-1.47583,-1.38062,-1.25977,-1.11572,-0.95459,-0.77515,-0.58594,-0.38574,-0.17822,0.0354,0.24902,0.46265,0.66895,0.86304,1.04004,1.20361,1.34399,1.46973,1.57471,1.6626,1.73218,1.79077,1.82861,1.85425,1.8689,1.875,1.87134,1.85913,1.84204,1.82495,1.80298,1.77612,1.74927,1.72363,1.698,1.67236,1.64917,1.61987,1.60278,1.58203,1.5625,1.54419,1.51611,1.49414,1.46118,1.4209,1.37329,1.3208,1.26465,1.20605,1.14868,1.08643,1.03149,0.97168,0.91553,0.86182,0.81299,0.76294,0.71899,0.67627,0.63843,0.60303,0.57251,0.54688,0.52246,0.49805,0.47852,0.45654,0.43213,0.41016,0.38696,0.36621,0.34302,0.31494,0.29175,0.26001,0.22949,0.19165,0.15259,0.11475,0.07202,0.03174,-0.01343,-0.05859,-0.10254,-0.15137,-0.2002,-0.25146,-0.30884,-0.35767,-0.40894,-0.46143,-0.5127,-0.56519,-0.61157,-0.6604,-0.70679,-0.75562,-0.80566,-0.84473,-0.88745,-0.92529,-0.96313,-0.99854,-1.03271,-1.06689,-1.09619,-1.12671,-1.15479,-1.1853,-1.21094,-1.23291,-1.2561,-1.27441,-1.29028,-1.30859,-1.32568,-1.34277,-1.35986,-1.37573,-1.39038,-1.40137,-1.41357,-1.42456,-1.43555,-1.45142,-1.46484,-1.48071,-1.49414,-1.50757,-1.521,-1.53564,-1.55029,-1.56494,-1.58081,-1.59668,-1.61133,-1.62842,-1.64673,-1.66748,-1.67969,-1.69556,-1.71021,-1.72119,-1.72729,-1.71753,-1.69189,-1.64673,-1.57593,-1.47339,-1.35498,-1.20361,-1.03516,-0.85327,-0.65552,-0.45044,-0.23682,-0.02197,0.19531,0.41138,0.61646,0.81665,1.00098,1.16943,1.32446,1.45264,1.57104,1.66504,1.74072,1.80054,1.84814,1.87744,1.90063,1.9104,1.9165,1.91406,1.90674,1.89331,1.87744,1.85913,1.83838,1.81274,1.79565,1.77856,1.76025,1.74316,1.72363,1.70532,1.68701,1.66626,1.64185,1.61255,1.58325,1.54785,1.50635,1.4563,1.40015,1.34399,1.28174,1.21826,1.15234,1.08887,1.02661,0.96558,0.9082,0.85205,0.80322,0.74585,0.69702,0.65063,0.60547,0.56641,0.52979,0.49805,0.46875,0.43701,0.4126,0.38086,0.35278,0.32593,0.29297,0.26245,0.22949,0.19653,0.16479,0.12939,0.09521,0.05371,0.01465,-0.02808,-0.0708,-0.11108,-0.15747,-0.20142,-0.24292,-0.28931,-0.33203,-0.38452,-0.43091,-0.48096,-0.52979,-0.57739,-0.62866,-0.67139,-0.71045,-0.75317,-0.79346,-0.83984,-0.87769,-0.91553,-0.95337,-0.98877,-1.02173,-1.05957,-1.09131,-1.12427,-1.15234,-1.18286,-1.21216,-1.23901,-1.26831,-1.29272,-1.31348,-1.33545,-1.35498,-1.37329,-1.39038,-1.40747,-1.42578,-1.44165,-1.45996,-1.47583,-1.48926,-1.50269,-1.51367,-1.52832,-1.54175,-1.55762,-1.57471,-1.5918,-1.60767,-1.62598,-1.6394,-1.65771,-1.66992,-1.68823,-1.7041,-1.72607,-1.74927,-1.76392,-1.78345,-1.80298,-1.81885,-1.83105,-1.84448,-1.84937,-1.83838,-1.81641,-1.77002,-1.69922,-1.5979,-1.46973,-1.31348,-1.1377,-0.94238,-0.73853,-0.52124,-0.30029,-0.0708,0.15747,0.38208,0.60181,0.81421,1.0083,1.18774,1.35376,1.50024,1.62598,1.73096,1.81885,1.88721,1.94214,1.98608,2.01782,2.03979,2.052,2.05811,2.05322,2.0459,2.03369,2.01172,1.99829,1.98364,1.96777,1.95313,1.93237,1.92017,1.90308,1.88477,1.86768,1.84937,1.82739,1.80786,1.78223,1.75781,1.72485,1.68213,1.63452,1.58081,1.52344,1.46118,1.39526,1.33301,1.26587,1.20239,1.13647,1.07544,1.01196,0.95093,0.89478,0.84229,0.79102,0.74585,0.70435,0.66528,0.62744,0.59082,0.5481,0.51514,0.47852,0.44067,0.40649,0.37476,0.34058,0.31006,0.27466,0.23804,0.19775,0.15747,0.11597,0.07202,0.02441,-0.01831,-0.06226,-0.1062,-0.15381,-0.20142,-0.24414,-0.29053,-0.33813,-0.38574,-0.43823,-0.47607,-0.52124,-0.5603,-0.60425,-0.64819,-0.6897,-0.72754,-0.76782,-0.80811,-0.84351,-0.88135,-0.91187,-0.9436,-0.97412,-0.99976,-1.03394,-1.06201,-1.09253,-1.12183,-1.14624,-1.1731,-1.19629,-1.21582,-1.23779,-1.2561,-1.27808,-1.29639,-1.31714,-1.33911,-1.35742,-1.37573,-1.39404,-1.40869,-1.42456,-1.43799,-1.4563,-1.46851,-1.48315,-1.50024,-1.51367,-1.53198,-1.54419,-1.55518,-1.56982,-1.58325,-1.59668,-1.61743,-1.63452,-1.65283,-1.67114,-1.68945,-1.70776,-1.72485,-1.74561,-1.7627,-1.78467,-1.80664,-1.82495,-1.84326,-1.85913,-1.8689,-1.87378,-1.86401,-1.83838,-1.78711,-1.71143,-1.60645,-1.46973,-1.31104,-1.12915,-0.93018,-0.72021,-0.49561,-0.26367,-0.02197,0.21973,0.46021,0.68848,0.90576,1.11084,1.30127,1.47217,1.62598,1.75659,1.87012,1.96167,2.03613,2.08618,2.13379,2.16309,2.1814,2.18994,2.19238,2.18994,2.18384,2.17041,2.15576,2.14111,2.12158,2.10693,2.09229,2.07764,2.06665,2.05078,2.04102,2.02393,2.00684,1.98975,1.96411,1.93848,1.90796,1.87256,1.8335,1.78467,1.73584,1.68091,1.62231,1.55884,1.49048,1.43066,1.3623,1.30127,1.24268,1.18164,1.12427,1.06812,1.0144,0.96436,0.91675,0.87036,0.82886,0.78735,0.75195,0.71289,0.67749,0.64087,0.60303,0.56763,0.53223,0.49561,0.46021,0.42358,0.3894,0.35156,0.31128,0.26855,0.22461,0.17944,0.13428,0.08301,0.03662,-0.01221,-0.05859,-0.10742,-0.15869,-0.20142,-0.24658,-0.29175,-0.33813,-0.38574,-0.42847,-0.47363,-0.51514,-0.55908,-0.59814,-0.63965,-0.67627,-0.71411,-0.75195,-0.78857,-0.82153,-0.85449,-0.88379,-0.91553,-0.9436,-0.97412,-1.00098,-1.02905,-1.05957,-1.08765,-1.11572,-1.14014,-1.16211,-1.18774,-1.2085,-1.23535,-1.25732,-1.27808,-1.30005,-1.32202,-1.34521,-1.35864,-1.37451,-1.3916,-1.40625,-1.42212,-1.44287,-1.45752,-1.47461,-1.49292,-1.50757,-1.52588,-1.54175,-1.56006,-1.57471,-1.59302,-1.61133,-1.62964,-1.64795,-1.66626,-1.68701,-1.70654,-1.72363,-1.74194,-1.75903,-1.77856,-1.80054,-1.81763,-1.83838,-1.85425,-1.86768,-1.87744,-1.87012,-1.85425,-1.81519,-1.75293,-1.66138,-1.54541,-1.40259,-1.23657,-1.05103,-0.84717,-0.64331,-0.4248,-0.19897,0.03052,0.25879,0.4834,0.69702,0.89966,1.08765,1.26099,1.41602,1.55396,1.67603,1.77368,1.85547,1.92383,1.96899,2.00684,2.03369,2.05322,2.06299,2.06665,2.06665,2.06177,2.05078,2.04346,2.02759,2.01782,2.00684,1.99585,1.98608,1.97021,1.96533,1.9519,1.94092,1.92139,1.89697,1.87256,1.84448,1.80908,1.7688,1.72363,1.66626,1.60889,1.54907,1.48682,1.4209,1.35742,1.29517,1.23291,1.17798,1.11938,1.06689,1.01685,0.9668,0.92163,0.87891,0.8374,0.80078,0.76782,0.7373,0.70435,0.67383,0.64209,0.61157,0.58105,0.55054,0.5188,0.49072,0.46021,0.43213,0.40161,0.36621,0.3418,0.30762,0.27466,0.23193,0.19043,0.14893,0.10864,0.06348,0.01831,-0.02441,-0.07568,-0.12329,-0.1709,-0.21973,-0.26978,-0.3125,-0.35889,-0.40161,-0.44312,-0.47974,-0.51758,-0.55664,-0.59204,-0.63354,-0.66895,-0.70679,-0.7373,-0.77148,-0.80444,-0.83618,-0.8667,-0.896,-0.92651,-0.95703,-0.98267,-1.01196,-1.0376,-1.06323,-1.08643,-1.10962,-1.13647,-1.15601,-1.17676,-1.20117,-1.22314,-1.2439,-1.26709,-1.28174,-1.29883,-1.31714,-1.33179,-1.35254,-1.36719,-1.38672,-1.40381,-1.42212,-1.43921,-1.45264,-1.46851,-1.48193,-1.4978,-1.51978,-1.53442,-1.55518,-1.57471,-1.59424,-1.61499,-1.63452,-1.65161,-1.66992,-1.69067,-1.71265,-1.72974,-1.74927,-1.76514,-1.77856,-1.79077,-1.77856,-1.75659,-1.71265,-1.64185,-1.54175,-1.42212,-1.28052,-1.1145,-0.93262,-0.74097,-0.53955,-0.33325,-0.12207,0.09277,0.30151,0.50293,0.69214,0.87524,1.04004,1.18774,1.31714,1.43433,1.5332,1.61743,1.68213,1.73096,1.7627,1.78345,1.79688,1.7981,1.79565,1.78467,1.77124,1.75537,1.73462,1.71265,1.68213,1.66626,1.64307,1.62476,1.60889,1.59058,1.57349,1.55518,1.53442,1.51123,1.48438,1.4502,1.41357,1.37207,1.32935,1.28052,1.22925,1.17798,1.12549,1.07056,1.0144,0.95947,0.9082,0.86182,0.82153,0.78491,0.74829,0.71533,0.68237,0.65552,0.62622,0.60425,0.57983,0.55786,0.53833,0.51636,0.49194,0.47363,0.44922,0.4248,0.39673,0.36499,0.33936,0.31006,0.2832,0.25024,0.21729,0.18555,0.14771,0.10986,0.06714,0.0293,-0.01587,-0.05859,-0.10132,-0.14404,-0.18799,-0.23315,-0.28076,-0.32471,-0.37476,-0.4187,-0.46143,-0.50537,-0.54443,-0.5835,-0.62012,-0.65674,-0.6897,-0.72021,-0.75439,-0.78491,-0.81909,-0.84473,-0.86914,-0.89478,-0.92163,-0.94727,-0.96924,-0.99121,-1.01318,-1.03271,-1.05591,-1.07178,-1.08765,-1.10229,-1.1145,-1.12549,-1.14258,-1.15723,-1.17432,-1.19019,-1.2085,-1.22437,-1.23901,-1.2561,-1.27197,-1.29028,-1.31104,-1.32813,-1.34888,-1.36841,-1.38672,-1.40625,-1.42212,-1.43799,-1.45508,-1.47217,-1.49048,-1.49414,-1.4917,-1.47583,-1.44043,-1.38672,-1.30005,-1.19385,-1.06445,-0.91675,-0.75439,-0.5835,-0.40039,-0.20752,-0.01221,0.18921,0.38574,0.58105,0.7666,0.93872,1.09253,1.23413,1.35986,1.46729,1.56006,1.63696,1.69922,1.75049,1.79199,1.81641,1.82983,1.83594,1.83105,1.82495,1.81396,1.80054,1.78589,1.76514,1.75171,1.73584,1.71753,1.70288,1.68213,1.66626,1.64917,1.63208,1.61377,1.59058,1.5686,1.54053,1.50635,1.46729,1.42334,1.36841,1.31836,1.26465,1.21216,1.15845,1.10352,1.05103,1.00098,0.95093,0.90088,0.85693,0.81421,0.77515,0.73975,0.70801,0.67627,0.64941,0.62012,0.59326,0.56763,0.54321,0.52124,0.49927,0.47607,0.45166,0.42603,0.40161,0.37598,0.34668,0.31128,0.27588,0.24292,0.20386,0.16724,0.12695,0.08301,0.04639,0.00366,-0.0415,-0.08545,-0.12939,-0.17944,-0.22705,-0.271,-0.31616,-0.35889,-0.40283,-0.44189,-0.4834,-0.52246,-0.55908,-0.59692,-0.63354,-0.6665,-0.69824,-0.7312,-0.7605,-0.78857,-0.81421,-0.84106,-0.8667,-0.88989,-0.91064,-0.93018,-0.95093,-0.97046,-0.98755,-1.00464,-1.02173,-1.04248,-1.06079,-1.08398,-1.09741,-1.1145,-1.12915,-1.14502,-1.16577,-1.17798,-1.19507,-1.21826,-1.24146,-1.25854,-1.28296,-1.30127,-1.3208,-1.34033,-1.35742,-1.37695,-1.39404,-1.41357,-1.43066,-1.44409,-1.45386,-1.4502,-1.43188,-1.39404,-1.33301,-1.25366,-1.14624,-1.01929,-0.8728,-0.70801,-0.52734,-0.33447,-0.13306,0.07568,0.28564,0.49438,0.69824,0.89111,1.07178,1.23901,1.39404,1.52588,1.64307,1.74316,1.82739,1.89453,1.94458,1.97998,2.00439,2.02271,2.03125,2.03125,2.03125,2.02515,2.01782,2.00562,1.99341,1.97266,1.95557,1.93848,1.92139,1.90674,1.89331,1.8811,1.87012,1.85425,1.8396,1.81274,1.78711,1.75781,1.71875,1.67969,1.63086,1.57715,1.51978,1.45508,1.38916,1.31958,1.25122,1.18408,1.11694,1.05591,0.99121,0.9375,0.88501,0.83252,0.78369,0.73486,0.69458,0.65552,0.62256,0.58838,0.55908,0.52734,0.49927,0.46753,0.43579,0.40161,0.36743,0.33447,0.29785,0.26367,0.22339,0.18433,0.14404,0.10132,0.05859,0.01343,-0.0354,-0.07935,-0.12573,-0.16968,-0.21362,-0.25513,-0.29419,-0.33936,-0.3833,-0.42969,-0.47729,-0.52246,-0.56885,-0.61157,-0.65308,-0.6958,-0.73364,-0.77271,-0.80811,-0.84595,-0.88135,-0.91187,-0.9436,-0.96924,-0.99731,-1.02173,-1.04858,-1.07788,-1.10229,-1.13159,-1.15601,-1.18286,-1.20605,-1.22803,-1.25,-1.27197,-1.2915,-1.31226,-1.32813,-1.3501,-1.36963,-1.39038,-1.40991,-1.427,-1.44531,-1.46118,-1.47827,-1.49658,-1.51245,-1.5332,-1.55273,-1.57715,-1.5918,-1.60767,-1.6272,-1.64429,-1.65894,-1.67603,-1.68823,-1.70654,-1.71753,-1.72729,-1.7334,-1.72119,-1.68945,-1.63696,-1.55762,-1.45142,-1.32324,-1.17798,-1.01196,-0.82886,-0.63721,-0.42969,-0.21729,0.00122,0.22217,0.43701,0.64819,0.84229,1.02295,1.18652,1.33789,1.46606,1.58325,1.67847,1.7627,1.82739,1.87744,1.91528,1.94092,1.95801,1.96777,1.97266,1.97266,1.96899,1.96655,1.95557,1.94702,1.93359,1.92139,1.9104,1.90063,1.89575,1.88721,1.88232,1.87622,1.86401,1.84937,1.82617,1.79932,1.76758,1.72607,1.68213,1.62842,1.57471,1.51611,1.45508,1.38916,1.31592,1.25244,1.18774,1.12183,1.06079,0.99609,0.9436,0.89111,0.84106,0.79102,0.74707,0.69946,0.65918,0.62012,0.5835,0.5481,0.51025,0.47974,0.44556,0.41626,0.37842,0.34302,0.30762,0.271,0.23193,0.19287,0.15137,0.1123,0.06714,0.02563,-0.02441,-0.07202,-0.11963,-0.16724,-0.21362,-0.26123,-0.30518,-0.34668,-0.39185,-0.43213,-0.47974,-0.52612,-0.56885,-0.61279,-0.65308,-0.69336,-0.73608,-0.77148,-0.81177,-0.84839,-0.88745,-0.91797,-0.95459,-0.98755,-1.02051,-1.04736,-1.07422,-1.10352,-1.12671,-1.15356,-1.17798,-1.20728,-1.23413,-1.25732,-1.2793,-1.30005,-1.32324,-1.34521,-1.36475,-1.38062,-1.40137,-1.41968,-1.43677,-1.4502,-1.46484,-1.47827,-1.49292,-1.50879,-1.52222,-1.53564,-1.55273,-1.5686,-1.58813,-1.604,-1.62109,-1.64185,-1.66016,-1.68091,-1.698,-1.71387,-1.73584,-1.75659,-1.77612,-1.7981,-1.81763,-1.8335,-1.84814,-1.85791,-1.86035,-1.8457,-1.82007,-1.77002,-1.69312,-1.59302,-1.46484,-1.31348,-1.1438,-0.95337,-0.75439,-0.53955,-0.32349,-0.1001,0.12573,0.34424,0.56152,0.76782,0.95825,1.13281,1.28906,1.42944,1.54663,1.64795,1.7334,1.80176,1.85425,1.89575,1.92383,1.94336,1.95313,1.95435,1.95313,1.9458,1.93481,1.92139,1.90674,1.89453,1.87988,1.87134,1.86157,1.85181,1.84082,1.82861,1.81641,1.7981,1.77979,1.75537,1.72852,1.70044,1.65771,1.61255,1.55518,1.49658,1.43677,1.37085,1.30737,1.24268,1.17798,1.11572,1.05103,0.99243,0.9314,0.87769,0.82642,0.77393,0.72632,0.67993,0.64453,0.60425,0.56885,0.53345,0.49927,0.46021,0.4248,0.38818,0.35156,0.31494,0.27466,0.24048,0.20142,0.16479,0.12329,0.08057,0.03784,-0.00732,-0.05005,-0.09033,-0.13672,-0.177,-0.22217,-0.26123,-0.30884,-0.354,-0.39551,-0.44067,-0.48462,-0.52979,-0.57495,-0.61279,-0.65552,-0.69336,-0.73364,-0.77637,-0.81543,-0.85449,-0.88989,-0.92163,-0.95337,-0.98755,-1.02051,-1.0498,-1.08276,-1.11206,-1.14014,-1.16821,-1.19629,-1.21826,-1.2439,-1.26709,-1.29028,-1.31348,-1.33789,-1.3562,-1.37939,-1.39893,-1.41968,-1.43555,-1.45264,-1.46606,-1.48071,-1.49658,-1.51611,-1.53076,-1.55396,-1.56494,-1.58325,-1.59546,-1.61011,-1.62598,-1.63818,-1.65283,-1.66992,-1.68701,-1.70166,-1.72729,-1.74683,-1.76514,-1.78223,-1.79932,-1.81885,-1.83594,-1.85425,-1.87012,-1.88477,-1.9043,-1.91406,-1.91895,-1.9165,-1.90063,-1.86768,-1.80786,-1.72485,-1.61255,-1.47583,-1.32202,-1.1438,-0.94849,-0.74219,-0.5249,-0.30518,-0.07568,0.15015,0.37354,0.58838,0.78613,0.96802,1.1377,1.28784,1.42334,1.53687,1.63208,1.70776,1.7688,1.81152,1.84082,1.85547,1.86646,1.86768,1.86523,1.85669,1.84814,1.8335,1.81763,1.79932,1.77979,1.7627,1.74561,1.73218,1.71875,1.7041,1.69067,1.67236,1.65405,1.63086,1.60278,1.56982,1.53198,1.48926,1.44531,1.39404,1.34277,1.28296,1.22437,1.16577,1.10229,1.04248,0.98145,0.92773,0.87769,0.82764,0.78369,0.74097,0.7019,0.66528,0.62988,0.5957,0.57129,0.53955,0.51514,0.4895,0.46387,0.43457,0.40649,0.37842,0.3479,0.31738,0.28809,0.25269,0.22095,0.18677,0.14893,0.10986,0.06592,0.02441,-0.01953,-0.06348,-0.10742,-0.15259,-0.19287,-0.23804,-0.28076,-0.32593,-0.37109,-0.41138,-0.45654,-0.49805,-0.53955,-0.5835,-0.62012,-0.66162,-0.69946,-0.7373,-0.78003,-0.81055,-0.84473,-0.87402,-0.90576,-0.93628,-0.96436,-0.99121,-1.0144,-1.04004,-1.06079,-1.08521,-1.1084,-1.12793,-1.14624,-1.16089,-1.18042,-1.19629,-1.21338,-1.23169,-1.25,-1.27197,-1.29272,-1.30981,-1.32813,-1.34766,-1.3623,-1.38062,-1.39648,-1.41724,-1.43677,-1.45996,-1.48071,-1.50146,-1.51855,-1.53931,-1.56006,-1.57593,-1.5918,-1.60645,-1.61743,-1.62231,-1.61133,-1.58203,-1.52954,-1.4502,-1.34155,-1.21582,-1.06567,-0.89844,-0.72144,-0.52979,-0.33203,-0.12817,0.08057,0.28564,0.4895,0.67627,0.85205,1.01318,1.15723,1.28174,1.38306,1.47949,1.55151,1.60889,1.65283,1.68213,1.69922,1.70654,1.70898,1.70166,1.69067,1.6748,1.65771,1.63818,1.61499,1.58936,1.5625,1.54541,1.52466,1.50513,1.4856,1.46729,1.44531,1.41968,1.39648,1.36475,1.32813,1.28418,1.23901,1.19141,1.13892,1.08398,1.02783,0.97046,0.91431,0.85693,0.80688,0.75317,0.70557,0.6604,0.61768,0.57861,0.54443,0.5127,0.48706,0.46021,0.43701,0.41138,0.38818,0.36743,0.34424,0.32349,0.29907,0.27954,0.26001,0.23682,0.2124,0.18188,0.15869,0.13184,0.10376,0.0708,0.03662,0.00366,-0.0293,-0.06714,-0.10376,-0.14038,-0.18555,-0.22827,-0.271,-0.31494,-0.35522,-0.39673,-0.43335,-0.47607,-0.51392,-0.55298,-0.59448,-0.63354,-0.67261,-0.70801,-0.74219,-0.77637,-0.80566,-0.83496,-0.86304,-0.89233,-0.91919,-0.94482,-0.97168,-0.99609,-1.01807,-1.04248,-1.05469,-1.073,-1.09009,-1.10718,-1.13037,-1.14136,-1.15967,-1.17798,-1.19507,-1.21582,-1.22925,-1.24634,-1.26587,-1.2793,-1.29517,-1.3147,-1.33301,-1.3501,-1.36719,-1.38794,-1.40137,-1.41846,-1.43311,-1.44775,-1.46484,-1.48071,-1.49536,-1.50391,-1.51001,-1.50269,-1.47949,-1.43433,-1.36597,-1.27319,-1.15723,-1.02661,-0.87402,-0.70557,-0.5249,-0.33447,-0.13794,0.0647,0.26855,0.46997,0.6604,0.84229,1.00586,1.15845,1.29272,1.40991,1.51489,1.5979,1.6687,1.72852,1.77368,1.80298,1.82007,1.83594,1.84082,1.84204,1.83838,1.83105,1.82129,1.8103,1.7981,1.78345,1.76758,1.75537,1.74438,1.73462,1.72485,1.71631,1.7041,1.69189,1.67603,1.65649,1.62476,1.5918,1.54907,1.50269,1.45264,1.39771,1.33545,1.28052,1.21826,1.15601,1.09253,1.02905,0.9729,0.91919,0.8667,0.82031,0.76904,0.7312,0.69092,0.65552,0.61768,0.58716,0.55054,0.51758,0.48584,0.45532,0.4248,0.39429,0.36255,0.32837,0.29053,0.25635,0.21973,0.18066,0.14282,0.10376,0.0647,0.02197,-0.02075,-0.0647,-0.1123,-0.15869,-0.2063,-0.25269,-0.29419,-0.33813,-0.37842,-0.42114,-0.46265,-0.50171,-0.54565,-0.5835,-0.62744,-0.66162,-0.6958,-0.72998,-0.7666,-0.80688,-0.83984,-0.87158,-0.90698,-0.94116,-0.96924,-1.0022,-1.02783,-1.05469,-1.0791,-1.09985,-1.12305,-1.14502,-1.16943,-1.19019,-1.21216,-1.23413,-1.25366,-1.27563,-1.29272,-1.30981,-1.33301,-1.35132,-1.37207,-1.39038,-1.40869,-1.43066,-1.44531,-1.46362,-1.48071,-1.49902,-1.52466,-1.54175,-1.56616,-1.58569,-1.60522,-1.6272,-1.64551,-1.6626,-1.67725,-1.68457,-1.68335,-1.6748,-1.65161,-1.61133,-1.54785,-1.46362,-1.35498,-1.22925,-1.08643,-0.9314,-0.76416,-0.5896,-0.41138,-0.22949,-0.05005,0.12573,0.29785,0.45898,0.60669,0.7373,0.85571,0.96313,1.04614,1.12427,1.18896,1.24146,1.28784,1.31958,1.34644,1.36597,1.37695,1.38306,1.37939,1.3855,1.3855,1.38428,1.38306,1.38306,1.37817,1.37695,1.37451,1.37207,1.36353,1.35864,1.3501,1.34277,1.33423,1.31836,1.29639,1.27563,1.24268,1.20728,1.15845,1.10474,1.0498,0.99365,0.94116,0.88745,0.83008,0.77515,0.71655,0.66284,0.60913,0.55542,0.51025,0.46509,0.42603,0.38696,0.34546,0.31738,0.28442,0.25391,0.22095,0.19165,0.15747,0.12451,0.09521,0.06226,0.03174,0.00244,-0.03418,-0.06714,-0.1062,-0.14038,-0.17944,-0.21606,-0.25146,-0.28809,-0.32471,-0.36011,-0.40039,-0.43701,-0.47852,-0.51636,-0.55542,-0.59326,-0.62988,-0.66284,-0.69824,-0.73608,-0.77271,-0.80688,-0.84351,-0.87769,-0.91675,-0.9436,-0.97168,-1.0022,-1.02905,-1.05347,-1.08154,-1.10474,-1.13159,-1.15479,-1.17798,-1.20117,-1.22314,-1.24512,-1.26587,-1.28052,-1.30005,-1.31592,-1.33545,-1.35254,-1.36841,-1.38794,-1.40137,-1.41724,-1.42944,-1.44409,-1.4624,-1.47461,-1.49048,-1.50635,-1.52344,-1.54663,-1.5564,-1.57349,-1.58813,-1.60156,-1.61621,-1.63574,-1.65405,-1.67358,-1.68701,-1.7041,-1.71753,-1.72974,-1.74194,-1.75171,-1.76147,-1.77124,-1.77368,-1.76758,-1.74438,-1.70776,-1.64795,-1.57104,-1.47461,-1.35986,-1.22925,-1.08765,-0.93872,-0.78003,-0.61768,-0.45532,-0.29785,-0.13428,0.01587,0.15869,0.28564,0.40283,0.50171,0.59082,0.6665,0.72876,0.78735,0.82764,0.86548,0.896,0.92041,0.93872,0.95215,0.96069,0.97046,0.979,0.98755,0.99731,1.00464,1.01196,1.01685,1.02173,1.02295,1.02539,1.03027,1.03271,1.03638,1.0376,1.03149,1.03027,1.02051,1.00586,0.98267,0.94849,0.91797,0.88013,0.84351,0.80322,0.76538,0.71899,0.67505,0.63232,0.58472,0.54321,0.50049,0.46265,0.42603,0.39307,0.36255,0.33203,0.3064,0.27954,0.24902,0.22217,0.19653,0.17212,0.14893,0.12695,0.10376,0.07813,0.05493,0.03296,0.00122,-0.0293,-0.06104,-0.09033,-0.11963,-0.14893,-0.17944,-0.2063,-0.2417,-0.27222,-0.30762,-0.34058,-0.37476,-0.41016,-0.44189,-0.47485,-0.50537,-0.53223,-0.56274,-0.58716,-0.61646,-0.64331,-0.67017,-0.69824,-0.7251,-0.74707,-0.77026,-0.79224,-0.81787,-0.8374,-0.8606,-0.88501,-0.9082,-0.9375,-0.95459,-0.9729,-0.99243,-1.0083,-1.02295,-1.04248,-1.06201,-1.08032,-1.09741,-1.11206,-1.12549,-1.13892,-1.15234,-1.16577,-1.17798,-1.19019,-1.20483,-1.21826,-1.23047,-1.2439,-1.2561,-1.26465,-1.27197,-1.2793,-1.29028,-1.30127,-1.31226,-1.32324,-1.33545,-1.34766,-1.36353,-1.37451,-1.38672,-1.39648,-1.40869,-1.41479,-1.42822,-1.44043,-1.45142,-1.4624,-1.47461,-1.4856,-1.49292,-1.49658,-1.50146,-1.49536,-1.48804,-1.46362,-1.42456,-1.36841,-1.29395,-1.20239,-1.09375,-0.9668,-0.83374,-0.6897,-0.54688,-0.39429,-0.24536,-0.10132,0.04028,0.177,0.30151,0.4187,0.52124,0.61279,0.6897,0.75439,0.81177,0.85693,0.896,0.93018,0.95093,0.979,0.99365,1.00952,1.01563,1.02173,1.02783,1.03149,1.03516,1.0376,1.04126,1.04614,1.0498,1.05713,1.05957,1.06079,1.06079,1.06201,1.06323,1.06201,1.05835,1.04614,1.03394,1.01685,0.98755,0.95825,0.92163,0.88623,0.85205,0.81421,0.77637,0.74341,0.70313,0.66895,0.63354,0.59937,0.57007,0.53955,0.51636,0.49316,0.47241,0.45288,0.43091,0.4126,0.39063,0.37109,0.34912,0.32593,0.30396,0.2832,0.26001,0.24048,0.2124,0.19409,0.16846,0.14404,0.11719,0.08423,0.06226,0.0354,0.00732,-0.01953,-0.04272,-0.07446,-0.10376,-0.13306,-0.16479,-0.19409,-0.22339,-0.25024,-0.27832,-0.30151,-0.32837,-0.35522,-0.38208,-0.40771,-0.43213,-0.45654,-0.48096,-0.50171,-0.52124,-0.53833,-0.55664,-0.57739,-0.5957,-0.6189,-0.63843,-0.6604,-0.68481,-0.69824,-0.71411,-0.72876,-0.74463,-0.76294,-0.77759,-0.79468,-0.81299,-0.83008,-0.84351,-0.86182,-0.87402,-0.88501,-0.89844,-0.91064,-0.92407,-0.93628,-0.94849,-0.96191,-0.97412,-0.98877,-1.0022,-1.01074,-1.02539,-1.03516,-1.04858,-1.06201,-1.07544,-1.08765,-1.10107,-1.1145,-1.12549,-1.13525,-1.14868,-1.15845,-1.1792,-1.19019,-1.20239,-1.21948,-1.23169,-1.24634,-1.25732,-1.26465,-1.27441,-1.27563,-1.26831,-1.2561,-1.22559,-1.17798,-1.11572,-1.03394,-0.93506,-0.82031,-0.6958,-0.5603,-0.41992,-0.2771,-0.13062,0.01099,0.14893,0.2832,0.40649,0.52368,0.62744,0.72021,0.80078,0.8667,0.92529,0.9729,1.00952,1.04126,1.06689,1.08154,1.09497,1.10352,1.1084,1.11084,1.11084,1.11572,1.11572,1.1145,1.11206,1.11328,1.10596,1.10596,1.10352,1.10352,1.10352,1.09619,1.09009,1.08643,1.0791,1.07178,1.05713,1.04004,1.01685,0.99243,0.96313,0.93018,0.89966,0.8667,0.83618,0.80688,0.77393,0.74585,0.71655,0.68848,0.66406,0.63599,0.61768,0.5957,0.57739,0.56274,0.54199,0.53223,0.51636,0.49805,0.47974,0.46021,0.43945,0.41992,0.40039,0.38208,0.36255,0.33936,0.3186,0.29541,0.26978,0.2417,0.21362,0.18555,0.15625,0.12817,0.09888,0.06836,0.03906,0.01343,-0.01953,-0.05127,-0.08057,-0.1062,-0.13672,-0.15991,-0.18188,-0.20874,-0.22949,-0.25391,-0.27832,-0.30396,-0.33081,-0.34912,-0.37109,-0.39185,-0.41382,-0.43335,-0.4541,-0.47607,-0.49438,-0.51636,-0.53345,-0.55176,-0.56885,-0.5835,-0.59814,-0.61523,-0.6311,-0.64819,-0.66284,-0.67871,-0.69214,-0.70801,-0.71899,-0.72998,-0.74097,-0.75562,-0.77026,-0.78491,-0.79712,-0.81543,-0.83008,-0.84961,-0.86182,-0.87158,-0.88623,-0.89966,-0.91797,-0.92896,-0.9436,-0.95947,-0.97412,-0.98633,-1.00098,-1.01074,-1.02539,-1.03638,-1.05225,-1.06079,-1.06567,-1.06079,-1.04248,-1.0083,-0.96313,-0.89478,-0.81299,-0.71411,-0.60425,-0.48828,-0.36255,-0.23315,-0.10132,0.03296,0.15747,0.28687,0.40405,0.5127,0.61157,0.69702,0.76782,0.82886,0.88013,0.91919,0.94849,0.97046,0.98389,0.99365,0.99731,0.99609,0.98633,0.98145,0.9729,0.96313,0.95337,0.94727,0.93872,0.92651,0.92041,0.91309,0.90942,0.89966,0.89355,0.88623,0.87646,0.8667,0.85327,0.8374,0.82031,0.7959,0.76782,0.73486,0.70557,0.67505,0.64331,0.61279,0.58228,0.55664,0.52979,0.50415,0.47974,0.44922,0.43579,0.4187,0.40527,0.39551,0.38574,0.37109,0.36255,0.35278,0.34302,0.32959,0.3186,0.30518,0.29541,0.28442,0.271,0.25513,0.23682,0.21973,0.2002,0.177,0.15015,0.12817,0.1001,0.07446,0.04517,0.01587,-0.01221,-0.04272,-0.0708,-0.10132,-0.13306,-0.15991,-0.18799,-0.21362,-0.2417,-0.27344,-0.29419,-0.3186,-0.3418,-0.37109,-0.39185,-0.4187,-0.44312,-0.46265,-0.4834,-0.50415,-0.5188,-0.53589,-0.55054,-0.56885,-0.5835,-0.60303,-0.6189,-0.63354,-0.64453,-0.65552,-0.66528,-0.67627,-0.68726,-0.70068,-0.71289,-0.72632,-0.73975,-0.74951,-0.75928,-0.7666,-0.77881,-0.78735,-0.79834,-0.81299,-0.82275,-0.84229,-0.85083,-0.86304,-0.8728,-0.88501,-0.89233,-0.90698,-0.91919,-0.9314,-0.94116,-0.94849,-0.94849,-0.93628,-0.91553,-0.87891,-0.82275,-0.75439,-0.66772,-0.56885,-0.45654,-0.33447,-0.20752,-0.07202,0.06226,0.19775,0.33447,0.46021,0.5835,0.69336,0.79346,0.88379,0.96313,1.02661,1.08521,1.13281,1.17432,1.20483,1.22681,1.24023,1.25,1.25366,1.25488,1.25,1.25122,1.25122,1.24878,1.24023,1.23291,1.2207,1.20972,1.20239,1.19629,1.19385,1.18652,1.18164,1.17676,1.16577,1.15479,1.13892,1.12183,1.10229,1.07544,1.0498,1.02051,0.98755,0.95459,0.91797,0.88623,0.84717,0.81787,0.78369,0.75562,0.72754,0.69702,0.68115,0.6604,0.63965,0.62256,0.60791,0.58838,0.57129,0.5542,0.53955,0.5249,0.51025,0.49438,0.47485,0.45532,0.43335,0.41016,0.38818,0.36499,0.3418,0.31738,0.28564,0.26367,0.23438,0.20752,0.177,0.14526,0.11353,0.08179,0.05005,0.01831,-0.01587,-0.04639,-0.07935,-0.11108,-0.14282,-0.18188,-0.20386,-0.23315,-0.25757,-0.28198,-0.30762,-0.32959,-0.354,-0.37354,-0.39673,-0.41504,-0.43579,-0.45532,-0.47485,-0.49316,-0.51025,-0.52612,-0.54565,-0.5603,-0.57983,-0.59204,-0.60913,-0.62256,-0.63477,-0.64819,-0.66162,-0.67383,-0.68726,-0.70068,-0.71655,-0.72998,-0.74585,-0.75928,-0.77148,-0.78369,-0.79468,-0.81055,-0.82153,-0.83374,-0.84961,-0.86304,-0.88623,-0.89233,-0.896,-0.89111,-0.87036,-0.83252,-0.78003,-0.70923,-0.62378,-0.52002,-0.40405,-0.28198,-0.14282,0,0.14893,0.29907,0.44312,0.58716,0.72388,0.84961,0.96436,1.06445,1.15479,1.23657,1.30493,1.36108,1.40259,1.44531,1.46729,1.4856,1.49658,1.50391,1.50635,1.50879,1.50635,1.50513,1.50391,1.49902,1.49048,1.48071,1.47095,1.4624,1.45264,1.45386,1.45264,1.45142,1.44653,1.44165,1.43188,1.41846,1.40747,1.38428,1.36353,1.33057,1.29761,1.26221,1.22681,1.18774,1.1438,1.10107,1.05957,1.01929,0.98022,0.94238,0.90942,0.87769,0.84473,0.82153,0.78857,0.7605,0.73364,0.70679,0.68237,0.65796,0.63354,0.61157,0.58594,0.56152,0.53345,0.50903,0.48218,0.45532,0.42969,0.40039,0.3772,0.35278,0.32471,0.29907,0.26123,0.23315,0.20264,0.16968,0.13428,0.09888,0.0647,0.03052,-0.0061,-0.04028,-0.0769,-0.11475,-0.15015,-0.18555,-0.22095,-0.25513,-0.28564,-0.3186,-0.3479,-0.37842,-0.41016,-0.43823,-0.46631,-0.49438,-0.52124,-0.54688,-0.57007,-0.59082,-0.61523,-0.63599,-0.65796,-0.68115,-0.7019,-0.71899,-0.7373,-0.75317,-0.77148,-0.78369,-0.79712,-0.81299,-0.8313,-0.85083,-0.86548,-0.88257,-0.89844,-0.91309,-0.92529,-0.94116,-0.95703,-0.97046,-0.98877,-1.00586,-1.02173,-1.04126,-1.05835,-1.073,-1.08398,-1.09741,-1.10229,-1.09375,-1.07788,-1.04614,-0.99365,-0.92163,-0.82886,-0.71655,-0.59082,-0.44922,-0.30151,-0.14282,0.01709,0.18188,0.3418,0.50171,0.6543,0.80078,0.93628,1.05957,1.16455,1.26221,1.34033,1.40625,1.46118,1.50146,1.53564,1.56372,1.58081,1.59424,1.59424,1.5979,1.59424,1.58447,1.57349,1.56494,1.54785,1.53687,1.5271,1.52466,1.521,1.51855,1.51611,1.51489,1.51489,1.51001,1.50513,1.50024,1.48682,1.47095,1.44897,1.42334,1.3916,1.35498,1.31958,1.27808,1.23657,1.19507,1.15356,1.11328,1.06812,1.02783,0.98877,0.94971,0.91187,0.87646,0.8374,0.80933,0.78125,0.75439,0.7251,0.69702,0.67383,0.64697,0.62134,0.5957,0.56274,0.53833,0.51025,0.48096,0.4541,0.42236,0.38452,0.35034,0.3125,0.27344,0.23682,0.20142,0.16479,0.12939,0.09399,0.06104,0.01953,-0.01831,-0.05615,-0.09644,-0.13428,-0.17334,-0.20996,-0.24414,-0.28076,-0.31372,-0.35034,-0.38208,-0.41504,-0.44556,-0.47485,-0.50537,-0.52856,-0.55054,-0.57861,-0.60547,-0.63843,-0.66406,-0.69092,-0.71777,-0.74463,-0.76416,-0.79346,-0.81177,-0.83374,-0.85205,-0.87402,-0.89111,-0.9082,-0.92529,-0.94238,-0.95703,-0.97412,-0.98755,-1.00586,-1.02051,-1.0376,-1.05591,-1.07544,-1.09375,-1.11206,-1.12915,-1.15112,-1.16821,-1.1853,-1.19995,-1.21582,-1.23657,-1.24756,-1.26099,-1.27563,-1.28662,-1.29272,-1.28296,-1.26221,-1.22314,-1.16821,-1.08765,-0.99487,-0.88013,-0.74829,-0.60425,-0.44922,-0.28198,-0.10864,0.06714,0.24536,0.41992,0.58716,0.74341,0.89233,1.02661,1.14868,1.25244,1.34644,1.42334,1.48804,1.53564,1.57715,1.60278,1.62354,1.63696,1.64307,1.64795,1.64673,1.64429,1.64307,1.6394,1.62842,1.61377,1.60522,1.59546,1.58569,1.57837,1.5686,1.56616,1.55762,1.55029,1.53809,1.52344,1.50024,1.47949,1.45264,1.42212,1.3855,1.34766,1.30615,1.25977,1.21338,1.16333,1.11328,1.06201,1.0144,0.96558,0.92285,0.88013,0.84106,0.80078,0.76416,0.72632,0.69336,0.66162,0.62866,0.59937,0.56885,0.54077,0.5127,0.48584,0.45776,0.42603,0.39307,0.36377,0.33081,0.29907,0.26611,0.22827,0.19531,0.16113,0.12207,0.08179,0.04028,0.00244,-0.0354,-0.0708,-0.10742,-0.14526,-0.18555,-0.22217,-0.25879,-0.29785,-0.33691,-0.37231,-0.40527,-0.43701,-0.46753,-0.49683,-0.52734,-0.55664,-0.58716,-0.6189,-0.64819,-0.67627,-0.70313,-0.72754,-0.75073,-0.77515,-0.80078,-0.8252,-0.84839,-0.87402,-0.89478,-0.91797,-0.93628,-0.95215,-0.97046,-0.98633,-1.00708,-1.02051,-1.03394,-1.05469,-1.07056,-1.08398,-1.10474,-1.11694,-1.13281,-1.14746,-1.16211,-1.17798,-1.19141,-1.21338,-1.23047,-1.24756,-1.26953,-1.2854,-1.30371,-1.3208,-1.33911,-1.35864,-1.37573,-1.39771,-1.41479,-1.42822,-1.44165,-1.43921,-1.42944,-1.40381,-1.35742,-1.29639,-1.20605,-1.10474,-0.979,-0.83862,-0.68359,-0.5188,-0.34302,-0.16479,0.01953,0.20142,0.37598,0.54565,0.70435,0.84839,0.979,1.09619,1.19751,1.2854,1.35864,1.4209,1.46362,1.50391,1.53076,1.54785,1.55884,1.56616,1.56738,1.56494,1.56006,1.55151,1.54297,1.52832,1.51855,1.50879,1.4978,1.49292,1.48193,1.47583,1.46606,1.4563,1.44531,1.42334,1.40991,1.38794,1.35986,1.32813,1.29028,1.24878,1.20605,1.15479,1.10596,1.05469,1.0022,0.95459,0.90698,0.86182,0.82031,0.77515,0.73486,0.69702,0.66162,0.62378,0.5896,0.55786,0.5249,0.49683,0.47119,0.44312,0.41626,0.3894,0.36133,0.32959,0.29907,0.26733,0.23682,0.20752,0.17822,0.14526,0.11597,0.08423,0.05005,0.01465,-0.02686,-0.05981,-0.09644,-0.13306,-0.1709,-0.21118,-0.2417,-0.28198,-0.31494,-0.35522,-0.3894,-0.43091,-0.46631,-0.49805,-0.53345,-0.56396,-0.5957,-0.62744,-0.65674,-0.69092,-0.71899,-0.75073,-0.77881,-0.80444,-0.83008,-0.85205,-0.87891,-0.9021,-0.92529,-0.94849,-0.96802,-0.98877,-1.0083,-1.02417,-1.04126,-1.05835,-1.07788,-1.09131,-1.1084,-1.12671,-1.14136,-1.16089,-1.17065,-1.18286,-1.19629,-1.20972,-1.21826,-1.23779,-1.25366,-1.26709,-1.28174,-1.29883,-1.31592,-1.32935,-1.34766,-1.36353,-1.38184,-1.39648,-1.41357,-1.42944,-1.44531,-1.45874,-1.47705,-1.48926,-1.49536,-1.48926,-1.46851,-1.43677,-1.37451,-1.30127,-1.20483,-1.08765,-0.95459,-0.80078,-0.63721,-0.46265,-0.28076,-0.1001,0.08789,0.26855,0.44678,0.61157,0.7666,0.9021,1.02295,1.13037,1.21826,1.2915,1.3501,1.39404,1.427,1.4502,1.46118,1.46362,1.46606,1.45996,1.44897,1.43433,1.41846,1.39893,1.38306,1.36353,1.34644,1.33179,1.31592,1.30493,1.29272,1.27686,1.26221,1.23901,1.21582,1.19019,1.15723,1.12427,1.08154,1.0437,1.0022,0.95703,0.91187,0.8606,0.81665,0.77271,0.72998,0.69214,0.65063,0.62012,0.59082,0.55908,0.53467,0.51147,0.48584,0.46753,0.44556,0.42969,0.4126,0.39307,0.37598,0.354,0.33325,0.30518,0.28076,0.25391,0.22461,0.20142,0.17456,0.14404,0.11597,0.08179,0.04639,0.00732,-0.03174,-0.06958,-0.10742,-0.14648,-0.18555,-0.22583,-0.26123,-0.29785,-0.33447,-0.37476,-0.41626,-0.448,-0.48096,-0.51392,-0.54443,-0.57983,-0.60303,-0.63232,-0.65918,-0.6897,-0.71655,-0.74219,-0.76904,-0.79346,-0.81787,-0.83862,-0.86304,-0.88501,-0.90576,-0.92651,-0.94849,-0.96802,-0.98999,-1.00952,-1.02417,-1.04004,-1.05591,-1.07178,-1.08521,-1.10107,-1.11816,-1.13403,-1.15112,-1.16455,-1.1792,-1.19507,-1.21216,-1.22803,-1.24268,-1.26221,-1.27808,-1.29639,-1.30859,-1.31714,-1.32202,-1.3147,-1.29761,-1.25977,-1.20239,-1.12793,-1.03394,-0.91675,-0.79102,-0.64331,-0.48096,-0.31006,-0.13062,0.04517,0.22461,0.39917,0.56885,0.72998,0.87524,1.0083,