0.57739,0.56519,0.54321,0.53101,0.51025,0.49316,0.47363,0.45532,0.44067,0.4248,0.41138,0.39795,0.38696,0.37842,0.36255,0.35156,0.34058,0.33081,0.32104,0.31372,0.30518,0.29907,0.28809,0.27588,0.26123,0.24658,0.23193,0.21729,0.20386,0.19043,0.17212,0.15869,0.14282,0.12329,0.10376,0.08423,0.06348,0.04028,0.01831,-0.00366,-0.02808,-0.05249,-0.08057,-0.10742,-0.14038,-0.16968,-0.20386,-0.23315,-0.26367,-0.29541,-0.32104,-0.35522,-0.38208,-0.40894,-0.43579,-0.46387,-0.48828,-0.51636,-0.53833,-0.56274,-0.58594,-0.60913,-0.63232,-0.65552,-0.68115,-0.70557,-0.72632,-0.74951,-0.76416,-0.77759,-0.79102,-0.79712,-0.81177,-0.82275,-0.83374,-0.84595,-0.85571,-0.86548,-0.87524,-0.88745,-0.89844,-0.91064,-0.92651,-0.94238,-0.96313,-0.979,-0.99854,-1.0144,-1.03394,-1.04248,-1.05835,-1.07178,-1.08276,-1.09497,-1.10229,-1.10229,-1.08643,-1.06567,-1.02661,-0.97046,-0.89966,-0.82031,-0.72754,-0.62378,-0.51514,-0.39917,-0.27222,-0.14526,-0.01587,0.11597,0.23804,0.35889,0.46997,0.57007,0.65796,0.73608,0.80444,0.86182,0.90698,0.95215,0.98877,1.01563,1.03638,1.0498,1.06079,1.06812,1.07422,1.07666,1.08276,1.08521,1.09131,1.09375,1.09375,1.09375,1.09497,1.09741,1.09863,1.10107,1.10229,1.09985,1.09009,1.08032,1.06201,1.04248,1.01074,0.98389,0.94971,0.91431,0.88257,0.84106,0.80444,0.76904,0.7373,0.70435,0.67139,0.63965,0.61157,0.57861,0.5481,0.5249,0.50293,0.47852,0.45776,0.43823,0.41382,0.39551,0.37231,0.35034,0.32959,0.30762,0.28076,0.25757,0.23071,0.20752,0.17578,0.14526,0.11597,0.08301,0.05005,0.02075,-0.00977,-0.03784,-0.06714,-0.1001,-0.13184,-0.16113,-0.19287,-0.22705,-0.25879,-0.28931,-0.31982,-0.3479,-0.37598,-0.40527,-0.43823,-0.47241,-0.50171,-0.53345,-0.56152,-0.59082,-0.61523,-0.64087,-0.67017,-0.69458,-0.72144,-0.74707,-0.77026,-0.79468,-0.81665,-0.83618,-0.85938,-0.88135,-0.90576,-0.92651,-0.94727,-0.96802,-0.99121,-1.00464,-1.02173,-1.03882,-1.05469,-1.073,-1.08887,-1.10229,-1.11694,-1.13037,-1.14502,-1.15601,-1.16455,-1.17554,-1.1853,-1.19263,-1.20117,-1.21582,-1.22803,-1.23901,-1.25244,-1.26465,-1.28174,-1.29639,-1.30981,-1.3208,-1.33423,-1.34521,-1.35742,-1.36597,-1.37207,-1.36597,-1.34888,-1.31836,-1.27563,-1.21094,-1.13403,-1.04126,-0.93994,-0.83008,-0.70557,-0.57251,-0.43091,-0.28442,-0.13306,0.01221,0.15625,0.29297,0.42114,0.53833,0.64697,0.73364,0.82031,0.88989,0.94971,1.00098,1.04126,1.07544,1.10107,1.12183,1.13892,1.15356,1.16577,1.17432,1.18408,1.19385,1.19995,1.20605,1.20972,1.21094,1.21582,1.22192,1.22681,1.23291,1.23901,1.2439,1.24146,1.23169,1.22681,1.21216,1.19385,1.1731,1.14502,1.11572,1.08643,1.05591,1.01807,0.98267,0.94238,0.90332,0.86182,0.8252,0.79102,0.75928,0.72632,0.69946,0.67139,0.64453,0.61157,0.58716,0.56152,0.53711,0.51392,0.49316,0.47485,0.45166,0.42725,0.40161,0.37354,0.34668,0.32104,0.29053,0.26367,0.23315,0.20264,0.16846,0.14038,0.10742,0.07446,0.04272,0.00366,-0.03296,-0.06836,-0.10132,-0.1355,-0.16846,-0.20508,-0.23804,-0.27466,-0.30762,-0.33936,-0.37109,-0.39917,-0.42603,-0.45166,-0.47607,-0.50049,-0.52002,-0.54565,-0.57007,-0.59448,-0.6189,-0.64087,-0.66284,-0.68359,-0.70557,-0.72632,-0.74951,-0.77515,-0.79956,-0.82275,-0.84717,-0.86914,-0.89478,-0.90942,-0.92651,-0.94482,-0.95825,-0.979,-0.99609,-1.01074,-1.02417,-1.04248,-1.05591,-1.06812,-1.08276,-1.09985,-1.11328,-1.13037,-1.14624,-1.16577,-1.17676,-1.18896,-1.19873,-1.20483,-1.21826,-1.22925,-1.23779,-1.24756,-1.25977,-1.27075,-1.28174,-1.2915,-1.30249,-1.31104,-1.31958,-1.32935,-1.34155,-1.35132,-1.36353,-1.37817,-1.38916,-1.40259,-1.41357,-1.4209,-1.427,-1.43799,-1.44531,-1.4563,-1.46484,-1.47461,-1.47827,-1.47583,-1.46606,-1.44775,-1.40991,-1.35986,-1.2915,-1.20972,-1.1145,-1.00342,-0.88379,-0.75317,-0.61279,-0.46509,-0.31372,-0.16113,-0.00977,0.13794,0.27832,0.41016,0.52856,0.64331,0.73853,0.82153,0.89233,0.94971,1.00098,1.03394,1.06323,1.08276,1.09985,1.11328,1.12183,1.13037,1.13403,1.13647,1.14014,1.14136,1.14258,1.14502,1.14624,1.1499,1.15356,1.15601,1.15967,1.16333,1.16089,1.15479,1.14624,1.13892,1.12305,1.10596,1.08521,1.05957,1.03394,1.0022,0.9729,0.93872,0.90576,0.87036,0.83984,0.80933,0.78125,0.75195,0.73242,0.71045,0.6897,0.6665,0.64697,0.62622,0.60547,0.5835,0.56519,0.54565,0.52734,0.50415,0.48218,0.45532,0.42725,0.40161,0.36743,0.34302,0.31372,0.2832,0.25513,0.21973,0.18921,0.15015,0.11597,0.07935,0.04272,0.00488,-0.0293,-0.0647,-0.09888,-0.13306,-0.16724,-0.20752,-0.23804,-0.271,-0.30396,-0.33203,-0.36255,-0.38818,-0.41138,-0.43701,-0.46265,-0.49072,-0.51514,-0.54077,-0.56519,-0.58716,-0.60791,-0.62866,-0.65308,-0.67383,-0.6958,-0.72021,-0.73853,-0.7666,-0.78491,-0.80688,-0.82764,-0.84473,-0.86182,-0.87891,-0.89478,-0.91553,-0.93506,-0.95337,-0.97168,-0.98999,-1.0022,-1.01685,-1.03027,-1.03882,-1.05347,-1.06934,-1.08276,-1.09863,-1.11206,-1.12305,-1.13647,-1.14868,-1.15845,-1.16943,-1.1792,-1.19141,-1.20361,-1.21216,-1.22314,-1.23047,-1.23657,-1.2439,-1.24756,-1.25854,-1.26343,-1.27441,-1.28052,-1.29028,-1.30005,-1.30737,-1.31348,-1.3208,-1.32568,-1.33301,-1.33789,-1.34644,-1.35254,-1.36475,-1.36597,-1.37207,-1.37573,-1.38184,-1.38672,-1.39038,-1.39526,-1.40503,-1.40991,-1.41479,-1.41724,-1.41479,-1.40259,-1.37695,-1.33667,-1.2854,-1.21948,-1.13403,-1.03516,-0.92773,-0.81055,-0.68237,-0.54932,-0.41138,-0.26489,-0.12573,0.01831,0.15747,0.28687,0.40649,0.51636,0.61768,0.70435,0.78003,0.84595,0.896,0.93994,0.96924,0.98755,1.00098,1.00586,1.00708,1.00586,0.99609,0.98999,0.979,0.96924,0.95337,0.93872,0.92407,0.91187,0.90088,0.896,0.89111,0.88745,0.87524,0.87524,0.86548,0.85693,0.84839,0.8313,0.81665,0.79956,0.78125,0.75928,0.73608,0.71411,0.6897,0.66528,0.64331,0.6189,0.59937,0.57495,0.56152,0.5481,0.53223,0.52368,0.50537,0.49438,0.4834,0.46997,0.45654,0.44556,0.43579,0.42603,0.41138,0.40161,0.3833,0.36377,0.34424,0.32593,0.3064,0.28564,0.26123,0.23926,0.21484,0.18921,0.16235,0.13428,0.10742,0.07935,0.05127,0.01953,-0.00854,-0.0354,-0.06348,-0.09155,-0.11963,-0.14771,-0.17334,-0.20508,-0.22827,-0.25269,-0.2771,-0.29785,-0.32593,-0.34546,-0.36865,-0.38574,-0.40771,-0.4248,-0.44067,-0.45288,-0.46997,-0.48096,-0.49805,-0.51147,-0.53223,-0.54321,-0.5542,-0.57129,-0.57983,-0.5957,-0.60547,-0.61401,-0.62378,-0.63354,-0.64575,-0.65552,-0.66284,-0.67505,-0.68115,-0.68726,-0.69336,-0.70068,-0.70557,-0.71045,-0.72144,-0.72754,-0.73853,-0.74829,-0.7605,-0.77148,-0.78491,-0.79712,-0.81055,-0.82275,-0.84106,-0.85449,-0.86792,-0.88379,-0.9021,-0.91187,-0.92163,-0.9314,-0.94116,-0.94727,-0.95459,-0.95337,-0.93628,-0.91309,-0.87036,-0.81055,-0.73486,-0.64453,-0.54321,-0.42603,-0.30884,-0.18799,-0.05249,0.08179,0.21729,0.354,0.48096,0.61035,0.72144,0.82642,0.91553,0.99609,1.06201,1.11816,1.15967,1.20117,1.22803,1.25122,1.26465,1.27197,1.27075,1.26709,1.25854,1.24634,1.23779,1.22803,1.21582,1.20728,1.18652,1.17676,1.16333,1.15356,1.14258,1.13281,1.12305,1.11328,1.09863,1.08521,1.06445,1.0437,1.01685,0.99243,0.96313,0.93384,0.9082,0.87769,0.85083,0.83008,0.80688,0.78735,0.7666,0.74707,0.7312,0.71167,0.6958,0.68359,0.67261,0.66162,0.65186,0.64331,0.6311,0.62012,0.60547,0.59082,0.57495,0.56152,0.54688,0.53345,0.51392,0.49561,0.47119,0.448,0.42358,0.39795,0.37231,0.34424,0.31494,0.28564,0.25024,0.22217,0.18677,0.15259,0.11841,0.08545,0.05371,0.02441,-0.0061,-0.03418,-0.06226,-0.08667,-0.11719,-0.14648,-0.17212,-0.19897,-0.22583,-0.25635,-0.27588,-0.29907,-0.32227,-0.34302,-0.36743,-0.38696,-0.40894,-0.42847,-0.45288,-0.47119,-0.4895,-0.50293,-0.52246,-0.53833,-0.55786,-0.57617,-0.59692,-0.61157,-0.62866,-0.64453,-0.65674,-0.67383,-0.68848,-0.70068,-0.71045,-0.72388,-0.73364,-0.74585,-0.75562,-0.76294,-0.77271,-0.77881,-0.78979,-0.80078,-0.81421,-0.82764,-0.83862,-0.85327,-0.86914,-0.88257,-0.896,-0.91064,-0.92651,-0.93872,-0.95947,-0.97778,-0.99487,-1.01196,-1.02905,-1.0437,-1.06079,-1.07178,-1.08521,-1.09375,-1.10596,-1.10718,-1.09863,-1.07788,-1.04248,-0.98755,-0.91675,-0.82642,-0.7251,-0.61035,-0.48828,-0.35645,-0.21851,-0.0769,0.07446,0.22949,0.3833,0.53589,0.68359,0.82275,0.9436,1.05469,1.15234,1.23901,1.31348,1.37817,1.42822,1.47461,1.50879,1.53564,1.55151,1.55884,1.56494,1.56982,1.57104,1.57227,1.57349,1.57349,1.56982,1.56494,1.56494,1.5625,1.55884,1.56006,1.55884,1.5625,1.5625,1.56616,1.56006,1.55396,1.54053,1.52466,1.50269,1.47827,1.4502,1.42212,1.3855,1.35742,1.3208,1.28784,1.25244,1.21704,1.18286,1.15112,1.12061,1.09497,1.07178,1.05103,1.03149,1.01685,0.99854,0.98389,0.97046,0.95581,0.94482,0.93628,0.92529,0.91797,0.9021,0.89111,0.87524,0.85571,0.83618,0.81299,0.78857,0.76416,0.7373,0.71289,0.68481,0.65674,0.62012,0.58838,0.55542,0.5188,0.48096,0.4541,0.42236,0.39063,0.35889,0.32959,0.29541,0.26489,0.23071,0.20264,0.17212,0.14893,0.12451,0.10254,0.08057,0.05737,0.0293,0,-0.02808,-0.05615,-0.07935,-0.10376,-0.12695,-0.14648,-0.16968,-0.18921,-0.21484,-0.23682,-0.26001,-0.28564,-0.30884,-0.32837,-0.34668,-0.36499,-0.39307,-0.40771,-0.43091,-0.45166,-0.47241,-0.49438,-0.51147,-0.52979,-0.54443,-0.55786,-0.56885,-0.5835,-0.59937,-0.61401,-0.62744,-0.64087,-0.65674,-0.67383,-0.68604,-0.70068,-0.71655,-0.73364,-0.75317,-0.77515,-0.79346,-0.81665,-0.83496,-0.85205,-0.86914,-0.88379,-0.90576,-0.91675,-0.93262,-0.94849,-0.96191,-0.9729,-0.979,-0.97412,-0.97046,-0.94482,-0.91309,-0.86304,-0.80078,-0.72144,-0.62866,-0.52246,-0.40527,-0.2771,-0.14038,0.00854,0.15259,0.30151,0.4541,0.60181,0.74341,0.87646,0.99609,1.1084,1.20483,1.29395,1.36353,1.427,1.47217,1.51001,1.53931,1.55884,1.57471,1.58691,1.59302,1.59546,1.5979,1.59912,1.59546,1.58936,1.58936,1.58691,1.58447,1.58813,1.58691,1.58936,1.59058,1.59424,1.58936,1.58691,1.58325,1.57227,1.56006,1.54785,1.5271,1.50513,1.47339,1.44165,1.40259,1.36475,1.32202,1.2793,1.23657,1.19751,1.15845,1.12183,1.08398,1.05225,1.01929,0.98877,0.96191,0.93262,0.90454,0.87891,0.85327,0.83008,0.80444,0.77637,0.74951,0.72266,0.69458,0.66528,0.63477,0.60669,0.57739,0.54688,0.51514,0.4834,0.44678,0.41138,0.37354,0.33691,0.29907,0.26611,0.22827,0.19775,0.16357,0.13062,0.09521,0.06104,0.02808,-0.00732,-0.04272,-0.07568,-0.10742,-0.13672,-0.16724,-0.19653,-0.22461,-0.25024,-0.27588,-0.3064,-0.32471,-0.34424,-0.36499,-0.38086,-0.40039,-0.41748,-0.43701,-0.45654,-0.47729,-0.50049,-0.52246,-0.54443,-0.56519,-0.58472,-0.60425,-0.62256,-0.65063,-0.6665,-0.68481,-0.70679,-0.72876,-0.74463,-0.76172,-0.77515,-0.79468,-0.80933,-0.82642,-0.84351,-0.8606,-0.87769,-0.89355,-0.90698,-0.92407,-0.94238,-0.95459,-0.97046,-0.98877,-1.0083,-1.03027,-1.05591,-1.07666,-1.09619,-1.1145,-1.13159,-1.1499,-1.16577,-1.18408,-1.19751,-1.2146,-1.22803,-1.24146,-1.23535,-1.22803,-1.20117,-1.16943,-1.1145,-1.04492,-0.96191,-0.86304,-0.75684,-0.63843,-0.51025,-0.37476,-0.23804,-0.09155,0.05127,0.19287,0.32471,0.45776,0.57495,0.68359,0.78247,0.8667,0.9436,1.00342,1.05835,1.09619,1.12915,1.15112,1.16577,1.17432,1.18286,1.1853,1.19141,1.18896,1.1853,1.1792,1.17188,1.16089,1.14502,1.1377,1.13281,1.12549,1.12549,1.11572,1.10962,1.09985,1.09131,1.073,1.05713,1.03394,1.01196,0.98633,0.95947,0.92896,0.896,0.85693,0.82275,0.79102,0.75562,0.72754,0.69702,0.67017,0.64941,0.625,0.60547,0.58716,0.56763,0.54932,0.53101,0.51636,0.50293,0.48462,0.47241,0.4541,0.43823,0.41748,0.39185,0.37231,0.34912,0.32471,0.29907,0.27222,0.24658,0.21729,0.18921,0.15625,0.12695,0.09399,0.06104,0.02441,-0.00732,-0.04028,-0.06836,-0.10498,-0.13184,-0.16357,-0.19897,-0.23071,-0.26733,-0.30029,-0.32959,-0.35767,-0.38452,-0.40894,-0.43213,-0.45898,-0.48584,-0.50903,-0.53101,-0.55176,-0.57495,-0.59448,-0.61035,-0.62988,-0.64331,-0.66528,-0.68237,-0.70068,-0.71655,-0.73608,-0.75195,-0.7666,-0.78003,-0.79834,-0.80811,-0.8252,-0.83862,-0.85449,-0.86548,-0.87891,-0.88867,-0.89722,-0.90942,-0.92285,-0.93262,-0.94727,-0.96313,-0.98022,-0.99854,-1.01318,-1.02783,-1.04248,-1.05103,-1.06567,-1.0791,-1.08887,-1.09253,-1.08643,-1.07178,-1.04614,-0.99976,-0.93994,-0.86304,-0.77393,-0.66772,-0.5542,-0.43091,-0.29785,-0.16235,-0.02075,0.12329,0.26245,0.39917,0.53345,0.65552,0.76416,0.85815,0.9436,1.01196,1.073,1.12183,1.16333,1.19873,1.22314,1.24023,1.25244,1.25732,1.26221,1.26343,1.26221,1.26221,1.26221,1.26099,1.2561,1.25488,1.25,1.25,1.24268,1.24512,1.24268,1.24023,1.23779,1.22803,1.21704,1.20361,1.18408,1.15967,1.13403,1.10107,1.06934,1.03516,0.99854,0.96069,0.92041,0.88013,0.84229,0.80566,0.76904,0.73486,0.70801,0.68115,0.65674,0.63477,0.61157,0.58838,0.56641,0.54443,0.52002,0.49438,0.47119,0.44678,0.42603,0.40527,0.38208,0.35767,0.32471,0.29907,0.26978,0.23926,0.2063,0.17212,0.14038,0.10986,0.07813,0.0415,0.00732,-0.0293,-0.0647,-0.10132,-0.13672,-0.16846,-0.2002,-0.23315,-0.26001,-0.28931,-0.32227,-0.35156,-0.38818,-0.4187,-0.45044,-0.47974,-0.50781,-0.53101,-0.55908,-0.58228,-0.60913,-0.63477,-0.65796,-0.67993,-0.70679,-0.72021,-0.73608,-0.75317,-0.77026,-0.78979,-0.80811,-0.82764,-0.84473,-0.86304,-0.87769,-0.89233,-0.90576,-0.92041,-0.93384,-0.94727,-0.96436,-0.98389,-0.99487,-1.00952,-1.02173,-1.03394,-1.04736,-1.05957,-1.07422,-1.08521,-1.10229,-1.11694,-1.13159,-1.14502,-1.15845,-1.16821,-1.17554,-1.18286,-1.18286,-1.16577,-1.14258,-1.10352,-1.04858,-0.979,-0.89111,-0.78857,-0.67139,-0.54199,-0.40283,-0.25513,-0.10742,0.0415,0.19165,0.33569,0.47607,0.60547,0.72998,0.84229,0.93994,1.02661,1.09863,1.16455,1.21582,1.25854,1.28906,1.31958,1.33789,1.35376,1.36353,1.37329,1.38184,1.38794,1.39404,1.39038,1.39282,1.39648,1.39893,1.39893,1.40869,1.41846,1.41968,1.42334,1.42334,1.4209,1.41724,1.40991,1.39404,1.37817,1.35254,1.32324,1.28418,1.24268,1.19995,1.15479,1.10718,1.06689,1.02417,0.98389,0.9436,0.9021,0.86426,0.82642,0.79102,0.75317,0.72144,0.69092,0.66406,0.63721,0.61035,0.58594,0.55908,0.52856,0.50171,0.47485,0.44556,0.4187,0.38574,0.35889,0.32593,0.29785,0.26367,0.23193,0.2002,0.16724,0.13062,0.09766,0.0647,0.03174,-0.00732,-0.03906,-0.07568,-0.11108,-0.14404,-0.18433,-0.21973,-0.25269,-0.28564,-0.31982,-0.35034,-0.38208,-0.41138,-0.44189,-0.46875,-0.49438,-0.52124,-0.54932,-0.56641,-0.58716,-0.61157,-0.6311,-0.6543,-0.67627,-0.6958,-0.71655,-0.73853,-0.75439,-0.76904,-0.78003,-0.79346,-0.802,-0.81177,-0.8252,-0.83862,-0.84717,-0.85449,-0.86304,-0.8728,-0.88501,-0.896,-0.90698,-0.92041,-0.9375,-0.95215,-0.9668,-0.98145,-0.99487,-1.00708,-1.01807,-1.03394,-1.0498,-1.05957,-1.07422,-1.09009,-1.10962,-1.12671,-1.14502,-1.16089,-1.17554,-1.19141,-1.20605,-1.22314,-1.23657,-1.25,-1.25977,-1.26099,-1.25,-1.23047,-1.18652,-1.13281,-1.05957,-0.97046,-0.87036,-0.75317,-0.62378,-0.4834,-0.33203,-0.17334,-0.00977,0.15137,0.30884,0.45898,0.60669,0.73975,0.8667,0.97168,1.07178,1.15723,1.23047,1.29272,1.34521,1.38672,1.42212,1.44409,1.47217,1.48804,1.50513,1.51611,1.52466,1.53076,1.53931,1.54663,1.55029,1.5564,1.5625,1.56738,1.56982,1.57715,1.58936,1.59302,1.59546,1.59058,1.58447,1.57471,1.55762,1.53564,1.51001,1.47827,1.44043,1.39771,1.35376,1.30615,1.25732,1.20117,1.15479,1.10596,1.06201,1.01929,0.98267,0.94482,0.91064,0.8728,0.8374,0.80444,0.76904,0.73608,0.7019,0.66772,0.63721,0.60181,0.56519,0.53589,0.50293,0.46875,0.43213,0.39551,0.36011,0.32349,0.28809,0.24902,0.2124,0.17212,0.13306,0.09521,0.05737,0.01709,-0.01831,-0.06226,-0.09033,-0.12817,-0.16357,-0.2002,-0.24048,-0.27588,-0.31494,-0.34912,-0.38574,-0.41748,-0.45532,-0.48584,-0.5188,-0.5481,-0.57739,-0.60669,-0.63843,-0.66284,-0.6897,-0.71533,-0.73608,-0.76782,-0.78979,-0.81665,-0.84106,-0.86548,-0.88867,-0.91064,-0.9314,-0.95459,-0.97046,-0.98999,-1.00952,-1.02783,-1.0437,-1.06079,-1.07666,-1.09009,-1.10474,-1.11816,-1.13037,-1.1438,-1.15723,-1.17554,-1.18774,-1.20239,-1.21948,-1.23291,-1.24512,-1.25977,-1.27075,-1.28052,-1.29028,-1.30493,-1.31836,-1.33301,-1.34766,-1.35986,-1.37085,-1.38306,-1.39404,-1.40991,-1.42334,-1.44165,-1.45752,-1.47339,-1.4917,-1.50757,-1.521,-1.53442,-1.54541,-1.56006,-1.57104,-1.58081,-1.58447,-1.58203,-1.57593,-1.55518,-1.51855,-1.46484,-1.39526,-1.31226,-1.2085,-1.09619,-0.96924,-0.83008,-0.68726,-0.53345,-0.38086,-0.22217,-0.0647,0.08789,0.23682,0.36865,0.49072,0.60181,0.69824,0.77881,0.85571,0.91919,0.9729,1.0144,1.05347,1.08032,1.10474,1.12427,1.1377,1.15112,1.16211,1.16943,1.1792,1.18164,1.18652,1.18774,1.19019,1.19385,1.19751,1.20361,1.20728,1.21216,1.21948,1.22192,1.22559,1.21826,1.21094,1.19751,1.17676,1.14746,1.12427,1.09253,1.06323,1.03149,0.99243,0.95215,0.91431,0.87769,0.83618,0.80078,0.7666,0.73486,0.70557,0.67627,0.65186,0.625,0.59937,0.57861,0.55664,0.53833,0.51392,0.49561,0.47729,0.45532,0.43579,0.40527,0.37842,0.35156,0.31982,0.28931,0.26001,0.22705,0.19653,0.15991,0.12695,0.09155,0.05615,0.02197,-0.00977,-0.0415,-0.07202,-0.10254,-0.13062,-0.16113,-0.18799,-0.21851,-0.24658,-0.2771,-0.30762,-0.34058,-0.36621,-0.39307,-0.4187,-0.44678,-0.47241,-0.49927,-0.5249,-0.54932,-0.58105,-0.60059,-0.62012,-0.64331,-0.66284,-0.68726,-0.70801,-0.7312,-0.75317,-0.77637,-0.79712,-0.82031,-0.84106,-0.86426,-0.88135,-0.9021,-0.92041,-0.94238,-0.95825,-0.97046,-0.98511,-0.99731,-1.0083,-1.01685,-1.02295,-1.03027,-1.0376,-1.04736,-1.05835,-1.07056,-1.08643,-1.09619,-1.10596,-1.11694,-1.13037,-1.13647,-1.14746,-1.16089,-1.17432,-1.18774,-1.20239,-1.21704,-1.23047,-1.24512,-1.2561,-1.26953,-1.28052,-1.29272,-1.30249,-1.31226,-1.32324,-1.33789,-1.33911,-1.34277,-1.34033,-1.33179,-1.30737,-1.27319,-1.22314,-1.15845,-1.07788,-0.98022,-0.87036,-0.74951,-0.61768,-0.47974,-0.33569,-0.19165,-0.05127,0.09155,0.23071,0.35889,0.47852,0.58228,0.67627,0.75439,0.82275,0.87646,0.92407,0.95825,0.98389,1.0083,1.02051,1.03027,1.03882,1.04126,1.0437,1.04248,1.0437,1.04126,1.03149,1.03149,1.03271,1.03271,1.0376,1.03394,1.03516,1.03394,1.02905,1.02173,1.00952,0.99609,0.979,0.95703,0.93384,0.9021,0.87036,0.83008,0.79468,0.75806,0.72144,0.68848,0.65186,0.6189,0.58838,0.55786,0.53223,0.50415,0.47974,0.45654,0.43335,0.41382,0.40039,0.38818,0.3772,0.36743,0.36133,0.35034,0.34302,0.32959,0.31982,0.3064,0.29297,0.27832,0.26489,0.24414,0.22583,0.19775,0.16968,0.1416,0.1123,0.08057,0.05371,0.02075,-0.00732,-0.04028,-0.06836,-0.10132,-0.13306,-0.16602,-0.19897,-0.22705,-0.25635,-0.28442,-0.30884,-0.33447,-0.35645,-0.38208,-0.40527,-0.4248,-0.44556,-0.46631,-0.48584,-0.50415,-0.52124,-0.54077,-0.55908,-0.57861,-0.59814,-0.61401,-0.6311,-0.64697,-0.65796,-0.66895,-0.67993,-0.6958,-0.70435,-0.71899,-0.72998,-0.74097,-0.75562,-0.76782,-0.77515,-0.78491,-0.79468,-0.80566,-0.81421,-0.82764,-0.84351,-0.85938,-0.87646,-0.89355,-0.9082,-0.92041,-0.93262,-0.94849,-0.95703,-0.97778,-0.99365,-1.00708,-1.01929,-1.03149,-1.03149,-1.02539,-1.0022,-0.97168,-0.91919,-0.85693,-0.77881,-0.6958,-0.58838,-0.47607,-0.354,-0.22217,-0.09155,0.04395,0.18188,0.31616,0.44434,0.56641,0.67383,0.77026,0.8606,0.93628,1.0022,1.05469,1.09741,1.12671,1.14868,1.16455,1.1731,1.17676,1.18164,1.1792,1.18408,1.1792,1.17432,1.16821,1.16333,1.15967,1.15356,1.15112,1.15356,1.15479,1.15601,1.15479,1.15845,1.15112,1.13892,1.12549,1.10474,1.0791,1.05225,1.01929,0.98633,0.94849,0.91187,0.87158,0.82886,0.79102,0.74951,0.71045,0.67627,0.64209,0.61279,0.58228,0.55664,0.52856,0.50171,0.47119,0.45166,0.42847,0.40649,0.38696,0.36499,0.34424,0.32837,0.3064,0.28198,0.25879,0.23193,0.20386,0.17456,0.14526,0.11963,0.09033,0.05859,0.0293,0,-0.03052,-0.06104,-0.09766,-0.13306,-0.16602,-0.19653,-0.22949,-0.26001,-0.29297,-0.32227,-0.354,-0.38208,-0.41016,-0.43335,-0.45898,-0.48218,-0.50781,-0.52856,-0.55664,-0.57861,-0.60059,-0.62256,-0.64575,-0.66528,-0.68359,-0.69946,-0.71533,-0.7251,-0.74097,-0.75073,-0.76538,-0.78125,-0.79468,-0.80811,-0.82153,-0.83496,-0.84961,-0.8606,-0.87646,-0.89233,-0.90942,-0.92651,-0.94482,-0.96191,-0.98022,-0.99365,-1.00952,-1.02295,-1.04614,-1.06323,-1.0791,-1.09619,-1.11206,-1.12915,-1.1438,-1.15723,-1.1731,-1.18896,-1.20605,-1.22314,-1.23901,-1.25488,-1.26709,-1.27197,-1.26709,-1.25244,-1.2207,-1.17554,-1.1145,-1.0376,-0.94849,-0.84106,-0.72388,-0.59204,-0.45288,-0.3064,-0.16235,-0.01343,0.12695,0.26611,0.39673,0.51636,0.6189,0.71899,0.80322,0.87524,0.93506,0.98267,1.01807,1.04614,1.06445,1.07544,1.08521,1.09131,1.09619,1.09863,1.09741,1.10107,1.10229,1.10352,1.09985,1.09741,1.09741,1.10107,1.10107,1.10962,1.11206,1.11328,1.11206,1.10352,1.09985,1.08765,1.073,1.05713,1.03516,1.01196,0.98267,0.94971,0.91431,0.87524,0.83618,0.79224,0.75195,0.71533,0.67749,0.64209,0.60181,0.56885,0.53467,0.50537,0.47607,0.448,0.42114,0.39795,0.37231,0.35156,0.32593,0.3125,0.28442,0.26611,0.24414,0.21851,0.2002,0.17212,0.14771,0.12573,0.10132,0.07446,0.04395,0.01465,-0.01587,-0.05005,-0.08057,-0.10864,-0.14282,-0.17456,-0.20508,-0.23438,-0.26733,-0.29541,-0.33203,-0.36865,-0.40039,-0.42969,-0.45898,-0.48218,-0.50903,-0.52979,-0.5542,-0.57617,-0.59326,-0.61523,-0.63599,-0.6543,-0.67017,-0.68481,-0.69946,-0.72021,-0.74097,-0.7605,-0.78125,-0.80688,-0.82886,-0.84595,-0.86304,-0.87769,-0.89355,-0.90576,-0.92407,-0.9436,-0.95459,-0.97046,-0.98633,-0.99609,-1.00708,-1.0144,-1.02661,-1.03516,-1.04736,-1.06079,-1.07422,-1.08765,-1.10107,-1.11084,-1.12305,-1.13037,-1.14136,-1.15234,-1.16821,-1.18408,-1.19995,-1.21582,-1.22803,-1.24146,-1.25366,-1.26465,-1.27686,-1.28418,-1.29883,-1.3147,-1.32568,-1.33789,-1.34888,-1.35742,-1.36719,-1.36963,-1.36719,-1.35376,-1.33057,-1.28906,-1.23047,-1.15479,-1.06201,-0.94849,-0.82642,-0.6897,-0.54932,-0.39185,-0.23682,-0.08057,0.07813,0.22949,0.37598,0.52002,0.64941,0.7666,0.86792,0.95703,1.03149,1.09619,1.1438,1.18286,1.20972,1.23169,1.24512,1.25854,1.26465,1.27075,1.26709,1.27319,1.27319,1.27441,1.27441,1.27563,1.27808,1.2854,1.28906,1.29517,1.29883,1.30127,1.30127,1.29517,1.29028,1.28174,1.26587,1.25122,1.22314,1.19629,1.16211,1.12549,1.08276,1.03882,0.99487,0.95093,0.9082,0.8667,0.82275,0.78247,0.7373,0.70068,0.66528,0.62988,0.59937,0.56641,0.53955,0.51514,0.49194,0.47119,0.44678,0.42603,0.40283,0.37842,0.35645,0.33447,0.31006,0.2832,0.25757,0.23193,0.20264,0.17822,0.14282,0.11353,0.08179,0.05615,0.02319,-0.00854,-0.04272,-0.07568,-0.1123,-0.14282,-0.17456,-0.2063,-0.24048,-0.26733,-0.29663,-0.32593,-0.35278,-0.38086,-0.40894,-0.43823,-0.46509,-0.49561,-0.52246,-0.54932,-0.57617,-0.60059,-0.62622,-0.64697,-0.67139,-0.69824,-0.71777,-0.74097,-0.76294,-0.78125,-0.79956,-0.81421,-0.83252,-0.85083,-0.87158,-0.88989,-0.90698,-0.92407,-0.94482,-0.95947,-0.9729,-0.98511,-0.99976,-1.0144,-1.02905,-1.04248,-1.05469,-1.06812,-1.08276,-1.09497,-1.10718,-1.11694,-1.12427,-1.13159,-1.14136,-1.15356,-1.15967,-1.16943,-1.1792,-1.18652,-1.19995,-1.20972,-1.2207,-1.23291,-1.24756,-1.26343,-1.27686,-1.2915,-1.30615,-1.3208,-1.33423,-1.34521,-1.36353,-1.36963,-1.3855,-1.39893,-1.41479,-1.42944,-1.44043,-1.44653,-1.44897,-1.44287,-1.42334,-1.38428,-1.33301,-1.26343,-1.17188,-1.06445,-0.94238,-0.80811,-0.66284,-0.50781,-0.35156,-0.19165,-0.0354,0.12085,0.27222,0.4126,0.54321,0.66284,0.76782,0.86182,0.94116,1.0083,1.06079,1.10107,1.13159,1.15234,1.16699,1.17676,1.18042,1.17554,1.17676,1.17065,1.15723,1.15112,1.14014,1.13037,1.12183,1.11572,1.11084,1.10718,1.10352,1.09985,1.09375,1.09375,1.09131,1.08398,1.07788,1.06689,1.05225,1.03638,1.01196,0.98633,0.95581,0.92407,0.89111,0.85205,0.81665,0.78003,0.74585,0.70923,0.68115,0.65186,0.62256,0.5957,0.56763,0.54443,0.52002,0.50049,0.48096,0.46265,0.44434,0.42847,0.40649,0.39063,0.37354,0.354,0.33447,0.31128,0.28931,0.26733,0.2417,0.21606,0.18555,0.15869,0.12939,0.09399,0.06226,0.0293,-0.00244,-0.03662,-0.06226,-0.09033,-0.12085,-0.14771,-0.17822,-0.2063,-0.23438,-0.25879,-0.28564,-0.3064,-0.33203,-0.35522,-0.3833,-0.40771,-0.43335,-0.45654,-0.48096,-0.50415,-0.52856,-0.5481,-0.57007,-0.5896,-0.61157,-0.6311,-0.64819,-0.6665,-0.68237,-0.69458,-0.70801,-0.72144,-0.73364,-0.74341,-0.75806,-0.76904,-0.78857,-0.802,-0.81665,-0.82397,-0.83862,-0.84717,-0.85938,-0.87158,-0.88745,-0.90088,-0.91553,-0.9314,-0.94971,-0.95581,-0.96802,-0.97656,-0.98999,-1.00464,-1.02051,-1.03638,-1.05103,-1.06934,-1.08521,-1.09985,-1.11572,-1.12915,-1.14014,-1.14746,-1.16089,-1.15967,-1.15845,-1.14258,-1.10962,-1.05835,-0.99365,-0.90576,-0.80688,-0.69336,-0.57617,-0.44678,-0.3125,-0.17334,-0.03418,0.11353,0.25757,0.39673,0.5249,0.64575,0.74951,0.84106,0.91919,0.98267,1.03638,1.0791,1.11084,1.13403,1.14624,1.15356,1.15112,1.14746,1.1377,1.12549,1.11084,1.09619,1.08521,1.06689,1.05103,1.03882,1.02539,1.01196,1.00098,0.99121,0.98267,0.96802,0.95459,0.93994,0.91919,0.89111,0.86548,0.83618,0.80566,0.77759,0.74341,0.71411,0.68237,0.65918,0.62988,0.60181,0.57373,0.55176,0.52612,0.50293,0.48828,0.47363,0.45532,0.448,0.43701,0.42725,0.41626,0.40527,0.39429,0.38208,0.36743,0.354,0.33936,0.32471,0.30762,0.28931,0.26855,0.24658,0.22339,0.19531,0.17334,0.14893,0.12085,0.09521,0.06348,0.0354,0.00244,-0.03052,-0.0647,-0.09644,-0.13062,-0.16235,-0.19531,-0.21973,-0.2478,-0.26978,-0.29541,-0.32349,-0.35034,-0.3772,-0.40283,-0.42725,-0.45166,-0.46997,-0.49072,-0.51147,-0.53101,-0.55054,-0.56641,-0.5896,-0.60059,-0.61523,-0.62866,-0.64087,-0.65552,-0.6665,-0.67871,-0.69336,-0.70679,-0.72021,-0.73364,-0.74829,-0.7605,-0.76904,-0.77881,-0.78979,-0.80322,-0.82031,-0.83374,-0.84839,-0.86182,-0.87524,-0.88989,-0.90088,-0.91431,-0.92773,-0.93994,-0.94604,-0.94971,-0.94849,-0.92529,-0.89111,-0.84229,-0.77271,-0.69214,-0.59326,-0.48706,-0.36743,-0.2417,-0.10742,0.03174,0.17212,0.30884,0.45166,0.5835,0.71045,0.82642,0.92407,1.01196,1.08643,1.14868,1.19873,1.24146,1.27441,1.29639,1.31348,1.32202,1.33057,1.32813,1.32324,1.3147,1.30859,1.30249,1.29761,1.2854,1.28052,1.26953,1.26099,1.25366,1.24634,1.24023,1.23779,1.23535,1.23291,1.22437,1.21338,1.19507,1.17188,1.14502,1.11572,1.08154,1.04126,1.00708,0.96924,0.92773,0.88867,0.84839,0.80933,0.77026,0.73364,0.69946,0.67139,0.64453,0.62134,0.59326,0.57617,0.55176,0.52856,0.51025,0.48218,0.46143,0.44189,0.42236,0.39917,0.37598,0.354,0.32959,0.30396,0.27954,0.25391,0.22705,0.19531,0.17334,0.1416,0.10986,0.08057,0.04883,0.01831,-0.01221,-0.04517,-0.07813,-0.10742,-0.14038,-0.16846,-0.19897,-0.22827,-0.25757,-0.28809,-0.31982,-0.34912,-0.3772,-0.40283,-0.42847,-0.45288,-0.47852,-0.50415,-0.52612,-0.55176,-0.57373,-0.59814,-0.62134,-0.64453,-0.66162,-0.68115,-0.69946,-0.71289,-0.73486,-0.75317,-0.77026,-0.78735,-0.80566,-0.81909,-0.83618,-0.84595,-0.86304,-0.87402,-0.88867,-0.90576,-0.91919,-0.93506,-0.95093,-0.96436,-0.97534,-0.99121,-1.00708,-1.01929,-1.03516,-1.05225,-1.06323,-1.07666,-1.08154,-1.0791,-1.05835,-1.02295,-0.97412,-0.90576,-0.82397,-0.72632,-0.61279,-0.49072,-0.35767,-0.21606,-0.0708,0.08057,0.22705,0.37476,0.51392,0.64209,0.75806,0.86182,0.95581,1.03516,1.10474,1.15967,1.20483,1.24146,1.26831,1.28784,1.30127,1.30981,1.3147,1.31836,1.31714,1.3208,1.32202,1.32446,1.32446,1.31958,1.31714,1.3147,1.31592,1.31592,1.31714,1.3208,1.31836,1.31592,1.31226,1.30249,1.2915,1.26953,1.24512,1.21948,1.19141,1.15845,1.11938,1.08032,1.04004,0.99609,0.95093,0.90942,0.86914,0.82642,0.78369,0.75195,0.71899,0.68726,0.65674,0.62622,0.60059,0.57373,0.55054,0.5249,0.50293,0.48462,0.46143,0.43579,0.4126,0.38696,0.36011,0.33569,0.30273,0.27832,0.24536,0.21851,0.18555,0.15503,0.12085,0.08667,0.05127,0.01221,-0.02563,-0.05249,-0.08423,-0.11475,-0.14893,-0.18066,-0.21362,-0.2478,-0.27954,-0.31372,-0.34424,-0.37598,-0.40527,-0.43091,-0.46265,-0.49438,-0.51758,-0.53955,-0.56396,-0.58838,-0.61279,-0.63477,-0.65796,-0.67871,-0.69946,-0.72144,-0.73975,-0.76172,-0.78125,-0.80078,-0.82153,-0.83496,-0.84839,-0.8667,-0.88257,-0.89844,-0.91431,-0.93384,-0.94849,-0.96558,-0.98389,-0.99976,-1.0144,-1.02783,-1.0437,-1.05591,-1.07422,-1.09009,-1.10474,-1.12061,-1.1377,-1.15479,-1.17065,-1.18286,-1.19995,-1.21094,-1.22681,-1.23901,-1.2561,-1.26221,-1.26099,-1.25244,-1.22925,-1.19263,-1.13281,-1.05713,-0.96313,-0.85693,-0.73486,-0.60303,-0.46265,-0.31982,-0.16724,-0.01099,0.13916,0.28687,0.42358,0.5481,0.66162,0.7605,0.85083,0.92651,0.98999,1.04614,1.09009,1.11938,1.14258,1.15845,1.17188,1.17554,1.18042,1.18408,1.1853,1.18896,1.18774,1.18774,1.1853,1.18286,1.17798,1.1731,1.17188,1.1731,1.17188,1.17798,1.17676,1.17676,1.16821,1.16211,1.1499,1.12915,1.10596,1.0791,1.04858,1.01685,0.979,0.94116,0.89966,0.85693,0.81665,0.77271,0.73608,0.70068,0.66528,0.63599,0.60303,0.57373,0.54443,0.51758,0.48706,0.46265,0.43701,0.4126,0.38696,0.36255,0.33691,0.30884,0.27588,0.25635,0.23071,0.20264,0.177,0.14893,0.12329,0.09644,0.06714,0.03662,0.0061,-0.02563,-0.06104,-0.09399,-0.12695,-0.15991,-0.18921,-0.21851,-0.25146,-0.28198,-0.3125,-0.34424,-0.37476,-0.40649,-0.43335,-0.46143,-0.49072,-0.51514,-0.54077,-0.56641,-0.5957,-0.61523,-0.63721,-0.6604,-0.68237,-0.70557,-0.72632,-0.74707,-0.76904,-0.78979,-0.81055,-0.8313,-0.84961,-0.87158,-0.88867,-0.90576,-0.92407,-0.93506,-0.95337,-0.96558,-0.979,-0.99121,-1.00708,-1.02295,-1.03638,-1.05103,-1.06567,-1.07422,-1.08887,-1.10107,-1.11694,-1.13037,-1.14502,-1.16089,-1.17554,-1.19385,-1.20483,-1.21704,-1.23169,-1.24512,-1.26221,-1.27808,-1.29272,-1.31592,-1.32568,-1.34277,-1.35742,-1.37085,-1.38428,-1.39404,-1.40259,-1.40625,-1.40137,-1.3855,-1.35498,-1.30615,-1.24146,-1.15601,-1.05469,-0.93994,-0.81665,-0.68359,-0.54443,-0.39917,-0.25269,-0.10864,0.03174,0.16968,0.29663,0.41016,0.51758,0.60791,0.68604,0.75195,0.802,0.84595,0.87769,0.90454,0.92041,0.93384,0.94238,0.9436,0.9436,0.9375,0.93506,0.93384,0.93018,0.92773,0.92773,0.92773,0.92773,0.9314,0.93018,0.93262,0.93384,0.93628,0.93384,0.9314,0.92529,0.91553,0.89966,0.88135,0.85693,0.82764,0.79224,0.7605,0.7251,0.69092,0.65674,0.62012,0.5835,0.55054,0.5188,0.48584,0.45654,0.42847,0.40527,0.38574,0.36621,0.34912,0.33081,0.3125,0.28931,0.26978,0.25146,0.23193,0.2124,0.19409,0.1709,0.15015,0.12329,0.1001,0.07568,0.04761,0.01953,-0.00366,-0.03174,-0.05493,-0.08179,-0.1062,-0.13794,-0.16602,-0.19409,-0.22583,-0.25146,-0.2771,-0.3064,-0.33447,-0.36133,-0.38818,-0.41382,-0.43945,-0.46631,-0.49194,-0.51392,-0.53589,-0.55542,-0.57373,-0.59448,-0.61279,-0.63599,-0.65308,-0.67139,-0.69214,-0.71289,-0.72876,-0.74829,-0.76416,-0.78003,-0.79712,-0.81177,-0.82397,-0.83862,-0.85571,-0.86426,-0.88013,-0.89233,-0.90942,-0.91797,-0.9314,-0.94238,-0.95215,-0.96436,-0.97656,-0.98877,-1.00098,-1.01318,-1.01929,-1.02905,-1.04004,-1.05347,-1.06812,-1.07788,-1.09375,-1.10962,-1.12305,-1.13647,-1.14868,-1.16089,-1.1731,-1.1853,-1.19629,-1.20728,-1.22437,-1.23413,-1.24634,-1.2561,-1.26587,-1.27197,-1.27197,-1.26343,-1.24146,-1.20483,-1.14868,-1.07788,-0.98633,-0.88501,-0.76172,-0.63354,-0.49927,-0.35889,-0.22339,-0.08423,0.05005,0.18433,0.30273,0.41626,0.5188,0.60425,0.67383,0.73853,0.78613,0.82153,0.85083,0.86792,0.87891,0.88257,0.88501,0.87402,0.87402,0.86792,0.85815,0.85205,0.84106,0.82642,0.82031,0.81055,0.80444,0.80322,0.79956,0.79834,0.79468,0.78369,0.77637,0.76782,0.75806,0.74341,0.72754,0.70679,0.68481,0.65674,0.6311,0.60181,0.57129,0.54077,0.51514,0.48828,0.46509,0.44189,0.41992,0.40283,0.3833,0.36743,0.35278,0.34058,0.33081,0.32349,0.3125,0.3064,0.30029,0.29175,0.27954,0.26611,0.25024,0.23315,0.21729,0.19653,0.18066,0.15869,0.13672,0.10986,0.08789,0.06592,0.03784,0.01343,-0.01465,-0.0415,-0.06836,-0.09644,-0.12207,-0.14893,-0.17822,-0.20508,-0.23438,-0.26123,-0.28687,-0.31372,-0.33447,-0.36377,-0.38574,-0.40894,-0.43213,-0.45654,-0.47974,-0.49805,-0.51392,-0.53223,-0.54565,-0.56152,-0.57739,-0.59204,-0.61157,-0.625,-0.63965,-0.64941,-0.66162,-0.67139,-0.68115,-0.69214,-0.70557,-0.71411,-0.72388,-0.73242,-0.74219,-0.75317,-0.76538,-0.77637,-0.78491,-0.79956,-0.81055,-0.82397,-0.8374,-0.85327,-0.8667,-0.87891,-0.88989,-0.9082,-0.91431,-0.92651,-0.9375,-0.94849,-0.95459,-0.95825,-0.95459,-0.93994,-0.91064,-0.86548,-0.802,-0.72388,-0.6311,-0.5249,-0.40894,-0.28809,-0.16113,-0.0354,0.09521,0.22583,0.35645,0.47607,0.5896,0.69336,0.78247,0.85571,0.92407,0.97778,1.01929,1.05103,1.07422,1.09009,1.09619,1.09985,1.09253,1.09131,1.08521,1.07544,1.07056,1.05835,1.05469,1.04614,1.0376,1.02905,1.02295,1.01929,1.01318,1.0022,1.00342,0.99854,0.99121,0.98267,0.96924,0.95215,0.92896,0.90088,0.86914,0.8374,0.80688,0.77271,0.73853,0.71045,0.67871,0.64941,0.62134,0.59204,0.56519,0.54321,0.52246,0.50049,0.48462,0.46753,0.4541,0.43945,0.42603,0.41138,0.39673,0.3833,0.36621,0.35278,0.33569,0.3186,0.29907,0.27954,0.25635,0.23438,0.2063,0.18066,0.15503,0.12695,0.09766,0.0708,0.04272,0.01465,-0.01465,-0.04517,-0.07568,-0.10498,-0.13306,-0.16479,-0.19287,-0.22217,-0.25024,-0.28076,-0.30151,-0.32593,-0.35034,-0.37231,-0.39551,-0.41748,-0.43457,-0.4541,-0.47363,-0.49194,-0.5127,-0.53345,-0.55786,-0.57495,-0.59082,-0.60425,-0.61401,-0.6311,-0.64087,-0.65308,-0.6665,-0.67993,-0.69336,-0.70679,-0.71777,-0.73242,-0.74219,-0.75439,-0.76538,-0.77637,-0.79346,-0.80688,-0.82153,-0.83252,-0.84839,-0.8606,-0.87036,-0.88379,-0.89844,-0.91064,-0.92285,-0.93262,-0.93506,-0.93262,-0.91675,-0.88501,-0.83374,-0.77148,-0.68848,-0.59204,-0.48584,-0.36865,-0.24414,-0.10986,0.02808,0.16113,0.30273,0.43823,0.56763,0.68604,0.79102,0.88745,0.96924,1.04126,1.09985,1.15356,1.19751,1.22559,1.25122,1.26587,1.27686,1.28296,1.28418,1.27808,1.28174,1.27686,1.27563,1.27319,1.26953,1.26587,1.26465,1.26221,1.25732,1.25977,1.25977,1.25977,1.26099,1.25977,1.25366,1.24268,1.22681,1.20728,1.18286,1.15601,1.12549,1.08887,1.05469,1.01807,0.98145,0.93994,0.90454,0.8667,0.82764,0.79102,0.75928,0.72998,0.70435,0.67627,0.65063,0.625,0.60181,0.58472,0.56152,0.54321,0.52246,0.50293,0.48706,0.46265,0.44434,0.4187,0.39307,0.36499,0.33936,0.3125,0.28198,0.25269,0.22705,0.19775,0.16968,0.13916,0.1062,0.07202,0.0354,0.00488,-0.03296,-0.06592,-0.09521,-0.12451,-0.15503,-0.18433,-0.21362,-0.2417,-0.2771,-0.30151,-0.32837,-0.35645,-0.37842,-0.40527,-0.43213,-0.45288,-0.47729,-0.50171,-0.5249,-0.54688,-0.56641,-0.59082,-0.60059,-0.61768,-0.6311,-0.64575,-0.66162,-0.67383,-0.68848,-0.69946,-0.71289,-0.7251,-0.73364,-0.74341,-0.75806,-0.7605,-0.77026,-0.78003,-0.78979,-0.80078,-0.81055,-0.82275,-0.83252,-0.84473,-0.85815,-0.87402,-0.89478,-0.91553,-0.93506,-0.95459,-0.97778,-0.99243,-1.01318,-1.03027,-1.04736,-1.06079,-1.07056,-1.07422,-1.06934,-1.05103,-1.01563,-0.96069,-0.88501,-0.79224,-0.68481,-0.57007,-0.44189,-0.30518,-0.16479,-0.02075,0.12817,0.27222,0.41748,0.55176,0.67627,0.78857,0.88623,0.96924,1.0376,1.09497,1.14258,1.1792,1.2085,1.23169,1.24878,1.26099,1.26831,1.27197,1.27563,1.2793,1.28296,1.2854,1.29517,1.30005,1.30493,1.31104,1.31348,1.32202,1.32813,1.33911,1.34277,1.34888,1.35376,1.35376,1.34888,1.33789,1.31958,1.29517,1.26099,1.23047,1.19507,1.15723,1.11938,1.0791,1.0376,1.00098,0.96191,0.92407,0.88867,0.85205,0.82153,0.78857,0.76294,0.7373,0.71167,0.6897,0.65918,0.63477,0.60913,0.5835,0.55908,0.53345,0.51025,0.48096,0.45288,0.42603,0.39673,0.36743,0.33691,0.30029,0.26733,0.23193,0.20142,0.16602,0.13428,0.10132,0.06714,0.0354,0.00122,-0.03174,-0.06226,-0.09521,-0.12085,-0.15015,-0.17822,-0.20874,-0.23804,-0.26733,-0.29541,-0.31982,-0.34912,-0.37598,-0.40283,-0.42847,-0.45532,-0.47607,-0.50049,-0.5249,-0.55054,-0.57495,-0.59692,-0.6189,-0.63843,-0.6604,-0.67871,-0.69946,-0.71899,-0.73853,-0.75439,-0.76904,-0.78125,-0.79346,-0.80566,-0.81665,-0.82642,-0.83862,-0.85205,-0.86426,-0.88013,-0.89111,-0.90576,-0.91675,-0.92773,-0.93994,-0.95703,-0.97412,-0.99121,-1.00708,-1.02661,-1.04614,-1.06323,-1.0791,-1.09253,-1.11084,-1.12549,-1.14014,-1.15601,-1.17065,-1.18896,-1.20361,-1.2146,-1.22314,-1.22559,-1.21826,-1.19507,-1.15723,-1.10596,-1.02783,-0.93628,-0.83252,-0.71411,-0.58838,-0.44922,-0.30762,-0.16357,-0.02319,0.11475,0.2478,0.36865,0.47729,0.5835,0.67261,0.74951,0.81299,0.86426,0.90942,0.94238,0.97412,0.98999,1.00586,1.01563,1.02173,1.02905,1.03149,1.03638,1.04004,1.04492,1.04248,1.04858,1.04858,1.05347,1.05713,1.06323,1.07056,1.07544,1.08154,1.0791,1.07666,1.06934,1.05957,1.03882,1.02173,0.99731,0.9668,0.93384,0.89966,0.86182,0.8252,0.78369,0.74463,0.70923,0.67749,0.65063,0.61768,0.59692,0.57251,0.54932,0.52856,0.50659,0.4895,0.46997,0.44922,0.43213,0.4126,0.39551,0.37476,0.3479,0.32837,0.30518,0.28076,0.25635,0.22949,0.20386,0.177,0.14771,0.12085,0.09277,0.06348,0.03174,0,-0.02808,-0.05493,-0.08301,-0.10864,-0.14038,-0.1709,-0.20264,-0.23315,-0.26611,-0.29297,-0.31982,-0.34546,-0.37109,-0.39307,-0.41382,-0.43335,-0.45044,-0.47363,-0.49683,-0.51392,-0.53223,-0.55176,-0.56763,-0.58105,-0.59448,-0.61279,-0.625,-0.63965,-0.65552,-0.66772,-0.68848,-0.7019,-0.71411,-0.7251,-0.73975,-0.75073,-0.76416,-0.78003,-0.79712,-0.80688,-0.81787,-0.82886,-0.83496,-0.84961,-0.8606,-0.87036,-0.88379,-0.89478,-0.9082,-0.92041,-0.93506,-0.95459,-0.96558,-0.98022,-0.99365,-1.00586,-1.01929,-1.03271,-1.04736,-1.05957,-1.07178,-1.08276,-1.09253,-1.10229,-1.11694,-1.12427,-1.1377,-1.14868,-1.16699,-1.18042,-1.19263,-1.20361,-1.20728,-1.20605,-1.19019,-1.16089,-1.1145,-1.05103,-0.9729,-0.87524,-0.77026,-0.65186,-0.52612,-0.39795,-0.26123,-0.12451,0.00732,0.13306,0.25269,0.36011,0.45898,0.54443,0.62134,0.68481,0.73486,0.77271,0.79956,0.81787,0.82886,0.83496,0.83618,0.83374,0.83008,0.82642,0.82275,0.82275,0.82275,0.8252,0.82153,0.82275,0.8252,0.83008,0.8374,0.84229,0.84839,0.85571,0.85815,0.85327,0.85083,0.84351,0.8313,0.81177,0.79102,0.76782,0.74341,0.71533,0.68237,0.65063,0.6189,0.58838,0.55664,0.53589,0.51636,0.49683,0.48096,0.46509,0.45044,0.43701,0.42236,0.41138,0.39917,0.38818,0.37842,0.36377,0.354,0.34302,0.32593,0.30518,0.28564,0.26611,0.24536,0.22461,0.20386,0.18555,0.16357,0.13916,0.10986,0.09033,0.06348,0.03784,0.01343,-0.01465,-0.04028,-0.06592,-0.09155,-0.11475,-0.14038,-0.16479,-0.19043,-0.22217,-0.24658,-0.27222,-0.29297,-0.31494,-0.33691,-0.35522,-0.37231,-0.3894,-0.41016,-0.42725,-0.44312,-0.46143,-0.47729,-0.49194,-0.50537,-0.5188,-0.52979,-0.54565,-0.55908,-0.57495,-0.58472,-0.59814,-0.60547,-0.61401,-0.62378,-0.63599,-0.64575,-0.65552,-0.67139,-0.68359,-0.69824,-0.71045,-0.72144,-0.73486,-0.74829,-0.75928,-0.77759,-0.79224,-0.81543,-0.8313,-0.84717,-0.86426,-0.87769,-0.89355,-0.90576,-0.91797,-0.93506,-0.94604,-0.95825,-0.96313,-0.95825,-0.94849,-0.91431,-0.86548,-0.80444,-0.72876,-0.63965,-0.53955,-0.43213,-0.31494,-0.19653,-0.07202,0.05127,0.17334,0.28564,0.40039,0.49927,0.58838,0.66528,0.72876,0.78491,0.82886,0.86548,0.88623,0.90942,0.92285,0.92651,0.9314,0.92529,0.92285,0.92041,0.91553,0.9082,0.91064,0.90698,0.90454,0.89966,0.89844,0.89722,0.89722,0.90454,0.90576,0.91064,0.91431,0.90698,0.89844,0.89111,0.87646,0.85327,0.82764,0.79712,0.7666,0.73608,0.70435,0.67383,0.64209,0.61157,0.57983,0.54688,0.5249,0.50293,0.48096,0.46143,0.44189,0.43091,0.41748,0.40405,0.39185,0.37842,0.37109,0.35889,0.34424,0.33569,0.32349,0.31006,0.29297,0.27588,0.26001,0.23926,0.21606,0.19043,0.16357,0.13794,0.1123,0.08423,0.05859,0.03174,0.00244,-0.02441,-0.05615,-0.08423,-0.11353,-0.13672,-0.16479,-0.18677,-0.20996,-0.23193,-0.25635,-0.2771,-0.29907,-0.31982,-0.33936,-0.36133,-0.37964,-0.39917,-0.41748,-0.43823,-0.45654,-0.47852,-0.49561,-0.51636,-0.52979,-0.54321,-0.55664,-0.56885,-0.58472,-0.59692,-0.61157,-0.62866,-0.64331,-0.6543,-0.66772,-0.67871,-0.69214,-0.70068,-0.71411,-0.72754,-0.73975,-0.75928,-0.77393,-0.78979,-0.80444,-0.81787,-0.83374,-0.84717,-0.85938,-0.87646,-0.88989,-0.90454,-0.91919,-0.9314,-0.9436,-0.94604,-0.94238,-0.92407,-0.89111,-0.84595,-0.78125,-0.70435,-0.61523,-0.50537,-0.3894,-0.26611,-0.13428,-0.00732,0.12207,0.24658,0.36865,0.47729,0.57861,0.66772,0.74463,0.81055,0.86182,0.90454,0.93872,0.95947,0.979,0.98755,0.99609,1.0022,1.00708,1.0083,1.00952,1.01196,1.01563,1.0144,1.01685,1.01563,1.02173,1.02051,1.03149,1.03882,1.0437,1.04614,1.05225,1.05347,1.05225,1.04614,1.03394,1.02051,1.00098,0.979,0.94727,0.92163,0.88867,0.85571,0.81421,0.77515,0.7373,0.69946,0.6604,0.6311,0.60059,0.57373,0.55054,0.52246,0.50415,0.48096,0.45898,0.44312,0.42114,0.40405,0.3894,0.37231,0.35522,0.33813,0.3186,0.29663,0.27344,0.25391,0.23071,0.20874,0.18799,0.16235,0.13794,0.11108,0.08545,0.05371,0.02563,-0.00366,-0.03418,-0.06226,-0.09277,-0.11963,-0.14771,-0.17578,-0.20752,-0.23926,-0.26855,-0.29663,-0.32715,-0.35156,-0.37598,-0.39795,-0.41992,-0.44189,-0.46265,-0.4834,-0.50293,-0.52612,-0.54688,-0.56641,-0.58716,-0.60791,-0.62622,-0.64575,-0.66528,-0.68604,-0.70068,-0.71655,-0.7312,-0.74097,-0.75806,-0.76904,-0.77881,-0.79468,-0.80811,-0.8252,-0.84229,-0.85938,-0.88013,-0.89355,-0.91064,-0.92529,-0.93994,-0.95825,-0.97412,-0.99243,-1.01074,-1.02783,-1.04492,-1.05957,-1.07544,-1.09497,-1.10718,-1.12183,-1.13403,-1.14868,-1.15723,-1.15723,-1.14624,-1.11938,-1.07788,-1.01563,-0.93506,-0.84351,-0.73853,-0.6189,-0.49194,-0.35767,-0.21851,-0.08057,0.05859,0.19165,0.3186,0.43579,0.54443,0.63477,0.71777,0.78979,0.84351,0.89478,0.93384,0.9668,0.98877,1.00464,1.01685,1.02051,1.02417,1.02539,1.02417,1.02783,1.02905,1.03149,1.0376,1.04126,1.04736,1.04736,1.05591,1.06201,1.06812,1.07666,1.0791,1.08154,1.08154,1.07544,1.06689,1.05469,1.03638,1.0144,0.98267,0.95337,0.92285,0.88501,0.85083,0.81177,0.76904,0.72876,0.69214,0.65674,0.625,0.59814,0.56885,0.53955,0.52124,0.49683,0.47729,0.4541,0.43091,0.41138,0.3894,0.37109,0.34912,0.32837,0.30884,0.28687,0.25757,0.23682,0.20996,0.18433,0.15747,0.12939,0.1001,0.07202,0.04639,0.01343,-0.01343,-0.04639,-0.07813,-0.11108,-0.1416,-0.17212,-0.20142,-0.23071,-0.25757,-0.28687,-0.31372,-0.3418,-0.37231,-0.39795,-0.4248,-0.44922,-0.47852,-0.49805,-0.52124,-0.54565,-0.56641,-0.59204,-0.61401,-0.63721,-0.65796,-0.68115,-0.69946,-0.71777,-0.73486,-0.75562,-0.77148,-0.79102,-0.80811,-0.82275,-0.84229,-0.85693,-0.8728,-0.88745,-0.90454,-0.92041,-0.93506,-0.95337,-0.96558,-0.98022,-0.99487,-1.00708,-1.01807,-1.03027,-1.03638,-1.04614,-1.05591,-1.07056,-1.08521,-1.09985,-1.11572,-1.12915,-1.14624,-1.16211,-1.18042,-1.19995,-1.21948,-1.24023,-1.25854,-1.27686,-1.29761,-1.31348,-1.32568,-1.34033,-1.34644,-1.3623,-1.36841,-1.37451,-1.37573,-1.36353,-1.34033,-1.29639,-1.23291,-1.15479,-1.04492,-0.92773,-0.79468,-0.65186,-0.50659,-0.35156,-0.19409,-0.03296,0.11963,0.271,0.4126,0.54199,0.65552,0.75684,0.84229,0.91431,0.97168,1.01929,1.05591,1.08521,1.10596,1.12061,1.12427,1.12793,1.12671,1.12427,1.12061,1.12061,1.11938,1.11938,1.12305,1.12061,1.12549,1.12793,1.13281,1.1377,1.1438,1.15112,1.15356,1.15479,1.15723,1.1499,1.14136,1.12549,1.10107,1.07788,1.04492,1.01563,0.98022,0.94482,0.90698,0.8667,0.82642,0.78613,0.74951,0.71533,0.68604,0.65186,0.62622,0.60059,0.57861,0.55786,0.53711,0.51392,0.49438,0.46997,0.45044,0.43091,0.40649,0.38696,0.36255,0.33813,0.31616,0.28687,0.26123,0.2356,0.20752,0.18433,0.15503,0.13184,0.10376,0.0708,0.0415,0.0061,-0.02686,-0.05859,-0.09155,-0.12085,-0.15015,-0.17944,-0.20752,-0.24048,-0.26611,-0.29419,-0.32104,-0.34424,-0.37476,-0.40161,-0.42969,-0.44922,-0.47119,-0.49194,-0.51147,-0.53467,-0.55908,-0.57739,-0.59937,-0.6189,-0.63843,-0.6604,-0.67871,-0.70068,-0.72388,-0.74707,-0.77026,-0.79346,-0.81543,-0.8374,-0.85327,-0.86914,-0.88135,-0.89844,-0.91431,-0.9314,-0.94727,-0.96191,-0.979,-0.99121,-1.00464,-1.02051,-1.03394,-1.04614,-1.05957,-1.0791,-1.09619,-1.11206,-1.12793,-1.14136,-1.15479,-1.17065,-1.18286,-1.19873,-1.21094,-1.23169,-1.24756,-1.26343,-1.27808,-1.29272,-1.30371,-1.3208,-1.33301,-1.34888,-1.36475,-1.38306,-1.39771,-1.41235,-1.42944,-1.43433,-1.43433,-1.42456,-1.39893,-1.35498,-1.2854,-1.19751,-1.08887,-0.96436,-0.8252,-0.67627,-0.52246,-0.36255,-0.19653,-0.0354,0.12695,0.28076,0.42358,0.55664,0.67383,0.77759,0.8667,0.94116,1.00464,1.05103,1.09009,1.11328,1.12793,1.1377,1.13647,1.13281,1.13037,1.12427,1.11694,1.10718,1.10107,1.09009,1.08032,1.07178,1.06445,1.06445,1.06445,1.06567,1.06567,1.07056,1.06812,1.06934,1.06445,1.05591,1.04492,1.02539,1.00342,0.97656,0.95093,0.91797,0.88379,0.83862,0.80322,0.76538,0.72388,0.68726,0.65063,0.6189,0.59204,0.56274,0.53955,0.51514,0.49316,0.47241,0.448,0.43579,0.42114,0.40283,0.38452,0.36377,0.34424,0.32227,0.30151,0.27832,0.25513,0.23315,0.20996,0.18311,0.16113,0.13428,0.10742,0.0769,0.04517,0.01587,-0.01831,-0.05005,-0.08057,-0.11108,-0.1416,-0.1709,-0.20264,-0.23438,-0.26367,-0.29541,-0.32349,-0.35278,-0.37842,-0.40527,-0.42847,-0.4541,-0.47485,-0.50049,-0.52368,-0.55054,-0.57129,-0.59082,-0.61646,-0.63965,-0.65796,-0.67627,-0.69336,-0.71533,-0.73608,-0.75439,-0.77393,-0.79346,-0.81299,-0.82275,-0.83862,-0.85571,-0.87036,-0.88867,-0.9021,-0.91553,-0.93018,-0.9436,-0.95581,-0.97168,-0.98022,-0.99854,-1.00586,-1.02173,-1.03394,-1.04492,-1.05957,-1.07056,-1.08154,-1.09375,-1.10596,-1.11938,-1.13037,-1.14868,-1.16821,-1.18286,-1.20117,-1.21826,-1.23535,-1.25244,-1.26587,-1.2793,-1.28906,-1.29883,-1.30127,-1.28662,-1.2561,-1.20728,-1.12671,-1.02783,-0.90942,-0.77637,-0.63843,-0.49316,-0.3418,-0.18799,-0.03784,0.11475,0.26367,0.40649,0.54077,0.65186,0.75684,0.84351,0.91553,0.97168,1.01685,1.0498,1.07666,1.09009,1.09863,1.09619,1.09131,1.08032,1.06567,1.05103,1.03516,1.02051,1.00464,0.98877,0.97412,0.96069,0.95215,0.93994,0.93262,0.92529,0.91797,0.90942,0.90454,0.89233,0.87769,0.85815,0.83374,0.80811,0.77637,0.74707,0.71411,0.68115,0.65063,0.61768,0.58838,0.56274,0.54077,0.51758,0.49683,0.47729,0.46143,0.44434,0.43091,0.41992,0.41382,0.40405,0.39307,0.37598,0.36621,0.34912,0.33447,0.31738,0.29907,0.27954,0.25879,0.23682,0.21362,0.18677,0.15869,0.12817,0.09399,0.0647,0.03418,0.00366,-0.02441,-0.05371,-0.08179,-0.11353,-0.14282,-0.1709,-0.19897,-0.22461,-0.25146,-0.28442,-0.30884,-0.33569,-0.36133,-0.38696,-0.41382,-0.43701,-0.46265,-0.48706,-0.50903,-0.52612,-0.54443,-0.56396,-0.5835,-0.59937,-0.61768,-0.63354,-0.64819,-0.66162,-0.67261,-0.68481,-0.69702,-0.70679,-0.71533,-0.72754,-0.73853,-0.75317,-0.76172,-0.77393,-0.78369,-0.79224,-0.80811,-0.82275,-0.83496,-0.84961,-0.86792,-0.88135,-0.89844,-0.91553,-0.93018,-0.94482,-0.95825,-0.97168,-0.979,-0.99487,-1.00586,-1.01929,-1.03271,-1.04004,-1.03516,-1.01807,-0.98389,-0.93384,-0.85815,-0.7666,-0.65918,-0.53589,-0.40649,-0.26855,-0.11963,0.03052,0.18311,0.33691,0.48584,0.625,0.74951,0.87158,0.9729,1.06201,1.13525,1.19629,1.25,1.28662,1.31592,1.32446,1.33911,1.34277,1.34033,1.33545,1.32568,1.31836,1.31348,1.30493,1.29028,1.28296,1.27197,1.26099,1.25122,1.24634,1.24146,1.23901,1.23901,1.23169,1.22559,1.21338,1.19751,1.17065,1.14746,1.12061,1.09009,1.05713,1.02417,0.98633,0.94849,0.9082,0.8667,0.82764,0.79102,0.75684,0.72266,0.69458,0.67017,0.64575,0.62378,0.60059,0.57861,0.5603,0.54199,0.52002,0.50171,0.48096,0.46509,0.44312,0.42725,0.40527,0.38208,0.35767,0.32715,0.29907,0.271,0.24048,0.20996,0.177,0.14771,0.11475,0.0769,0.04517,0.01099,-0.02563,-0.05737,-0.09033,-0.11719,-0.14648,-0.17456,-0.20386,-0.23315,-0.26001,-0.28687,-0.3125,-0.33325,-0.354,-0.37231,-0.39185,-0.41382,-0.43701,-0.46143,-0.4834,-0.50537,-0.52368,-0.54077,-0.55786,-0.57739,-0.59204,-0.60547,-0.62134,-0.63599,-0.65186,-0.66772,-0.68359,-0.69702,-0.71045,-0.72021,-0.73486,-0.74829,-0.76172,-0.77637,-0.79102,-0.80811,-0.82153,-0.84106,-0.85815,-0.87158,-0.88867,-0.90576,-0.92285,-0.9375,-0.95093,-0.96191,-0.96069,-0.95093,-0.93384,-0.88989,-0.8374,-0.76172,-0.67017,-0.55908,-0.43579,-0.30518,-0.16479,-0.01709,0.13428,0.29175,0.44556,0.59082,0.73486,0.85815,0.97168,1.073,1.15967,1.23291,1.29761,1.34888,1.38428,1.41357,1.427,1.43555,1.43799,1.43677,1.42944,1.42334,1.41602,1.41357,1.41113,1.40625,1.39893,1.3916,1.3916,1.3855,1.38672,1.38794,1.38672,1.38916,1.38794,1.38672,1.37817,1.36719,1.34766,1.3208,1.2915,1.25977,1.2207,1.18286,1.1377,1.09497,1.04492,0.99609,0.95093,0.90332,0.86426,0.82031,0.78125,0.74829,0.71533,0.68604,0.6543,0.62378,0.59692,0.56763,0.54443,0.52002,0.50049,0.48096,0.45288,0.42725,0.40161,0.37476,0.34668,0.31738,0.28809,0.26001,0.22827,0.20264,0.1709,0.1416,0.10986,0.07446,0.03906,0.00122,-0.0354,-0.07324,-0.10986,-0.14282,-0.17822,-0.21484,-0.24414,-0.27832,-0.31006,-0.3418,-0.37354,-0.40405,-0.43091,-0.45776,-0.48584,-0.50781,-0.53345,-0.55786,-0.58472,-0.60547,-0.62866,-0.65063,-0.67261,-0.69092,-0.71167,-0.72998,-0.74951,-0.77148,-0.78979,-0.80811,-0.82642,-0.84839,-0.85938,-0.8728,-0.88623,-0.89722,-0.91187,-0.92529,-0.94116,-0.95581,-0.97412,-0.98877,-1.00464,-1.02051,-1.0437,-1.05225,-1.073,-1.08887,-1.10596,-1.12793,-1.14624,-1.16211,-1.17676,-1.19263,-1.20728,-1.22314,-1.23657,-1.25,-1.25977,-1.26099,-1.25244,-1.22803,-1.1853,-1.11572,-1.02905,-0.92163,-0.80078,-0.66406,-0.51392,-0.35522,-0.18799,-0.02075,0.14771,0.31616,0.47119,0.61768,0.75195,0.87158,0.97534,1.06201,1.13525,1.19385,1.24146,1.2793,1.30493,1.32568,1.33789,1.34521,1.34888,1.34888,1.3501,1.34888,1.34888,1.34766,1.34644,1.34644,1.34521,1.33789,1.34399,1.34644,1.3501,1.35254,1.35376,1.3562,1.35742,1.35376,1.34155,1.3269,1.30737,1.28052,1.24268,1.21094,1.16943,1.12915,1.08276,1.03516,0.98877,0.93872,0.89233,0.84229,0.79956,0.75684,0.71655,0.67749,0.64697,0.61646,0.58716,0.55664,0.53101,0.50537,0.4834,0.45898,0.43335,0.41138,0.38696,0.36011,0.32837,0.30518,0.27588,0.24292,0.20996,0.177,0.14526,0.11475,0.08301,0.04883,0.01587,-0.01709,-0.05005,-0.09033,-0.11719,-0.15137,-0.18799,-0.22095,-0.25513,-0.28809,-0.31982,-0.35278,-0.38696,-0.41992,-0.44922,-0.47852,-0.50903,-0.53345,-0.55908,-0.58594,-0.61157,-0.64087,-0.66895,-0.69214,-0.71655,-0.74097,-0.76538,-0.78857,-0.80811,-0.8313,-0.85693,-0.88013,-0.9021,-0.92407,-0.94849,-0.97046,-0.98999,-1.00464,-1.02417,-1.03882,-1.05347,-1.06567,-1.07544,-1.09253,-1.10596,-1.11694,-1.12915,-1.14014,-1.14868,-1.16089,-1.17432,-1.19263,-1.20117,-1.21704,-1.22681,-1.23901,-1.25,-1.25854,-1.26831,-1.2793,-1.29272,-1.30981,-1.32446,-1.34277,-1.36475,-1.37573,-1.39404,-1.41113,-1.42578,-1.44287,-1.45386,-1.46851,-1.47949,-1.49658,-1.50635,-1.51367,-1.51489,-1.50391,-1.48071,-1.43311,-1.36353,-1.27319,-1.16211,-1.03271,-0.88745,-0.72876,-0.56519,-0.38818,-0.21118,-0.03174,0.14526,0.31494,0.47485,0.61768,0.74707,0.86182,0.96191,1.04736,1.11572,1.17432,1.21338,1.2439,1.26587,1.27686,1.28296,1.2854,1.28418,1.28418,1.28174,1.2793,1.28174,1.28052,1.28052,1.27563,1.27686,1.28052,1.28662,1.2915,1.29761,1.30371,1.30615,1.30859,1.30615,1.30005,1.28906,1.26709,1.24146,1.2146,1.18164,1.1438,1.10474,1.05591,1.01318,0.96802,0.92407,0.88013,0.83862,0.802,0.7666,0.72876,0.69824,0.66895,0.63965,0.61279,0.5896,0.56885,0.5481,0.52979,0.50903,0.48706,0.46387,0.43945,0.40894,0.38574,0.35889,0.33325,0.30518,0.2771,0.2478,0.21729,0.18433,0.14893,0.11597,0.0769,0.0415,0,-0.03662,-0.07202,-0.10498,-0.13672,-0.17212,-0.2063,-0.23804,-0.27222,-0.3064,-0.33691,-0.36743,-0.39429,-0.41992,-0.44922,-0.47729,-0.50781,-0.53467,-0.56396,-0.5896,-0.61401,-0.63965,-0.66528,-0.68726,-0.70801,-0.72998,-0.75195,-0.77271,-0.79468,-0.81543,-0.83374,-0.85327,-0.86914,-0.88501,-0.9021,-0.92163,-0.93506,-0.94971,-0.9668,-0.98022,-0.99731,-1.01318,-1.02539,-1.03638,-1.04858,-1.06079,-1.07056,-1.08154,-1.09985,-1.11328,-1.13037,-1.14258,-1.15112,-1.16577,-1.17798,-1.18896,-1.20239,-1.21704,-1.23291,-1.2439,-1.2561,-1.26709,-1.28052,-1.29395,-1.30493,-1.31714,-1.33179,-1.34277,-1.35986,-1.37085,-1.39038,-1.40137,-1.41602,-1.42944,-1.44531,-1.4563,-1.47095,-1.48438,-1.49902,-1.51245,-1.51978,-1.52222,-1.51611,-1.4978,-1.45874,-1.39893,-1.3147,-1.20361,-1.0791,-0.93506,-0.77881,-0.61523,-0.44067,-0.26123,-0.08057,0.1001,0.27588,0.43945,0.59204,0.72998,0.85327,0.95947,1.05347,1.13037,1.19141,1.23779,1.27197,1.29639,1.30737,1.31348,1.31348,1.31104,1.30981,1.30005,1.29272,1.28174,1.27197,1.26343,1.25,1.23901,1.23291,1.22925,1.22803,1.23169,1.22681,1.22559,1.22559,1.21948,1.21216,1.19751,1.17798,1.15356,1.12183,1.09009,1.05469,1.01807,0.979,0.9375,0.89355,0.84961,0.80566,0.7666,0.7312,0.70068,0.67139,0.64209,0.6189,0.59814,0.57617,0.55786,0.53833,0.52002,0.50415,0.48706,0.46997,0.45166,0.43213,0.4126,0.3833,0.36133,0.33813,0.31006,0.2832,0.25391,0.22705,0.19775,0.16602,0.13428,0.10254,0.06836,0.03296,-0.00732,-0.03784,-0.07202,-0.10742,-0.14648,-0.18555,-0.21729,-0.25757,-0.28931,-0.32349,-0.354,-0.38208,-0.40894,-0.43823,-0.45654,-0.47974,-0.50293,-0.52734,-0.5542,-0.57861,-0.60547,-0.62622,-0.64819,-0.6665,-0.68237,-0.70068,-0.71289,-0.73486,-0.75073,-0.76904,-0.78491,-0.802,-0.81421,-0.8252,-0.83496,-0.84717,-0.85205,-0.86548,-0.87646,-0.88867,-0.90088,-0.91187,-0.92041,-0.93506,-0.94604,-0.95947,-0.9729,-0.98999,-1.00952,-1.02051,-1.0376,-1.05103,-1.06689,-1.08398,-1.09985,-1.11572,-1.13281,-1.15479,-1.17554,-1.19385,-1.2146,-1.22925,-1.24878,-1.26709,-1.28174,-1.30005,-1.3147,-1.32568,-1.32813,-1.3147,-1.28662,-1.22803,-1.14746,-1.04492,-0.92163,-0.78857,-0.64087,-0.49194,-0.33569,-0.177,-0.01709,0.14282,0.30029,0.44189,0.58472,0.70801,0.81543,0.90698,0.98267,1.0437,1.09009,1.12549,1.1499,1.16333,1.17065,1.16943,1.16211,1.14868,1.13403,1.12061,1.10474,1.09497,1.07666,1.06201,1.05103,1.04126,1.03394,1.02661,1.02173,1.01563,1.00464,0.99854,0.98877,0.97656,0.95825,0.93262,0.9082,0.87646,0.84595,0.81177,0.77515,0.73975,0.70068,0.6604,0.6311,0.5957,0.56274,0.52856,0.50293,0.47974,0.45532,0.43701,0.4187,0.40527,0.39429,0.37964,0.36499,0.35645,0.34302,0.33203,0.3186,0.30518,0.29175,0.27832,0.26367,0.24414,0.22705,0.20264,0.177,0.15259,0.12207,0.09399,0.06714,0.03662,0.00366,-0.03052,-0.06592,-0.10376,-0.1416,-0.17578,-0.20752,-0.23926,-0.26855,-0.30273,-0.32959,-0.35889,-0.38818,-0.4187,-0.44678,-0.47241,-0.49927,-0.52368,-0.54199,-0.5603,-0.57861,-0.60059,-0.6189,-0.63843,-0.65918,-0.67627,-0.69336,-0.70923,-0.72632,-0.74219,-0.76172,-0.77637,-0.79346,-0.81177,-0.82764,-0.84473,-0.85815,-0.8728,-0.88623,-0.90088,-0.91064,-0.92529,-0.93628,-0.95703,-0.96558,-0.98022,-0.99365,-1.00708,-1.02295,-1.03882,-1.05347,-1.07178,-1.09009,-1.10962,-1.13037,-1.14746,-1.17188,-1.18896,-1.20728,-1.22681,-1.24146,-1.25977,-1.27197,-1.28052,-1.27808,-1.26343,-1.22803,-1.16699,-1.08154,-0.97168,-0.84717,-0.70557,-0.55054,-0.39307,-0.22705,-0.05981,0.10864,0.27588,0.43335,0.59082,0.73486,0.86182,0.97534,1.07056,1.15112,1.21948,1.27441,1.31592,1.34521,1.36475,1.37939,1.38428,1.38306,1.37695,1.36963,1.35864,1.34888,1.33667,1.32568,1.31592,1.30737,1.29761,1.29272,1.28662,1.28418,1.27686,1.2793,1.27808,1.27808,1.27197,1.26709,1.2561,1.24146,1.21948,1.19263,1.16089,1.12427,1.08643,1.0437,1.0022,0.95703,0.91187,0.87036,0.82275,0.78247,0.74585,0.71045,0.67627,0.64697,0.61768,0.59082,0.56519,0.54077,0.51758,0.49438,0.47363,0.45044,0.43091,0.40771,0.38574,0.36255,0.3418,0.3186,0.28931,0.26245,0.23193,0.20142,0.17212,0.14038,0.10742,0.07813,0.04517,0.01221,-0.02686,-0.05981,-0.09521,-0.13428,-0.1709,-0.20752,-0.24048,-0.27344,-0.3064,-0.33813,-0.36987,-0.39795,-0.42847,-0.4541,-0.48218,-0.50903,-0.53223,-0.55542,-0.58105,-0.60425,-0.63354,-0.65796,-0.68726,-0.70679,-0.72876,-0.75073,-0.77515,-0.79712,-0.82031,-0.84229,-0.86792,-0.88867,-0.90942,-0.93262,-0.95337,-0.97046,-0.98999,-1.00464,-1.02051,-1.03149,-1.05103,-1.06201,-1.07544,-1.08765,-1.10107,-1.11084,-1.12305,-1.13403,-1.14624,-1.16211,-1.18042,-1.19507,-1.2085,-1.23047,-1.24634,-1.26221,-1.2793,-1.29883,-1.3147,-1.33301,-1.35132,-1.37085,-1.38794,-1.40503,-1.41968,-1.43555,-1.45142,-1.46118,-1.46729,-1.4624,-1.4502,-1.40625,-1.34033,-1.24634,-1.12549,-0.98511,-0.82764,-0.65918,-0.48462,-0.30518,-0.12695,0.05249,0.23071,0.40405,0.5603,0.71289,0.84839,0.97412,1.08032,1.17065,1.2439,1.30493,1.35132,1.38672,1.41235,1.43188,1.44287,1.4502,1.45142,1.45142,1.44531,1.43799,1.42944,1.42212,1.41602,1.41357,1.41235,1.41846,1.41968,1.42578,1.427,1.43066,1.43433,1.43799,1.43921,1.43555,1.42944,1.4209,1.40259,1.37939,1.34766,1.31104,1.26953,1.23169,1.18408,1.14136,1.09741,1.05347,1.0083,0.96924,0.92529,0.88379,0.84229,0.80566,0.77393,0.74463,0.71655,0.68726,0.65796,0.63477,0.60547,0.57739,0.55664,0.52979,0.50537,0.47485,0.45288,0.42969,0.40283,0.37842,0.34546,0.31494,0.28198,0.24902,0.21362,0.18188,0.14893,0.11597,0.0769,0.04517,0.00854,-0.0293,-0.0647,-0.10498,-0.1416,-0.17944,-0.21729,-0.25146,-0.28687,-0.32104,-0.35522,-0.38818,-0.41992,-0.44922,-0.47729,-0.50293,-0.52979,-0.55176,-0.57861,-0.60059,-0.6311,-0.65308,-0.67627,-0.70068,-0.72388,-0.74585,-0.76904,-0.78857,-0.80688,-0.82397,-0.84229,-0.86304,-0.88135,-0.90698,-0.92163,-0.93994,-0.95703,-0.97412,-0.99121,-1.00342,-1.02539,-1.04004,-1.05713,-1.07422,-1.09009,-1.10718,-1.12427,-1.13647,-1.15479,-1.16699,-1.18286,-1.20117,-1.21704,-1.23047,-1.24634,-1.26221,-1.27075,-1.28052,-1.29517,-1.30493,-1.32446,-1.34033,-1.3562,-1.37573,-1.3916,-1.41113,-1.427,-1.44653,-1.46484,-1.47583,-1.49536,-1.51123,-1.52832,-1.54663,-1.56006,-1.57104,-1.57959,-1.58203,-1.57715,-1.5564,-1.52344,-1.45874,-1.37085,-1.25244,-1.1084,-0.94849,-0.77271,-0.58838,-0.40283,-0.21851,-0.03784,0.14771,0.32593,0.49805,0.6604,0.80811,0.94482,1.06201,1.16577,1.25244,1.32324,1.37939,1.42334,1.45142,1.47095,1.48193,1.48804,1.49048,1.48804,1.48071,1.46729,1.45752,1.44653,1.43433,1.42334,1.41724,1.41113,1.40381,1.40381,1.40625,1.40381,1.40747,1.40747,1.40747,1.40747,1.40259,1.39282,1.38428,1.36597,1.34033,1.31104,1.27563,1.23657,1.19751,1.15479,1.11206,1.06812,1.02539,0.98022,0.93628,0.896,0.8606,0.82397,0.79102,0.75806,0.73486,0.70801,0.68604,0.65796,0.63843,0.61279,0.5896,0.56763,0.53711,0.51147,0.48828,0.46143,0.43823,0.41138,0.38574,0.354,0.31738,0.29053,0.25391,0.21973,0.18066,0.14282,0.10864,0.0708,0.03418,-0.00977,-0.04761,-0.08667,-0.12451,-0.15869,-0.19531,-0.22827,-0.25635,-0.28809,-0.31738,-0.34912,-0.37598,-0.40649,-0.43701,-0.46143,-0.4895,-0.51514,-0.54077,-0.56641,-0.58838,-0.61401,-0.63843,-0.66162,-0.68481,-0.70679,-0.72632,-0.74829,-0.76782,-0.78735,-0.80566,-0.82764,-0.84717,-0.86548,-0.88501,-0.90088,-0.91797,-0.93262,-0.94727,-0.96313,-0.98022,-0.99609,-1.01318,-1.03027,-1.05103,-1.07056,-1.08643,-1.09985,-1.11084,-1.12305,-1.13892,-1.15601,-1.17188,-1.18774,-1.20483,-1.21704,-1.23291,-1.24634,-1.25977,-1.26831,-1.27686,-1.29272,-1.30737,-1.32324,-1.33667,-1.34766,-1.35864,-1.37451,-1.38428,-1.40015,-1.41235,-1.43066,-1.4502,-1.46729,-1.48682,-1.50391,-1.51733,-1.53442,-1.54541,-1.56128,-1.57715,-1.58691,-1.59302,-1.59302,-1.58203,-1.5564,-1.50146,-1.4209,-1.30615,-1.16943,-1.0022,-0.82397,-0.63599,-0.44189,-0.25146,-0.06104,0.12939,0.3125,0.48462,0.64941,0.80078,0.93262,1.05591,1.16089,1.25,1.32446,1.38184,1.41968,1.45874,1.48071,1.49292,1.49536,1.49048,1.48315,1.47217,1.4624,1.45264,1.43433,1.42212,1.40747,1.39771,1.38794,1.37817,1.37207,1.36597,1.35742,1.36108,1.36108,1.35864,1.35254,1.34521,1.32935,1.31348,1.28906,1.26465,1.23657,1.20361,1.17065,1.1377,1.09375,1.05469,1.01074,0.96802,0.92529,0.88501,0.84717,0.81543,0.77881,0.75806,0.72754,0.70557,0.67749,0.65552,0.63232,0.61035,0.59204,0.57129,0.55054,0.53345,0.50903,0.48584,0.46143,0.43579,0.40771,0.38086,0.35156,0.32471,0.29541,0.26611,0.23315,0.20386,0.16846,0.13184,0.09766,0.05981,0.02441,-0.00854,-0.04272,-0.07568,-0.10742,-0.13794,-0.1709,-0.2063,-0.22949,-0.25879,-0.28687,-0.31372,-0.34424,-0.37109,-0.40039,-0.42236,-0.45532,-0.48218,-0.50903,-0.53589,-0.55908,-0.58472,-0.60913,-0.62988,-0.6543,-0.67627,-0.70068,-0.72266,-0.74463,-0.77148,-0.78735,-0.80444,-0.8252,-0.84229,-0.86548,-0.88379,-0.90332,-0.92163,-0.94238,-0.95947,-0.97534,-0.99121,-1.00586,-1.02295,-1.0376,-1.05103,-1.06567,-1.08154,-1.09619,-1.11084,-1.12549,-1.14502,-1.15356,-1.16455,-1.18042,-1.19263,-1.20972,-1.22559,-1.24023,-1.25732,-1.27441,-1.28906,-1.30493,-1.31836,-1.33423,-1.34888,-1.36597,-1.38062,-1.39648,-1.41479,-1.42944,-1.44409,-1.45874,-1.47217,-1.4856,-1.4978,-1.51123,-1.52344,-1.53442,-1.53687,-1.52832,-1.49658,-1.44531,-1.3562,-1.23901,-1.09497,-0.9314,-0.74951,-0.56152,-0.37231,-0.18555,0.00244,0.18677,0.36499,0.53101,0.68604,0.82764,0.95703,1.07056,1.16943,1.25366,1.32568,1.38306,1.427,1.45874,1.47827,1.48193,1.4856,1.47827,1.46729,1.4502,1.43677,1.41846,1.40137,1.38062,1.36719,1.3501,1.33789,1.3208,1.31714,1.30859,1.30493,1.30249,1.29639,1.2915,1.2854,1.27075,1.25244,1.23413,1.21094,1.1853,1.15723,1.12549,1.09131,1.05591,1.02173,0.979,0.9436,0.90698,0.87036,0.83252,0.802,0.77026,0.74219,0.71655,0.6897,0.66528,0.64209,0.62134,0.59814,0.57617,0.55908,0.53955,0.52002,0.49805,0.47485,0.44922,0.42603,0.39917,0.37231,0.34668,0.31982,0.29785,0.26978,0.2417,0.2124,0.18188,0.14893,0.11719,0.08179,0.04639,0.00732,-0.02319,-0.05615,-0.09155,-0.12451,-0.15991,-0.19165,-0.22339,-0.25391,-0.28564,-0.31372,-0.3418,-0.36499,-0.39185,-0.41992,-0.448,-0.47241,-0.49805,-0.52612,-0.55054,-0.57373,-0.5957,-0.62134,-0.63599,-0.65308,-0.67261,-0.68848,-0.70801,-0.7251,-0.74097,-0.75439,-0.77026,-0.77759,-0.79224,-0.80444,-0.81665,-0.83008,-0.84351,-0.85938,-0.87402,-0.88867,-0.9021,-0.91431,-0.92529,-0.94238,-0.95215,-0.96313,-0.97412,-0.98755,-0.99976,-1.01196,-1.02539,-1.03394,-1.0498,-1.05713,-1.07056,-1.08398,-1.09741,-1.11206,-1.12549,-1.13647,-1.1499,-1.16455,-1.18042,-1.19629,-1.21704,-1.23413,-1.2561,-1.27319,-1.28906,-1.29883,-1.30615,-1.29883,-1.2793,-1.23291,-1.17065,-1.07544,-0.95581,-0.81421,-0.65796,-0.48706,-0.31494,-0.13672,0.03662,0.21118,0.37598,0.53711,0.68604,0.82153,0.9436,1.05713,1.15845,1.24512,1.31348,1.37329,1.41846,1.45142,1.47583,1.4856,1.49048,1.48804,1.47705,1.46484,1.45386,1.43555,1.41235,1.38916,1.36108,1.34155,1.32202,1.30981,1.29272,1.28418,1.27197,1.26465,1.25122,1.23901,1.22681,1.20728,1.18774,1.16455,1.1377,1.10962,1.07666,1.04126,1.0083,0.9729,0.9375,0.9082,0.87402,0.84595,0.82031,0.79712,0.77393,0.75439,0.73486,0.71533,0.69824,0.68359,0.66895,0.65674,0.64087,0.62988,0.61401,0.60181,0.58716,0.56152,0.54565,0.52124,0.49805,0.47729,0.44922,0.42236,0.39307,0.36377,0.32959,0.29785,0.26489,0.22949,0.19653,0.15747,0.12451,0.09277,0.05737,0.02441,-0.01099,-0.04761,-0.07813,-0.11719,-0.14526,-0.17578,-0.2063,-0.23071,-0.25879,-0.2832,-0.31006,-0.33447,-0.36011,-0.3833,-0.40161,-0.42114,-0.43945,-0.46143,-0.48096,-0.49805,-0.51636,-0.53711,-0.55542,-0.57251,-0.5896,-0.61035,-0.61768,-0.62988,-0.64331,-0.65308,-0.66895,-0.68359,-0.69458,-0.71045,-0.72388,-0.73486,-0.74585,-0.75562,-0.7666,-0.77759,-0.78857,-0.79956,-0.81055,-0.82764,-0.84351,-0.85571,-0.87036,-0.88501,-0.9021,-0.92041,-0.93628,-0.95703,-0.97168,-0.98755,-0.99976,-1.00464,-1.00586,-0.98267,-0.9436,-0.88013,-0.79468,-0.68726,-0.56152,-0.42358,-0.27466,-0.12085,0.03906,0.19775,0.35645,0.5127,0.6543,0.79346,0.91675,1.02905,1.13037,1.22192,1.29639,1.36108,1.40991,1.44653,1.47217,1.48682,1.49414,1.48682,1.48926,1.48193,1.47217,1.46118,1.44653,1.43188,1.41357,1.39771,1.37451,1.36353,1.3501,1.34155,1.33667,1.33057,1.32446,1.3208,1.30737,1.29272,1.27563,1.25244,1.22559,1.19629,1.16089,1.12915,1.09131,1.05469,1.01563,0.97656,0.93994,0.9021,0.86426,0.8374,0.80933,0.78735,0.76416,0.74341,0.72388,0.70557,0.68848,0.66895,0.65308,0.63721,0.62256,0.61157,0.59082,0.57617,0.55908,0.53833,0.52002,0.49316,0.47119,0.44434,0.4126,0.38696,0.354,0.32227,0.28809,0.25635,0.22217,0.18677,0.15503,0.12085,0.08789,0.05737,0.02319,-0.00732,-0.04272,-0.07568,-0.10376,-0.13672,-0.16724,-0.19409,-0.22339,-0.24658,-0.27832,-0.30029,-0.32715,-0.354,-0.3772,-0.40283,-0.42603,-0.448,-0.47119,-0.4895,-0.50659,-0.52246,-0.54077,-0.55908,-0.57129,-0.58594,-0.5957,-0.60547,-0.6189,-0.62744,-0.64087,-0.64941,-0.66284,-0.67261,-0.68604,-0.69824,-0.71167,-0.72632,-0.73975,-0.75439,-0.77026,-0.78735,-0.80688,-0.8252,-0.84473,-0.87158,-0.88989,-0.9082,-0.92529,-0.93628,-0.94971,-0.95337,-0.94727,-0.92651,-0.88989,-0.82764,-0.74219,-0.63721,-0.51636,-0.38452,-0.2417,-0.09155,0.05981,0.20996,0.36377,0.51392,0.66406,0.80322,0.93872,1.05835,1.16455,1.2561,1.33423,1.39771,1.4502,1.4917,1.5271,1.54907,1.56494,1.57959,1.58447,1.58447,1.58447,1.58203,1.57471,1.56738,1.55884,1.55029,1.54175,1.53931,1.53198,1.53198,1.52954,1.5332,1.52832,1.52832,1.52466,1.51855,1.50879,1.49414,1.47339,1.44897,1.41724,1.37817,1.33545,1.28906,1.24268,1.19751,1.1499,1.10596,1.05957,1.01685,0.9729,0.93506,0.89722,0.86182,0.83008,0.80444,0.77881,0.75806,0.73486,0.71533,0.6958,0.67749,0.65796,0.63599,0.61279,0.58838,0.56519,0.53955,0.51147,0.4834,0.4541,0.42358,0.38818,0.35156,0.31738,0.28076,0.24292,0.20874,0.1709,0.13428,0.09766,0.06104,0.02319,-0.01343,-0.04883,-0.08179,-0.11475,-0.14526,-0.17822,-0.2124,-0.2356,-0.26978,-0.30396,-0.33691,-0.36743,-0.39795,-0.42603,-0.45166,-0.48096,-0.50537,-0.52979,-0.5542,-0.57861,-0.60425,-0.62622,-0.64941,-0.66528,-0.68359,-0.70313,-0.71777,-0.73608,-0.75562,-0.76904,-0.78857,-0.80444,-0.82397,-0.84106,-0.85693,-0.8728,-0.88989,-0.90942,-0.92896,-0.94482,-0.96436,-0.98022,-0.99731,-1.01196,-1.02417,-1.03638,-1.05225,-1.06567,-1.08276,-1.10107,-1.12305,-1.13281,-1.14136,-1.14014,-1.12793,-1.10352,-1.05835,-0.99365,-0.9082,-0.80688,-0.68848,-0.5542,-0.41138,-0.26123,-0.10498,0.05493,0.21362,0.37476,0.52368,0.6665,0.79468,0.91309,1.01929,1.1084,1.19019,1.25854,1.31714,1.36475,1.40015,1.43066,1.45142,1.46484,1.47461,1.47827,1.48804,1.4917,1.49536,1.50024,1.50146,1.50391,1.50146,1.50146,1.50513,1.50757,1.51245,1.51611,1.51855,1.51733,1.51611,1.50879,1.50391,1.4917,1.47339,1.45142,1.42334,1.38916,1.35254,1.31104,1.26465,1.21704,1.16577,1.11572,1.06567,1.01196,0.96313,0.91553,0.86914,0.82642,0.78613,0.74951,0.71411,0.67749,0.64697,0.62012,0.5957,0.56885,0.54443,0.51758,0.49072,0.46265,0.43091,0.40161,0.36987,0.33447,0.30029,0.26611,0.23193,0.19531,0.15625,0.11841,0.07935,0.04028,0.00366,-0.03784,-0.0708,-0.10498,-0.1416,-0.17456,-0.20996,-0.24048,-0.271,-0.30151,-0.33569,-0.36743,-0.39673,-0.43091,-0.46265,-0.49561,-0.52612,-0.55786,-0.58594,-0.61646,-0.64331,-0.66528,-0.69092,-0.71777,-0.73608,-0.7605,-0.78369,-0.80811,-0.82886,-0.84961,-0.86792,-0.88745,-0.90454,-0.92163,-0.9375,-0.95215,-0.96802,-0.98022,-0.99731,-1.01074,-1.02661,-1.04492,-1.05835,-1.07422,-1.08887,-1.10718,-1.12061,-1.13525,-1.15234,-1.17188,-1.18896,-1.20483,-1.21826,-1.23535,-1.2561,-1.27197,-1.29272,-1.31226,-1.32935,-1.3501,-1.36475,-1.37573,-1.38184,-1.37939,-1.36475,-1.33179,-1.28174,-1.21582,-1.12061,-1.01074,-0.88135,-0.73975,-0.58716,-0.42847,-0.26733,-0.10376,0.05615,0.21118,0.36377,0.50537,0.63232,0.74707,0.85327,0.9436,1.02051,1.0791,1.13525,1.17676,1.20972,1.23535,1.25366,1.26831,1.28052,1.28784,1.29761,1.30005,1.30371,1.30737,1.31104,1.31104,1.3147,1.31592,1.31958,1.32446,1.32568,1.33057,1.33301,1.33179,1.32324,1.31714,1.30615,1.29028,1.26831,1.24634,1.21704,1.18164,1.13892,1.09497,1.04736,0.99731,0.94849,0.89478,0.84839,0.80322,0.75928,0.72144,0.67627,0.64087,0.60303,0.57129,0.54321,0.51758,0.49072,0.46265,0.42969,0.40649,0.3772,0.34912,0.31738,0.28687,0.25757,0.22583,0.19897,0.16968,0.1355,0.10498,0.07324,0.04272,0.00488,-0.02808,-0.05981,-0.09521,-0.12817,-0.16357,-0.19775,-0.2356,-0.27588,-0.30518,-0.34058,-0.37476,-0.40649,-0.43579,-0.46509,-0.49072,-0.51758,-0.54565,-0.57373,-0.60059,-0.6311,-0.6543,-0.68726,-0.71533,-0.73853,-0.76294,-0.78857,-0.80933,-0.83374,-0.85571,-0.88379,-0.9021,-0.92163,-0.94116,-0.95825,-0.97534,-0.99121,-1.0083,-1.02295,-1.04248,-1.05835,-1.07422,-1.08887,-1.10229,-1.12061,-1.13159,-1.14624,-1.15967,-1.1731,-1.1853,-1.19995,-1.21216,-1.23169,-1.23901,-1.25122,-1.26343,-1.27686,-1.28906,-1.30493,-1.31836,-1.33789,-1.35498,-1.36841,-1.38428,-1.39771,-1.40991,-1.42212,-1.43799,-1.45142,-1.46729,-1.48804,-1.50391,-1.521,-1.53809,-1.55762,-1.56494,-1.57593,-1.57959,-1.57837,-1.56616,-1.53809,-1.48804,-1.41602,-1.31836,-1.19751,-1.06323,-0.91553,-0.75439,-0.5896,-0.4187,-0.24902,-0.07935,0.08789,0.24902,0.40039,0.53955,0.6665,0.77271,0.87158,0.95581,1.02173,1.07666,1.12305,1.15967,1.19019,1.21216,1.22681,1.24023,1.24634,1.25244,1.25,1.2561,1.2561,1.25977,1.26343,1.26343,1.26953,1.27441,1.28052,1.28174,1.28906,1.29517,1.30005,1.30127,1.30127,1.29517,1.2854,1.27197,1.25122,1.22803,1.19629,1.15967,1.12427,1.07666,1.03394,0.98999,0.9436,0.89844,0.85327,0.81177,0.76904,0.72998,0.6958,0.66284,0.63354,0.60425,0.57495,0.5542,0.52856,0.50537,0.47607,0.45166,0.42847,0.40283,0.38696,0.35645,0.33081,0.30273,0.27222,0.24292,0.20874,0.177,0.14404,0.1062,0.07935,0.04639,0.01343,-0.01831,-0.05493,-0.08667,-0.12451,-0.15991,-0.19653,-0.23071,-0.26123,-0.29297,-0.32104,-0.35156,-0.37964,-0.41016,-0.44067,-0.46875,-0.49561,-0.52124,-0.54565,-0.57495,-0.59692,-0.6189,-0.64331,-0.66406,-0.6897,-0.71167,-0.73242,-0.75684,-0.77759,-0.79712,-0.81543,-0.83496,-0.85449,-0.87524,-0.89478,-0.91675,-0.93506,-0.95703,-0.9729,-0.98999,-1.00952,-1.02539,-1.0437,-1.05835,-1.0791,-1.09375,-1.10962,-1.12305,-1.13037,-1.1438,-1.15967,-1.16699,-1.18164,-1.19507,-1.21338,-1.22925,-1.24268,-1.25732,-1.26709,-1.28052,-1.28906,-1.30005,-1.31104,-1.3208,-1.34277,-1.35742,-1.37207,-1.38916,-1.40381,-1.41846,-1.43311,-1.44409,-1.4624,-1.47339,-1.48926,-1.50269,-1.51489,-1.53076,-1.54175,-1.55151,-1.55884,-1.5686,-1.56982,-1.56128,-1.54053,-1.4978,-1.43311,-1.34155,-1.22803,-1.09497,-0.94849,-0.78857,-0.62256,-0.45166,-0.2832,-0.1062,0.06592,0.23193,0.39551,0.54077,0.67749,0.79712,0.90088,0.99121,1.06201,1.12061,1.16821,1.20239,1.22925,1.25,1.26221,1.27075,1.27197,1.26831,1.25977,1.25854,1.25244,1.2439,1.24023,1.23535,1.23291,1.23169,1.23169,1.23535,1.23657,1.24146,1.24146,1.2439,1.24756,1.2439,1.23779,1.22681,1.20728,1.18408,1.15356,1.11816,1.07666,1.0376,0.99731,0.95825,0.91675,0.88135,0.84473,0.80811,0.77026,0.73853,0.70923,0.68237,0.65063,0.63232,0.60913,0.59082,0.57251,0.55176,0.53223,0.51147,0.4895,0.46509,0.44556,0.42236,0.39795,0.37354,0.34668,0.32104,0.28687,0.25635,0.22217,0.19165,0.16113,0.12817,0.09888,0.06104,0.02808,-0.0061,-0.04272,-0.07813,-0.11353,-0.14526,-0.18066,-0.21851,-0.24414,-0.27466,-0.30396,-0.33203,-0.36377,-0.38696,-0.41382,-0.43945,-0.46753,-0.4895,-0.51025,-0.52979,-0.5542,-0.57617,-0.59937,-0.62256,-0.64209,-0.66528,-0.67993,-0.69824,-0.71533,-0.72876,-0.74585,-0.76294,-0.77637,-0.79102,-0.80688,-0.82153,-0.83618,-0.84839,-0.86426,-0.87524,-0.88867,-0.9021,-0.91797,-0.93384,-0.94971,-0.96313,-0.97534,-0.99487,-1.00708,-1.01929,-1.03516,-1.04736,-1.06812,-1.08398,-1.10474,-1.12061,-1.14136,-1.15723,-1.17432,-1.19141,-1.20972,-1.22803,-1.24512,-1.25977,-1.27075,-1.28174,-1.28052,-1.27441,-1.25366,-1.2146,-1.16577,-1.09131,-0.99854,-0.88867,-0.76294,-0.62744,-0.47729,-0.32715,-0.17822,-0.01709,0.13794,0.29053,0.43213,0.56641,0.68848,0.79834,0.896,0.98267,1.04736,1.10352,1.14624,1.17798,1.19751,1.21094,1.21826,1.21826,1.21704,1.2085,1.19995,1.18774,1.17432,1.15723,1.14502,1.13281,1.11938,1.11084,1.10596,1.10107,1.09863,1.09497,1.08765,1.08154,1.06812,1.05347,1.0376,1.0083,0.98267,0.94971,0.91553,0.87769,0.83618,0.79346,0.75073,0.70435,0.67017,0.63599,0.60669,0.57983,0.55542,0.53467,0.51392,0.49561,0.47363,0.46021,0.448,0.43213,0.42114,0.40771,0.39063,0.37476,0.36011,0.3418,0.32104,0.30273,0.28198,0.25757,0.23438,0.20752,0.17944,0.15137,0.11597,0.08423,0.04517,0.00977,-0.0293,-0.06348,-0.09399,-0.12817,-0.15991,-0.19043,-0.22095,-0.25024,-0.28076,-0.3125,-0.34302,-0.37354,-0.39917,-0.42236,-0.44922,-0.47241,-0.49683,-0.5188,-0.54321,-0.56519,-0.58472,-0.60425,-0.62866,-0.64087,-0.66284,-0.67505,-0.69214,-0.70923,-0.72632,-0.74219,-0.75684,-0.77393,-0.78369,-0.79468,-0.80566,-0.81421,-0.82642,-0.83618,-0.84839,-0.85938,-0.87769,-0.88745,-0.89844,-0.91187,-0.92407,-0.9375,-0.95215,-0.96558,-0.98511,-1.00464,-1.02295,-1.04126,-1.05469,-1.07544,-1.08643,-1.10229,-1.11938,-1.13281,-1.15234,-1.16577,-1.17432,-1.17188,-1.15356,-1.11816,-1.06079,-0.98389,-0.88501,-0.77271,-0.64575,-0.50781,-0.35889,-0.20386,-0.04028,0.12085,0.27954,0.42847,0.57739,0.71045,0.82764,0.9314,1.02173,1.09985,1.16333,1.2146,1.25488,1.28418,1.30493,1.31836,1.32202,1.3208,1.31958,1.31592,1.3147,1.31226,1.30615,1.30371,1.29761,1.29272,1.28052,1.27808,1.27441,1.27075,1.27075,1.26953,1.26587,1.26221,1.25244,1.23657,1.21826,1.19629,1.16821,1.1377,1.09985,1.05713,1.01563,0.97046,0.92407,0.88013,0.83374,0.78857,0.74463,0.70923,0.67627,0.64331,0.61401,0.58472,0.55786,0.53345,0.50903,0.48706,0.47119,0.45654,0.44067,0.4248,0.40771,0.39185,0.37231,0.354,0.32593,0.30396,0.2771,0.25024,0.22217,0.18921,0.15625,0.12329,0.08423,0.04883,0.01099,-0.02563,-0.06104,-0.10132,-0.12939,-0.16479,-0.20142,-0.23682,-0.27222,-0.30762,-0.34302,-0.37476,-0.40771,-0.43701,-0.46265,-0.49194,-0.51514,-0.54443,-0.57251,-0.59814,-0.625,-0.65063,-0.67139,-0.69336,-0.71411,-0.7373,-0.75073,-0.7666,-0.78613,-0.802,-0.82275,-0.8374,-0.85571,-0.8728,-0.89111,-0.90576,-0.91675,-0.9314,-0.94727,-0.95825,-0.97534,-0.98877,-1.0022,-1.01807,-1.02783,-1.04492,-1.06079,-1.073,-1.09619,-1.11206,-1.13159,-1.15112,-1.17065,-1.19141,-1.2085,-1.22437,-1.24512,-1.25732,-1.27441,-1.28784,-1.30249,-1.31592,-1.32446,-1.32935,-1.3208,-1.30005,-1.26099,-1.19873,-1.11572,-1.01074,-0.88989,-0.75317,-0.60059,-0.44067,-0.271,-0.10254,0.07202,0.24292,0.41016,0.5603,0.70313,0.8313,0.94482,1.04248,1.12915,1.19873,1.2561,1.29883,1.33057,1.35498,1.36963,1.37817,1.38184,1.38916,1.3916,1.39282,1.39404,1.39648,1.39404,1.39404,1.38916,1.38306,1.38916,1.38916,1.39282,1.39526,1.39771,1.40015,1.39526,1.39282,1.37939,1.36841,1.35254,1.33057,1.30737,1.27563,1.23657,1.19873,1.15356,1.10718,1.05225,1.0022,0.95337,0.89722,0.85571,0.80811,0.7666,0.72876,0.68604,0.65186,0.61646,0.58716,0.55542,0.52979,0.50537,0.48218,0.45898,0.43457,0.40894,0.38452,0.35645,0.32471,0.29541,0.26611,0.2356,0.2063,0.17456,0.14282,0.11108,0.07568,0.03784,0.00122,-0.03296,-0.06958,-0.10498,-0.13794,-0.17212,-0.20386,-0.24048,-0.27222,-0.30762,-0.3418,-0.37476,-0.4126,-0.43823,-0.46753,-0.49561,-0.52246,-0.55664,-0.58472,-0.61279,-0.64209,-0.67017,-0.69214,-0.71533,-0.74097,-0.76416,-0.78613,-0.81055,-0.83252,-0.85693,-0.87891,-0.90088,-0.92041,-0.93872,-0.95581,-0.97534,-0.99121,-1.0083,-1.02173,-1.04004,-1.05103,-1.07056,-1.08765,-1.10107,-1.11694,-1.12793,-1.14136,-1.15234,-1.16577,-1.18042,-1.19629,-1.21216,-1.23169,-1.24023,-1.25488,-1.26953,-1.28174,-1.30005,-1.31714,-1.33667,-1.35864,-1.38184,-1.40137,-1.41846,-1.43677,-1.4563,-1.47217,-1.4917,-1.50757,-1.52344,-1.53687,-1.54053,-1.53442,-1.51123,-1.46851,-1.40259,-1.30859,-1.19385,-1.05713,-0.91187,-0.74829,-0.57739,-0.40283,-0.22583,-0.0415,0.1416,0.3186,0.48096,0.6311,0.76782,0.89111,0.99609,1.08643,1.16455,1.22803,1.27808,1.31836,1.34277,1.36475,1.37451,1.38184,1.38428,1.3855,1.3855,1.38794,1.38672,1.38916,1.38184,1.37939,1.37695,1.37695,1.37817,1.37695,1.38062,1.38184,1.37817,1.38184,1.37817,1.37329,1.3623,1.34644,1.32935,1.30249,1.27197,1.23169,1.19629,1.15112,1.10352,1.05591,1.00464,0.95459,0.90698,0.85938,0.81299,0.77026,0.73242,0.69458,0.6604,0.62744,0.59326,0.5603,0.53101,0.50293,0.47852,0.4541,0.43335,0.40649,0.38696,0.36255,0.33203,0.30518,0.27222,0.2417,0.20996,0.177,0.1416,0.11108,0.0769,0.04272,0.00488,-0.03174,-0.06592,-0.10132,-0.1355,-0.17212,-0.20752,-0.24048,-0.27344,-0.30151,-0.34058,-0.37109,-0.40405,-0.43457,-0.46387,-0.49194,-0.5188,-0.54443,-0.57495,-0.5957,-0.62256,-0.65063,-0.67505,-0.70679,-0.73242,-0.75806,-0.78003,-0.80933,-0.8313,-0.85083,-0.87646,-0.89844,-0.92285,-0.94238,-0.96191,-0.979,-0.99976,-1.01807,-1.0376,-1.05469,-1.073,-1.09009,-1.10596,-1.12427,-1.13647,-1.15356,-1.16699,-1.18042,-1.19629,-1.20605,-1.22681,-1.24146,-1.25488,-1.27075,-1.28296,-1.29517,-1.30615,-1.31836,-1.33789,-1.34521,-1.36108,-1.37451,-1.38916,-1.40869,-1.42578,-1.44287,-1.45874,-1.47827,-1.49414,-1.51001,-1.52954,-1.54907,-1.56494,-1.58081,-1.59424,-1.60767,-1.61865,-1.61987,-1.61743,-1.60156,-1.5686,-1.51611,-1.43677,-1.33301,-1.20483,-1.06201,-0.89844,-0.72632,-0.54688,-0.36499,-0.17212,0.01953,0.2063,0.38696,0.5542,0.70923,0.84839,0.97412,1.08521,1.17432,1.24878,1.31104,1.36108,1.39648,1.42578,1.44653,1.45386,1.45752,1.4563,1.45264,1.44531,1.43677,1.42578,1.41724,1.40991,1.40015,1.39282,1.38794,1.38306,1.38184,1.37695,1.37329,1.37451,1.37085,1.36597,1.35742,1.34399,1.32813,1.30493,1.27808,1.23901,1.20239,1.15967,1.11328,1.07056,1.01807,0.9729,0.92529,0.88013,0.83618,0.79468,0.75562,0.72021,0.68115,0.6543,0.62744,0.60303,0.57983,0.5542,0.53223,0.50415,0.47974,0.4541,0.42969,0.40649,0.37964,0.354,0.32837,0.29785,0.26855,0.23315,0.19653,0.15991,0.12207,0.08545,0.04883,0.0061,-0.03174,-0.06836,-0.1062,-0.14771,-0.18433,-0.22095,-0.25879,-0.29419,-0.32715,-0.36011,-0.39307,-0.4248,-0.45654,-0.49194,-0.52002,-0.54932,-0.5835,-0.60181,-0.62744,-0.65063,-0.67261,-0.7019,-0.72632,-0.74951,-0.77637,-0.80322,-0.8252,-0.84351,-0.8667,-0.88623,-0.90454,-0.92285,-0.94238,-0.96436,-0.98511,-1.00464,-1.02417,-1.04126,-1.05713,-1.073,-1.08643,-1.10352,-1.11816,-1.13647,-1.15112,-1.16821,-1.18286,-1.19629,-1.2146,-1.22925,-1.24146,-1.2561,-1.27197,-1.28784,-1.30493,-1.31714,-1.33545,-1.34277,-1.3562,-1.36475,-1.37939,-1.39526,-1.40991,-1.42578,-1.44287,-1.46118,-1.47217,-1.48193,-1.49414,-1.50757,-1.52222,-1.53687,-1.55273,-1.56982,-1.58813,-1.59912,-1.61499,-1.62598,-1.64063,-1.65283,-1.65894,-1.66016,-1.65161,-1.62842,-1.57715,-1.50024,-1.39404,-1.26099,-1.10596,-0.93506,-0.75317,-0.56641,-0.37842,-0.19165,0.00122,0.19165,0.37476,0.54565,0.70557,0.84961,0.979,1.08643,1.18286,1.2561,1.31348,1.35742,1.38794,1.41113,1.42578,1.427,1.42578,1.41235,1.39893,1.38184,1.36353,1.34155,1.32202,1.30493,1.28662,1.27197,1.26343,1.2561,1.25244,1.24634,1.24268,1.24268,1.24146,1.23901,1.23657,1.22681,1.21582,1.19507,1.17065,1.13892,1.10718,1.07056,1.03271,0.99731,0.95703,0.91675,0.88013,0.84106,0.80444,0.76294,0.72998,0.69946,0.67017,0.64453,0.62134,0.59814,0.57739,0.5542,0.53345,0.50903,0.48706,0.45776,0.44189,0.4187,0.39429,0.37231,0.34546,0.3186,0.29175,0.25879,0.22461,0.19287,0.15991,0.12817,0.09399,0.05737,0.02197,-0.01465,-0.05249,-0.09399,-0.13184,-0.16602,-0.20386,-0.23682,-0.271,-0.30396,-0.33447,-0.36865,-0.40039,-0.43213,-0.46265,-0.49438,-0.5249,-0.55176,-0.57739,-0.60303,-0.62988,-0.6604,-0.68604,-0.71289,-0.7373,-0.75806,-0.77881,-0.79712,-0.81665,-0.83496,-0.85205,-0.87036,-0.88623,-0.90332,-0.91675,-0.93872,-0.95581,-0.9729,-0.98999,-1.00708,-1.02539,-1.04126,-1.05469,-1.06812,-1.08521,-1.09985,-1.11328,-1.12671,-1.13892,-1.15112,-1.16211,-1.17554,-1.19019,-1.20239,-1.21704,-1.23291,-1.24634,-1.26099,-1.27563,-1.28784,-1.29761,-1.31958,-1.32813,-1.34644,-1.35986,-1.37329,-1.3916,-1.40259,-1.41846,-1.43311,-1.45142,-1.46484,-1.47827,-1.49902,-1.51367,-1.53076,-1.54541,-1.55762,-1.57104,-1.58569,-1.58569,-1.58447,-1.56738,-1.53076,-1.47095,-1.37573,-1.25366,-1.10352,-0.94482,-0.76416,-0.58105,-0.39429,-0.20508,-0.01831,0.16846,0.34912,0.52002,0.67871,0.82642,0.95947,1.07666,1.17676,1.25732,1.32446,1.37817,1.41602,1.44165,1.45874,1.46606,1.46606,1.45874,1.44287,1.427,1.40381,1.38062,1.35742,1.33057,1.30737,1.28662,1.27075,1.25977,1.24268,1.23169,1.21704,1.20605,1.19385,1.17798,1.16333,1.14136,1.11694,1.08765,1.05469,1.02295,0.98633,0.94849,0.91187,0.87402,0.8374,0.80078,0.76904,0.7373,0.70801,0.68237,0.65308,0.62988,0.60913,0.58838,0.56396,0.55298,0.53711,0.5249,0.51392,0.49805,0.48096,0.46387,0.44556,0.42114,0.40527,0.3833,0.35889,0.33691,0.30884,0.28076,0.24902,0.21606,0.18188,0.14893,0.11719,0.08179,0.04639,0.00977,-0.0293,-0.06592,-0.10498,-0.14404,-0.18311,-0.22095,-0.25513,-0.28931,-0.32471,-0.35889,-0.39307,-0.42603,-0.46143,-0.49194,-0.52124,-0.54688,-0.57129,-0.59814,-0.6189,-0.64087,-0.66528,-0.68604,-0.70801,-0.72998,-0.74951,-0.76904,-0.78491,-0.80078,-0.81543,-0.82886,-0.84351,-0.85693,-0.87402,-0.88745,-0.9021,-0.91797,-0.92896,-0.94116,-0.95215,-0.96436,-0.97534,-0.98755,-1.00098,-1.01196,-1.02539,-1.03516,-1.04492,-1.05713,-1.06934,-1.0791,-1.09009,-1.10229,-1.11816,-1.13403,-1.14746,-1.16089,-1.17432,-1.18774,-1.19873,-1.20605,-1.20972,-1.20117,-1.18652,-1.14258,-1.07422,-0.98267,-0.8667,-0.73242,-0.5835,-0.41992,-0.25269,-0.08423,0.08667,0.25757,0.42847,0.59082,0.74829,0.88989,1.01807,1.13037,1.22437,1.30493,1.36841,1.41968,1.4563,1.47827,1.49292,1.49658,1.49414,1.48071,1.46606,1.44653,1.4209,1.39893,1.37085,1.34277,1.31714,1.2915,1.26587,1.25,1.23169,1.21704,1.20239,1.18652,1.1731,1.15845,1.14136,1.11572,1.09253,1.06323,1.02905,0.99243,0.95215,0.91309,0.8728,0.8313,0.79224,0.75562,0.72021,0.68726,0.65552,0.625,0.59692,0.57495,0.5542,0.53589,0.52368,0.51147,0.49927,0.48828,0.47119,0.45654,0.43945,0.42358,0.40649,0.38818,0.36987,0.35034,0.32837,0.30151,0.27588,0.2478,0.21606,0.18188,0.14893,0.11353,0.08057,0.04517,0.01221,-0.01953,-0.05615,-0.09277,-0.13306,-0.16968,-0.20752,-0.2417,-0.28198,-0.31006,-0.34302,-0.37354,-0.40405,-0.43579,-0.46509,-0.49194,-0.52002,-0.55054,-0.57251,-0.59692,-0.6189,-0.63965,-0.66406,-0.68237,-0.70435,-0.72266,-0.74219,-0.75439,-0.76538,-0.77881,-0.78979,-0.79956,-0.81055,-0.81787,-0.82886,-0.83984,-0.84839,-0.8606,-0.87158,-0.88379,-0.89844,-0.91187,-0.92651,-0.93994,-0.95703,-0.97046,-0.98511,-1.0022,-1.01196,-1.02905,-1.04248,-1.05591,-1.07178,-1.08521,-1.09619,-1.10107,-1.09619,-1.07544,-1.04126,-0.98145,-0.89233,-0.78003,-0.65063,-0.50415,-0.34912,-0.18433,-0.01831,0.15625,0.33081,0.50049,0.66772,0.82764,0.97046,1.10474,1.21948,1.32202,1.40747,1.47705,1.53687,1.58081,1.61133,1.64185,1.65649,1.66626,1.6626,1.66016,1.64917,1.63818,1.6272,1.61865,1.60156,1.58813,1.57471,1.56616,1.55151,1.54419,1.53809,1.53198,1.52466,1.52222,1.51733,1.51001,1.49658,1.47705,1.45508,1.43188,1.40015,1.35864,1.32568,1.28296,1.23901,1.19385,1.1438,1.09863,1.05103,1.00708,0.9668,0.92773,0.89478,0.86182,0.83008,0.80688,0.78125,0.75562,0.7312,0.70923,0.69214,0.67261,0.65552,0.63721,0.61646,0.59814,0.57739,0.55786,0.53101,0.50537,0.47974,0.45044,0.42236,0.39063,0.35889,0.32471,0.28931,0.25024,0.21118,0.17212,0.13306,0.09644,0.05615,0.01709,-0.01953,-0.05737,-0.09766,-0.1355,-0.17456,-0.20996,-0.24414,-0.27832,-0.31006,-0.34058,-0.36865,-0.39795,-0.4248,-0.45288,-0.47852,-0.51147,-0.53101,-0.55542,-0.57739,-0.5957,-0.61768,-0.63599,-0.65674,-0.67505,-0.7019,-0.71411,-0.72998,-0.74585,-0.75806,-0.77393,-0.78857,-0.80078,-0.81909,-0.83984,-0.85815,-0.87769,-0.896,-0.91675,-0.93628,-0.95215,-0.97046,-0.98633,-1.0083,-1.02173,-1.04126,-1.05835,-1.073,-1.08765,-1.09741,-1.10352,-1.10474,-1.09253,-1.06445,-1.01685,-0.94604,-0.85327,-0.73608,-0.60303,-0.45288,-0.29419,-0.12939,0.04395,0.21851,0.39551,0.56641,0.72876,0.87891,1.02173,1.15234,1.26099,1.36353,1.44897,1.51733,1.57471,1.61743,1.65405,1.68091,1.69922,1.71387,1.71875,1.72241,1.72119,1.71631,1.70776,1.70776,1.7041,1.70166,1.70044,1.70044,1.698,1.698,1.70166,1.69434,1.69556,1.69434,1.68945,1.68091,1.66748,1.65283,1.6272,1.60034,1.56372,1.52466,1.47827,1.42822,1.37207,1.31958,1.26587,1.2146,1.16211,1.1145,1.06689,1.01929,0.9729,0.93018,0.88623,0.85083,0.81421,0.78369,0.75317,0.7251,0.69702,0.67139,0.64697,0.61279,0.58472,0.5542,0.52002,0.4895,0.45532,0.42236,0.38818,0.35278,0.31494,0.27466,0.23804,0.20142,0.16357,0.12817,0.09155,0.05493,0.01343,-0.02197,-0.05859,-0.1001,-0.13794,-0.17944,-0.21851,-0.25391,-0.28809,-0.32471,-0.35278,-0.38696,-0.41748,-0.44678,-0.47974,-0.50781,-0.53833,-0.56396,-0.59326,-0.61646,-0.64331,-0.66895,-0.69214,-0.72021,-0.74585,-0.76782,-0.79102,-0.80933,-0.82642,-0.84351,-0.85693,-0.87646,-0.89478,-0.91553,-0.93262,-0.94971,-0.96924,-0.98389,-0.99976,-1.0144,-1.02905,-1.04614,-1.06079,-1.0791,-1.09619,-1.11572,-1.13525,-1.1499,-1.16821,-1.1853,-1.20483,-1.22437,-1.24146,-1.26221,-1.2793,-1.29639,-1.31104,-1.32202,-1.33179,-1.33179,-1.32202,-1.29639,-1.25244,-1.18652,-1.09741,-0.98511,-0.85693,-0.71411,-0.5603,-0.39673,-0.22461,-0.05249,0.11963,0.29053,0.45776,0.61279,0.75806,0.88989,1.0083,1.11206,1.20239,1.26953,1.33301,1.37695,1.41235,1.43921,1.4563,1.46851,1.47827,1.4856,1.4856,1.48438,1.48438,1.48193,1.47949,1.47339,1.47705,1.48071,1.4856,1.48926,1.4917,1.49658,1.49658,1.49536,1.49048,1.49048,1.48315,1.46606,1.44531,1.41968,1.38916,1.35132,1.31104,1.26099,1.21216,1.16089,1.1084,1.06079,1.00708,0.95825,0.91064,0.86548,0.82031,0.78125,0.74463,0.70923,0.67871,0.64941,0.61768,0.58838,0.56152,0.53223,0.50537,0.47485,0.44556,0.41626,0.38696,0.35522,0.32349,0.29053,0.25757,0.22339,0.19043,0.15259,0.10986,0.07813,0.04028,0.00366,-0.03296,-0.06958,-0.10376,-0.13916,-0.17334,-0.21484,-0.24536,-0.2771,-0.31006,-0.33936,-0.37231,-0.40161,-0.43335,-0.46387,-0.49927,-0.52734,-0.5542,-0.58105,-0.60547,-0.62988,-0.65186,-0.67261,-0.69336,-0.71777,-0.73853,-0.7605,-0.78247,-0.80444,-0.8252,-0.84351,-0.86304,-0.88257,-0.90332,-0.92651,-0.94116,-0.96191,-0.98022,-0.99609,-1.01074,-1.02661,-1.04004,-1.05835,-1.07178,-1.08521,-1.09985,-1.11206,-1.12793,-1.14136,-1.15479,-1.16577,-1.18286,-1.19385,-1.2085,-1.2207,-1.23291,-1.25244,-1.26587,-1.28174,-1.29761,-1.31348,-1.3269,-1.34033,-1.3562,-1.37207,-1.39648,-1.41602,-1.43311,-1.44897,-1.46851,-1.47827,-1.48682,-1.49292,-1.48438,-1.47461,-1.44531,-1.39893,-1.32813,-1.23779,-1.12671,-0.99365,-0.84961,-0.69214,-0.52979,-0.35889,-0.18921,-0.01953,0.14771,0.3125,0.46265,0.60425,0.7312,0.84106,0.93872,1.01929,1.08643,1.13159,1.17676,1.2085,1.22925,1.24634,1.25488,1.26099,1.26343,1.26343,1.26221,1.25854,1.25977,1.2561,1.25244,1.25122,1.25244,1.25732,1.26099,1.26587,1.26709,1.26953,1.27197,1.27197,1.26587,1.26099,1.25,1.23291,1.2085,1.18164,1.14868,1.10596,1.06201,1.01563,0.97168,0.92651,0.88257,0.84229,0.80322,0.76538,0.7312,0.6958,0.6665,0.64209,0.6189,0.60059,0.57861,0.55908,0.53833,0.51514,0.49194,0.46509,0.44312,0.4187,0.39307,0.36987,0.34424,0.31982,0.29297,0.26245,0.22827,0.19653,0.16113,0.12817,0.09277,0.06348,0.03296,0.00122,-0.03052,-0.06714,-0.09766,-0.13062,-0.16724,-0.20264,-0.23315,-0.26123,-0.29297,-0.31982,-0.35278,-0.38208,-0.41016,-0.44067,-0.46753,-0.49316,-0.51758,-0.53833,-0.56396,-0.58716,-0.60669,-0.62866,-0.64819,-0.67261,-0.69336,-0.71289,-0.73486,-0.75073,-0.77148,-0.78857,-0.80566,-0.82275,-0.8374,-0.85938,-0.87524,-0.89111,-0.90454,-0.92163,-0.93872,-0.95337,-0.9668,-0.98022,-0.99854,-1.0144,-1.02905,-1.0437,-1.05957,-1.07178,-1.08643,-1.09375,-1.10352,-1.12061,-1.13281,-1.14624,-1.15845,-1.1731,-1.1853,-1.19385,-1.20483,-1.21582,-1.22681,-1.24146,-1.25366,-1.27197,-1.28296,-1.29761,-1.30981,-1.3208,-1.33667,-1.35132,-1.3623,-1.37939,-1.39404,-1.41113,-1.42578,-1.44043,-1.45386,-1.46484,-1.47461,-1.47827,-1.48438,-1.48193,-1.46973,-1.44409,-1.40015,-1.33667,-1.25854,-1.14624,-1.02051,-0.87891,-0.72388,-0.56396,-0.39185,-0.22095,-0.04761,0.12085,0.28931,0.44922,0.59814,0.72998,0.84717,0.94971,1.03516,1.10596,1.16089,1.20483,1.23657,1.26221,1.27686,1.28174,1.28906,1.28662,1.28418,1.27686,1.26953,1.26465,1.26099,1.25977,1.25732,1.2561,1.25854,1.25854,1.26221,1.26343,1.27075,1.27197,1.27319,1.27319,1.26587,1.2561,1.23901,1.21826,1.19141,1.16089,1.12915,1.09131,1.05469,1.0144,0.9729,0.93262,0.89355,0.85327,0.81665,0.78247,0.74829,0.71777,0.6897,0.6665,0.64087,0.6189,0.59814,0.58105,0.56274,0.53955,0.52002,0.49927,0.47485,0.45654,0.43213,0.40649,0.3833,0.35645,0.32837,0.29663,0.26611,0.2356,0.20264,0.1709,0.13306,0.1062,0.07446,0.04028,0.0061,-0.03052,-0.0647,-0.09644,-0.12695,-0.15869,-0.19043,-0.22217,-0.25024,-0.28198,-0.31128,-0.3418,-0.37231,-0.40039,-0.43091,-0.46143,-0.48706,-0.51514,-0.54199,-0.56885,-0.59326,-0.62256,-0.64697,-0.67017,-0.6897,-0.70435,-0.72144,-0.73242,-0.74951,-0.7605,-0.77393,-0.78491,-0.80322,-0.81543,-0.82764,-0.83618,-0.84473,-0.85815,-0.8667,-0.87769,-0.88867,-0.90332,-0.91309,-0.92407,-0.93628,-0.94238,-0.95581,-0.96558,-0.97412,-0.98511,-0.99731,-1.01196,-1.02173,-1.03516,-1.04492,-1.05957,-1.07056,-1.08154,-1.09619,-1.10962,-1.12183,-1.14014,-1.15479,-1.16699,-1.18408,-1.19751,-1.2085,-1.2207,-1.23291,-1.24634,-1.26099,-1.27686,-1.2854,-1.30127,-1.30859,-1.31348,-1.31348,-1.30859,-1.28784,-1.24878,-1.19263,-1.11328,-1.01929,-0.90332,-0.76904,-0.62256,-0.46509,-0.30151,-0.1355,0.03052,0.18921,0.35278,0.50537,0.64575,0.77271,0.88501,0.97778,1.05713,1.12305,1.1731,1.2085,1.23047,1.2439,1.25122,1.24634,1.24756,1.23779,1.22437,1.20728,1.18774,1.17065,1.14868,1.13281,1.11816,1.09863,1.09009,1.0791,1.07422,1.06934,1.06567,1.06201,1.05591,1.05225,1.04004,1.02783,1.01196,0.98877,0.96436,0.93628,0.90332,0.87036,0.8313,0.80078,0.7666,0.7373,0.71289,0.68604,0.66406,0.64575,0.62744,0.60303,0.59082,0.57861,0.56519,0.5542,0.54077,0.52734,0.50903,0.49561,0.47729,0.46143,0.44189,0.41748,0.39307,0.36743,0.34302,0.31372,0.28442,0.25269,0.22217,0.18921,0.15625,0.12207,0.08911,0.05249,0.01953,-0.01343,-0.04639,-0.07813,-0.10986,-0.14038,-0.17334,-0.20142,-0.23193,-0.26245,-0.28809,-0.31982,-0.34424,-0.37109,-0.39795,-0.4187,-0.44922,-0.47485,-0.49805,-0.52124,-0.54688,-0.56885,-0.5896,-0.60791,-0.625,-0.64697,-0.6665,-0.68237,-0.69824,-0.70923,-0.71899,-0.7312,-0.74219,-0.75317,-0.76782,-0.77881,-0.79102,-0.80444,-0.81543,-0.82397,-0.8313,-0.84229,-0.85449,-0.86304,-0.87158,-0.88379,-0.89722,-0.91187,-0.92773,-0.9436,-0.95825,-0.98022,-0.99487,-1.00952,-1.03027,-1.04736,-1.07178,-1.09131,-1.10962,-1.12671,-1.1438,-1.14746,-1.14624,-1.13281,-1.10352,-1.05835,-0.99121,-0.90454,-0.79834,-0.67993,-0.54199,-0.39795,-0.24292,-0.08179,0.07813,0.24048,0.39673,0.54688,0.68481,0.81787,0.93872,1.04126,1.12915,1.20117,1.25977,1.30493,1.33301,1.35376,1.36475,1.37207,1.37573,1.37451,1.36597,1.36353,1.35376,1.34399,1.33301,1.32324,1.31592,1.30737,1.30493,1.29639,1.30005,1.30005,1.29517,1.29272,1.28174,1.27197,1.26099,1.23779,1.21338,1.18896,1.15601,1.11694,1.07544,1.02783,0.98145,0.93872,0.89478,0.85205,0.81421,0.77759,0.74585,0.71655,0.68604,0.66162,0.63477,0.61157,0.58838,0.57129,0.55542,0.53955,0.52368,0.50659,0.48828,0.46997,0.44678,0.42236,0.40283,0.3833,0.35767,0.32959,0.30273,0.27344,0.2417,0.20264,0.16357,0.12451,0.08667,0.04883,0.01099,-0.02808,-0.06592,-0.10254,-0.1416,-0.18066,-0.21851,-0.25146,-0.28564,-0.3186,-0.35034,-0.38574,-0.41626,-0.44434,-0.47729,-0.50171,-0.52979,-0.55542,-0.57983,-0.60669,-0.62622,-0.64819,-0.66772,-0.68726,-0.70679,-0.7251,-0.74219,-0.75317,-0.77393,-0.78735,-0.7959,-0.80688,-0.81787,-0.82886,-0.84229,-0.85815,-0.87402,-0.89111,-0.90454,-0.91797,-0.92896,-0.94482,-0.95703,-0.97046,-0.98633,-1.00464,-1.01685,-1.03027,-1.04492,-1.05835,-1.073,-1.08643,-1.10229,-1.11816,-1.1377,-1.15112,-1.16699,-1.1792,-1.18286,-1.17432,-1.14868,-1.10474,-1.04004,-0.96313,-0.85449,-0.73364,-0.59937,-0.44922,-0.29297,-0.12939,0.0415,0.20752,0.37109,0.53223,0.68115,0.81787,0.9375,1.0437,1.1377,1.21582,1.28418,1.33667,1.37695,1.40625,1.42578,1.43555,1.43555,1.43921,1.43677,1.43188,1.427,1.41968,1.41602,1.40869,1.40137,1.39526,1.38428,1.38306,1.38184,1.38306,1.38428,1.38306,1.38184,1.38062,1.37695,1.36108,1.34521,1.32324,1.29395,1.26221,1.22559,1.18408,1.13647,1.08643,1.03638,0.98267,0.92896,0.87402,0.82275,0.77393,0.72998,0.68848,0.64209,0.61157,0.57739,0.54688,0.5188,0.49072,0.46631,0.44189,0.41992,0.39063,0.37231,0.3479,0.32349,0.29663,0.26489,0.2356,0.20142,0.1709,0.1355,0.10742,0.07568,0.04028,0.0061,-0.03174,-0.0708,-0.10864,-0.14526,-0.18677,-0.21851,-0.25391,-0.28687,-0.32104,-0.35522,-0.38818,-0.42236,-0.45654,-0.49072,-0.52124,-0.5481,-0.57739,-0.60303,-0.63354,-0.66284,-0.68726,-0.71655,-0.74463,-0.7666,-0.78979,-0.80933,-0.8313,-0.84839,-0.87036,-0.88867,-0.90698,-0.92529,-0.93872,-0.95215,-0.9668,-0.98145,-0.99487,-1.00952,-1.02417,-1.03882,-1.05591,-1.073,-1.08643,-1.10107,-1.11572,-1.13037,-1.14502,-1.15967,-1.17676,-1.19629,-1.20972,-1.22681,-1.24756,-1.26465,-1.28662,-1.30249,-1.31958,-1.33667,-1.3562,-1.37085,-1.38794,-1.40503,-1.41846,-1.427,-1.42456,-1.40869,-1.37329,-1.3208,-1.2439,-1.14502,-1.02661,-0.89233,-0.74097,-0.57617,-0.40405,-0.22705,-0.04761,0.13184,0.30518,0.47119,0.625,0.76172,0.88379,0.99121,1.08398,1.16455,1.22803,1.28174,1.31836,1.34399,1.35864,1.36597,1.37695,1.37939,1.38184,1.38306,1.38184,1.38062,1.37939,1.37573,1.37451,1.37085,1.36963,1.37207,1.37329,1.37939,1.38428,1.38672,1.38184,1.38306,1.38062,1.36841,1.35254,1.32935,1.30127,1.27075,1.23047,1.18164,1.13647,1.08521,1.03149,0.979,0.92407,0.87036,0.82031,0.77148,0.71899,0.68115,0.64087,0.60181,0.56763,0.52734,0.49438,0.46631,0.43579,0.40527,0.37476,0.34912,0.31982,0.29297,0.26245,0.23315,0.20264,0.17212,0.13428,0.10986,0.07446,0.0415,0.00977,-0.02808,-0.06348,-0.10132,-0.14038,-0.18188,-0.2124,-0.24414,-0.28076,-0.31372,-0.34912,-0.38696,-0.42114,-0.45776,-0.49683,-0.52612,-0.56274,-0.5896,-0.62134,-0.65063,-0.68115,-0.70923,-0.7373,-0.77148,-0.7959,-0.82031,-0.84717,-0.86914,-0.896,-0.91919,-0.94482,-0.96802,-0.99121,-1.01563,-1.03638,-1.05469,-1.07178,-1.08521,-1.10474,-1.11816,-1.13647,-1.15234,-1.17188,-1.19019,-1.20605,-1.21948,-1.23535,-1.24512,-1.25854,-1.27441,-1.28906,-1.30981,-1.3269,-1.34644,-1.36353,-1.38062,-1.39404,-1.41113,-1.42822,-1.44531,-1.46362,-1.48193,-1.50146,-1.521,-1.53931,-1.5564,-1.56982,-1.58203,-1.59546,-1.60645,-1.61621,-1.62354,-1.62842,-1.62964,-1.61987,-1.58813,-1.54663,-1.47339,-1.38672,-1.27319,-1.1438,-0.99609,-0.8374,-0.6665,-0.48462,-0.29541,-0.10742,0.08301,0.26611,0.44189,0.60425,0.74707,0.88501,1.00098,1.10474,1.19141,1.26221,1.32324,1.36597,1.40259,1.42456,1.43799,1.44775,1.45142,1.45142,1.45264,1.44897,1.45142,1.44775,1.44775,1.44165,1.44165,1.44043,1.43921,1.44043,1.44165,1.44287,1.44653,1.44653,1.44287,1.43799,1.42456,1.40625,1.38428,1.35742,1.32568,1.2854,1.24634,1.19873,1.15234,1.09985,1.04736,0.99365,0.93994,0.88745,0.8374,0.79102,0.74341,0.70313,0.66284,0.62256,0.58838,0.55176,0.5188,0.48706,0.45776,0.42603,0.40283,0.37231,0.3479,0.3186,0.28442,0.25024,0.2124,0.17334,0.13184,0.1001,0.0647,0.02686,-0.00854,-0.05005,-0.08789,-0.12695,-0.16968,-0.21851,-0.25269,-0.29297,-0.32837,-0.36499,-0.40405,-0.43945,-0.47852,-0.51147,-0.55176,-0.57617,-0.60547,-0.63843,-0.66528,-0.69946,-0.72632,-0.75562,-0.78369,-0.81665,-0.83862,-0.86914,-0.89111,-0.91553,-0.93872,-0.96313,-0.98511,-1.01074,-1.03638,-1.05591,-1.07788,-1.09863,-1.11694,-1.1377,-1.15479,-1.17065,-1.19019,-1.21582,-1.23169,-1.25122,-1.27075,-1.29272,-1.30859,-1.32446,-1.34033,-1.3562,-1.37329,-1.38672,-1.40137,-1.41479,-1.427,-1.44043,-1.4502,-1.4624,-1.46973,-1.48438,-1.49048,-1.50391,-1.51367,-1.52588,-1.53931,-1.55151,-1.56372,-1.57715,-1.58936,-1.60278,-1.61255,-1.62598,-1.63696,-1.64917,-1.6626,-1.67358,-1.68579,-1.69922,-1.71265,-1.72607,-1.73462,-1.74927,-1.75781,-1.76636,-1.76636,-1.75903,-1.72729,-1.68457,-1.61133,-1.51367,-1.39282,-1.2561,-1.10229,-0.93018,-0.75073,-0.55908,-0.36499,-0.16479,0.03906,0.23438,0.42236,0.59204,0.75195,0.89111,1.01196,1.1145,1.20361,1.27441,1.33301,1.37817,1.41113,1.43188,1.44531,1.45142,1.44653,1.44531,1.43799,1.43066,1.42212,1.41479,1.40747,1.39893,1.39282,1.38916,1.3855,1.38672,1.39282,1.39893,1.40869,1.40747,1.40747,1.40259,1.39404,1.37817,1.3562,1.32935,1.29761,1.26221,1.22314,1.1792,1.13647,1.08643,1.03271,0.98389,0.93262,0.88501,0.84229,0.79834,0.75928,0.72266,0.6897,0.64697,0.61401,0.5835,0.55298,0.52246,0.49683,0.46997,0.44556,0.41992,0.39063,0.36011,0.33203,0.30151,0.26733,0.23438,0.20142,0.16846,0.13794,0.09766,0.05981,0.01953,-0.02075,-0.06592,-0.1062,-0.14648,-0.18433,-0.21973,-0.25879,-0.29419,-0.33325,-0.36621,-0.40283,-0.43579,-0.46997,-0.50171,-0.52734,-0.5603,-0.58594,-0.61401,-0.63843,-0.67017,-0.6958,-0.72021,-0.74951,-0.77515,-0.80444,-0.8252,-0.84595,-0.86914,-0.89233,-0.91553,-0.93384,-0.95581,-0.97778,-0.99854,-1.01318,-1.03027,-1.04614,-1.06323,-1.07788,-1.09741,-1.11694,-1.13403,-1.15112,-1.16821,-1.18408,-1.20239,-1.21948,-1.23657,-1.24878,-1.26709,-1.2854,-1.30371,-1.31714,-1.33179,-1.34277,-1.35742,-1.36597,-1.37939,-1.39038,-1.40503,-1.42212,-1.43555,-1.45264,-1.46729,-1.48682,-1.49658,-1.50757,-1.521,-1.53076,-1.55151,-1.56616,-1.58081,-1.5979,-1.61743,-1.62354,-1.63452,-1.64063,-1.65283,-1.65649,-1.66382,-1.66382,-1.65894,-1.6394,-1.604,-1.54419,-1.45996,-1.34644,-1.21948,-1.06689,-0.9082,-0.73486,-0.55054,-0.36621,-0.17334,0.02319,0.21484,0.40039,0.57251,0.73364,0.87402,1.0022,1.11328,1.20483,1.28418,1.34888,1.40015,1.43311,1.45874,1.47949,1.48682,1.48804,1.48926,1.4856,1.47705,1.46973,1.45752,1.44775,1.43433,1.42334,1.40991,1.40259,1.40015,1.39526,1.3916,1.38794,1.38428,1.38184,1.37329,1.36108,1.34766,1.32568,1.30127,1.27197,1.23657,1.20117,1.15967,1.11938,1.07056,1.03271,0.98877,0.94482,0.90332,0.86182,0.82397,0.78979,0.75928,0.72632,0.70068,0.67871,0.6543,0.62866,0.60181,0.58105,0.5603,0.54077,0.51514,0.50049,0.47485,0.45166,0.42114,0.38818,0.35767,0.32593,0.29419,0.25757,0.22705,0.19409,0.15991,0.12817,0.08911,0.05127,0.01465,-0.02686,-0.06958,-0.1062,-0.14404,-0.17578,-0.21484,-0.2478,-0.28442,-0.31982,-0.354,-0.39063,-0.41992,-0.448,-0.47729,-0.50171,-0.52979,-0.5542,-0.58472,-0.61035,-0.63721,-0.66528,-0.69092,-0.71289,-0.73364,-0.75439,-0.77393,-0.79468,-0.81665,-0.83496,-0.85693,-0.87646,-0.89233,-0.90942,-0.92651,-0.93994,-0.95337,-0.9668,-0.979,-0.99609,-1.00586,-1.02295,-1.03394,-1.04614,-1.05591,-1.06567,-1.07666,-1.08521,-1.10107,-1.11328,-1.12793,-1.14136,-1.15845,-1.17188,-1.18652,-1.19995,-1.21948,-1.23901,-1.26099,-1.28418,-1.30371,-1.32568,-1.34521,-1.36108,-1.37329,-1.38062,-1.37939,-1.3623,-1.3269,-1.27197,-1.19385,-1.09009,-0.96802,-0.82764,-0.67627,-0.51025,-0.33447,-0.15137,0.03052,0.20874,0.38696,0.55786,0.71533,0.86182,0.99243,1.11084,1.20605,1.2915,1.35132,1.40259,1.43921,1.4624,1.47461,1.47949,1.48071,1.47461,1.46118,1.44897,1.42578,1.40625,1.38428,1.36108,1.33911,1.3147,1.29517,1.28052,1.26343,1.24878,1.23291,1.21582,1.19507,1.1731,1.14624,1.11816,1.08643,1.05469,1.01074,0.97656,0.93262,0.88745,0.84595,0.802,0.7605,0.72266,0.68604,0.64941,0.6189,0.59204,0.56396,0.53833,0.51514,0.49194,0.47363,0.45776,0.43579,0.42847,0.4126,0.39551,0.37476,0.35156,0.32959,0.30518,0.2832,0.25146,0.23071,0.20386,0.17578,0.14893,0.11353,0.07935,0.04395,0.00854,-0.03174,-0.0647,-0.10254,-0.13794,-0.17578,-0.21484,-0.25269,-0.28931,-0.32593,-0.36987,-0.40039,-0.43213,-0.46631,-0.49561,-0.52979,-0.55908,-0.59082,-0.62134,-0.65552,-0.67749,-0.7019,-0.72754,-0.75073,-0.77148,-0.79346,-0.81055,-0.8313,-0.84839,-0.8667,-0.88257,-0.89722,-0.91064,-0.92285,-0.93506,-0.94604,-0.95581,-0.96802,-0.98389,-0.99731,-1.01074,-1.02295,-1.03638,-1.04736,-1.05957,-1.07178,-1.0791,-1.09863,-1.11206,-1.12549,-1.13892,-1.15356,-1.16455,-1.17798,-1.18774,-1.20117,-1.21582,-1.23169,-1.24878,-1.26953,-1.28784,-1.30127,-1.31226,-1.3147,-1.30249,-1.27319,-1.22314,-1.1499,-1.04858,-0.9314,-0.79102,-0.63477,-0.47241,-0.29663,-0.11597,0.06592,0.25146,0.43213,0.60547,0.77515,0.92773,1.06567,1.18774,1.29639,1.3916,1.46484,1.5271,1.56982,1.60034,1.62231,1.6333,1.63818,1.63818,1.6333,1.62598,1.61133,1.5979,1.57959,1.56494,1.55151,1.53564,1.52344,1.51733,1.51245,1.51123,1.50513,1.50024,1.49414,1.48438,1.47217,1.4563,1.43555,1.40869,1.37817,1.34033,1.29639,1.25488,1.20239,1.15234,1.10229,1.0498,1.00342,0.95703,0.91675,0.87646,0.84106,0.80688,0.77393,0.74463,0.71899,0.69458,0.67627,0.65552,0.63232,0.61401,0.59204,0.57251,0.54932,0.52368,0.50049,0.47363,0.44678,0.41382,0.38818,0.35522,0.32349,0.28931,0.25024,0.2124,0.17212,0.12939,0.08301,0.04517,0.00488,-0.0354,-0.07568,-0.11475,-0.15991,-0.20264,-0.24414,-0.28931,-0.32593,-0.36255,-0.39795,-0.43213,-0.46631,-0.49805,-0.53345,-0.56396,-0.5896,-0.62378,-0.64941,-0.67627,-0.70068,-0.72144,-0.74585,-0.7666,-0.78979,-0.81055,-0.83374,-0.85449,-0.87402,-0.89355,-0.91309,-0.92651,-0.94116,-0.95459,-0.96924,-0.98633,-0.99976,-1.01074,-1.02051,-1.03516,-1.04736,-1.05835,-1.073,-1.08887,-1.11206,-1.12793,-1.14746,-1.16699,-1.18896,-1.20605,-1.22437,-1.2439,-1.26709,-1.28418,-1.30859,-1.32935,-1.34888,-1.37085,-1.37939,-1.38916,-1.39282,-1.3855,-1.36841,-1.32813,-1.26831,-1.1792,-1.073,-0.93628,-0.78491,-0.6189,-0.44189,-0.25757,-0.0708,0.12329,0.3125,0.50171,0.68359,0.85205,1.00708,1.14746,1.27197,1.3855,1.47949,1.55884,1.61499,1.66138,1.69922,1.72363,1.74316,1.75415,1.76392,1.76636,1.76392,1.75781,1.74561,1.73218,1.71997,1.70532,1.69556,1.68579,1.68213,1.67725,1.67358,1.67603,1.66748,1.66382,1.65894,1.65283,1.64063,1.62598,1.60645,1.57837,1.54541,1.50513,1.45874,1.41113,1.3623,1.30737,1.25732,1.20361,1.15356,1.10474,1.0498,1.0022,0.95093,0.90576,0.86426,0.82275,0.78613,0.74829,0.71533,0.68237,0.64941,0.61768,0.5835,0.54932,0.51758,0.4834,0.45166,0.41748,0.38208,0.3479,0.31128,0.27344,0.22827,0.18799,0.14771,0.10376,0.06104,0.01587,-0.02686,-0.06958,-0.1123,-0.15869,-0.20142,-0.24292,-0.28564,-0.32959,-0.36987,-0.40894,-0.44678,-0.4834,-0.5249,-0.55664,-0.59326,-0.62866,-0.66162,-0.69458,-0.72266,-0.74951,-0.77881,-0.79956,-0.83496,-0.85938,-0.88745,-0.91187,-0.9375,-0.96069,-0.98022,-1.0022,-1.02051,-1.04248,-1.06567,-1.08398,-1.1084,-1.13159,-1.1499,-1.16699,-1.18286,-1.19873,-1.21216,-1.22437,-1.24023,-1.25488,-1.27441,-1.28662,-1.30005,-1.31836,-1.3269,-1.34277,-1.35376,-1.36597,-1.37939,-1.39771,-1.41113,-1.42578,-1.44043,-1.4563,-1.47339,-1.48804,-1.50391,-1.51978,-1.54175,-1.5564,-1.57837,-1.5979,-1.61621,-1.63452,-1.64429,-1.65283,-1.65771,-1.64795,-1.63208,-1.58936,-1.52344,-1.42944,-1.30859,-1.16455,-0.99854,-0.81909,-0.625,-0.43091,-0.23071,-0.02686,0.17456,0.37109,0.56396,0.74463,0.91187,1.06201,1.19629,1.31592,1.41602,1.50024,1.56494,1.61743,1.65527,1.67969,1.69678,1.70044,1.70654,1.7041,1.698,1.68945,1.67358,1.66382,1.65039,1.64063,1.6333,1.6272,1.61865,1.61743,1.61743,1.61499,1.61377,1.61255,1.60767,1.59912,1.58936,1.57593,1.55396,1.5271,1.49292,1.4563,1.41235,1.3623,1.3147,1.26343,1.2146,1.16821,1.11938,1.06934,1.02173,0.97656,0.93018,0.88745,0.84473,0.80811,0.77515,0.74463,0.70679,0.67993,0.64941,0.62134,0.58838,0.55664,0.52612,0.49438,0.46387,0.42603,0.39551,0.36133,0.32227,0.28564,0.24414,0.20508,0.16479,0.12451,0.08545,0.0415,0.00488,-0.0354,-0.07813,-0.11597,-0.15991,-0.2002,-0.23926,-0.27466,-0.31738,-0.354,-0.39307,-0.4248,-0.46387,-0.49561,-0.53101,-0.56152,-0.59326,-0.62378,-0.65308,-0.68115,-0.71045,-0.73975,-0.76782,-0.7959,-0.82275,-0.85083,-0.87524,-0.90332,-0.92773,-0.95215,-0.97534,-0.99243,-1.0144,-1.03516,-1.05835,-1.08154,-1.10352,-1.12305,-1.14014,-1.16333,-1.17676,-1.19507,-1.2146,-1.23291,-1.25488,-1.27319,-1.29028,-1.30981,-1.32324,-1.34155,-1.35742,-1.37085,-1.38794,-1.40503,-1.42456,-1.43921,-1.45508,-1.46851,-1.48682,-1.50146,-1.51611,-1.52832,-1.54663,-1.55762,-1.57471,-1.59058,-1.61011,-1.62476,-1.63574,-1.65161,-1.66382,-1.67847,-1.69067,-1.70166,-1.71631,-1.72607,-1.73706,-1.73828,-1.72607,-1.69434,-1.64917,-1.56372,-1.45874,-1.32324,-1.16821,-0.99609,-0.80811,-0.61157,-0.40771,-0.20752,0.00732,0.21118,0.41138,0.60181,0.77759,0.94238,1.08887,1.21704,1.33301,1.42822,1.50757,1.57227,1.62109,1.65283,1.67236,1.68579,1.68945,1.68701,1.68091,1.67114,1.66016,1.64307,1.62354,1.60278,1.58325,1.56738,1.55518,1.54785,1.53931,1.5332,1.52954,1.52466,1.51489,1.50757,1.49292,1.47705,1.45752,1.43066,1.40015,1.3623,1.32202,1.27563,1.23169,1.18286,1.13159,1.08276,1.03271,0.98633,0.94238,0.89844,0.85571,0.81787,0.78247,0.74829,0.71533,0.68359,0.65674,0.6311,0.60669,0.57617,0.55664,0.53223,0.50415,0.47852,0.44556,0.41748,0.38452,0.35278,0.32104,0.28564,0.24902,0.21362,0.17456,0.13672,0.09766,0.05981,0.01709,-0.02319,-0.06592,-0.10742,-0.14771,-0.18921,-0.23193,-0.27222,-0.31494,-0.354,-0.39185,-0.43213,-0.46631,-0.50415,-0.53711,-0.57251,-0.60425,-0.63477,-0.66528,-0.69458,-0.72021,-0.74829,-0.77148,-0.79468,-0.82031,-0.83862,-0.86304,-0.88501,-0.90698,-0.93018,-0.95215,-0.9729,-0.99487,-1.01929,-1.03516,-1.05347,-1.07422,-1.09253,-1.1145,-1.13159,-1.14746,-1.16333,-1.17676,-1.19141,-1.20239,-1.2146,-1.22681,-1.24023,-1.25366,-1.26587,-1.27686,-1.28662,-1.29883,-1.31104,-1.32324,-1.33667,-1.35376,-1.36841,-1.38306,-1.40015,-1.41968,-1.43799,-1.45386,-1.47217,-1.49048,-1.51001,-1.5271,-1.54297,-1.56128,-1.57837,-1.59668,-1.61011,-1.61865,-1.62354,-1.62476,-1.60645,-1.57349,-1.51733,-1.43311,-1.32202,-1.18164,-1.02051,-0.84717,-0.66284,-0.46753,-0.27466,-0.08057,0.11353,0.30029,0.48218,0.6543,0.81299,0.96191,1.08765,1.20239,1.30005,1.37939,1.44043,1.49414,1.53076,1.5564,1.57104,1.57715,1.57471,1.56494,1.55518,1.54053,1.52344,1.50269,1.48193,1.4624,1.43799,1.43188,1.41846,1.40991,1.40259,1.39282,1.38428,1.37451,1.3623,1.34399,1.33179,1.3147,1.28906,1.25854,1.22314,1.18408,1.14502,1.10107,1.05469,1.01807,0.97778,0.94238,0.90454,0.87036,0.83618,0.80444,0.77393,0.74585,0.71655,0.6958,0.67627,0.6604,0.64209,0.625,0.60791,0.58838,0.57495,0.55054,0.53101,0.50659,0.48462,0.45776,0.43091,0.40283,0.37354,0.34058,0.30762,0.27344,0.2356,0.2002,0.15991,0.12207,0.08301,0.04517,0.0061,-0.03296,-0.0708,-0.11353,-0.15381,-0.19775,-0.23438,-0.26978,-0.30396,-0.33569,-0.37354,-0.40649,-0.44189,-0.47241,-0.50903,-0.53467,-0.56274,-0.58838,-0.61523,-0.64087,-0.66406,-0.68604,-0.70801,-0.73364,-0.74951,-0.77026,-0.78735,-0.80078,-0.81787,-0.83252,-0.84717,-0.85938,-0.87036,-0.88745,-0.89966,-0.91064,-0.92285,-0.93262,-0.9436,-0.95459,-0.96802,-0.98267,-0.99854,-1.0144,-1.03027,-1.04736,-1.06567,-1.08032,-1.09985,-1.11572,-1.13525,-1.15356,-1.17065,-1.18774,-1.20117,-1.21094,-1.20117,-1.1792,-1.14014,-1.07666,-0.99365,-0.88623,-0.76172,-0.62012,-0.47363,-0.31006,-0.14282,0.03052,0.2063,0.38208,0.55298,0.71899,0.8728,1.01563,1.1377,1.24756,1.34277,1.42822,1.4856,1.53687,1.57593,1.60034,1.61499,1.61987,1.62109,1.61499,1.60156,1.58569,1.5686,1.54663,1.52466,1.50024,1.47339,1.45264,1.43555,1.41968,1.40625,1.39282,1.37573,1.35864,1.34155,1.31104,1.2915,1.26221,1.22681,1.19263,1.15356,1.11694,1.07666,1.03271,0.98511,0.94604,0.90332,0.86304,0.82642,0.79224,0.76294,0.73608,0.70923,0.68848,0.66528,0.64575,0.62866,0.61035,0.59204,0.57739,0.56152,0.5481,0.53223,0.51147,0.49072,0.46875,0.44678,0.41748,0.39063,0.36133,0.32959,0.29785,0.26123,0.22461,0.18555,0.14771,0.10376,0.06348,0.02197,-0.02075,-0.05981,-0.09644,-0.13428,-0.16968,-0.20874,-0.24658,-0.27832,-0.31494,-0.34668,-0.3772,-0.41016,-0.43701,-0.46875,-0.49438,-0.52979,-0.55054,-0.57617,-0.60303,-0.62744,-0.65308,-0.67627,-0.69336,-0.71533,-0.73364,-0.75439,-0.77271,-0.78979,-0.80811,-0.8252,-0.84106,-0.85693,-0.86914,-0.88623,-0.90576,-0.92407,-0.94238,-0.95825,-0.98022,-0.99609,-1.01196,-1.02905,-1.04248,-1.06079,-1.07666,-1.09253,-1.10962,-1.12793,-1.14502,-1.15845,-1.17065,-1.17554,-1.16821,-1.14624,-1.10229,-1.03516,-0.94849,-0.83496,-0.70557,-0.55908,-0.40161,-0.23682,-0.05859,0.11719,0.29297,0.46997,0.64209,0.80444,0.95215,1.08887,1.20972,1.31836,1.41235,1.48926,1.55884,1.60522,1.64307,1.66992,1.68579,1.69556,1.69556,1.69189,1.68823,1.67725,1.66504,1.65405,1.64185,1.62964,1.61743,1.60645,1.5979,1.59424,1.59058,1.58081,1.58081,1.57471,1.56738,1.55762,1.54175,1.52222,1.49902,1.46973,1.43066,1.39404,1.34888,1.30127,1.24878,1.19629,1.14136,1.08887,1.03882,0.98511,0.94604,0.90332,0.86426,0.82642,0.79102,0.75928,0.72876,0.70313,0.67627,0.64819,0.625,0.59814,0.57251,0.54321,0.51758,0.4895,0.45776,0.43091,0.39429,0.36255,0.32959,0.29663,0.26001,0.22095,0.18188,0.14282,0.1001,0.05737,0.01587,-0.02563,-0.06226,-0.10376,-0.14038,-0.17944,-0.21851,-0.26001,-0.30151,-0.3418,-0.37842,-0.41382,-0.44922,-0.48218,-0.5127,-0.54443,-0.57495,-0.60669,-0.63721,-0.66406,-0.69092,-0.71899,-0.74097,-0.76294,-0.78491,-0.80688,-0.8313,-0.85083,-0.87158,-0.89233,-0.91797,-0.93018,-0.94604,-0.96069,-0.97534,-0.99365,-1.01074,-1.02539,-1.04248,-1.05957,-1.07544,-1.09009,-1.10352,-1.11938,-1.13525,-1.15112,-1.17065,-1.18774,-1.20728,-1.22925,-1.24878,-1.26953,-1.28662,-1.30859,-1.3269,-1.34399,-1.3623,-1.37939,-1.39404,-1.40015,-1.40015,-1.38672,-1.35864,-1.30249,-1.22559,-1.12793,-1.00952,-0.8728,-0.72266,-0.55786,-0.3833,-0.20386,-0.01343,0.177,0.36377,0.54565,0.71533,0.87524,1.01807,1.14868,1.26465,1.35986,1.44775,1.51733,1.57715,1.62476,1.65405,1.67725,1.69312,1.70288,1.7041,1.71021,1.71143,1.71021,1.71143,1.71021,1.70654,1.70776,1.7041,1.71143,1.71021,1.71143,1.71631,1.71753,1.71631,1.71265,1.70532,1.69189,1.67969,1.65405,1.62354,1.58813,1.54785,1.49902,1.4502,1.39526,1.34033,1.2854,1.22314,1.16699,1.11084,1.05713,1.00708,0.95703,0.91187,0.86792,0.82764,0.78491,0.74707,0.71167,0.67871,0.64453,0.61646,0.58716,0.5603,0.53345,0.50537,0.48096,0.45288,0.42603,0.40039,0.3772,0.354,0.32837,0.30273,0.271,0.24048,0.2063,0.1709,0.13428,0.10132,0.06226,0.02686,-0.01343,-0.05127,-0.09155,-0.12939,-0.16846,-0.2063,-0.24048,-0.27222,-0.30518,-0.33325,-0.36621,-0.39429,-0.42358,-0.45044,-0.4834,-0.50903,-0.53345,-0.55542,-0.57983,-0.60547,-0.62988,-0.65308,-0.67993,-0.71167,-0.73242,-0.7605,-0.78857,-0.81299,-0.83618,-0.85693,-0.88013,-0.89966,-0.91797,-0.94238,-0.96069,-0.98145,-0.99854,-1.01685,-1.03394,-1.05103,-1.073,-1.09253,-1.11328,-1.13159,-1.15356,-1.17432,-1.19873,-1.21826,-1.23657,-1.25488,-1.27808,-1.29761,-1.3208,-1.34277,-1.36597,-1.39038,-1.40747,-1.427,-1.44409,-1.45874,-1.48071,-1.49658,-1.51611,-1.53076,-1.54419,-1.54419,-1.53198,-1.49902,-1.45386,-1.38062,-1.28174,-1.16211,-1.02417,-0.86548,-0.70068,-0.52246,-0.33447,-0.14038,0.05249,0.25024,0.44067,0.62378,0.79102,0.94116,1.07666,1.19751,1.30005,1.39038,1.45874,1.51978,1.56372,1.5979,1.61499,1.6333,1.64185,1.64307,1.64185,1.63696,1.6333,1.63086,1.62476,1.62354,1.61865,1.61499,1.61377,1.61255,1.604,1.60767,1.60767,1.60645,1.5979,1.5918,1.57837,1.55884,1.53564,1.50635,1.47095,1.43311,1.38672,1.34033,1.2854,1.23291,1.17798,1.12061,1.06689,1.0083,0.95581,0.9082,0.86182,0.82153,0.78369,0.74829,0.71289,0.68115,0.64575,0.61279,0.58228,0.55664,0.52246,0.49194,0.46143,0.42847,0.39551,0.36011,0.32471,0.28687,0.24902,0.20752,0.17334,0.13794,0.09766,0.06104,0.01709,-0.02441,-0.0647,-0.10864,-0.15625,-0.19287,-0.2356,-0.27222,-0.3125,-0.35278,-0.39063,-0.42847,-0.46509,-0.49805,-0.53589,-0.56763,-0.59814,-0.62622,-0.65674,-0.68359,-0.71045,-0.7373,-0.7666,-0.79468,-0.81909,-0.84473,-0.8667,-0.89355,-0.91064,-0.93384,-0.95703,-0.979,-1.0022,-1.02661,-1.0498,-1.06934,-1.09009,-1.1084,-1.12671,-1.1438,-1.16211,-1.18286,-1.20117,-1.21826,-1.23413,-1.24878,-1.26221,-1.27686,-1.2915,-1.30737,-1.3269,-1.34155,-1.35986,-1.37817,-1.39526,-1.41235,-1.427,-1.44165,-1.45874,-1.47583,-1.48804,-1.50391,-1.51855,-1.53564,-1.55396,-1.5686,-1.58325,-1.59546,-1.61133,-1.62964,-1.64551,-1.66382,-1.67969,-1.698,-1.71265,-1.72241,-1.72363,-1.71509,-1.69434,-1.65161,-1.58813,-1.50024,-1.39038,-1.2561,-1.10474,-0.93628,-0.75562,-0.56641,-0.37354,-0.17822,0.01831,0.20752,0.39673,0.56885,0.72754,0.87402,0.99976,1.1145,1.20728,1.2854,1.34399,1.3916,1.427,1.45142,1.46729,1.47583,1.47827,1.48071,1.47705,1.47339,1.46973,1.45996,1.45386,1.44653,1.43799,1.43188,1.43188,1.42822,1.42822,1.42578,1.42212,1.41602,1.40625,1.38916,1.37085,1.3501,1.32202,1.2915,1.25488,1.20972,1.16455,1.11572,1.06567,1.0083,0.96191,0.91431,0.8667,0.82397,0.77515,0.73486,0.69336,0.65552,0.61646,0.58594,0.55664,0.52979,0.50171,0.47729,0.448,0.42236,0.39551,0.36987,0.33691,0.30518,0.2771,0.25146,0.22095,0.19653,0.16846,0.1416,0.11108,0.08057,0.05127,0.01831,-0.01709,-0.05127,-0.08423,-0.11597,-0.15137,-0.18188,-0.21973,-0.25391,-0.28931,-0.32227,-0.36255,-0.39063,-0.41992,-0.45044,-0.48218,-0.51392,-0.54565,-0.57983,-0.61035,-0.63965,-0.67017,-0.69458,-0.71899,-0.73975,-0.76294,-0.78125,-0.802,-0.82275,-0.84595,-0.87036,-0.89233,-0.91187,-0.93384,-0.95459,-0.97412,-0.99121,-1.01074,-1.02783,-1.04736,-1.06689,-1.08521,-1.10107,-1.12183,-1.13037,-1.14502,-1.15845,-1.17432,-1.18896,-1.20361,-1.21704,-1.23047,-1.24023,-1.25732,-1.27075,-1.2854,-1.29639,-1.31592,-1.33057,-1.34644,-1.36475,-1.38062,-1.40015,-1.41968,-1.43555,-1.4563,-1.47583,-1.49658,-1.51611,-1.53442,-1.55151,-1.56494,-1.56982,-1.56372,-1.54175,-1.51001,-1.44409,-1.3623,-1.25977,-1.1377,-0.99976,-0.84717,-0.68115,-0.50903,-0.32471,-0.14404,0.04395,0.22339,0.39673,0.55908,0.70801,0.84351,0.96191,1.06201,1.1499,1.22437,1.28296,1.32446,1.35864,1.37817,1.39038,1.39404,1.39282,1.38794,1.37329,1.35742,1.34521,1.32813,1.30615,1.2915,1.27441,1.25977,1.24878,1.23535,1.22681,1.21582,1.20483,1.1853,1.17188,1.15112,1.12427,1.09619,1.06079,1.02173,0.98755,0.94849,0.90576,0.8667,0.8252,0.78247,0.73853,0.69946,0.66406,0.6311,0.59937,0.57251,0.54199,0.51758,0.49316,0.47363,0.45532,0.43945,0.4248,0.41016,0.39673,0.37354,0.35645,0.33569,0.31372,0.29053,0.26733,0.23926,0.2124,0.18433,0.15381,0.12329,0.09033,0.05493,0.01587,-0.01831,-0.05859,-0.09766,-0.13306,-0.17212,-0.2063,-0.24414,-0.28076,-0.31982,-0.35767,-0.39551,-0.43579,-0.47241,-0.50781,-0.54077,-0.57007,-0.59814,-0.625,-0.65796,-0.68726,-0.71289,-0.7373,-0.76416,-0.78735,-0.81055,-0.82886,-0.84839,-0.8667,-0.88379,-0.9021,-0.91797,-0.9375,-0.95093,-0.96191,-0.97412,-0.98389,-0.99854,-1.00952,-1.02295,-1.03638,-1.05225,-1.05957,-1.07178,-1.08398,-1.09619,-1.10718,-1.11938,-1.13281,-1.14746,-1.16455,-1.18408,-1.20239,-1.2207,-1.23901,-1.26099,-1.27563,-1.29517,-1.31104,-1.33057,-1.34888,-1.36108,-1.36841,-1.36353,-1.34644,-1.30615,-1.24756,-1.16943,-1.06567,-0.94482,-0.80811,-0.65308,-0.49805,-0.33325,-0.15381,0.02319,0.20752,0.3833,0.55542,0.71533,0.86792,1.0022,1.11938,1.22314,1.31226,1.3855,1.4502,1.49658,1.5332,1.55884,1.57349,1.57837,1.57349,1.57227,1.5625,1.55151,1.54053,1.52466,1.51123,1.4978,1.48438,1.47827,1.46362,1.45752,1.45142,1.44409,1.43555,1.42334,1.41113,1.39038,1.36719,1.33545,1.29883,1.25977,1.21704,1.16699,1.12061,1.07056,1.02051,0.96924,0.91797,0.86914,0.82031,0.77515,0.73242,0.69458,0.65918,0.62256,0.59204,0.5603,0.53345,0.50659,0.47852,0.448,0.42847,0.40283,0.38208,0.35889,0.33447,0.30884,0.28076,0.25269,0.21606,0.18921,0.15625,0.12085,0.08423,0.04395,0.0061,-0.03662,-0.07813,-0.12573,-0.16724,-0.2124,-0.25635,-0.29907,-0.34058,-0.38208,-0.41992,-0.45654,-0.49316,-0.53101,-0.56519,-0.59814,-0.62622,-0.65674,-0.68237,-0.71167,-0.73853,-0.76416,-0.79346,-0.81787,-0.84595,-0.87036,-0.89722,-0.91919,-0.93872,-0.96069,-0.98022,-1.00098,-1.01685,-1.03516,-1.05103,-1.06689,-1.07666,-1.08765,-1.09619,-1.10718,-1.12061,-1.13037,-1.14136,-1.15234,-1.16943,-1.17676,-1.1853,-1.19873,-1.20728,-1.2207,-1.23291,-1.24756,-1.26587,-1.28296,-1.30249,-1.31958,-1.33423,-1.35132,-1.36719,-1.38428,-1.39771,-1.41235,-1.42456,-1.43066,-1.42456,-1.40259,-1.36353,-1.29639,-1.21094,-1.10474,-0.97656,-0.83496,-0.67993,-0.51147,-0.33569,-0.15381,0.03052,0.21729,0.40039,0.57251,0.73853,0.88501,1.01807,1.13403,1.23657,1.32568,1.39771,1.45752,1.50391,1.53564,1.56006,1.57227,1.57837,1.57837,1.57227,1.5625,1.55273,1.54175,1.53442,1.52588,1.51611,1.50879,1.50146,1.49536,1.49048,1.48682,1.4856,1.48315,1.47949,1.47705,1.47095,1.4563,1.43799,1.41724,1.38062,1.34277,1.30249,1.2561,1.20483,1.15234,1.09985,1.04736,0.99731,0.93994,0.88501,0.83496,0.78491,0.7373,0.69702,0.6543,0.6189,0.58594,0.5542,0.52734,0.50171,0.47119,0.44189,0.4187,0.39185,0.36499,0.33447,0.30151,0.26611,0.23193,0.19775,0.15747,0.12817,0.09399,0.05981,0.02197,-0.01587,-0.05493,-0.09277,-0.13428,-0.17456,-0.21729,-0.25757,-0.29907,-0.33569,-0.37598,-0.4126,-0.448,-0.48462,-0.52002,-0.55786,-0.59204,-0.62378,-0.65552,-0.68481,-0.71289,-0.74097,-0.77148,-0.79956,-0.82764,-0.85693,-0.88379,-0.90942,-0.9375,-0.95581,-0.98022,-1.00342,-1.02539,-1.0498,-1.07178,-1.09741,-1.11938,-1.13892,-1.16455,-1.18286,-1.20605,-1.22437,-1.24512,-1.26465,-1.2793,-1.30127,-1.3208,-1.33789,-1.35498,-1.37207,-1.39038,-1.41113,-1.42334,-1.44043,-1.45874,-1.47461,-1.49414,-1.50879,-1.52588,-1.53809,-1.55396,-1.56982,-1.58569,-1.604,-1.62231,-1.64429,-1.6626,-1.67969,-1.69922,-1.71387,-1.72852,-1.74072,-1.75049,-1.75537,-1.74927,-1.72241,-1.67114,-1.59302,-1.48804,-1.35864,-1.2085,-1.04004,-0.86304,-0.68115,-0.48218,-0.28687,-0.08911,0.10986,0.30151,0.48828,0.65796,0.81665,0.95947,1.08032,1.19019,1.28052,1.35986,1.42578,1.47095,1.51245,1.54297,1.56494,1.57227,1.58203,1.58691,1.58447,1.58325,1.57593,1.56982,1.56616,1.56006,1.55518,1.55151,1.55029,1.55029,1.54907,1.54663,1.54907,1.55029,1.54785,1.54785,1.53687,1.52222,1.50391,1.47827,1.43921,1.40747,1.36353,1.3147,1.26709,1.21338,1.16333,1.10962,1.05591,0.99854,0.94971,0.89966,0.85327,0.80811,0.76904,0.7312,0.69824,0.6665,0.63843,0.60303,0.57251,0.54321,0.51636,0.48462,0.45532,0.4248,0.39307,0.35767,0.32104,0.28198,0.2417,0.19897,0.16235,0.12329,0.08545,0.04639,0.00732,-0.0354,-0.07568,-0.11475,-0.15625,-0.20264,-0.23804,-0.27832,-0.31494,-0.35156,-0.39063,-0.42725,-0.46509,-0.50171,-0.53467,-0.57129,-0.60669,-0.63843,-0.6665,-0.69946,-0.72632,-0.75562,-0.78491,-0.81177,-0.83984,-0.86304,-0.88867,-0.91431,-0.9375,-0.95581,-0.97778,-0.99609,-1.01807,-1.04126,-1.06201,-1.08398,-1.10474,-1.13281,-1.14624,-1.16455,-1.18408,-1.20117,-1.22314,-1.24268,-1.26221,-1.28052,-1.29395,-1.3147,-1.32813,-1.34277,-1.35864,-1.37573,-1.39038,-1.40381,-1.41968,-1.43311,-1.44653,-1.45996,-1.46851,-1.48193,-1.49536,-1.50879,-1.52222,-1.53564,-1.5564,-1.57349,-1.58936,-1.60645,-1.61987,-1.63818,-1.65161,-1.66504,-1.68091,-1.69434,-1.71387,-1.72485,-1.73462,-1.74194,-1.73828,-1.73096,-1.70532,-1.65649,-1.58569,-1.48804,-1.36841,-1.22192,-1.05835,-0.88013,-0.69336,-0.49683,-0.29663,-0.09277,0.10498,0.30396,0.49561,0.67017,0.8374,0.98755,1.12427,1.2439,1.34766,1.43555,1.50513,1.56006,1.60156,1.6333,1.65527,1.66382,1.67114,1.6687,1.66138,1.64795,1.64307,1.63208,1.61743,1.60156,1.5918,1.58447,1.58203,1.57837,1.57837,1.57471,1.56982,1.56738,1.55884,1.54663,1.53564,1.51733,1.49414,1.46362,1.43188,1.38916,1.34766,1.30005,1.24634,1.19751,1.1438,1.09009,1.04126,0.98755,0.93994,0.89233,0.84717,0.80322,0.76172,0.7251,0.6897,0.65674,0.62866,0.59937,0.57129,0.54077,0.51147,0.48096,0.45166,0.42236,0.39307,0.35889,0.33203,0.30273,0.26978,0.23804,0.20142,0.16479,0.12573,0.08545,0.03906,0.00244,-0.03662,-0.07568,-0.11841,-0.15869,-0.20142,-0.24048,-0.28198,-0.32104,-0.36377,-0.40283,-0.43701,-0.47241,-0.50781,-0.53955,-0.57495,-0.60669,-0.64209,-0.67261,-0.70435,-0.73242,-0.75684,-0.78857,-0.80933,-0.83374,-0.85815,-0.88257,-0.90942,-0.9314,-0.95459,-0.97656,-0.99243,-1.0144,-1.03638,-1.05469,-1.07422,-1.09863,-1.11938,-1.14136,-1.16333,-1.18408,-1.19873,-1.21704,-1.23413,-1.25,-1.27075,-1.28174,-1.29883,-1.30981,-1.32202,-1.33545,-1.34644,-1.36353,-1.37817,-1.39526,-1.41113,-1.42578,-1.44043,-1.45264,-1.46729,-1.47949,-1.49414,-1.50391,-1.51733,-1.52954,-1.54541,-1.55762,-1.57471,-1.59302,-1.60767,-1.62354,-1.63818,-1.65405,-1.67236,-1.68457,-1.70044,-1.71021,-1.72607,-1.73828,-1.74805,-1.75537,-1.75537,-1.75293,-1.73218,-1.69067,-1.62598,-1.53442,-1.41724,-1.27197,-1.10718,-0.92773,-0.73975,-0.53955,-0.33936,-0.13306,0.07446,0.27466,0.46997,0.65186,0.82153,0.97534,1.11816,1.24146,1.34888,1.43921,1.51489,1.56738,1.60767,1.64063,1.65649,1.66382,1.67236,1.66992,1.66382,1.65039,1.63696,1.61865,1.59912,1.58325,1.5686,1.55518,1.54785,1.53931,1.5332,1.52222,1.51611,1.50879,1.49658,1.48926,1.47095,1.45264,1.43066,1.40015,1.36475,1.32935,1.28662,1.2439,1.19385,1.14624,1.09985,1.05347,1.01074,0.97046,0.92896,0.89233,0.85327,0.82031,0.78369,0.75439,0.72876,0.70557,0.68604,0.6665,0.64575,0.62622,0.60181,0.57007,0.54565,0.51758,0.48828,0.46021,0.43091,0.39795,0.36621,0.33325,0.30029,0.25879,0.21729,0.177,0.1355,0.09277,0.05127,0.00854,-0.03296,-0.07568,-0.11841,-0.15869,-0.20264,-0.24658,-0.29053,-0.32837,-0.36377,-0.40039,-0.43213,-0.46509,-0.49683,-0.52856,-0.56274,-0.59326,-0.625,-0.6543,-0.67871,-0.7019,-0.72632,-0.74707,-0.77148,-0.79346,-0.81909,-0.84229,-0.86426,-0.88623,-0.90576,-0.92529,-0.94116,-0.95703,-0.9729,-0.98999,-1.01074,-1.02783,-1.0437,-1.05835,-1.07666,-1.08643,-1.09863,-1.11206,-1.12427,-1.13525,-1.14746,-1.15967,-1.16943,-1.18286,-1.19629,-1.20972,-1.2207,-1.23657,-1.25122,-1.26465,-1.27808,-1.29395,-1.30859,-1.32324,-1.33545,-1.35132,-1.36597,-1.38794,-1.40015,-1.41846,-1.43799,-1.45386,-1.46362,-1.46606,-1.45386,-1.42578,-1.36597,-1.28906,-1.18286,-1.05347,-0.9082,-0.75073,-0.57983,-0.40283,-0.21851,-0.03296,0.15137,0.33569,0.51147,0.67993,0.82764,0.97046,1.09619,1.20361,1.29761,1.37207,1.43555,1.48315,1.51489,1.53564,1.54053,1.53809,1.52954,1.51367,1.49658,1.47339,1.45142,1.42456,1.39526,1.36108,1.33789,1.31348,1.29028,1.26953,1.25,1.23047,1.21216,1.19385,1.1731,1.14624,1.11572,1.08398,1.04858,1.01074,0.9729,0.93018,0.89233,0.85449,0.81055,0.77148,0.73364,0.6958,0.6604,0.62866,0.60059,0.57861,0.55786,0.53833,0.52002,0.50171,0.4834,0.46143,0.44434,0.42603,0.41016,0.39185,0.37109,0.35278,0.32837,0.30518,0.27588,0.24536,0.22583,0.19897,0.17212,0.14038,0.10986,0.07813,0.0415,0.0061,-0.03662,-0.07813,-0.11963,-0.16235,-0.20264,-0.24292,-0.2832,-0.32593,-0.36743,-0.40894,-0.44922,-0.48828,-0.5249,-0.56519,-0.59448,-0.62256,-0.64941,-0.67749,-0.70923,-0.73486,-0.76294,-0.79102,-0.81543,-0.83862,-0.86304,-0.88257,-0.90332,-0.92163,-0.93994,-0.95337,-0.97168,-0.98633,-0.99854,-1.01196,-1.02051,-1.03027,-1.0437,-1.04858,-1.05835,-1.06689,-1.07788,-1.09253,-1.10474,-1.11816,-1.12915,-1.14136,-1.14868,-1.15845,-1.16943,-1.18286,-1.19751,-1.21216,-1.22681,-1.24268,-1.2561,-1.27319,-1.28662,-1.30249,-1.31592,-1.32813,-1.33545,-1.33423,-1.31714,-1.28174,-1.21948,-1.13037,-1.01685,-0.87891,-0.72998,-0.55786,-0.38452,-0.20508,-0.01953,0.16357,0.35156,0.53345,0.71045,0.88013,1.02905,1.16821,1.28784,1.39282,1.48071,1.5564,1.61987,1.66626,1.7041,1.73096,1.74561,1.75293,1.75049,1.74072,1.72974,1.71387,1.69556,1.67847,1.65771,1.63818,1.61865,1.60034,1.58325,1.5625,1.54907,1.5332,1.52222,1.51001,1.49292,1.47583,1.45264,1.42822,1.38916,1.3562,1.31958,1.27441,1.23169,1.18652,1.1438,1.09863,1.05225,1.00952,0.96191,0.91797,0.87891,0.84106,0.80444,0.77515,0.74829,0.72144,0.6958,0.67383,0.64819,0.62988,0.60791,0.5835,0.56519,0.54321,0.5188,0.49805,0.46875,0.44312,0.41138,0.3772,0.34546,0.30884,0.27466,0.24048,0.20142,0.16113,0.11963,0.08057,0.03662,-0.00366,-0.04761,-0.09033,-0.12817,-0.16724,-0.20752,-0.2417,-0.27954,-0.31616,-0.35278,-0.38818,-0.42358,-0.45654,-0.48584,-0.5127,-0.54321,-0.57007,-0.59448,-0.62012,-0.65308,-0.67749,-0.70313,-0.72998,-0.75439,-0.77515,-0.79224,-0.80933,-0.82642,-0.84839,-0.86792,-0.88501,-0.9021,-0.91919,-0.93506,-0.94849,-0.96313,