Wave
8
6
5
4
3
3
3
2
2
1
1
1
2
2
4
5
8
12
19
27
38
50
62
73
81
85
85
83
80
78
75
73
72
69
67
65
63
60
57
54
51
50
50
50
50
50
49
49
48
49
49
49
50
51
50
49
47
45
42
39
36
32
29
25
22
19
16
14
12
12
13
15
16
17
18
17
16
14
13
14
18
24
33
41
51
59
63
66
66
66
65
64
63
63
63
63
64
64
65
66
67
68
69
69
67
66
65
63
60
57
53
42
42
39
36
33
29
25
22
22
20
17
17
16
14
14
15
16
18
20
24
28
35
41
48
54
58
59
59
58
57
55
54
53
51
49
48
49
50
52
55
57
59
60
61
61
60
60
57
55
55
50
47
47
40
37
33
31
30
29
28
29
28
27
24
21
18
15
13
11
10
9
9
11
16
24
35
46
59
70
78
81
82
81
80
78
76
76
75
74
72
70
68
67
66
66
66
66
66
65
64
62
59
55
52
49
47
46
44
44
43
43
41
40
39
37
35
34
33
32
31
29
28
27
26
25
24
22
20
18
15
14
17
21
29
38
47
55
62
65
66
65
64
62
61
60
59
57
55
53
49
48
46
46
45
44
44
43
43
43
43
42
42
42
41
40
40
40
39
38
37
36
34
33
31
31
30
29
27
26
25
24
23
23
22
21
20
19
18
17
16
14
14
14
16
22
30
40
50
60
67
72
74
74
72
70
67
64
64
59
58
58
55
55
55
54
53
53
49
46
46
42
41
41
39
37
37
35
33
32
32
32
31
30
29
28
28
27
26
25
24
24
23
23
22
22
23
22
21
20
18
18
18
21
29
38
48
59
68
75
78
79
78
77
75
73
71
69
66
63
60
57
54
52
50
49
48
47
47
46
45
45
44
43
42
41
40
40
39
38
37
36
35
34
33
32
30
29
27
26
25
25
25
24
25
25
25
25
25
25
24
23
25
29
37
45
55
65
72
76
77
76
74
72
69
67
65
63
59
55
51
47
43
40
38
37
37
37
35
34
31
28
25
21
20
18
19
20
22
24
26
27
26
25
24
21
19
18
17
16
15
14
14
14
13
12
10
8
6
6
5
5
7
10
16
25
35
45
55
64
70
72
71
70
68
65
62
60
57
54
52
51
50
50
51
52
52
52
51
50
47
46
44
42
42
41
40
40
39
39
38
38
38
37
37
36
36
36
35
34
33
31
30
29
28
26
24
23
21
19
18
20
24
32
41
52
62
71
76
78
78
76
73
69
66
63
60
57
55
53
52
52
51
52
52
51
50
48
46
43
40
38
35
32
30
28
27
26
26
26
26
25
25
24
23
23
22
22
22
23
23
23
21
20
20
19
17
17
16
16
16
13
13
13
25
35
44
55
65
71
72
71
69
65
61
58
56
53
51
49
46
45
44
43
43
42
42
41
41
40
40
40
40
39
38
36
34
32
31
29
28
26
25
24
22
19
17
14
13
11
10
8
7
6
5
4
2
2
1
1
0
0
3
10
19
30
40
51
57
61
62
61
59
57
54
52
49
47
44
41
40
39
39
38
38
39
38
38
38
37
36
34
33
31
29
27
26
25
25
24
24
23
23
21
21
20
19
20
21
23
24
25
25
25
24
23
23
23
26
32
40
49
58
68
75
78
78
77
74
70
65
61
57
54
51
48
46
44
43
43
43
42
42
41
40
39
37
36
34
33
32
31
30
30
29
29
27
26
25
24
23
21
19
18
16
16
16
15
15
15
15
16
19
24
33
42
52
60
66
70
70
68
65
63
61
59
58
56
55
53
52
52
52
53
54
55
55
55
55
55
54
53
53
50
49
49
47
46
46
45
44
44
41
40
40
39
38
38
35
34
33
32
29
27
25
24
23
24
28
34
43
52
61
68
74
76
77
75
73
70
66
62
59
56
53
52
52
52
52
52
52
51
50
49
48
47
46
45
43
42
41
40
40
39
39
38
36
34
32
30
28
27
25
23
23
23
23
21
20
19
17
15
15
17
21
28
37
45
52
57
59
59
57
55
52
50
48
46
44
42
40
39
37
37
36
36
36
35
35
33
32
31
30
28
27
26
25
25
26
26
25
25
23
22
21
19
19
18
18
17
16
16
16
15
14
14
13
13
14
17
23
31
40
48
55
62
66
68
67
65
63
60
59
57
55
53
52
51
50
50
49
49
48
47
46
45
45
44
44
44
44
44
43
42
42
41
40
40
39
38
36
34
32
30
27
26
24
23
22
21
20
20
23
28
36
45
55
64
70
74
74
73
72
70
68
66
63
60
58
56
54
53
51
51
50
49
48
47
46
46
45
44
44
43
42
42
41
40
40
39
38
36
35
33
31
31
30
30
30
29
30
29
29
28
27
25
25
26
27
33
41
49
57
65
71
73
72
71
69
68
66
65
64
64
62
60
58
57
56
56
55
54
54
51
49
49
44
41
41
39
38
38
37
35
35
33
32
30
28
26
24
22
21
19
17
15
14
13
12
10
8
6
4
3
5
10
18
27
37
44
51
54
55
54
53
51
50
49
47
46
44
43
42
40
40
40
40
39
39
38
37
36
35
34
33
32
31
30
29
28
27
26
25
24
24
24
23
22
21
21
20
20
19
19
18
19
18
18
16
14
13
13
15
20
28
37
47
55
63
66
68
66
64
62
60
58
56
53
50
49
47
46
45
45
44
44
43
40
40
39
38
37
36
37
35
32
31
30
29
29
28
31
30
29
27
26
25
24
24
24
24
24
24
24
23
23
22
22
21
20
20
19
18
20
25
33
42
52
62
70
74
75
75
73
70
67
64
62
60
58
56
54
53
52
52
51
51
50
48
46
44
42
40
38
37
35
34
33
32
31
30
28
26
25
25
25
24
25
26
25
25
25
25
25
24
23
22
19
17
14
14
13
12
12
11
10
10
12
17
17
35
45
45
62
67
67
68
67
67
63
61
59
57
55
53
51
50
48
46
45
43
41
40
38
36
34
31
28
25
23
21
19
17
16
14
14
13
12
11
10
9
9
8
8
8
8
8
9
9
10
9
9
8
7
7
7
5
5
5
6
9
15
24
34
43
53
61
65
67
66
63
60
57
53
50
46
45
43
43
42
42
42
42
43
43
44
44
44
44
43
42
41
40
40
39
38
38
37
36
34
32
30
29
28
27
27
27
27
27
27
27
27
26
25
23
21
19
17
17
19
24
32
41
51
60
67
70
71
70
69
67
64
61
59
57
55
54
53
53
52
51
49
45
41
39
35
32
29
26
24
23
22
22
22
23
23
23
23
23
23
22
21
22
23
23
23
23
24
24
24
24
25
25
24
23
23
23
23
26
32
40
49
60
70
77
81
82
79
75
70
66
61
56
51
48
46
44
43
43
43
43
43
42
42
41
40
39
38
37
36
35
35
36
36
37
37
37
36
36
34
32
30
28
26
24
23
22
21
20
18
17
16
16
17
17
17
16
14
13
12
14
18
26
35
46
56
65
70
71
70
67
63
60
57
57
50
47
47
43
40
40
37
37
37
35
35
35
33
32
32
29
27
27
24
24
24
23
22
22
22
20
19
18
17
17
17
16
15
14
14
14
14
14
13
11
9
7
5
2
2
4
10
19
28
39
48
57
62
64
65
64
63
62
59
57
54
52
50
49
48
47
47
48
48
49
49
49
49
49
50
49
49
48
47
47
46
45
45
44
44
44
43
41
40
40
38
36
35
34
33
31
30
29
28
26
26
28
34
42
52
63
73
80
83
84
83
81
80
78
76
74
72
70
67
65
64
63
63
62
63
63
63
63
61
59
57
55
55
54
53
54
53
51
51
51
51
50
50
50
49
48
47
46
45
44
44
43
42
40
40
38
37
37
40
46
55
66
75
83
88
91
90
88
86
84
82
79
77
75
73
70
69
68
67
67
66
66
66
65
63
62
61
60
58
57
55
54
52
50
47
44
42
40
37
33
30
27
24
22
20
17
16
14
13
13
12
11
10
10
12
16
16
33
42
42
59
63
63
67
68
68
67
66
66
62
61
61
59
60
60
62
62
63
62
61
59
57
55
52
50
48
46
44
42
42
40
40
39
38
36
34
32
30
27
26
24
24
24
24
24
24
24
24
26
29
34
42
51
60
68
75
79
79
79
78
77
75
73
71
69
67
65
64
63
63
63
64
65
65
64
62
60
57
54
53
52
50
49
47
47
45
42
40
39
37
36
33
31
29
27
26
25
24
24
23
22
21
21
22
25
33
41
51
61
70
76
77
78
77
75
74
73
71
70
68
66
65
64
63
62
61
61
60
59
57
56
54
52
50
48
46
45
44
43
42
41
40
33
31
30
27
25
23
22
21
20
19
17
16
16
16
19
24
32
40
50
60
68
72
74
74
72
71
69
68
66
66
65
64
63
61
60
59
58
57
56
54
52
49
46
43
40
38
35
32
29
27
24
23
21
19
16
14
12
10
8
6
5
3
2
0
0
1
1
1
1
0
0
0
1
3
9
17
27
37
46
53
59
60
60
59
58
56
54
52
50
48
46
45
44
44
43
43
43
42
41
40
40
39
37
36
34
33
33
33
33
34
34
34
33
32
31
30
29
29
27
27
27
25
25
25
24
22
22
18
16
16
17
21
21
37
46
55
64
69
71
72
71
70
69
67
66
64
62
61
60
59
59
59
59
59
58
56
55
54
53
52
51
50
48
48
47
46
45
44
43
42
41
40
39
38
37
36
35
33
31
29
27
26
25
24
23
21
20
20
24
31
40
51
62
72
78
82
83
82
80
77
75
72
71
68
66
64
62
60
59
59
59
59
59
58
57
56
54
52
50
49
47
45
43
42
40
40
39
38
37
35
33
31
29
27
25
24
23
23
22
22
21
20
19
18
18
19
23
29
37
46
56
65
72
75
76
76
75
73
71
69
67
65
63
61
59
57
56
54
53
50
47
44
41
40
37
35
33
30
28
26
24
22
20
19
17
16
16
14
13
10
9
7
6
4
4
4
4
4
2
1
1
0
0
2
7
15
24
34
44
51
56
58
58
58
56
53
51
48
46
44
42
40
40
40
40
40
40
40
40
39
38
37
37
35
35
32
30
30
26
24
24
22
21
21
19
18
18
18
18
18
21
23
23
22
21
20
18
18
20
25
33
41
51
60
67
71
73
72
71
69
67
64
61
59
57
55
53
53
53
53
53
53
53
52
51
51
50
48
47
46
45
44
43
42
40
40
39
38
36
35
34
32
31
30
28
27
25
24
23
22
24
29
36
45
54
64
72
77
80
81
80
77
74
71
69
67
65
63
62
61
59
58
57
56
55
54
53
51
49
48
47
46
45
43
41
40
38
36
34
33
31
30
29
27
25
25
24
23
23
22
21
20
19
20
23
29
36
45
53
59
63
63
62
60
57
56
55
53
53
51
50
48
46
46
45
44
43
42
41
40
39
38
37
36
35
34
32
30
28
27
25
23
22
19
17
14
13
12
10
9
8
7
6
5
3
2
1
0
0
0
2
9
18
27
38
47
54
57
59
58
56
54
52
49
46
43
41
39
38
37
37
38
38
38
38
37
36
34
32
30
29
27
26
25
24
23
23
22
21
21
21
21
20
19
18
17
15
15
15
16
17
17
17
15
14
12
11
11
13
18
26
35
45
54
62
67
69
69
67
65
63
60
58
55
52
51
48
47
47
48
48
48
51
51
51
50
49
49
46
44
44
41
39
39
37
36
36
34
32
30
28
26
25
23
22
21
21
21
21
20
20
19
19
18
19
21
26
34
42
51
60
67
71
72
71
69
67
65
63
61
60
58
57
55
53
52
51
50
50
49
49
48
46
44
43
41
40
40
39
39
38
37
36
34
31
28
26
24
23
21
21
20
18
18
17
17
17
17
17
16
15
16
19
26
35
45
55
63
70
73
74
73
71
68
66
63
60
58
56
54
51
50
50
49
48
48
48
48
47
46
44
42
40
38
36
34
33
31
29
27
24
21
18
15
13
12
11
10
9
8
8
6
4
2
1
1
2
3
6
13
21
32
42
53
61
66
67
66
64
61
57
53
51
48
46
45
44
44
44
45
45
45
44
43
42
40
37
36
35
34
34
33
33
33
32
32
31
31
31
31
30
29
28
27
25
24
24
23
22
21
21
19
18
18
19
22
29
39
49
59
68
74
77
77
75
73
70
67
67
62
60
60
56
55
55
54
55
55
55
53
53
51
50
50
47
46
46
43
42
40
39
38
37
37
37
36
35
33
32
29
28
26
25
24
23
22
21
19
18
17
19
24
32
41
51
60
68
72
74
73
71
69
67
65
63
60
58
55
53
52
50
51
52
52
53
53
53
52
51
50
49
47
46
45
44
43
42
40
40
38
37
35
32
30
27
25
24
22
22
21
20
19
18
17
17
20
25
32
40
50
59
67
71
72
71
68
65
61
58
54
52
50
48
46
45
44
42
41
40
40
38
36
34
32
29
27
25
24
23
22
21
19
19
18
17
17
17
17
17
15
13
12
11
11
11
11
10
9
8
8
8
12
18
27
36
45
54
60
63
63
61
59
56
53
50
47
45
43
42
42
41
42
42
43
43
43
42
41
40
39
38
36
35
35
34
33
33
32
32
31
30
28
26
24
24
24
24
24
24
24
24
23
22
22
24
29
38
46
56
65
72
76
77
76
74
72
70
69
68
67
65
64
63
62
61
61
60
59
58
57
56
54
53
52
51
50
49
49
48
47
46
45
44
42
41
40
38
36
35
33
32
31
30
29
27
25
23
21
18
18
22
28
37
46
56
56
69
71
71
70
69
69
67
65
65
61
59
59
55
54
54
54
53
53
52
50
47
45
42
41
40
39
38
38
37
37
36
36
35
35
34
33
32
31
29
27
26
25
25
24
23
22
20
20
20
23
28
35
43
53
62
69
73
74
74
72
69
67
64
61
58
56
53
51
50
49
49
49
48
47
46
44
41
40
37
35
33
32
30
29
28
27
25
24
23
21
20
18
16
14
13
13
12
12
10
10
9
7
6
5
6
8
12
18
26
35
43
51
56
58
58
57
55
52
51
49
48
47
46
45
44
44
43
43
45
45
45
44
44
42
40
38
36
35
34
32
30
28
25
24
23
21
20
18
16
14
12
10
7
7
6
4
5
5
5
6
9
13
18
26
35
44
54
62
69
73
74
74
71
69
66
62
60
58
57
56
55
54
54
54
54
53
52
50
48
46
43
41
40
39
38
37
36
35
35
33
32
31
29
27
26
24
23
22
22
22
21
21
21
20
19
18
19
20
24
24
38
46
46
64
71
71
75
74
74
68
64
64
57
54
54
50
47
47
45
45
44
44
44
44
43
44
44
43
43
41
40
38
37
36
36
35
34
33
31
29
27
25
24
23
22
21
21
20
18
17
17
16
15
13
11
10
10
12
17
25
35
46
57
66
73
75
75
73
71
68
66
64
62
60
59
57
56
55
54
54
53
53
52
51
50
49
47
46
44
41
40
39
38
37
35
35
34
33
31
30
28
25
23
22
21
19
19
18
18
17
17
17
16
15
12
10
9
9
13
20
29
39
49
58
64
66
64
61
58
54
50
47
44
41
40
38
36
35
35
35
34
33
32
30
28
26
24
23
22
21
21
20
19
18
17
18
18
18
17
16
14
13
12
12
11
11
11
12
12
12
11
11
11
9
8
8
9
12
17
26
36
45
55
61
65
66
65
63
61
58
56
53
51
49
47
46
44
43
42
40
40
39
39
39
38
38
37
36
36
36
37
39
40
42
43
43
43
42
41
40
39
37
35
33
32
31
29
26
24
22
20
20
22
28
35
43
51
59
64
67
68
67
65
64
62
61
60
60
59
58
58
59
58
58
58
58
58
57
56
55
53
50
48
45
44
43
43
40
40
40
36
35
35
31
30
30
27
25
25
24
23
23
23
22
22
22
23
26
32
40
49
58
65
71
73
74
72
69
65
61
57
54
50
48
47
45
45
45
45
45
45
46
46
45
44
44
43
42
42
41
41
40
40
40
40
40
39
38
37
36
34
32
31
29
28
26
24
23
21
21
21
25
31
40
49
58
65
70
73
72
70
69
67
66
64
62
60
58
56
54
52
51
49
48
46
44
42
40
37
35
33
31
29
27
25
23
22
21
20
19
17
15
14
12
11
10
9
9
9
8
7
6
5
5
9
13
21
31
40
52
60
65
68
69
68
65
63
60
57
54
51
49
47
45
44
43
43
42
41
40
40
39
37
36
34
33
32
31
30
29
29
28
27
27
25
24
23
22
22
20
19
18
17
16
16
17
20
25
31
39
47
56
64
70
72
73
72
70
68
65
63
62
61
60
59
59
58
57
56
55
53
50
48
45
43
40
39
38
37
36
35
34
33
32
30
29
29
24
23
22
22
22
21
21
20
21
25
32
40
48
58
65
68
68
67
64
62
60
58
57
56
53
51
50
50
50
50
50
50
50
49
48
47
46
45
44
43
42
41
41
40
39
38
37
36
35
34
33
31
29
28
26
24
24
23
20
19
17
15
16
19
24
32
41
52
60
67
71
72
70
69
66
63
61
60
58
56
54
51
49
48
47
46
45
45
44
43
42
40
39
37
35
32
30
29
28
27
26
25
24
23
22
21
19
17
14
12
11
9
8
7
7
5
4
2
1
1
4
10
17
27
36
45
51
55
55
54
53
53
52
51
50
49
48
46
45
44
44
43
44
44
44
43
43
42
41
40
38
38
37
37
36
35
34
33
33
32
31
30
28
27
25
24
23
23
24
24
24
23
22
21
19
20
22
27
36
44
54
63
71
76
78
78
76
72
70
68
66
64
61
59
57
56
55
54
54
54
53
52
51
50
49
48
47
46
44
43
42
41
40
40
40
39
37
35
33
31
29
27
25
24
23
22
21
20
18
17
17
19
22
29
38
47
57
66
72
75
75
72
68
63
59
55
51
50
48
47
46
46
46
47
47
47
47
46
46
45
45
44
44
41
40
40
37
37
37
34
32
32
28
25
25
21
18
18
14
13
13
12
12
11
10
8
6
5
4
6
12
21
30
40
48
54
57
55
53
50
47
45
42
40
38
37
36
36
36
36
36
36
36
35
34
32
30
29
27
25
24
23
22
21
21
20
20
19
18
18
18
17
16
14
12
11
11
11
11
12
11
12
10
11
12
16
21
30
39
48
56
63
66
65
64
61
59
56
54
51
50
49
48
48
47
48
49
49
49
48
47
46
45
43
41
40
38
37
36
36
36
36
34
33
31
30
28
25
24
23
22
21
20
20
19
18
17
17
18
19
23
29
38
47
57
66
72
74
74
72
69
65
62
59
57
54
52
50
49
48
48
48
48
48
48
47
46
44
42
40
39
36
36
35
34
34
33
32
31
30
29
27
25
24
23
22
22
21
20
19
18
17
16
15
15
17
20
27
35
45
55
63
69
72
72
71
68
65
63
59
57
54
53
52
51
51
51
51
52
50
50
49
49
46
45
45
43
41
41
38
37
37
37
36
36
34
32
32
27
25
25
23
22
22
21
21
20
19
18
18
19
22
27
35
43
54
64
71
75
76
76
73
70
67
62
59
55
52
50
48
46
45
44
43
42
41
40
39
37
35
34
32
29
26
24
22
21
20
19
17
16
16
16
16
16
15
14
13
13
12
12
11
11
10
9
9
11
16
24
33
43
51
58
60
61
59
57
54
51
48
45
43
41
40
40
39
40
41
42
43
44
45
45
45
45
45
44
43
42
41
40
40
38
37
36
35
34
33
33
32
31
30
29
27
25
25
25
28
34
41
50
60
68
75
78
79
77
75
72
69
67
65
63
62
60
59
59
59
59
57
56
54
53
53
53
52
51
51
50
50
49
48
47
46
45
43
41
40
38
38
38
37
36
34
32
30
30
32
37
44
54
63
72
79
83
83
82
80
78
76
74
72
70
68
66
64
63
63
62
62
62
61
59
58
57
55
54
52
50
48
46
44
44
43
42
42
40
40
38
37
35
34
33
33
32
30
28
26
24
24
26
30
37
46
56
64
72
76
78
78
77
75
72
70
68
66
64
62
61
60
59
59
59
58
57
55
53
52
51
51
48
47
47
44
42
42
40
38
38
33
30
30
24
21
21
17
15
15
13
12
11
11
10
9
10
13
19
27
37
46
55
60
62
62
61
59
57
55
52
51
49
48
46
46
45
45
46
46
46
46
45
44
43
41
40
38
36
36
35
35
34
33
32
31
29
27
26
24
24
23
23
23
22
20
19
18
17
17
19
24
30
37
45
54
62
67
69
70
69
67
66
64
62
60
60
59
58
58
58
58
57
56
55
53
51
49
47
45
43
42
41
40
38
37
36
34
33
32
31
30
28
27
25
25
24
24
23
22
21
22
24
29
37
46
55
63
70
73
73
71
70
68
66
64
62
59
56
55
54
53
53
54
54
55
55
54
53
52
51
50
48
48
47
46
44
43
42
41
40
39
37
35
33
32
31
30
30
29
29
29
27
25
24
24
26
31
39
47
57
66
73
77
77
76
74
72
69
67
65
64
62
59
57
55
53
52
51
49
47
45
43
40
38
35
32
29
27
25
23
23
19
17
17
16
15
15
12
10
10
8
7
7
6
7
7
5
4
4
3
6
13
22
30
40
48
54
57
57
57
54
52
49
47
45
43
41
39
38
37
37
37
37
36
35
34
34
33
32
30
29
28
26
25
24
24
24
23
23
23
22
22
21
20
20
21
22
21
20
19
17
15
14
16
20
27
36
44
53
59
63
63
62
59
57
55
53
52
51
50
49
49
48
48
49
49
49
49
49
49
48
47
46
44
43
41
40
40
39
38
37
37
37
36
34
32
30
27
25
24
24
23
22
21
21
20
20
23
29
37
45
55
63
69
73
73
72
69
67
65
63
60
58
56
54
51
50
48
47
46
44
43
40
39
37
36
34
33
31
29
28
26
25
24
23
23
22
21
20
19
17
16
16
15
14
13
13
12
12
12
12
11
11
14
18
25
32
40
47
51
54
55
54
52
49
47
44
40
38
34
30
28
26
25
25
24
23
22
19
17
15
14
13
11
11
10
10
10
10
10
10
11
11
11
10
10
11
10
10
11
11
11
10
9
8
8
8
10
17
25
35
44
54
61
65
66
66
64
63
61
59
56
54
52
49
47
45
43
42
41
41
40
40
40
39
38
38
38
36
35
35
34
33
33
30
29
29
24
22
22
19
18
18
17
16
16
18
19
23
29
37
46
56
65
71
74
74
73
71
68
66
64
62
60
59
57
56
54
54
53
53
52
50
48
47
44
42
40
40
39
37
36
35
33
32
31
29
28
26
25
24
23
23
22
21
21
20
19
18
18
17
18
21
27
36
45
56
67
74
79
80
79
77
74
73
71
68
65
63
60
57
56
55
55
54
54
54
53
51
50
49
47
44
43
42
41
40
39
38
37
36
35
34
32
31
29
29
28
28
28
27
27
26
25
24
22
22
22
25
30
39
48
58
68
76
80
81
79
77
73
70
67
64
61
59
56
54
53
52
51
51
51
49
48
46
44
41
39
35
32
28
25
23
21
20
18
17
15
15
14
13
13
12
10
9
8
8
7
6
6
6
5
3
2
1
3
6
13
23
33
43
54
61
66
68
67
64
61
58
55
51
48
45
44
43
43
43
44
44
43
43
42
41
40
40
38
37
37
33
32
32
29
27
27
26
26
26
25
25
25
24
24
24
23
22
22
20
19
19
18
16
14
13
15
20
29
39
51
62
71
76
79
79
78
75
72
69
65
62
60
59
57
57
57
57
58
58
57
56
55
53
50
46
43
41
40
39
38
37
36
35
34
33
32
30
29
28
26
25
24
23
23
22
21
21
19
18
17
17
19
23
29
38
48
59
70
77
82
82
80
77
74
71
68
65
62
60
59
57
56
57
57
57
56
55
54
53
52
52
51
50
48
47
46
45
45
44
43
41
40
38
37
36
34
32
30
29
28
27
25
24
23
21
19
17
18
22
29
38
48
58
67
72
74
75
74
72
70
68
65
62
59
56
54
53
52
51
51
50
49
48
46
44
41
38
36
34
31
28
25
24
23
21
20
19
18
16
16
15
15
15
14
13
11
11
10
10
9
8
7
7
6
8
12
20
29
40
50
58
63
64
63
60
57
54
51
49
46
44
43
42
42
42
43
45
46
46
46
45
45
44
43
42
42
42
41
42
42
42
42
41
40
40
38
35
33
30
28
25
24
22
21
19
19
19
20
24
31
40
49
59
67
73
76
76
76
74
71
69
65
62
58
56
54
54
53
53
53
52
52
52
50
49
49
45
42
42
39
37
37
36
36
36
37
36
35
35
33
32
31
29
28
26
24
23
23
25
29
35
43
52
61
68
73
75
75
74
72
70
68
67
66
65
63
62
61
61
60
60
61
61
60
59
58
56
54
53
52
51
50
49
48
47
46
45
44
42
40
39
38
35
34
32
30
30
33
39
47
57
67
72
77
79
77
73
69
64
60
55
52
50
49
48
48
48
48
48
48
48
47
46
45
44
43
41
40
38
37
36
35
33
31
28
26
24
23
21
19
17
16
15
14
13
12
11
9
9
12
17
23
33
42
51
58
62
63
62
59
57
55
53
52
50
48
47
46
45
45
45
46
46
46
46
45
44
42
41
39
37
37
37
36
35
32
30
28
25
24
23
22
21
20
20
20
20
20
20
20
20
21
22
25
30
37
44
53
59
65
68
68
67
66
63
60
57
54
51
50
49
49
49
49
50
49
48
47
46
44
43
41
41
38
36
36
33
31
31
29
27
27
24
23
23
20
19
19
17
16
16
16
15
14
13
12
14
20
28
37
46
54
61
64
65
65
64
63
61
59
57
55
53
51
50
49
48
47
46
45
45
44
43
42
40
40
38
36
35
34
33
32
31
30
28
26
25
24
23
22
21
20
19
18
17
17
17
17
16
15
13
12
12
14
18
25
34
44
54
62
68
71
70
68
65
63
61
58
56
54
52
49
48
48
47
47
47
47
46
45
43
40
38
35
33
32
31
31
31
30
30
30
29
28
26
25
23
22
19
17
15
13
12
11
11
10
9
8
6
5
4
5
9
16
25
35
44
54
60
64
65
65
63
61
59
56
54
52
49
47
45
42
41
40
41
41
40
40
38
36
33
31
29
27
25
24
23
22
21
20
19
18
17
16
16
16
16
16
17
17
16
15
15
13
12
12
13
17
22
29
37
44
51
56
59
60
59
58
56
54
51
49
46
45
43
42
42
41
41
40
39
39
37
35
33
31
30
29
29
28
28
28
27
27
26
26
24
24
23
22
20
19
18
17
17
17
17
18
18
18
22
28
35
44
52
61
66
70
69
67
64
62
60
58
56
53
50
47
44
44
41
41
41
40
39
39
36
34
34
31
30
30
27
25
25
24
23
23
21
20
19
18
17
16
16
16
15
14
14
13
13
13
12
12
12
14
19
26
35
42
50
56
60
61
61
60
59
58
57
57
56
55
55
53
52
51
49
47
45
42
40
38
36
34
34
34
36
38
40
41
44
46
48
49
49
48
46
43
40
39
37
36
37
37
39
40
41
40
38
35
32
30
31
36
41
49
55
59
60
60
59
56
55
53
52
51
50
50
50
51
51
51
50
50
50
49
48
47
46
45
44
44
43
42
41
40
39
37
35
33
31
27
23
20
16
12
10
7
6
4
4
3
2
1
1
2
6
13
23
33
43
54
63
69
72
72
70
67
64
60
56
53
50
47
44
41
40
39
37
33
31
27
24
22
20
20
21
23
25
27
30
32
33
33
33
32
31
29
27
25
24
23
23
23
23
22
23
23
22
21
20
19
19
19
19
25
32
41
50
60
68
73
75
75
73
71
71
67
64
64
61
59
59
55
53
53
49
46
46
41
39
39
31
29
29
22
20
19
19
19
19
20
21
23
24
25
24
24
22
21
20
20
20
20
20
20
21
22
22
22
22
21
20
20
23
29
38
49
61
72
80
83
83
80
76
71
67
64
61
57
54
50
46
43
41
39
38
37
35
34
33
32
31
29
27
26
26
24
24
23
24
25
26
27
27
26
24
23
21
20
18
17
15
15
15
15
16
18
19
19
20
21
24
30
38
47
59
71
81
87
90
88
83
76
68
62
55
50
46
43
42
43
45
49
53
56
59
60
60
58
55
52
48
45
42
41
40
38
38
37
35
34
33
31
29
26
24
22
20
17
16
15
15
14
14
15
16
21
28
36
44
53
59
63
64
64
62
60
58
56
54
53
51
50
48
46
44
42
41
40
40
40
39
38
36
35
34
33
32
31
30
29
27
26
25
24
23
23
22
22
21
20
19
18
19
19
19
18
17
16
15
16
19
26
35
45
54
63
69
72
72
71
69
67
65
62
60
57
55
54
54
53
53
53
53
53
53
53
52
51
49
48
46
44
43
42
41
40
39
37
34
31
28
25
24
23
22
21
20
20
20
19
18
18
17
17
17
16
19
19
32
40
40
54
58
58
57
54
54
49
46
46
41
39
39
35
35
34
33
32
32
31
31
30
29
27
26
25
25
24
24
24
24
24
24
24
24
23
21
21
20
19
18
16
14
13
13
12
11
10
10
9
8
8
11
16
23
33
43
52
60
65
66
64
62
59
56
54
53
52
51
52
52
52
53
54
54
53
52
52
50
48
46
44
43
42
40
39
38
36
34
32
30
29
28
27
26
25
24
24
22
21
21
20
19
19
22
29
37
46
55
63
69
72
72
71
69
67
65
63
60
57
55
53
52
51
52
52
52
51
50
49
47
45
44
42
41
40
39
38
38
38
37
36
36
35
34
33
32
31
30
29
29
28
28
28
30
35
42
51
60
69
76
80
81
79
77
75
72
69
67
65
62
60
59
58
57
58
59
59
58
58
57
56
53
51
50
48
46
45
45
45
43
43
42
40
40
38
37
37
37
36
36
35
33
32
32
33
38
44
53
60
67
67
71
70
70
63
60
60
55
53
53
50
49
49
48
48
48
47
46
46
43
41
40
39
37
36
34
33
32
30
29
28
27
25
24
22
20
19
18
17
16
15
15
14
13
13
13
16
21
29
38
46
54
59
62
63
63
62
61
60
58
57
56
55
54
54
55
55
55
55
55
54
53
52
51
49
49
48
47
46
45
44
42
40
40
38
37
36
34
32
30
28
26
24
23
22
21
20
21
25
32
40
48
57
63
67
69
69
68
67
66
64
62
60
58
56
55
53
52
51
50
49
47
46
45
43
42
40
40
39
38
37
36
35
35
34
33
31
29
28
26
25
24
23
22
21
19
18
17
17
16
16
17
16
17
21
28
37
46
55
62
68
70
70
69
67
64
62
59
55
54
53
52
51
51
50
50
50
50
49
48
47
46
44
43
42
40
40
40
40
39
38
37
36
33
31
29
26
24
23
22
22
21
21
20
19
17
17
16
16
17
19
25
32
41
49
56
61
63
63
61
59
55
52
47
44
40
38
35
34
33
34
34
35
36
37
38
39
38
36
35
33
31
28
26
24
22
21
20
19
18
17
16
15
15
15
14
13
12
11
11
10
9
8
7
7
6
7
7
15
23
23
43
53
53
64
64
64
58
55
55
49
46
46
42
41
41
41
42
43
45
46
47
47
47
46
45
45
43
43
42
41
40
40
38
37
35
34
33
31
29
27
25
24
23
22
20
19
18
17
17
18
22
28
37
46
55
64
71
73
74
72
71
68
66
63
62
60
58
57
55
54
53
53
52
50
48
45
42
40
38
35
33
31
29
27
27
27
27
27
26
26
25
24
23
22
22
22
21
21
20
19
18
16
16
17
20
24
32
40
51
60
68
73
75
75
74
71
69
67
65
64
62
60
58
56
55
54
54
53
52
50
48
46
44
41
40
40
39
38
37
36
36
35
34
32
31
29
28
26
25
24
24
23
23
22
21
20
18
18
18
19
23
29
37
45
55
64
69
71
71
67
63
60
56
54
51
49
47
45
43
41
40
39
38
37
35
34
32
31
30
28
27
26
25
24
24
24
24
24
24
23
22
21
19
18
16
15
13
11
10
9
8
6
5
5
5
6
6
20
29
29
47
54
54
60
59
59
55
52
52
46
44
44
42
42
42
42
44
45
46
47
49
49
49
49
49
48
47
46
45
43
41
40
39
36
33
31
28
25
24
23
22
22
21
21
20
20
19
20
23
29
37
46
55
63
68
71
71
70
67
65
63
61
60
58
56
55
54
53
52
52
51
49
47
45
43
40
39
38
37
35
35
34
34
34
33
33
32
30
28
26
24
22
21
20
20
19
18
18
17
17
18
21
25
33
41
51
61
69
73
74
74
72
71
69
67
65
64
62
60
58
57
56
55
55
54
53
51
50
48
46
44
43
42
41
40
40
39
38
38
37
36
35
34
32
30
28
27
26
25
25
25
25
25
23
22
21
20
20
24
32
40
51
62
70
76
78
77
75
73
71
68
65
62
59
56
54
54
54
54
54
54
54
53
52
50
49
47
45
42
40
39
38
36
35
30
28
26
24
22
20
18
17
15
14
13
12
11
9
8
7
6
6
8
14
23
34
45
56
65
70
72
71
69
65
62
57
54
52
50
48
48
47
48
49
51
52
54
55
55
54
54
52
51
51
50
50
49
48
47
46
45
44
42
41
39
38
36
35
33
33
31
29
29
24
22
22
21
22
22
33
41
41
59
66
66
72
72
72
68
66
63
60
57
55
54
54
55
55
55
55
55
55
53
51
49
47
45
43
41
40
39
38
38
36
35
34
33
31
30
29
28
27
26
25
23
23
23
22
20
19
18
17
17
20
25
33
43
54
64
73
78
80
80
80
79
77
76
74
72
70
68
67
67
67
66
65
64
62
60
58
55
54
52
51
49
48
47
46
46
45
44
44
43
41
40
39
38
36
34
32
31
29
28
27
25
24
22
21
19
18
18
23
31
40
51
62
72
77
81
82
81
80
77
75
72
69
66
63
61
60
59
58
58
58
57
56
54
52
50
47
44
41
40
38
37
36
35
34
32
31
29
27
25
23
21
19
17
14
14
12
11
10
8
7
6
6
7
12
20
29
40
50
59
66
69
70
69
66
64
61
60
58
56
55
54
53
53
54
55
56
56
56
55
54
53
51
50
49
48
47
46
45
44
43
42
40
38
35
32
32
27
25
25
22
20
20
17
17
17
22
29
29
47
57
57
73
75
75
75
73
72
70
68
66
65
63
62
62
62
62
62
62
62
61
59
56
54
51
48
45
43
41
40
40
39
38
37
35
33
31
29
27
26
24
23
21
20
19
19
21
27
35
45
55
65
73
77
79
80
79
77
76
75
74
72
70
69
68
67
66
66
65
64
62
61
59
57
54
52
50
46
41
36
31
25
20
19
19
17
15
12
11
9
7
6
6
5
5
4
3
4
7
12
21
30
40
48
55
60
62
61
60
57
55
52
50
48
45
44
43
42
42
42
42
41
40
39
37
34
31
29
28
26
25
24
23
22
21
21
20
19
17
15
13
13
12
11
10
9
9
7
6
6
7
13
22
32
43
54
64
70
72
72
71
70
67
65
63
62
61
60
59
59
60
61
62
62
62
62
61
60
58
55
52
50
49
48
47
46
45
43
41
38
35
32
30
28
26
24
23
22
23
26
31
39
48
57
65
71
75
76
76
74
72
70
67
65
63
62
60
58
57
56
54
52
50
47
44
42
40
39
37
36
34
33
32
30
29
29
28
27
26
24
22
21
20
20
20
19
18
17
15
14
16
19
25
25
42
50
50
63
66
66
65
64
64
62
61
61
57
55
55
51
49
49
48
47
46
45
43
42
41
40
38
37
35
33
32
30
29
27
25
24
22
21
19
18
17
16
16
16
16
15
13
11
10
11
15
21
29
38
47
55
60
62
62
59
56
54
53
51
49
46
44
42
40
39
38
36
35
33
31
29
27
25
24
23
22
21
20
20
19
18
17
17
17
17
17
16
14
12
12
11
11
11
10
8
7
5
3
3
4
8
16
25
34
42
51
56
58
59
58
57
54
51
48
46
45
44
45
46
47
48
49
49
48
47
46
43
41
39
38
36
35
34
32
31
29
28
27
25
24
24
23
23
22
22
21
20
18
17
16
16
16
19
24
31
39
47
55
60
63
64
64
63
60
59
57
55
53
51
49
47
46
46
45
44
44
44
43
41
40
39
37
36
34
33
31
30
29
28
27
25
24
23
22
20
19
18
17
16
16
16
16
16
16
14
13
12
12
11
11
15
22
30
40
40
62
70
75
77
75
75
69
66
66
60
58
58
54
52
52
51
51
51
50
48
46
44
41
40
38
36
35
34
33
32
32
31
30
29
28
26
25
24
24
23
22
21
21
20
19
18
19
18
17
15
12
10
8
8
8
12
20
30
40
50
59
65
67
67
65
62
59
56
53
50
47
44
43
42
41
41
41
40
39
38
35
33
31
29
28
27
26
26
25
25
25
25
24
24
23
21
19
17
16
15
15
15
15
15
14
13
11
10
8
7
7
8
11
18
26
34
42
49
55
57
57
55
52
50
48
45
42
40
39
38
38
38
40
41
43
44
45
46
46
45
44
44
43
42
40
40
39
38
37
36
35
35
33
32
30
28
27
25
24
22
21
19
18
18
21
27
36
44
53
61
66
69
69
68
67
65
63
61
59
56
54
52
50
47
47
46
46
44
43
43
43
41
40
39
38
37
36
35
34
33
32
31
29
28
27
25
25
24
23
23
22
21
20
19
19
19
22
29
37
46
55
63
68
70
69
68
66
64
62
60
58
57
54
52
50
49
48
48
48
47
45
44
42
40
39
38
36
35
34
32
31
30
29
27
26
25
24
23
22
21
21
20
20
20
19
19
18
18
20
20
28
36
36
53
61
61
70
70
70
65
62
62
55
52
52
46
44
44
42
41
40
40
39
38
36
35
33
32
30
28
26
24
23
22
21
20
20
19
18
17
17
17
17
17
16
15
14
13
14
13
12
11
10
10
10
13
18
26
35
45
53
60
62
63
62
60
56
53
50
48
46
45
45
45
46
48
49
50
51
51
51
51
51
50
50
49
47
46
44
43
42
41
40
38
36
35
34
33
32
31
29
27
25
24
23
22
21
20
19
19
22
28
36
44
53
62
66
68
69
68
66
65
64
62
60
58
56
54
53
52
51
50
49
47
45
43
40
39
37
35
34
32
32
31
30
29
29
27
25
24
23
22
21
20
20
19
18
18
18
18
17
17
16
16
17
21
28
36
45
53
60
65
66
67
66
64
62
60
58
55
53
50
49
47
46
45
44
42
41
41
40
39
38
37
35
34
33
31
30
29
29
28
27
26
25
23
23
21
20
20
20
19
18
18
18
19
19
18
17
17
14
14
14
20
28
28
48
57
57
69
71
71
66
64
64
57
54
54
48
45
44
42
41
41
40
40
39
38
37
35
33
31
29
28
27
25
24
25
25
24
24
24
23
21
20
19
18
18
17
16
14
13
12
10
9
8
7
6
6
7
9
15
23
32
40
49
56
60
62
62
60
58
55
52
49
47
45
45
45
46
47
49
50
51
51
51
51
50
48
47
45
44
42
41
41
40
40
40
39
38
36
34
32
30
27
25
24
23
22
21
20
19
18
17
17
20
24
31
40
49
59
67
72
74
74
73
70
67
64
62
59
57
54
52
51
50
49
48
47
46
44
42
40
39
38
36
34
33
32
31
31
30
30
29
29
27
27
26
25
24
23
22
21
21
21
21
21
20
19
17
16
16
20
27
36
46
55
63
69
71
71
70
68
65
62
60
58
55
53
51
50
48
47
47
47
46
45
45
44
43
42
41
40
40
40
40
40
40
40
40
40
39
37
36
35
33
31
29
28
26
25
25
24
23
22
22
22
25
30
37
46
55
63
71
74
74
73
70
67
63
59
56
53
51
49
47
45
44
44
43
42
41
40
39
36
34
32
29
27
25
24
23
22
22
21
21
20
19
18
18
15
13
13
9
7
7
5
3
3
2
1
1
3
9
9
26
37
37
53
57
58
58
56
53
51
48
46
44
43
42
42
44
45
46
48
49
50
50
50
50
50
50
49
50
50
51
52
53
54
55
55
54
53
51
49
47
45
44
42
40
39
37
35
36
39
44
52
60
68
74
78
79
78
75
72
70
67
65
63
63
62
61
60
59
60
59
59
58
57
55
53
51
48
46
44
43
42
41
41
40
39
38
36
34
32
31
30
29
27
26
24
22
22
23
26
31
39
47
57
66
72
75
76
76
75
74
72
71
70
68
67
65
64
63
62
62
61
60
59
58
56
54
52
50
49
46
44
43
42
42
41
40
39
37
35
33
31
29
28
27
27
27
26
26
27
30
36
43
52
61
68
73
75
74
73
71
69
67
65
63
61
59
58
57
57
57
56
54
52
49
46
43
40
37
34
31
29
27
24
23
21
20
20
19
17
15
13
13
13
12
12
12
11
10
9
9
10
15
22
22
40
50
50
63
65
65
62
60
60
54
51
51
45
42
42
40
40
40
40
40
40
40
39
38
36
35
34
33
32
32
32
31
30
29
28
26
25
25
24
23
22
21
20
19
22
27
33
39
46
53
58
60
61
61
60
59
57
55
54
52
51
49
49
49
48
48
48
47
46
44
43
41
40
38
36
35
33
32
31
30
28
26
24
22
20
19
18
16
15
15
15
15
15
17
20
26
33
42
55
61
66
68
68
66
64
62
61
60
58
56
55
53
52
52
52
53
54
54
53
52
51
49
48
46
45
44
43
42
41
40
40
38
37
35
33
31
29
26
24
22
21
19
18
17
16
17
21
28
37
46
54
62
66
67
66
63
61
59
57
55
53
51
49
48
47
46
46
46
45
44
43
41
40
38
36
34
32
31
30
29
28
26
25
23
21
19
16
14
12
10
8
6
5
5
3
2
1
0
0
0
2
8
17
26
36
44
50
53
53
51
49
46
43
40
38
35
33
31
30
29
29
29
28
27
26
24
23
22
21
20
19
19
18
19
19
20
21
21
22
22
23
23
23
22
22
22
22
21
21
21
20
19
19
19
21
26
33
40
48
57
63
65
65
64
62
62
56
53
53
48
46
46
44
43
43
43
43
43
42
42
42
39
38
36
35
35
35
35
35
35
34
33
31
29
28
26
25
25
24
24
24
23
22
20
18
17
16
18
22
28
37
45
55
63
68
70
69
66
63
60
57
54
51
48
47
45
44
43
43
43
42
42
42
41
40
40
39
37
36
34
32
31
30
28
27
26
24
23
23
22
22
22
22
22
22
23
23
24
24
25
28
33
40
48
58
66
72
74
74
71
67
64
61
58
56
53
51
49
47
45
43
40
39
37
35
33
29
25
22
19
17
15
13
13
13
14
15
16
16
16
16
16
17
19
21
22
22
22
21
21
21
23
27
34
42
51
60
66
68
66
63
58
52
47
42
39
35
31
28
27
26
27
28
29
30
30
29
28
26
25
25
26
27
29
29
30
30
29
28
26
25
24
22
19
16
14
13
12
13
16
22
30
39
46
53
58
60
60
59
56
54
50
47
45
42
40
39
38
38
39
40
40
40
39
38
38
35
34
34
34
34
34
34
34
34
33
32
32
27
24
24
18
15
15
10
12
18
27
37
47
56
63
66
64
61
58
54
51
49
47
45
45
45
46
48
50
52
54
55
55
54
53
51
50
49
48
46
44
44
44
43
43
43
43
41
40
38
36
35
35
37
40
48
57
68
78
86
91
92
90
88
85
81
77
73
69
66
62
58
55
53
52
51
51
51
51
51
51
50
49
46
46
45
44
44
43
42
42
40
40
39
37
36
33
29
25
21
17
15
17
22
30
39
47
54
59
60
58
57
55
53
52
51
51
50
49
49
49
49
50
51
53
53
52
51
49
48
47
46
44
43
41
39
37
34
32
30
28
26
24
22
21
18
16
16
17
22
30
38
47
56
62
65
66
66
65
63
61
58
56
54
53
52
52
53
54
55
56
56
55
55
53
51
49
46
43
40
38
35
31
28
26
24
23
22
21
20
19
18
18
21
26
33
41
50
58
64
67
68
65
62
59
56
53
51
51
49
49
48
47
48
48
48
47
47
45
43
41
40
38
37
36
36
36
34
33
32
31
30
28
27
25
24
23
24
28
33
41
50
59
67
73
75
75
73
70
67
63
60
57
55
53
53
51
51
51
52
52
52
52
51
51
48
46
46
43
41
41
40
40
40
38
37
37
36
35
32
29
27
25
25
29
35
43
53
62
69
72
74
73
71
69
66
64
62
60
58
56
55
54
54
55
55
54
53
52
50
48
46
44
42
40
38
36
33
31
28
27
26
24
24
22
20
19
17
15
14
14
13
11
10
10
13
19
27
36
44
51
56
57
57
56
55
54
52
50
48
46
42
40
38
37
37
37
36
36
34
32
29
27
25
23
22
21
20
19
18
16
16
16
16
16
16
15
14
14
13
14
15
13
13
13
14
16
22
31
40
48
56
60
63
64
63
61
59
57
54
51
48
45
44
44
44
44
44
43
42
42
41
40
39
37
36
35
34
33
32
31
30
29
28
27
26
24
23
22
21
20
18
17
16
16
19
24
32
40
47
54
60
61
61
59
57
55
53
51
50
48
47
46
45
45
44
44
44
43
42
41
40
39
37
36
36
36
36
35
34
32
31
30
28
25
25
23
22
22
21
20
20
18
17
17
18
21
21
33
40
40
58
65
65
71
70
69
67
65
62
60
57
55
53
51
50
50
50
49
49
47
46
44
42
40
39
38
37
37
37
37
38
37
36
35
34
31
29
27
25
25
24
24
23
22
21
21
21
24
30
39
47
56
64
68
70
70
68
66
64
62
59
57
55
52
51
49
48
48
46
44
42
41
39
37
34
32
30
27
26
25
24
23
22
22
23
23
23
22
21
20
18
16
13
12
11
9
8
7
7
8
12
18
27
36
44
52
57
59
59
57
54
52
50
48
45
43
41
40
40
40
40
40
40
40
40
40
39
39
37
35
34
33
31
30
29
28
28
27
28
27
27
27
26
26
25
25
24
23
22
21
20
21
25
31
39
48
57
65
70
72
73
71
69
66
64
61
59
57
55
54
54
53
54
53
53
53
52
52
51
51
50
49
48
46
45
44
43
42
40
40
38
36
33
31
28
27
25
24
23
22
21
19
19
21
26
35
44
55
64
72
76
78
78
77
76
74
72
69
66
64
62
60
59
59
59
59
58
58
57
55
53
51
49
47
44
43
41
40
40
39
39
38
36
35
33
32
30
28
27
26
25
25
23
22
22
25
31
31
47
57
57
72
75
75
75
73
73
68
66
66
61
60
60
56
55
54
54
53
53
51
50
48
45
42
40
37
34
31
27
25
23
21
19
17
15
14
12
11
9
8
6
5
4
3
2
1
0
0
3
10
20
30
40
50
56
59
60
59
57
55
52
49
46
43
40
39
38
38
38
38
38
38
38
37
36
35
33
32
30
28
27
26
25
24
23
22
20
19
18
18
17
17
17
17
17
17
17
17
18
20
25
32
40
49
58
65
70
72
71
70
67
64
60
57
54
52
51
51
51
51
52
52
52
52
51
50
49
48
46
44
43
41
40
39
38
36
34
32
30
27
25
24
23
21
20
19
19
22
29
37
46
56
65
71
74
74
73
72
70
67
65
63
61
60
60
60
61
61
62
63
63
62
61
59
57
55
52
47
42
40
36
33
31
29
28
25
24
24
23
22
21
19
18
16
15
15
18
24
31
40
51
61
70
75
76
76
73
70
67
63
62
62
59
58
58
58
58
58
56
55
55
50
47
47
41
39
39
35
33
33
29
27
25
24
22
20
17
14
10
6
3
0
0
0
0
0
0
0
2
7
14
24
35
45
54
61
63
63
62
61
60
59
57
55
54
52
51
49
49
48
47
46
44
42
40
39
38
36
34
32
31
29
28
27
25
24
23
21
19
17
15
14
13
12
11
10
9
9
10
14
20
28
37
46
54
60
63
64
63
60
57
55
53
51
49
48
48
48
49
50
50
51
50
50
49
48
47
46
44
43
41
40
38
37
35
33
30
27
24
21
19
16
13
11
10
11
15
22
32
41
52
62
69
73
74
73
71
68
65
62
60
59
57
56
55
54
54
53
52
50
48
46
43
41
40
38
37
36
35
33
33
32
30
29
27
26
24
23
22
22
21
19
18
18
18
20
23
28
36
45
54
63
69
72
73
72
70
69
67
65
64
63
62
61
60
59
59
58
58
57
55
53
51
48
46
44
43
42
41
40
40
39
38
36
34
32
30
28
25
24
22
21
20
19
18
17
17
16
15
14
13
12
14
19
28
38
48
58
65
68
70
69
66
64
62
60
56
53
49
46
42
40
39
38
37
36
35
33
33
29
27
27
23
22
22
19
18
18
18
18
18
17
15
15
12
11
11
10
10
10
8
8
7
5
4
3
2
1
0
2
6
14
23
34
44
52
57
60
60
58
56
53
50
46
42
40
39
38
37
37
38
38
38
38
37
36
35
34
33
31
30
29
27
27
26
27
27
27
27
26
26
25
24
23
22
21
21
20
19
18
16
14
13
12
11
10
12
17
25
34
44
54
62
68
70
69
66
63
59
56
53
50
48
46
45
45
45
45
45
45
44
40
39
36
33
31
29
28
27
26
25
25
24
24
22
21
19
18
16
16
16
16
16
15
14
12
11
11
12
15
21
29
40
49
60
68
72
73
73
71
68
65
62
59
56
54
52
51
50
49
49
49
48
48
47
45
44
42
40
39
37
36
36
35
35
35
33
31
30
28
26
25
24
23
23
22
21
21
20
19
17
16
14
11
8
7
9
15
24
34
44
53
60
63
63
61
58
55
53
51
48
45
43
41
41
39
39
39
38
37
37
35
34
34
30
27
25
24
23
23
20
19
19
17
16
16
16
16
15
13
12
12
12
12
13
13
12
12
10
9
8
9
12
18
26
35
44
53
60
63
63
62
59
56
51
47
44
42
41
40
41
42
43
44
44
45
45
44
43
42
41
39
37
35
32
28
27
27
26
25
26
28
28
29
29
30
30
29
29
30
30
28
26
24
22
21
21
27
36
46
57
65
71
73
71
68
64
60
58
55
51
47
42
40
36
34
33
33
34
35
38
41
43
46
49
52
54
56
56
55
53
51
49
47
45
44
42
40
38
35
33
30
28
27
27
25
24
20
16
13
11
12
18
27
38
49
59
68
73
77
79
78
77
74
70
64
58
53
47
43
40
39
39
40
41
43
45
47
49
50
52
54
55
55
54
53
52
51
49
48
47
47
46
45
44
43
41
39
37
36
36
36
36
35
34
33
32
30
28
28
29
32
38
45
55
64
71
75
77
77
76
73
71
69
67
65
62
60
59
57
56
55
54
51
49
47
46
43
41
40
40
39
38
37
37
35
34
33
31
28
26
24
23
22
21
19
17
14
11
8
7
8
9
12
15
17
18
18
18
18
17
17
23
28
28
43
51
51
61
62
62
60
57
57
53
51
51
50
50
50
51
52
53
54
55
55
55
54
53
52
51
51
50
50
49
48
47
47
46
45
44
43
41
38
37
35
32
29
26
24
23
23
24
29
35
41
48
54
58
59
59
58
55
53
50
49
48
47
47
48
50
50
51
51
51
51
50
49
47
45
43
40
38
35
32
28
25
22
19
17
13
11
8
6
4
2
0
0
0
0
0
0
5
13
23
35
45
54
60
62
62
61
59
58
56
55
53
51
49
47
45
44
44
44
44
44
43
42
41
40
37
35
33
31
30
28
26
24
21
18
17
16
16
15
14
14
13
14
14
15
16
16
16
15
14
14
17
23
32
41
51
59
65
67
68
68
67
64
62
60
57
54
51
50
49
48
49
49
50
50
49
47
46
44
41
40
39
38
38
38
39
39
40
40
40
39
37
35
33
31
28
26
24
24
22
20
19
17
16
16
18
22
29
38
47
55
62
65
66
65
64
64
60
60
60
55
53
53
49
48
48
48
48
48
47
46
46
45
45
45
43
42
41
40
40
40
40
39
39
38
36
33
31
29
27
25
23
23
21
20
19
18
16
14
12
10
7
7
8
12
18
26
35
43
49
52
53
53
51
49
47
46
44
42
40
40
39
39
39
39
39
38
36
34
32
30
29
27
26
24
24
23
21
21
19
19
18
18
18
18
17
16
15
13
13
13
14
16
17
18
18
18
17
18
21
26
33
40
47
53
58
59
59
57
54
51
49
46
44
42
40
39
39
38
38
38
37
37
36
36
35
35
34
33
32
30
29
27
25
25
24
23
23
22
22
22
21
21
20
20
20
19
18
16
15
13
13
16
21
29
38
47
54
59
61
60
58
56
53
51
48
45
43
41
40
40
39
39
39
38
38
37
35
34
31
29
27
25
24
24
23
23
24
24
24
24
24
23
22
21
21
21
20
19
19
18
17
16
15
15
17
20
26
34
41
50
57
62
65
65
63
61
58
56
53
50
47
45
44
43
42
42
43
43
42
42
41
40
39
38
37
36
34
33
32
31
30
30
29
29
29
28
27
27
26
24
23
23
23
23
23
23
23
23
22
23
25
30
30
41
47
47
55
56
56
53
51
51
45
42
42
38
37
37
38
39
39
40
40
39
39
39
40
40
40
41
40
40
38
36
34
32
30
28
25
23
21
19
18
17
16
15
15
15
15
15
14
12
11
11
12
14
20
27
37
46
55
63
68
69
68
66
64
61
58
56
55
53
52
51
51
52
52
52
52
52
51
49
47
46
44
43
42
42
41
40
40
40
40
40
39
38
36
35
33
32
31
30
28
27
26
25
25
26
30
35
41
47
53
57
60
61
60
59
58
57
55
54
52
50
49
48
47
47
47
48
47
47
46
45
44
43
42
42
42
42
42
42
42
42
42
42
41
40
39
39
38
37
37
36
34
33
31
30
31
35
40
48
56
65
71
75
77
77
75
73
71
68
66
63
61
59
58
57
57
57
57
56
55
54
53
52
51
50
50
50
50
49
49
48
48
47
46
45
45
44
43
42
41
40
40
40
38
37
35
33
32
32
35
40
48
56
64
70
74
75
75
74
74
69
67
67
62
59
59
53
51
51
51
50
50
49
47
47
43
41
41
39
37
36
35
34
33
32
31
29
28
25
24
23
22
20
19
18
17
17
16
16
16
15
14
13
14
17
23
31
40
48
55
60
63
63
63
62
61
60
58
56
54
51
49
46
45
44
43
43
43
44
46
47
47
48
47
46
45
42
40
37
34
31
29
26
24
23
22
21
20
20
21
22
23
23
23
23
22
23
27
33
40
49
58
66
71
73
74
73
71
69
67
64
62
61
60
59
59
59
59
58
56
53
50
46
43
40
39
38
38
38
37
37
36
36
36
35
34
34
32
30
28
27
26
25
24
24
23
22
21
20
20
19
18
18
21
27
35
43
52
60
66
69
69
67
64
62
60
58
57
55
54
53
52
52
52
53
53
53
52
52
50
49
47
45
44
42
41
41
41
41
42
42
42
41
40
37
33
30
26
22
20
17
15
14
13
11
11
11
11
13
16
23
30
37
44
50
54
56
56
56
55
54
52
51
50
48
47
46
47
48
49
48
47
44
41
39
36
33
31
30
28
26
24
23
22
22
21
20
18
17
16
17
17
18
19
20
20
20
19
17
16
15
14
14
16
21
27
27
42
50
50
60
62
62
59
56
56
51
48
48
44
44
44
43
44
44
46
46
47
47
47
46
46
46
46
46
46
46
45
45
44
44
42
40
39
36
33
30
28
27
25
23
22
21
21
21
22
26
31
39
47
55
61
65
67
67
67
65
64
63
62
61
59
58
57
56
56
55
55
55
55
54
54
54
52
50
47
43
39
33
29
26
25
25
25
27
27
26
25
23
22
19
17
16
14
13
12
13
15
19
26
34
43
51
59
64
67
67
66
65
64
63
62
61
61
60
60
61
60
61
62
62
62
61
59
57
55
53
50
48
46
45
43
40
39
37
34
30
26
23
19
16
13
13
13
13
13
12
12
10
10
11
15
21
29
38
46
52
57
60
61
60
59
57
55
54
53
51
49
47
46
46
46
45
45
44
42
40
39
37
35
34
31
29
27
25
24
23
22
22
21
20
18
17
17
17
17
17
16
14
13
13
14
16
21
28
36
44
53
59
63
64
61
58
58
50
46
46
44
46
46
52
56
56
59
61
61
59
56
56
49
45
45
40
39
39
39
39
39
40
40
40
38
35
32
28
24
20
17
15
15
15
17
21
28
37
47
56
64
70
72
73
71
69
67
65
62
59
57
57
55
54
52
52
52
50
49
47
45
43
42
42
41
40
39
38
35
33
30
28
25
22
19
16
14
13
13
13
13
12
12
13
14
17
21
28
37
46
56
64
69
71
72
71
69
69
68
67
67
66
65
63
61
59
57
56
54
53
53
52
52
50
49
48
46
44
43
42
41
40
38
37
36
33
29
27
25
23
21
19
18
15
14
14
16
23
30
39
49
61
72
79
83
86
87
86
84
82
78
75
73
70
68
68
68
69
71
71
70
69
66
62
58
55
52
48
46
45
42
40
40
39
36
35
35
33
32
32
32
31
29
27
26
25
25
27
32
39
46
55
63
69
73
75
76
75
74
71
67
65
64
63
62
63
63
64
63
61
59
56
53
50
47
45
43
42
40
40
38
36
34
31
29
27
25
24
24
23
23
33
39
47
54
59
61
61
59
56
54
52
51
48
45
44
43
42
41
41
42
42
42
41
41
41
40
39
38
37
36
34
33
31
29
27
26
24
22
19
16
13
11
10
10
14
20
28
37
45
54
61
66
68
67
66
62
59
57
55
53
52
50
50
51
51
52
52
52
52
51
50
49
48
47
45
43
41
40
38
36
36
36
36
35
35
34
32
30
27
25
23
20
17
14
14
15
19
24
32
40
49
55
58
60
59
58
56
55
53
51
48
45
43
41
40
40
40
40
40
39
38
37
35
33
31
29
26
25
25
24
23
23
23
21
19
17
15
13
11
9
8
8
7
7
6
6
5
4
4
5
9
16
25
34
43
51
57
59
60
61
61
60
59
58
57
55
53
52
51
51
51
52
52
53
53
53
52
52
51
49
47
45
43
40
38
35
32
30
27
25
24
22
20
20
19
18
17
17
17
18
21
25
30
37
43
51
57
61
63
63
63
61
59
57
55
52
49
46
43
41
40
39
38
36
35
34
33
32
31
30
29
28
28
28
27
27
25
24
23
23
22
21
23
23
22
22
20
19
19
17
16
16
19
23
23
38
46
46
63
69
69
68
64
64
57
53
53
48
46
44
43
42
42
41
40
38
37
34
31
28
25
23
22
20
18
17
16
16
16
16
17
18
18
17
16
15
14
14
14
14
15
15
15
14
13
13
14
15
19
24
33
41
50
57
62
64
64
62
60
57
55
53
51
50
48
47
46
45
45
45
45
44
43
41
40
38
37
36
34
32
30
29
27
25
25
23
22
20
17
15
13
12
11
10
9
9
8
8
7
5
5
5
5
6
9
16
24
34
43
53
60
63
64
62
60
56
55
53
50
48
46
43
42
42
44
45
47
49
50
50
49
48
47
46
45
44
43
42
41
41
40
40
39
39
37
36
34
32
31
30
29
29
28
26
25
24
23
23
24
28
34
40
48
56
62
66
67
68
67
65
63
60
58
55
53
50
49
48
48
48
49
49
49
49
49
49
48
47
45
44
42
41
40
39
38
36
34
32
30
28
26
24
24
23
23
22
21
20
19
18
19
21
27
37
46
56
65
73
78
79
78
77
76
74
72
69
67
64
62
61
60
60
61
61
61
61
60
59
57
55
52
50
47
45
43
42
41
40
40
39
38
36
36
33
32
32
29
28
28
24
23
23
19
19
19
27
35
35
54
64
64
73
74
73
71
68
65
61
57
54
52
50
50
51
52
54
55
55
55
55
54
53
52
51
50
48
46
45
44
43
41
40
40
38
36
34
31
28
25
22
20
17
13
11
8
7
9
14
23
31
40
49
56
60
61
61
59
57
55
53
50
47
45
44
44
44
45
46
46
45
44
42
41
40
38
36
33
31
28
27
25
24
23
23
22
21
20
19
19
19
18
17
15
14
13
12
12
11
11
12
15
21
29
38
47
55
61
64
65
65
64
63
61
60
58
56
55
53
53
51
51
50
49
49
48
47
46
45
44
43
42
42
41
40
40
39
38
36
34
31
29
27
25
24
23
22
21
20
22
26
33
42
51
61
68
72
73
73
70
67
65
62
59
56
54
53
52
52
52
54
55
56
55
54
53
52
50
48
46
44
42
41
40
38
37
35
34
33
32
31
30
28
26
24
23
22
25
30
38
38
57
67
67
79
82
82
80
78
78
73
71
71
67
65
65
64
64
64
65
65
65
63
62
60
58
56
54
52
49
47
46
44
43
42
41
40
39
38
36
34
32
30
28
25
24
25
27
33
40
50
59
68
75
79
80
80
78
76
74
72
70
67
65
63
61
61
61
60
59
58
56
53
50
47
45
43
40
38
35
33
31
29
27
25
24
22
21
19
17
16
14
13
12
11
11
12
14
19
26
34
42
51
58
63
66
66
66
64
63
61
58
57
55
53
52
51
51
51
51
51
51
50
49
48
46
44
42
41
40
38
37
35
34
32
29
27
26
24
24
23
23
23
22
21
21
21
21
23
28
34
41
49
57
63
66
67
66
64
61
58
56
54
52
52
52
52
52
52
52
52
51
50
48
46
44
42
41
39
38
36
35
34
32
30
29
27
26
24
22
21
19
17
16
15
13
11
11
13
17
24
33
43
52
61
67
69
71
70
69
68
66
65
63
60
59
58
57
56
56
55
55
53
51
49
47
44
42
40
39
37
34
33
31
30
29
29
30
30
29
28
27
26
26
24
24
23
22
20
19
18
19
22
28
37
46
56
64
71
74
74
74
72
70
68
65
63
63
58
57
57
56
56
56
55
55
55
51
48
48
43
40
40
36
34
34
30
29
28
27
27
26
24
22
20
18
16
14
12
10
7
5
2
1
0
0
1
6
13
22
32
40
47
51
53
52
50
48
46
43
41
40
38
36
35
35
35
35
35
34
33
31
29
28
26
25
23
21
20
19
19
18
18
17
15
14
13
12
11
11
10
10
9
8
7
6
5
4
5
8
12
19
28
36
45
52
56
57
57
56
54
52
50
47
45
43
41
40
40
40
40
40
40
40
39
39
38
37
37
36
36
36
35
33
32
31
29
27
25
23
21
20
18
16
15
14
13
13
13
15
18
24
31
40
48
56
62
65
66
65
64
61
59
57
54
52
50
47
45
44
42
41
40
40
40
38
37
34
32
29
27
25
24
23
23
23
22
22
21
20
19
18
18
18
18
17
17
15
14
14
13
12
13
17
23
31
40
50
60
67
70
71
69
66
63
60
56
54
52
50
49
48
48
47
47
47
47
47
46
44
44
41
40
40
36
35
35
32
31
31
28
26
26
23
22
20
19
18
17
16
16
16
15
15
13
11
10
10
12
17
25
34
44
54
63
69
71
71
69
66
62
59
55
52
50
48
46
45
44
43
42
41
40
38
36
34
32
30
28
25
23
22
21
20
19
18
17
17
17
17
17
16
15
13
12
12
12
12
12
11
10
9
7
7
8
12
19
28
38
48
56
61
64
64
62
59
56
53
49
46
43
40
39
38
38
38
39
40
40
40
39
38
38
36
35
33
33
31
30
29
28
28
27
26
24
22
20
19
19
19
19
19
19
18
18
17
17
19
24
33
41
50
59
65
68
68
66
64
61
58
55
52
50
48
47
47
47
47
48
48
48
48
47
46
44
42
41
39
37
36
35
35
34
34
33
31
30
28
26
25
23
23
22
21
20
19
18
18
18
19
23
29
38
46
57
66
72
75
77
76
74
71
68
65
62
58
56
53
51
50
50
49
49
48
47
46
44
42
40
39
37
36
35
34
33
32
31
30
29
27
25
24
23
23
22
22
22
21
20
19
18
18
20
23
28
36
45
55
64
71
75
76
74
72
69
65
62
58
55
52
50
50
47
47
47
46
45
45
44
42
42
40
37
37
36
35
34
32
32
32
30
30
28
27
26
24
23
23
22
22
21
19
18
16
17
19
23
30
39
48
57
65
69
71
70
67
64
60
57
54
52
51
50
51
52
53
55
56
58
58
58
58
57
55
53
51
48
46
44
43
41
40
39
37
34
32
30
28
27
26
25
24
23
21
21
22
26
33
41
52
61
69
75
77
76
75
73
70
68
67
65
63
61
60
58
58
59
59
60
60
60
60
58
56
53
50
47
43
40
37
35
32
30
28
25
24
23
24
25
26
26
26
25
23
21
20
21
25
32
42
55
68
79
87
91
91
88
86
82
78
75
71
67
63
61
61
60
61
62
62
63
62
60
58
55
52
49
45
42
40
39
38
37
37
37
36
35
34
32
30
28
26
24
22
20
18
17
16
18
23
31
40
49
59
65
68
68
64
62
60
57
55
52
51
48
47
46
45
46
46
47
46
46
45
44
41
39
37
37
33
32
32
31
30
30
27
26
26
21
19
19
14
13
13
12
11
11
9
8
6
5
6
9
17
26
37
47
57
65
69
70
69
67
64
61
59
57
56
54
53
53
52
53
53
53
53
52
51
48
46
43
41
39
37
35
34
32
31
29
27
24
22
20
19
17
16
15
15
14
14
14
15
16
22
29
40
49
60
69
75
77
77
76
74
71
68
65
62
60
58
57
56
56
56
56
56
55
48
45
43
43
39
37
37
32
30
30
27
25
25
23
21
21
19
18
18
17
16
16
15
13
12
13
17
25
36
47
58
68
74
78
79
78
77
75
72
70
67
66
64
64
63
63
63
63
63
62
61
59
57
54
51
46
44
42
40
39
37
35
33
31
29
27
24
22
20
17
14
12
11
10
9
7
6
4
2
0
1
4
12
22
32
43
53
61
65
66
65
64
61
58
54
51
47
44
43
42
41
42
42
43
43
42
42
40
38
36
34
31
29
28
27
25
24
23
22
21
21
20
19
17
16
15
14
14
14
13
12
11
10
10
13
19
27
36
45
53
60
64
64
64
62
60
58
55
52
50
48
48
48
49
50
50
50
50
49
47
45
45
40
38
38
32
30
30
26
25
25
20
18
18
16
15
15
11
11
11
10
10
12
16
23
32
40
50
60
67
70
70
69
66
64
60
57
55
54
53
52
51
52
52
52
52
52
51
49
48
46
44
42
40
40
38
36
35
33
31
29
26
25
24
23
22
21
19
19
18
18
20
24
32
40
50
60
68
74
76
75
72
70
67
65
64
62
61
59
59
58
57
57
56
55
54
53
51
49
48
46
44
43
41
40
39
38
37
35
34
32
30
28
26
25
24
23
21
20
18
16
16
19
25
34
43
53
62
66
68
66
63
60
57
54
51
49
47
44
42
40
40
40
40
40
40
40
39
38
37
37
36
34
32
30
28
27
26
25
24
23
22
21
20
18
16
16
15
14
14
13
14
18
24
31
40
48
54
59
61
62
62
60
59
58
56
54
53
52
51
52
53
54
56
57
57
56
54
52
50
48
47
45
43
41
39
37
35
34
32
32
31
29
27
25
23
22
21
21
23
28
28
42
51
51
65
69
69
70
68
68
64
61
61
56
55
55
53
52
52
52
51
50
48
47
45
43
41
40
38
37
35
35
34
33
32
31
29
26
24
22
22
20
19
18
17
17
17
18
22
27
35
44
54
64
71
75
77
76
74
71
68
65
64
62
60
59
58
57
56
56
55
54
51
49
46
43
40
39
37
36
35
34
33
32
31
30
28
26
25
24
22
21
20
18
18
17
17
17
17
17
16
15
16
21
28
37
46
55
62
66
68
68
67
65
62
59
56
52
48
45
42
41
40
39
37
35
34
31
29
28
26
24
21
20
20
19
19
18
17
17
16
15
15
14
14
13
13
12
11
11
11
11
11
11
10
10
9
9
11
14
21
29
38
46
54
59
61
61
59
56
53
50
46
43
41
40
40
40
40
41
42
44
45
46
47
47
46
44
43
41
40
37
35
33
31
29
28
26
25
25
24
23
23
23
22
21
20
18
18
18
20
25
31
39
46
55
62
67
68
68
66
64
61
58
56
54
52
51
50
50
50
50
50
49
49
48
47
46
45
43
42
41
40
40
39
38
36
34
33
30
28
26
24
24
23
21
20
18
17
15
16
17
22
29
29
47
57
57
71
73
73
70
67
67
61
59
59
54
52
52
50
50
50
49
48
46
46
45
43
42
41
39
37
34
31
30
27
26
24
22
21
20
18
16
14
12
12
11
10
10
9
9
10
13
20
28
37
45
53
59
61
61
59
57
55
53
50
48
46
45
43
43
43
44
44
45
45
44
44
43
41
40
39
37
36
35
35
35
34
34
32
30
28
26
24
24
23
23
23
24
24
25
26
28
33
39
47
54
62
69
72
73
72
71
69
66
64
61
58
56
54
52
51
50
50
49
47
45
43
41
40
39
38
37
37
36
36
35
35
34
32
31
28
26
25
24
24
23
22
21
19
19
20
24
31
39
49
58
65
70
71
71
68
66
64
63
61
59
57
56
55
54
53
53
51
50
49
47
45
44
43
41
40
40
38
37
36
36
35
34
33
32
30
28
27
26
25
24
23
22
21
19
18
19
23
30
38
46
54
61
64
65
63
61
58
55
52
50
47
44
43
43
41
41
41
41
41
41
38
38
38
35
33
33
28
25
25
21
19
19
16
15
15
15
14
13
13
11
11
10
10
9
8
8
9
13
18
27
34
42
50
55
58
58
57
55
52
50
47
45
43
42
41
41
41
41
41
42
42
40
40
38
36
34
33
33
32
31
30
29
28
27
25
24
23
22
22
21
21
21
20
20
19
20
21
24
28
34
41
49
56
62
66
67
66
65
63
60
57
54
51
48
46
45
44
44
44
43
43
42
40
40
39
37
36
34
33
32
31
29
28
27
25
24
23
22
21
20
18
16
15
14
14
16
19
26
34
42
51
60
66
69
70
68
66
64
61
58
57
55
54
53
51
50
49
48
47
46
45
44
42
42
40
38
37
35
34
35
35
35
36
36
36
34
33
31
29
28
27
25
25
24
24
25
28
33
40
48
56
63
68
70
70
68
66
64
62
60
57
55
54
52
51
51
51
52
52
51
50
49
48
46
46
45
45
44
43
42
41
40
39
38
36
34
30
26
23
20
17
13
12
10
9
8
8
11
15
23
32
41
49
55
58
59
57
55
52
50
48
46
44
43
41
41
40
41
41
42
42
41
40
37
35
33
31
31
28
27
27
26
25
25
24
22
21
18
17
17
15
16
16
16
15
15
15
16
19
25
33
42
50
58
62
64
63
62
60
57
54
51
49
47
46
46
46
46
47
48
47
47
46
45
44
42
41
40
39
37
35
34
33
33
32
30
29
27
25
23
21
20
18
17
16
17
20
26
34
43
52
60
65
68
67
65
63
61
59
57
54
52
50
48
48
47
48
48
47
46
45
44
42
40
38
36
34
32
31
31
31
30
30
29
28
27
26
24
24
23
22
21
20
19
18
18
20
25
34
42
52
61
68
71
71
69
66
63
60
58
55
52
51
49
48
47
47
47
47
47
47
46
44
44
42
41
40
40
39
37
36
36
36
36
35
34
32
30
27
25
24
22
21
19
17
15
16
18
23
30
38
46
54
59
61
60
57
54
50
46
43
41
39
37
35
35
34
34
34
34
34
33
31
30
29
27
25
24
23
21
21
22
21
21
20
19
18
16
15
15
15
15
15
14
14
10
9
9
10
14
14
29
39
39
55
58
58
58
56
56
49
46
46
41
40
39
38
38
39
40
40
41
41
41
40
39
37
35
34
34
35
35
36
37
38
38
37
35
34
32
30
27
25
23
22
20
20
21
26
33
41
50
59
65
68
69
69
67
65
63
60
57
53
50
47
45
45
45
46
46
46
46
45
44
42
40
39
37
35
32
30
28
25
24
22
21
19
17
16
16
17
18
19
20
21
21
23
26
32
40
48
58
66
72
75
76
75
73
70
67
63
59
56
53
51
50
49
49
49
49
49
48
47
46
44
42
41
40
38
38
38
39
40
40
40
40
40
39
38
36
35
34
33
30
28
25
24
22
22
24
29
36
45
53
62
68
71
71
70
67
64
61
59
56
54
51
49
49
49
49
50
50
50
48
47
45
43
41
40
38
36
33
32
30
28
27
26
25
24
24
23
22
21
20
19
18
18
18
18
18
17
17
18
21
28
36
45
54
61
66
68
68
67
65
63
60
57
54
51
49
47
46
46
46
46
46
46
46
45
44
43
42
41
40
40
40
40
40
40
40
40
39
38
37
36
35
34
32
31
30
29
27
25
23
22
22
25
31
31
47
56
56
68
70
70
67
64
64
58
55
55
50
49
49
48
48
48
52
53
54
54
53
52
51
50
48
47
46
45
44
43
42
42
41
40
40
39
37
35
33
31
29
27
26
25
25
23
22
20
18
18
21
27
36
47
57
67
74
76
76
75
74
72
69
66
64
61
59
57
57
56
56
57
56
56
55
53
51
49
46
44
42
40
39
38
37
36
35
34
34
32
31
29
28
26
24
23
22
21
20
20
19
18
17
16
16
14
13
14
17
24
33
42
52
60
66
69
69
68
65
62
59
56
53
49
46
44
44
43
43
44
44
44
44
43
42
40
39
37
35
33
32
30
29
28
28
26
24
23
21
20
19
19
18
17
15
13
13
12
12
11
10
9
8
7
9
12
19
27
37
47
55
62
66
66
65
62
58
55
53
51
49
48
47
48
49
50
53
52
49
46
44
40
39
37
37
36
35
35
34
33
33
32
31
30
29
27
26
25
24
23
21
20
18
16
16
15
16
19
26
33
41
52
61
69
72
74
73
71
68
65
61
59
56
54
52
51
51
51
51
51
51
50
49
47
44
42
40
37
36
35
35
34
34
33
32
31
30
28
27
25
25
24
23
23
22
21
20
19
17
17
16
16
16
18
25
33
42
52
61
68
72
72
70
67
64
61
58
55
53
52
51
51
51
52
53
54
54
54
53
52
50
48
46
43
41
40
39
38
38
37
36
34
33
31
28
25
24
22
20
18
17
16
16
16
16
15
13
11
9
9
12
17
25
34
43
51
58
62
62
60
57
54
50
47
44
41
39
38
36
36
35
36
35
35
34
34
32
31
29
27
25
23
23
22
20
19
19
18
17
16
16
15
14
13
11
12
12
12
12
12
12
11
10
9
8
9
13
20
29
39
49
59
66
69
70
69
66
62
58
55
52
50
49
48
48
48
50
51
52
53
53
53
52
51
49
47
45
43
41
40
39
37
35
33
32
30
29
28
26
25
24
24
24
23
23
22
21
20
19
21
24
31
40
50
61
70
76
79
78
76
73
70
67
64
61
59
57
56
55
55
55
55
55
55
54
54
52
52
50
49
48
48
45
44
44
43
42
42
40
39
39
37
35
35
33
31
31
27
25
25
23
21
21
19
19
23
31
40
51
62
72
78
82
83
82
80
77
73
71
69
67
66
65
66
65
65
65
64
64
63
62
61
59
57
54
52
49
47
46
45
44
44
44
43
42
40
39
37
35
34
32
31
31
30
28
26
24
22
19
18
21
28
38
49
61
72
79
84
85
83
81
77
74
70
65
62
59
56
54
52
52
51
51
50
50
49
48
47
45
43
41
39
37
36
34
34
32
32
30
29
27
26
24
24
23
22
21
20
19
18
17
17
18
19
21
26
33
41
51
61
70
76
79
79
77
75
71
67
64
62
59
58
56
56
56
57
57
57
57
56
55
53
51
49
47
46
45
44
43
42
41
40
40
38
36
34
31
29
27
25
24
23
22
21
19
17
16
18
23
32
42
53
64
73
78
81
81
80
79
77
75
73
71
70
68
68
68
68
68
67
66
65
63
61
58
56
54
52
50
49
48
48
47
46
46
45
44
44
41
39
39
35
34
34
33
31
31
28
26
26
24
24
28
34
42
52
63
74
81
85
87
86
85
83
81
78
76
73
70
68
66
65
66
67
67
66
64
62
60
58
55
53
50
48
47
46
45
44
43
42
40
40
38
35
33
31
28
25
23
22
20
18
16
13
11
9
8
8
11
17
26
36
46
56
61
66
68
68
66
64
62
59
56
54
51
50
49
50
51
53
54
55
55
55
53
52
50
48
45
43
40
39
38
36
34
33
31
29
26
25
23
21
20
19
18
16
16
15
14
14
12
11
11
13
19
28
37
47
57
65
69
71
72
70
68
65
62
58
55
53
52
52
53
54
55
55
55
55
54
53
51
49
47
44
42
40
39
37
35
34
33
31
29
27
25
23
21
19
17
15
14
13
12
11
9
8
10
13
20
30
41
53
64
71
76
77
77
75
73
72
70
69
68
68
68
68
67
67
68
69
70
70
68
67
65
62
59
57
56
54
50
46
41
38
33
28
24
23
20
18
15
13
11
11
11
12
13
12
12
12
11
12
15
22
31
41
54
66
76
82
84
85
85
84
81
78
75
72
68
66
64
63
63
62
61
61
59
58
58
53
50
46
43
39
39
34
32
32
30
29
29
27
26
26
24
23
21
19
17
15
14
11
8
5
1
0
0
0
0
8
17
29
41
54
63
70
73
74
73
70
66
63
58
55
53
52
51
51
52
53
54
55
55
54
51
48
44
40
36
34
33
34
35
37
39
40
41
41
42
42
42
41
40
40
39
36
31
26
21
15
11
7
5
3
3
4
7
12
19
29
39
48
55
59
59
57
54
50
46
42
38
36
33
31
31
31
33
34
36
37
37
35
33
30
28
25
23
22
20
18
17
15
13
13
12
13
13
12
12
12
13
13
14
14
15
15
15
13
12
11
11
11
13
20
29
40
53
67
77
82
83
81
77
72
68
66
64
63
61
60
59
58
57
57
57
57
56
55
53
51
48
44
40
37
34
32
31
29
27
26
25
25
24
24
23
22
19
17
16
14
13
13
13
11
10
9
8
6
5
5
6
8
13
22
33
45
57
66
72
72
73
70
70
63
60
60
56
53
53
45
41
41
35
32
32
29
28
28
27
28
29
29
30
31
32
31
30
29
28
27
26
24
21
18
15
12
9
7
4
2
0
0
0
0
0
0
0
1
3
6
10
17
27
38
48
58
66
71
72
72
71
71
70
68
67
65
63
61
59
58
57
57
58
58
58
56
54
50
46
41
38
36
33
31
29
28
27
25
24
23
22
21
20
20
20
19
19
19
18
18
17
15
14
13
13
15
19
26
35
44
54
63
68
71
70
68
64
60
56
51
48
46
43
42
41
42
43
44
44
45
44
42
40
38
36
34
32
30
28
26
24
23
23
23
22
21
21
19
18
18
18
18
18
17
15
14
13
13
15
20
28
38
48
60
70
75
77
75
72
68
65
62
60
58
56
54
52
50
49
49
49
49
48
48
48
47
46
45
43
41
40
40
38
37
36
35
33
32
31
30
28
26
25
24
23
22
21
19
17
15
15
15
19
26
37
48
60
72
80
83
82
78
73
68
64
61
58
56
54
53
52
51
50
49
49
48
46
44
42
40
40
38
37
37
36
36
35
34
33
31
30
27
25
24
22
21
19
17
15
15
14
12
10
10
5
2
2
2
7
7
26
38
38
59
66
66
69
67
67
61
58
58
53
52
51
50
50
50
51
52
53
54
55
55
55
55
54
53
53
51
49
47
46
45
43
41
40
37
35
32
31
29
28
26
25
24
23
21
19
17
16
15
17
23
31
41
53
64
73
79
81
82
80
77
74
70
67
63
60
58
55
54
53
53
53
53
53
53
51
49
46
42
39
36
33
31
28
27
26
25
24
22
21
20
19
18
18
18
17
16
14
12
10
8
6
5
7
11
18
28
39
50
60
68
71
72
70
66
63
60
57
55
53
52
51
51
52
53
54
55
55
54
53
52
51
50
47
44
42
40
38
37
35
33
31
29
26
24
23
21
19
17
16
15
15
15
15
15
14
13
11
12
14
19
27
37
49
61
71
78
81
82
81
78
74
69
65
61
57
55
54
54
55
55
55
55
55
54
52
50
47
45
43
41
39
38
36
34
33
32
31
30
29
29
27
26
24
23
21
18
18
13
10
10
5
4
4
5
9
9
28
39
39
60
66
66
69
68
68
64
62
59
57
55
54
54
54
55
58
59
60
62
62
62
61
58
55
51
47
44
41
39
37
36
34
33
32
32
31
30
29
27
26
25
24
22
21
20
19
19
19
21
26
34
42
52
62
70
75
76
74
72
68
64
61
58
55
53
51
50
49
49
49
49
50
51
51
51
50
49
48
47
45
44
43
42
41
40
39
38
36
34
32
30
28
25
24
22
20
18
16
16
16
19
26
37
48
61
72
80
85
86
85
83
79
75
72
70
68
66
64
63
62
62
62
62
61
59
57
55
54
52
50
48
46
44
43
41
40
40
39
37
35
34
32
30
28
27
25
23
21
19
16
14
12
12
14
20
29
40
52
64
74
81
83
82
79
75
72
68
65
63
61
60
58
58
58
58
57
57
56
54
53
51
49
47
45
43
41
39
38
37
36
35
35
33
30
27
24
21
18
15
12
10
9
7
6
6
5
4
5
9
17
27
40
53
65
74
78
79
77
74
70
67
64
61
58
57
55
54
53
54
54
55
55
55
55
53
51
49
46
42
40
38
36
34
32
31
30
28
26
24
23
21
21
19
18
18
16
15
15
15
15
15
17
23
23
41
51
51
70
74
74
75
72
68
63
59
55
52
50
50
50
51
52
54
56
56
56
54
52
50
48
46
44
42
40
39
35
33
30
26
23
19
16
13
11
9
7
5
4
3
3
3
6
12
22
34
45
57
67
74
68
65
65
56
53
52
49
49
48
51
52
51
52
51
50
48
46
44
41
39
36
33
31
29
27
25
24
24
23
22
21
20
19
18
17
17
17
16
15
13
12
11
11
14
21
31
43
56
69
80
86
89
87
85
81
77
75
72
71
69
68
65
63
63
62
61
61
60
58
56
53
50
47
45
43
41
39
37
35
34
33
33
32
31
29
28
26
24
22
19
17
14
12
10
8
5
4
2
0
0
0
0
7
17
30
43
57
69
77
81
80
77
73
69
65
62
59
56
53
50
49
48
47
47
46
46
45
43
42
41
40
39
37
35
34
34
33
33
33
33
32
30
29
27
25
25
22
20
20
17
15
15
13
12
12
10
10
10
18
28
28
52
64
64
81
84
83
80
75
70
66
63
60
57
56
55
55
55
56
57
57
56
54
50
47
43
40
39
36
35
33
30
28
26
24
23
22
20
19
18
17
16
17
17
17
17
16
14
12
11
12
15
22
33
45
58
72
81
87
88
87
83
79
76
72
68
65
62
60
58
57
57
57
57
57
57
57
55
53
50
47
44
40
39
37
36
34
32
31
29
27
25
24
23
21
20
19
18
16
15
15
13
13
13
15
21
31
43
56
68
78
84
86
85
82
78
74
70
66
63
61
59
57
56
56
56
56
55
54
53
52
50
47
44
40
38
36
34
31
28
25
23
20
17
15
14
14
14
13
13
11
9
6
3
1
1
4
11
20
31
43
55
64
69
71
70
69
67
65
63
61
60
59
57
55
53
52
51
50
49
47
44
43
41
39
36
34
32
29
27
26
25
24
23
21
20
19
19
18
17
16
16
15
15
16
17
20
27
35
43
53
61
68
71
71
70
67
63
60
56
52
50
49
48
47
48
49
50
50
49
48
47
46
44
42
40
39
37
35
33
32
30
29
27
26
24
22
22
20
20
17
16
16
18
23
32
40
50
50
68
72
72
71
68
68
61
58
55
53
51
50
48
47
46
46
45
45
45
44
42
40
39
37
34
33
31
30
30
29
28
27
25
24
23
23
22
21
20
19
18
17
18
21
26
34
43
53
63
71
74
75
74
71
67
64
60
58
56
54
53
51
51
51
51
51
50
49
47
44
42
40
38
36
34
31
28
26
24
22
21
20
19
17
16
16
15
14
13
11
10
8
7
8
12
19
28
39
50
59
66
69
70
68
64
61
57
54
52
50
48
46
44
43
41
40
40
38
37
35
34
32
29
27
25
24
23
22
22
21
21
21
19
18
18
18
17
17
15
14
13
12
11
10
9
9
10
14
20
29
38
47
55
59
61
61
59
55
51
49
46
44
42
41
41
41
43
45
46
48
49
50
49
48
47
46
45
43
42
40
39
38
36
36
34
32
31
30
29
29
27
25
24
23
23
23
26
31
39
46
55
61
67
71
71
68
65
65
58
55
55
50
48
48
45
45
45
46
46
46
44
43
43
38
36
34
32
30
29
28
27
25
24
23
22
21
19
18
17
16
16
15
14
13
12
11
12
17
26
35
45
55
62
65
66
65
63
61
59
56
54
52
50
48
46
45
44
44
43
41
40
39
38
36
34
33
31
30
28
26
25
24
23
22
21
18
15
14
13
12
11
11
11
10
10
9
9
9
12
17
24
33
42
52
60
66
68
67
65
62
61
58
55
52
50
47
44
43
43
43
43
43
43
42
41
40
39
37
34
32
29
27
25
24
23
22
21
19
18
16
15
14
13
12
10
9
8
7
5
4
6
9
15
24
33
43
52
59
61
62
60
58
54
50
48
45
42
39
38
36
36
36
37
37
36
35
34
34
33
33
32
32
31
30
28
26
24
23
22
20
19
18
17
17
17
19
20
21
22
23
24
26
30
37
43
51
57
62
64
64
61
58
53
50
46
43
40
38
36
35
35
35
36
36
35
34
32
30
28
26
25
25
25
25
25
26
26
25
24
23
22
21
20
20
19
17
15
14
15
19
26
36
47
58
67
73
75
75
73
69
64
60
56
52
49
46
44
42
42
43
44
44
46
47
47
47
46
46
43
40
40
37
34
34
30
29
29
26
25
25
25
25
24
24
23
23
24
27
33
41
50
59
67
72
74
73
70
67
63
59
54
50
46
43
41
40
40
39
38
36
34
32
30
28
26
24
22
20
18
15
12
11
9
8
7
6
7
7
8
9
10
12
14
15
18
23
30
40
49
59
67
70
70
68
64
60
56
53
50
47
43
40
39
38
37
37
36
36
35
34
32
29
27
25
24
23
21
20
18
17
16
15
15
15
14
13
11
10
10
11
13
19
27
37
47
57
66
71
73
72
69
64
59
55
52
50
47
45
44
44
45
46
47
47
47
46
43
41
39
36
33
30
28
26
25
24
23
23
22
21
20
19
18
18
20
23
29
37
46
55
64
70
73
72
70
67
63
59
55
54
52
50
49
49
49
50
51
52
52
52
52
50
49
47
44
43
41
40
40
40
40
39
39
38
36
33
30
27
25
23
23
25
30
38
47
47
65
71
71
74
72
72
65
61
61
53
50
50
45
44
44
45
47
47
50
51
51
50
49
48
46
45
44
42
41
40
40
39
37
36
34
31
29
26
24
22
21
20
21
24
30
37
46
56
63
69
71
71
69
66
63
60
56
52
47
43
40
36
33
31
30
28
26
22
19
17
15
12
10
10
10
10
11
11
11
10
9
7
5
4
3
4
5
5
5
5
5
7
12
21
31
40
50
59
63
65
64
61
57
53
49
46
43
40
39
37
36
36
37
37
37
37
36
34
33
32
31
31
31
32
32
33
33
33
33
32
32
31
31
30
29
29
28
27
27
28
31
37
43
51
59
66
70
71
69
66
61
57
53
49
45
43
42
42
42
43
44
45
46
46
44
42
40
39
37
36
35
34
33
31
29
25
22
19
16
14
12
10
8
5
3
1
0
0
3
12
22
35
47
58
66
70
71
69
66
62
59
56
53
51
49
48
48
49
50
50
50
50
49
47
46
44
43
41
40
39
37
36
36
35
32
30
28
25
24
22
21
19
17
15
13
13
14
19
26
34
42
51
58
63
64
63
61
59
56
54
51
49
46
44
43
42
42
41
41
41
40
40
38
38
35
33
33
30
28
28
25
23
23
20
18
18
18
18
18
14
13
13
12
12
13
16
23
31
40
48
57
63
67
68
67
64
62
60
58
56
54
52
51
50
51
52
53
54
54
53
52
50
48
46
44
42
40
39
38
37
35
33
31
29
26
24
22
20
18
17
17
16
18
22
30
39
48
58
66
70
71
69
66
63
60
57
55
53
51
49
48
47
47
47
47
47
46
44
41
40
39
37
35
34
33
31
30
29
28
27
26
25
24
24
23
23
23
23
22
21
19
19
19
23
28
36
45
55
65
72
75
76
74
71
68
65
62
59
57
54
52
50
49
48
47
47
46
45
43
42
41
39
37
35
34
32
32
32
31
31
30
29
28
27
27
25
24
24
22
21
19
17
16
15
15
18
24
31
39
47
55
60
62
62
60
57
54
51
47
44
42
40
37
36
35
34
34
33
32
31
31
30
29
28
27
26
25
24
24
23
22
22
21
20
18
17
17
17
16
16
16
13
12
12
10
10
10
11
15
15
29
37
37
52
56
56
57
55
52
49
47
45
42
40
39
38
37
38
40
41
43
45
46
46
46
45
44
44
43
41
41
40
39
37
36
35
33
31
30
28
25
23
21
19
16
15
15
17
23
31
40
50
59
66
70
72
72
70
69
66
64
62
61
59
56
55
53
52
51
49
48
47
45
42
39
35
31
27
25
24
23
23
22
21
20
19
18
17
17
17
17
17
17
17
16
16
17
19
24
32
41
52
63
72
76
78
77
76
74
72
69
67
65
62
60
58
58
58
58
58
58
57
55
54
51
49
48
46
44
43
43
42
41
40
40
40
39
38
36
35
34
32
31
29
27
25
24
23
24
27
33
40
50
58
67
73
76
77
75
73
70
67
64
61
59
56
54
52
50
49
48
47
46
45
42
40
39
37
34
33
33
32
32
32
32
32
32
31
29
27
25
24
23
21
20
19
18
16
15
14
13
27
36
44
53
59
64
65
65
63
59
56
53
47
45
44
42
42
42
43
44
45
46
47
47
47
46
46
45
45
45
45
45
45
45
45
44
42
41
39
37
35
34
32
31
30
28
26
24
23
23
25
29
35
43
52
64
70
71
71
71
68
68
63
60
60
56
54
53
51
50
49
47
47
46
45
43
41
40
38
36
34
32
31
31
30
29
28
27
25
24
22
20
19
17
16
14
14
13
13
15
18
23
32
41
51
61
70
74
76
75
73
70
68
65
62
60
57
54
53
51
51
50
51
50
49
47
45
44
42
40
40
39
38
37
36
35
34
33
32
30
29
27
26
25
24
24
23
22
21
21
22
27
34
42
51
59
66
69
70
69
69
68
66
64
62
60
57
55
52
50
49
47
46
44
42
40
38
35
33
31
29
27
25
24
19
18
17
16
16
15
17
16
15
14
12
11
10
9
8
7
7
10
16
23
32
41
49
54
58
58
57
55
52
49
47
45
42
41
40
39
40
40
40
41
41
40
40
38
37
35
35
35
36
37
38
38
38
37
36
33
31
29
26
24
22
21
19
18
16
17
19
23
32
40
49
57
64
67
67
65
65
58
55
55
50
49
49
48
48
48
51
52
52
52
50
50
47
44
44
40
38
38
37
36
36
35
34
33
33
32
32
31
30
29
27
25
22
22
24
29
37
46
57
66
73
77
77
76
74
71
68
66
64
61
60
58
58
57
58
58
58
57
56
54
51
48
45
42
40
39
37
36
34
32
31
30
29
27
26
25
24
23
22
21
19
18
17
19
23
30
39
49
59
67
72
74
73
71
69
66
64
62
60
58
57
56
55
54
53
51
49
46
41
39
35
32
28
25
22
20
18
16
15
15
16
17
17
17
16
14
12
11
10
9
8
7
6
6
6
8
14
21
31
40
50
57
61
62
61
58
55
52
50
48
46
45
44
44
45
46
47
47
47
47
47
46
45
43
42
41
40
40
40
40
40
40
39
37
35
32
30
26
24
21
18
16
13
13
13
15
20
27
35
43
50
54
55
54
51
48
45
42
39
36
35
34
33
34
35
35
36
36
35
34
33
31
29
27
25
24
23
23
22
20
19
17
15
14
13
12
10
8
5
3
1
1
4
10
18
29
40
51
60
66
69
70
68
66
63
60
58
56
54
53
50
51
52
53
54
54
55
55
54
53
53
49
48
48
44
42
42
40
39
39
36
34
34
31
28
28
25
23
23
21
20
19
20
23
30
38
48
58
68
75
78
80
80
77
75
72
69
66
62
60
58
57
56
56
57
57
57
57
55
53
50
46
42
39
35
32
28
26
24
23
22
20
19
19
18
18
17
16
15
13
11
11
12
17
23
32
42
52
61
67
70
70
69
68
65
63
60
58
54
52
50
50
49
49
49
49
49
47
46
46
46
46
45
44
43
41
40
38
35
33
31
28
26
25
24
24
25
25
25
24
24
25
29
35
42
50
57
63
67
68
67
65
63
60
57
53
50
49
48
48
49
51
52
52
51
50
49
47
45
43
42
40
39
37
36
34
32
29
27
24
22
19
17
16
15
13
13
12
12
17
23
33
43
53
62
67
71
71
71
69
67
65
62
60
58
57
57
57
58
59
60
60
59
58
56
53
51
48
46
44
42
41
40
38
37
34
33
31
29
27
25
24
23
22
21
19
17
17
15
16
16
27
37
37
56
65
65
71
70
70
65
62
62
57
54
54
51
53
55
58
62
65
66
65
61
57
52
48
45
43
41
40
37
35
32
29
26
24
22
20
18
16
15
15
14
14
14
14
13
12
15
21
29
39
49
59
66
70
71
70
67
65
61
58
56
53
51
48
48
49
50
52
54
55
56
56
53
51
49
47
43
40
38
36
35
33
33
31
29
27
25
25
24
25
25
24
23
22
20
20
20
21
25
32
41
51
61
70
76
78
78
76
73
69
66
63
60
57
54
53
52
51
51
50
48
45
41
39
36
32
29
26
24
24
23
22
22
21
20
19
18
17
17
16
16
14
12
11
11
12
15
21
29
39
49
59
68
73
75
74
72
69
65
62
59
55
53
51
50
50
51
51
50
49
48
46
44
42
40
38
35
34
32
31
30
30
29
28
27
26
25
25
24
24
23
22
20
19
17
17
18
23
30
40
50
61
69
74
75
74
72
68
65
61
57
52
49
46
45
44
44
45
46
46
45
45
43
41
39
37
36
34
33
31
29
26
24
22
21
19
18
16
15
14
12
10
8
6
4
1
0
1
4
11
20
31
42
53
61
66
68
68
65
62
62
55
51
51
44
42
42
40
39
39
39
39
39
37
34
34
29
27
25
24
23
21
20
19
18
17
15
12
10
7
6
4
3
3
1
1
1
1
4
9
18
29
40
52
63
71
75
75
73
69
64
59
54
52
49
48
47
47
48
49
51
53
55
55
54
53
53
52
50
49
48
47
46
44
42
40
39
37
36
34
31
28
26
25
25
28
35
44
55
66
76
82
85
84
81
78
75
72
70
67
66
64
63
63
63
65
66
66
66
65
63
60
57
55
52
50
48
46
44
43
43
42
41
40
37
34
31
27
24
21
19
19
22
29
38
48
60
70
76
81
82
81
78
76
72
68
64
61
59
56
54
53
52
51
50
49
47
45
43
41
40
38
37
35
33
31
29
28
26
25
23
22
22
21
20
20
20
18
16
15
15
18
25
34
45
56
66
74
77
78
77
74
71
68
63
59
55
53
50
48
47
47
45
45
43
41
39
36
33
29
26
26
23
22
22
20
19
19
17
16
16
15
14
14
11
9
9
6
5
5
7
11
19
28
38
47
55
59
61
61
58
55
52
49
46
43
40
39
38
38
39
40
41
42
42
41
40
40
38
36
35
35
35
34
34
35
34
33
32
31
30
28
27
25
25
24
23
23
24
27
33
40
49
58
65
71
73
72
70
67
63
59
55
52
49
46
44
43
43
44
44
44
44
43
42
40
39
37
35
33
32
31
30
29
28
26
25
24
23
21
20
18
17
15
15
15
16
20
26
35
45
56
66
74
77
79
78
76
73
70
68
65
63
61
59
57
56
57
57
57
56
55
53
51
48
46
44
42
41
40
39
38
36
35
34
32
30
28
25
24
23
22
21
20
19
18
17
18
20
26
35
45
56
67
75
79
80
77
74
71
67
65
63
60
57
55
53
51
50
50
49
49
48
47
45
43
41
40
37
35
33
31
28
26
23
21
18
15
12
11
9
8
7
7
6
4
3
2
3
5
10
16
26
35
43
51
56
58
58
55
52
48
43
40
36
33
31
31
30
30
28
27
26
25
23
21
19
17
15
14
13
12
11
11
11
10
10
10
10
10
9
9
9
9
10
10
10
11
11
14
17
17
30
37
37
52
58
62
62
61
61
54
50
50
43
41
39
38
38
38
39
40
40
40
39
37
35
33
32
32
32
32
32
33
33
33
32
31
29
27
25
24
23
22
21
19
18
18
18
20
26
35
44
54
64
70
74
75
73
71
68
66
63
62
59
58
56
55
53
53
52
52
51
50
50
49
47
45
43
42
41
41
40
40
40
40
38
37
35
33
32
31
29
28
26
25
24
23
23
25
29
36
45
55
64
72
76
78
77
74
71
68
64
60
57
55
53
53
53
52
52
51
50
49
47
46
44
43
42
40
39
37
36
34
32
30
28
26
23
20
17
14
11
9
7
4
2
1
0
0
0
3
10
19
29
39
48
55
58
59
58
56
53
50
47
43
40
39
38
37
37
37
37
37
36
34
32
30
27
25
23
21
20
18
17
16
16
17
18
19
20
20
20
20
20
20
19
19
19
20
20
23
28
35
42
51
59
65
68
68
66
62
62
54
50
50
47
45
45
44
44
44
46
46
46
45
44
44
42
40
39
38
37
36
35
34
34
33
32
30
29
28
27
25
25
23
22
20
18
19
22
30
39
48
60
68
74
76
76
76
74
72
70
67
64
62
60
58
57
56
56
57
57
57
56
55
53
50
48
45
43
41
40
40
38
37
36
34
33
31
30
29
27
25
24
23
22
21
22
24
30
38
47
56
65
72
75
76
66
64
61
59
56
53
51
50
49
48
46
44
42
40
37
35
33
32
30
29
29
28
28
27
26
24
23
21
19
17
16
15
14
13
13
12
12
12
14
19
26
34
42
50
56
58
57
55
53
51
48
45
43
42
41
41
43
44
46
48
49
50
50
51
51
50
50
50
50
50
50
49
48
46
44
42
40
37
35
33
29
25
23
21
21
22
26
32
40
49
57
64
69
70
69
67
64
61
58
56
54
52
52
51
52
53
54
55
56
55
53
52
49
47
44
42
40
39
38
37
37
36
34
33
32
30
29
27
25
24
23
22
21
20
21
25
32
40
50
61
69
75
78
78
77
74
71
68
65
62
59
57
56
55
55
54
54
53
53
50
47
47
43
42
42
40
38
38
36
33
33
30
28
28
25
24
24
23
22
21
20
21
20
20
21
23
28
35
43
53
61
69
73
74
72
69
66
62
59
56
54
54
53
53
53
54
54
54
53
52
50
47
44
41
38
35
32
29
26
24
23
22
20
19
18
16
15
14
13
12
11
9
8
7
5
2
0
0
0
0
0
6
16
27
38
47
54
57
57
56
53
50
47
45
42
40
37
34
33
32
33
34
35
36
36
36
36
36
34
33
32
31
30
30
29
29
29
28
27
26
25
25
23
22
21
19
18
16
16
15
13
12
12
14
20
28
38
47
56
61
64
64
63
61
58
55
52
49
47
46
46
46
47
47
48
48
47
46
44
42
40
39
37
36
35
34
34
33
32
31
29
28
26
24
24
23
22
21
20
19
18
17
17
16
15
15
15
18
25
34
45
57
67
74
78
79
77
74
70
66
61
58
54
52
51
50
50
50
51
50
49
48
45
42
38
38
31
27
27
19
14
14
8
6
6
4
3
3
2
2
2
2
2
2
0
0
0
0
0
0
4
12
22
33
43
52
57
59
58
56
54
52
50
47
44
41
40
39
38
38
38
37
36
35
33
30
27
25
23
22
21
21
21
23
23
23
23
23
23
23
23
23
24
23
23
22
22
22
24
29
35
43
52
61
67
71
71
69
66
63
59
56
52
49
47
46
45
45
45
47
48
49
48
47
45
43
40
39
37
36
35
35
34
33
32
31
30
30
30
30
30
30
28
26
25
25
26
30
37
45
56
66
74
78
80
78
75
71
68
66
63
60
57
54
52
51
51
51
51
51
50
49
47
45
44
43
41
40
40
39
37
36
36
34
31
28
25
23
20
18
16
14
13
13
13
16
23
31
39
47
55
60
62
61
58
54
50
47
43
40
37
35
34
34
35
36
37
38
38
38
37
36
34
31
29
27
25
24
24
24
24
24
24
23
23
22
21
20
19
18
17
16
17
21
28
35
42
49
54
56
56
55
53
50
47
44
41
39
38
38
38
40
41
43
44
46
47
47
46
46
45
45
44
43
42
41
40
39
36
34
31
28
26
24
23
21
21
21
23
23
33
40
40
54
59
59
58
55
55
52
50
50
51
51
51
51
51
52
52
51
50
49
48
45
44
42
41
41
41
43
43
44
44
43
42
40
38
36
34
32
30
28
26
25
24
24
26
31
39
47
56
64
71
75
75
74
70
67
64
62
59
57
56
54
53
52
52
52
51
51
50
48
46
43
41
40
38
37
36
35
34
32
31
29
28
26
25
24
23
22
21
20
20
19
18
18
18
18
19
23
29
37
46
54
60
63
64
62
58
55
50
47
44
41
38
35
33
32
31
31
31
30
30
28
26
25
24
23
21
20
19
17
16
16
16
17
17
17
17
16
15
14
13
12
12
11
10
9
7
6
6
6
9
16
24
32
40
49
55
57
57
55
52
50
49
47
45
43
42
42
42
43
45
47
49
50
51
51
51
50
49
48
47
45
44
43
42
42
42
41
40
39
37
35
33
32
30
29
26
24
23
21
20
19
21
26
33
41
50
59
59
69
71
71
69
66
66
62
61
61
58
57
57
55
54
54
53
52
52
49
47
45
43
42
41
40
40
40
40
40
40
40
38
36
34
31
28
25
24
22
21
21
22
22
23
23
24
23
23
24
27
33
41
51
61
70
76
79
79
76
73
71
67
65
63
60
58
56
54
53
53
52
52
52
51
50
50
49
48
46
45
45
44
43
41
40
39
37
35
33
30
27
24
22
20
18
17
15
14
13
11
9
8
7
7
10
17
26
36
46
54
58
59
58
55
52
49
47
44
42
41
40
40
40
40
41
42
43
43
43
43
42
40
39
37
35
33
31
29
27
25
22
21
19
16
14
12
11
10
10
9
9
9
10
10
11
13
16
23
32
40
51
60
67
71
71
69
65
61
57
53
50
47
45
44
43
44
45
45
47
47
47
47
45
43
40
39
37
34
32
31
29
27
26
24
23
22
20
18
17
15
15
14
14
15
17
23
31
40
50
59
66
70
71
69
65
61
57
53
49
46
43
41
40
39
39
37
38
38
38
38
37
36
33
30
28
25
23
22
21
19
17
15
13
12
10
8
8
8
9
10
12
14
17
23
32
42
54
64
72
76
77
74
70
70
62
58
58
54
52
52
50
49
49
48
48
48
49
49
49
47
46
43
41
38
36
34
33
31
28
25
23
22
20
19
18
17
16
16
16
16
18
21
26
34
43
52
61
68
73
73
72
68
64
60
56
54
51
50
48
47
46
46
47
48
49
49
49
48
48
46
45
45
45
46
46
47
48
47
46
43
40
37
33
30
27
25
25
25
26
27
29
32
38
43
51
59
65
68
69
67
65
63
60
58
55
54
53
52
52
52
52
54
55
55
54
53
51
48
44
41
37
34
31
28
24
21
18
15
12
11
11
11
11
11
10
10
10
12
18
26
36
45
56
64
69
70
68
64
58
52
47
45
43
43
44
45
47
49
51
52
52
50
47
43
40
39
38
37
37
38
39
40
40
41
42
42
41
41
40
37
34
30
27
24
24
25
31
39
48
59
69
76
81
82
81
76
72
68
64
62
60
59
59
57
57
56
55
54
52
49
46
42
40
40
39
38
38
38
35
33
33
29
27
27
24
23
23
21
20
20
18
18
18
20
21
21
30
38
46
54
61
66
69
68
67
65
63
60
57
55
52
50
48
47
46
46
46
46
46
44
43
41
40
38
36
34
32
31
29
27
25
24
24
22
21
21
20
20
19
20
19
18
17
16
14
13
16
22
30
39
49
57
61
62
62
61
58
55
53
52
50
49
48
49
50
51
53
55
56
56
55
53
51
49
46
43
41
39
37
37
37
37
38
37
35
34
32
30
28
25
24
22
21
22
25
32
40
50
60
69
74
77
77
76
72
69
65
61
59
57
55
54
53
53
53
53
53
52
51
49
47
44
41
39
37
35
33
32
31
30
29
29
27
26
25
25
25
24
23
22
22
21
20
21
25
32
40
49
59
67
72
75
75
73
70
67
64
61
58
55
52
50
49
48
48
47
47
46
45
43
41
39
37
35
34
33
32
31
30
28
26
25
23
21
20
18
17
16
15
13
11
9
8
9
14
21
30
39
48
55
58
59
57
55
53
51
48
45
43
41
40
40
40
40
41
41
41
40
40
38
36
33
31
28
25
24
24
23
23
23
22
21
19
18
17
17
15
14
14
12
12
12
16
21
21
36
45
45
62
66
66
65
62
62
55
54
54
52
52
52
53
54
55
54
54
53
52
50
48
47
45
43
41
40
38
36
34
33
32
32
31
30
28
26
24
22
20
18
16
17
19
25
34
44
54
63
70
73
72
71
68
65
63
61
58
55
52
49
47
45
44
43
43
42
40
39
36
34
31
29
27
26
25
25
25
25
25
24
23
23
21
21
21
21
21
19
19
18
16
16
19
26
34
44
53
61
67
70
69
67
64
61
59
57
55
54
51
50
49
49
49
50
51
51
51
49
48
46
44
42
40
40
38
37
35
34
32
31
30
29
27
25
24
22
20
18
15
13
11
9
7
8
12
19
27
36
44
50
53
55
55
53
51
48
46
43
40
38
36
34
33
33
33
33
33
33
32
31
29
27
25
23
22
20
18
16
14
13
13
13
15
17
17
18
19
19
18
17
16
16
17
18
22
26
32
70
73
74
72
69
66
62
59
57
55
54
52
51
51
50
50
49
48
46
44
42
40
38
36
35
34
32
31
30
29
28
27
27
25
25
24
23
22
21
20
20
20
21
24
31
39
47
57
65
70
72
72
70
67
63
57
55
53
53
52
52
52
52
52
52
52
52
51
50
49
46
44
42
40
39
38
37
37
35
34
32
29
27
25
24
24
24
23
23
22
21
21
21
23
29
38
47
58
68
75
79
79
77
75
72
68
65
62
59
57
56
55
55
54
54
54
52
51
49
47
46
44
43
41
40
39
38
37
36
35
33
32
31
30
28
27
26
25
24
22
20
17
14
12
13
17
24
33
41
50
57
61
62
61
59
57
54
51
48
45
41
40
38
37
37
36
36
36
36
35
33
31
29
28
27
26
25
25
24
23
22
20
18
16
14
12
10
9
8
6
5
3
2
3
5
10
16
25
35
44
53
60
63
64
63
60
56
52
49
46
45
44
43
44
45
48
49
50
51
51
49
47
43
41
40
39
38
38
38
39
38
38
37
36
35
34
32
30
28
27
26
25
26
29
35
42
51
60
67
72
74
74
73
71
68
66
63
59
56
54
53
52
52
52
52
53
52
52
50
49
49
46
45
45
43
41
41
37
34
34
30
28
28
25
23
23
20
19
19
20
22
27
35
44
54
63
72
77
78
78
76
74
71
68
65
62
60
58
57
57
56
56
55
55
53
51
49
46
43
42
40
38
37
36
35
34
33
33
31
30
28
27
26
25
24
23
22
21
21
23
28
35
43
53
62
70
74
75
74
71
67
64
61
57
55
53
51
50
49
49
49
48
48
46
45
44
42
41
40
38
36
36
35
34
34
33
32
30
28
25
24
23
21
20
17
15
13
10
8
9
14
20
29
39
48
55
59
61
61
60
58
56
53
51
49
46
45
44
44
44
43
42
41
41
41
41
42
42
42
42
42
42
41
40
40
38
35
32
29
26
24
22
21
19
18
17
17
18
22
29
37
46
55
63
68
69
69
67
65
63
61
58
57
55
53
52
52
51
51
50
49
47
45
42
40
38
36
32
29
26
24
22
22
21
22
22
22
22
22
23
22
22
21
19
19
16
15
15
24
32
32
48
54
54
57
55
55
49
47
45
43
42
41
40
40
40
41
44
46
48
49
50
49
48
46
44
42
40
38
36
33
30
27
24
23
21
19
18
17
17
16
17
17
18
17
17
18
20
24
31
39
47
55
61
64
66
65
63
60
56
53
48
45
42
39
36
35
34
34
34
35
35
35
35
34
33
31
28
25
24
22
20
19
19
20
21
21
22
22
22
22
22
23
24
23
23
22
21
21
21
23
29
37
45
55
63
70
73
72
70
67
64
60
58
56
55
54
54
55
57
58
60
62
63
64
64
64
63
61
59
57
55
51
48
44
41
39
37
35
33
31
29
27
26
25
24
23
21
20
22
26
33
41
50
59
65
69
69
68
66
63
61
58
55
52
50
48
46
46
46
46
45
45
43
41
39
36
35
33
32
30
29
26
24
21
19
18
17
16
16
16
16
15
14
13
11
11
11
12
14
19
26
35
43
51
58
63
66
66
65
63
61
59
56
53
50
47
45
43
41
40
40
40
38
37
35
33
31
29
28
27
27
26
25
25
24
24
22
21
18
16
15
14
13
12
12
11
11
11
12
11
12
12
15
18
18
32
40
40
53
58
58
59
57
57
52
49
49
44
42
42
40
39
38
39
39
38
38
37
36
34
33
32
31
30
30
28
27
26
25
24
23
23
23
22
20
19
18
18
19
19
19
17
16
13
12
13
17
23
31
40
49
56
60
62
61
59
57
54
51
47
42
39
36
32
30
29
28
29
28
27
25
24
22
19
17
15
14
13
11
11
10
10
10
9
9
9
7
6
5
5
4
4
3
3
2
2
1
1
3
9
18
29
39
48
55
59
60
59
58
56
54
52
50
47
45
44
43
43
44
46
48
50
51
51
51
50
48
46
45
43
41
40
37
35
32
29
26
24
22
20
19
18
17
17
17
17
20
25
34
42
51
60
67
71
72
71
69
67
64
61
58
55
52
51
50
50
50
50
49
48
47
46
44
43
42
41
40
40
40
40
40
40
40
39
37
35
34
33
32
30
29
27
25
24
24
26
31
39
48
58
67
75
75
82
82
82
76
74
74
68
65
65
60
57
57
55
54
54
55
55
55
54
52
50
47
44
43
43
44
44
45
45
44
43
42
41
40
39
38
37
34
32
30
28
28
30
35
41
50
60
68
74
76
76
74
71
67
64
60
57
54
51
48
46
44
43
41
40
38
37
36
36
37
38
39
39
38
36
34
31
28
25
22
19
15
12
9
7
6
6
7
9
11
14
18
25
33
42
52
61
67
71
72
72
71
68
65
62
59
56
53
51
50
50
52
54
55
56
55
54
52
51
50
49
49
49
49
49
48
46
45
43
42
40
39
37
36
35
34
34
35
38
43
51
59
67
74
80
82
83
83
83
84
83
80
77
73
70
67
63
61
58
55
52
48
45
41
38
35
33
32
32
33
34
35
36
37
36
34
32
29
26
24
22
21
20
19
18
18
20
26
34
43
53
63
71
76
77
76
75
74
71
69
67
64
62
60
60
59
58
58
58
58
57
56
54
51
48
44
42
40
39
37
37
36
36
35
34
33
32
30
27
26
25
23
21
19
18
16
15
16
18
23
30
40
50
61
70
76
80
80
79
77
75
73
71
69
67
65
63
62
60
60
60
57
55
55
50
48
48
44
41
41
37
35
35
31
30
30
30
30
30
30
28
26
24
22
21
20
18
17
15
14
13
12
14
18
24
32
41
50
58
65
68
69
67
65
61
59
55
52
49
45
43
41
41
41
40
40
40
39
38
36
33
31
29
27
25
24
24
23
22
22
21
20
18
17
15
14
12
10
9
8
7
6
4
4
3
2
2
5
10
18
28
38
48
56
61
64
64
63
61
58
55
52
49
47
44
43
42
43
44
46
47
48
48
47
47
46
46
47
46
46
45
43
41
39
36
35
33
31
29
27
25
23
22
20
18
17
16
16
17
21
27
37
47
58
68
76
80
81
80
77
74
71
67
64
60
58
56
54
53
53
53
53
52
51
49
47
44
42
40
39
36
34
33
32
30
29
28
26
24
23
22
20
19
18
16
15
15
14
14
13
12
14
18
26
35
45
57
67
73
77
79
79
77
75
72
69
66
64
62
61
60
59
59
59
59
58
56
56
53
50
50
44
42
42
40
39
39
36
34
34
30
27
27
23
22
21
20
19
19
18
17
16
15
14
13
12
14
20
28
38
49
59
68
73
75
76
73
71
68
64
59
56
53
50
48
47
45
44
43
42
40
39
38
35
32
29
26
24
23
22
21
20
20
19
17
16
14
14
12
11
10
10
11
11
11
11
9
8
6
3
1
2
5
12
21
31
40
49
55
59
59
58
56
53
50
47
44
42
40
38
37
36
36
36
36
36
35
35
34
33
32
32
32
31
31
30
28
26
24
23
21
19
17
15
14
14
13
13
13
12
10
9
9
10
14
20
29
39
47
57
63
67
68
66
64
62
59
56
54
52
50
49
48
48
48
47
47
47
46
46
44
43
42
40
40
38
37
36
34
33
31
29
26
25
23
22
21
21
20
20
19
18
17
18
18
19
22
27
35
44
54
65
73
78
81
80
77
74
71
69
66
64
62
60
59
57
56
56
54
53
52
52
52
51
50
48
47
45
43
42
40
40
39
38
37
36
34
31
27
25
24
22
22
21
20
18
16
16
19
24
32
41
52
63
71
76
79
78
76
73
70
67
63
60
56
56
49
47
47
43
42
42
40
38
38
32
28
28
23
21
21
19
19
19
19
19
19
18
16
14
13
13
13
12
11
10
9
9
8
8
9
12
19
27
38
48
58
65
69
71
70
69
66
63
60
57
54
52
50
50
50
51
53
54
54
53
51
49
47
46
45
45
44
44
43
42
42
41
40
39
38
36
34
32
31
30
29
28
27
27
26
25
25
27
32
40
48
58
68
75
79
80
79
76
72
69
67
64
62
61
60
60
59
59
57
54
51
49
47
45
44
41
40
40
38
37
36
35
34
32
31
28
26
24
23
22
21
20
19
19
20
25
33
42
53
64
74
81
86
88
87
86
83
80
78
75
73
70
68
66
64
62
62
62
61
61
59
57
57
55
53
52
50
47
44
42
40
39
37
36
33
31
29
27
25
24
23
22
21
18
16
15
13
14
16
22
30
40
50
61
72
79
82
83
81
78
75
72
69
66
64
61
58
56
55
55
53
53
53
51
48
48
42
39
39
33
31
29
28
26
26
24
23
23
19
17
16
15
15
14
15
14
13
12
11
9
8
6
5
5
7
11
18
27
38
48
57
63
66
68
68
67
64
61
58
55
51
48
46
44
43
42
42
42
41
40
39
37
35
32
30
29
29
29
29
29
30
29
29
28
26
24
22
20
19
18
18
17
16
15
13
12
11
11
13
19
28
37
46
54
60
63
65
65
63
62
60
59
58
57
56
54
52
50
48
46
44
43
42
41
40
38
37
36
34
34
32
30
29
28
26
25
23
23
22
21
20
18
18
18
17
17
17
17
16
15
14
15
20
27
35
45
56
65
70
73
74
72
69
67
63
60
57
55
53
51
50
50
50
50
50
50
49
47
44
42
40
38
36
35
33
32
31
29
27
25
23
22
21
20
19
18
18
17
18
19
18
17
13
11
10
11
17
24
35
45
55
63
67
67
66
63
58
55
52
49
46
43
42
40
40
40
40
40
41
41
41
41
40
39
36
33
30
27
25
23
22
21
19
17
15
15
13
13
12
12
11
10
9
9
8
6
5
6
8
13
20
30
41
51
59
65
67
67
65
62
62
54
51
51
47
47
47
48
48
48
48
48
48
47
46
46
41
40
40
35
33
30
28
26
25
23
22
20
19
17
16
17
17
17
17
18
18
20
26
34
44
53
63
71
76
78
78
77
75
72
70
67
65
63
61
60
58
57
56
55
54
53
51
50
49
47
46
46
46
45
44
43
42
40
38
35
32
29
26
25
24
22
21
19
17
16
16
19
24
32
42
54
65
74
80
83
84
82
80
78
75
72
69
67
64
62
61
60
60
59
59
58
55
54
52
48
45
42
41
39
38
36
35
34
33
31
30
28
27
26
25
24
23
22
20
19
18
19
20
25
32
41
51
60
67
71
72
70
67
63
59
56
53
50
49
47
46
46
47
48
49
50
51
51
50
49
46
43
41
39
36
34
32
29
26
24
22
20
18
16
14
14
15
15
14
13
11
9
7
6
6
8
15
24
35
45
56
65
71
73
72
70
67
63
59
55
54
53
52
52
53
53
56
56
56
57
56
56
51
49
49
44
41
41
37
35
35
31
29
29
26
24
22
22
22
21
19
18
17
16
17
20
27
36
46
58
68
76
80
81
81
79
77
73
70
66
62
59
56
54
53
51
50
49
48
47
45
43
41
40
38
37
36
35
34
34
33
32
32
31
30
29
28
27
26
25
24
23
22
20
19
18
17
17
19
24
33
44
57
70
80
87
90
90
88
85
82
78
75
72
70
67
65
63
62
61
61
61
60
59
57
54
51
48
47
45
44
42
41
40
39
38
37
35
34
33
31
30
29
29
28
27
26
24
22
20
18
16
17
21
28
39
50
62
72
79
82
83
82
79
76
73
69
65
61
58
55
52
50
49
49
48
47
46
44
42
40
38
36
35
34
32
31
29
27
25
23
22
21
19
18
17
16
16
15
14
13
11
9
9
9
10
12
16
23
31
40
52
63
72
78
81
81
78
75
71
67
64
60
57
54
51
50
49
49
50
51
51
51
51
52
52
52
52
52
52
52
52
52
52
51
50
49
47
46
44
42
40
39
38
36
34
32
30
27
25
26
30
37
46
56
67
76
81
83
83
81
78
75
73
70
67
67
61
58
58
54
53
53
51
50
50
47
44
44
38
35
35
33
32
32
33
33
33
32
31
29
28
26
25
24
24
24
24
23
22
20
18
17
18
22
29
39
50
62
73
81
84
85
84
82
80
77
75
72
69
66
64
62
62
62
62
62
61
60
58
56
53
50
48
45
42
41
40
38
37
35
33
30
28
26
24
22
21
20
18
17
17
17
15
14
13
13
16
22
31
41
51
59
64
66
66
65
63
60
58
54
50
46
43
40
38
37
37
37
37
37
36
35
34
32
31
30
28
26
25
23
23
22
20
17
15
14
13
12
12
11
10
9
8
7
6
5
3
3
4
8
13
21
31
41
50
57
60
60
59
56
53
51
48
46
44
43
42
41
42
43
44
46
47
47
48
48
47
46
45
44
43
41
40
39
37
36
35
32
29
25
23
20
19
17
16
15
16
17
20
25
33
41
51
61
68
72
73
73
70
68
65
63
61
59
57
56
54
53
52
52
49
46
46
42
40
40
37
35
35
31
30
30
29
29
29
28
28
28
26
26
25
24
23
23
22
21
22
25
30
37
46
55
63
70
73
73
72
70
68
65
63
60
58
56
54
53
52
52
52
51
51
50
49
48
46
45
44
42
41
40
38
37
37
36
35
33
31
28
25
24
22
21
20
18
16
15
13
12
12
14
19
26
34
42
48
53
55
55
54
52
51
50
49
47
45
43
41
40
39
39
39
39
38
38
37
37
35
32
30
27
25
23
21
19
18
17
15
15
15
14
13
12
10
9
7
6
5
4
4
3
2
2
3
7
14
23
32
41
49
55
57
57
55
52
49
46
44
42
40
40
40
40
40
41
43
44
45
45
45
44
42
40
38
36
34
33
33
32
31
30
29
28
25
24
23
22
22
22
22
22
21
20
20
21
25
31
38
46
55
62
66
67
65
62
59
57
55
53
51
50
49
48
47
47
47
47
47
47
46
45
44
42
41
40
40
39
39
38
37
36
34
33
31
29
27
25
23
22
21
20
19
18
16
16
16
17
21
26
34
42
52
62
69
73
74
74
71
68
64
61
58
55
53
52
51
51
50
50
51
51
51
48
46
46
41
39
39
36
34
34
31
29
29
25
24
24
21
19
19
15
14
13
12
11
9
7
5
2
1
2
6
12
21
30
40
48
53
56
56
55
53
51
50
48
46
44
42
40
39
38
37
37
36
37
36
35
34
31
28
25
24
23
23
22
21
21
20
18
17
16
15
13
12
11
10
9
9
8
8
9
9
10
13
18
26
34
43
51
57
59
59
58
55
53
50
49
47
47
46
47
48
50
52
53
53
53
52
51
49
46
43
41
39
37
36
34
32
31
30
28
27
25
24
22
22
21
21
21
19
18
18
19
23
31
40
51
62
70
75
78
78
75
72
68
65
61
57
55
53
52
52
52
52
52
52
53
52
51
49
48
45
44
43
41
40
40
39
38
38
37
36
34
33
31
30
28
26
25
24
24
26
29
35
44
54
63
71
76
78
77
75
71
68
65
62
60
58
56
54
52
50
49
47
47
46
45
44
41
39
35
32
32
28
26
26
24
22
22
20
17
17
13
12
12
11
10
10
9
9
9
11
16
24
33
43
52
59
63
63
61
58
56
54
52
50
48
46
44
42
41
40
40
39
39
38
37
35
32
29
26
24
22
21
20
19
18
17
16
15
15
15
15
15
14
14
14
14
15
18
24
31
39
48
56
63
64
64
61
57
53
50
47
45
43
42
41
41
41
42
42
42
42
41
40
38
36
34
32
31
29
28
27
26
25
24
23
23
22
21
20
19
18
17
18
21
26
33
40
50
60
68
72
74
73
71
68
66
63
61
59
58
56
55
54
54
53
52
51
49
47
45
44
42
40
38
36
33
29
26
24
22
20
20
20
20
21
22
23
23
23
21
20
19
18
19
24
32
41
51
61
68
73
75
74
72
69
65
60
56
53
50
47
45
44
43
43
42
42
41
40
38
35
31
27
23
20
17
15
13
13
13
14
14
15
15
14
13
12
12
12
11
11
11
10
10
9
12
18
26
35
43
53
59
61
60
58
55
53
50
48
45
42
40
39
37
36
36
36
35
34
33
31
30
28
26
25
24
24
23
22
22
22
21
20
19
19
19
19
19
19
18
18
18
17
17
17
18
22
22
36
43
43
58
62
64
58
56
53
51
49
47
45
44
43
43
41
40
40
37
36
34
32
29
26
24
23
23
22
22
22
22
21
22
21
21
20
19
19
18
18
19
22
29
37
37
54
63
63
71
71
71
66
62
62
56
54
54
48
46
46
45
45
46
46
45
45
43
41
40
38
36
35
33
32
32
31
31
31
30
29
28
27
25
24
24
23
22
21
21
23
29
36
43
51
59
63
65
65
66
65
64
63
61
58
55
52
49
46
45
44
44
43
41
40
37
33
29
25
21
18
16
15
14
13
12
11
10
9
8
7
6
6
6
6
6
6
6
7
9
13
20
30
40
49
57
62
65
65
63
60
56
53
49
46
44
42
41
41
41
40
40
40
40
39
37
35
33
32
31
31
30
30
30
30
30
30
29
28
26
25
25
22
22
21
20
19
20
22
25
31
39
47
57
67
75
79
80
79
75
75
65
60
60
52
49
49
43
41
41
40
40
40
40
39
39
36
33
33
29
26
25
23
22
21
19
18
17
16
17
18
19
20
19
19
18
18
19
23
29
38
47
56
64
69
70
70
68
65
61
58
56
53
51
49
47
45
44
43
42
41
40
40
39
38
36
33
30
26
24
22
20
19
18
18
16
16
15
14
13
12
11
11
10
10
10
10
11
14
20
29
38
48
58
66
70
71
69
66
62
58
55
51
48
46
45
44
43
43
43
41
40
39
36
33
30
26
23
20
17
14
12
11
10
9
8
8
7
5
4
3
2
3
3
3
3
3
2
2
3
3
4
9
17
27
38
49
58
64
65
64
62
58
55
52
49
46
43
41
40
38
39
39
40
40
40
40
39
38
37
35
33
31
28
26
24
23
21
20
19
18
16
15
14
14
14
14
15
15
15
15
15
15
17
20
26
35
45
55
64
71
74
74
72
69
66
64
61
59
56
54
51
49
48
48
48
48
48
47
46
43
41
40
38
36
34
32
30
28
26
25
24
24
23
23
22
22
22
21
20
19
19
19
19
20
22
27
36
45
55
64
72
74
73
68
63
58
53
50
46
43
43
39
38
38
37
37
37
36
34
34
30
27
27
23
23
23
22
22
22
22
22
22
21
21
22
22
22
22
21
21
20
19
18
16
16
16
16
17
20
26
34
45
56
68
78
82
81
78
72
67
61
57
53
51
50
49
49
49
50
52
53
53
53
52
50
47
45
42
40
37
35
32
31
29
28
26
25
23
23
21
19
17
15
13
12
10
9
7
6
5
4
3
2
4
9
18
30
42
54
65
71
73
72
69
64
60
56
52
48
46
44
44
45
46
48
51
54
55
55
54
53
52
50
48
47
46
44
42
41
40
39
37
36
35
34
33
31
31
30
29
28
27
26
25
24
23
23
24
29
36
45
55
64
73
78
80
81
79
76
73
70
67
65
62
60
58
57
56
56
57
57
56
55
54
51
48
46
43
41
40
39
38
36
34
32
30
29
27
25
24
23
22
21
20
19
19
19
20
24
32
42
54
65
77
85
89
90
89
86
83
79
79
73
70
70
66
64
64
63
63
63
64
63
63
61
58
58
53
50
50
47
46
45
44
42
41
40
39
37
36
35
33
32
30
28
26
25
24
25
29
36
46
57
69
82
91
96
98
97
95
92
89
86
82
79
77
76
74
73
73
73
72
71
70
68
65
63
59
56
53
50
48
46
44
42
41
40
39
36
34
31
29
26
23
22
20
18
16
14
12
11
9
10
15
24
34
46
58
70
78
82
82
80
77
74
70
67
63
60
57
54
52
51
51
51
52
52
52
52
51
50
47
45
42
40
39
37
35
33
31
29
27
24
23
21
20
18
16
14
14
14
13
12
10
9
7
7
10
17
27
38
51
64
75
81
84
84
82
80
77
74
72
69
67
65
64
64
65
66
67
67
65
63
60
57
54
52
49
48
46
44
43
42
40
40
39
37
34
32
30
28
25
24
22
20
19
18
17
19
25
35
46
59
73
84
91
95
96
94
90
87
83
79
76
72
69
66
65
65
66
67
67
66
64
61
58
54
51
47
44
42
40
39
38
37
36
34
32
30
27
25
24
23
22
21
19
17
16
15
15
18
25
36
48
63
77
89
97
101
101
100
97
97
89
62
62
58
57
57
55
55
55
55
54
54
52
50
50
47
46
46
44
43
42
41
40
40
39
38
37
36
35
34
33
32
31
30
29
28
27
27
27
27
29
33
39
45
52
59
64
67
68
68
67
65
63
61
58
56
55
53
52
51
50
49
48
48
46
45
44
43
41
40
38
37
35
34
32
32
31
30
29
28
27
27
26
25
25
24
24
23
23
21
21
20
19
19
21
26
32
39
45
51
56
59
59
59
57
56
54
51
49
48
47
46
46
46
46
47
47
47
47
46
45
44
44
43
42
42
41
40
40
39
38
37
36
35
33
32
31
30
29
27
27
26
26
27
30
34
40
45
52
57
61
63
63
62
61
59
57
55
52
50
49
48
48
48
48
48
48
47
46
45
44
42
41
40
39
37
37
36
35
34
33
32
31
30
29
28
27
27
26
26
26
26
27
28
31
35
40
47
53
59
63
65
66
65
64
63
61
60
58
56
56
54
53
53
51
51
51
49
49
49
46
45
45
42
41
41
40
39
39
37
36
36
34
33
32
31
30
29
28
27
26
26
25
25
27
30
35
40
47
53
59
62
64
64
63
62
61
59
58
55
53
51
48
47
46
46
45
45
45
44
43
41
40
38
36
34
32
30
28
26
25
24
22
22
21
21
20
19
19
19
18
17
16
16
15
16
18
21
26
32
39
45
50
53
55
55
54
53
51
49
48
46
44
43
42
42
42
42
42
42
42
42
41
40
40
39
37
36
35
34
32
32
31
29
28
27
27
27
28
28
29
29
29
28
27
27
27
29
33
37
41
46
50
52
53
52
51
61
58
55
51
49
47
45
44
43
41
40
39
38
37
35
35
35
35
35
35
34
32
29
26
24
21
18
15
13
12
11
10
9
9
9
8
8
8
10
14
22
33
44
57
69
77
82
83
82
80
77
73
70
66
62
59
56
54
52
51
50
50
50
50
49
47
45
42
40
37
35
33
31
29
27
25
23
22
20
19
17
16
15
15
15
14
13
11
9
8
8
10
17
27
39
51
63
73
79
81
80
77
74
70
67
62
59
56
54
52
51
50
50
50
50
49
48
48
44
41
41
38
34
34
28
25
25
22
20
20
16
15
15
12
11
9
9
7
6
3
1
0
0
0
0
0
6
17
29
42
53
61
66
66
64
61
58
55
51
47
43
40
37
36
35
36
36
37
37
36
35
32
29
26
23
20
18
16
14
13
12
11
10
9
8
7
6
5
4
3
3
2
1
0
0
0
0
0
2
9
19
31
42
54
62
67
68
67
65
62
60
56
53
50
48
48
48
48
48
49
49
48
47
46
43
40
39
36
33
30
27
25
24
22
21
20
18
16
15
15
15
14
14
13
11
10
10
13
19
29
40
53
66
76
82
85
84
83
80
77
74
70
67
64
62
61
60
59
59
59
59
58
57
55
52
49
46
42
40
39
37
35
32
30
27
26
25
24
23
22
22
20
19
19
19
19
18
18
19
24
32
43
54
66
77
84
88
88
87
84
82
79
77
74
71
68
66
64
64
64
65
65
65
64
63
63
59
56
56
50
47
47
41
39
39
36
34
34
30
27
27
23
21
21
18
16
15
13
12
10
10
11
15
24
35
46
58
67
72
74
72
69
65
60
56
52
48
44
41
40
39
38
38
38
39
38
37
35
33
30
27
25
23
21
19
17
15
14
14
13
12
11
9
8
7
6
6
4
4
4
3
2
4
8
16
25
37
47
57
63
66
66
63
60
57
54
51
48
46
46
45
46
47
48
49
50
50
49
48
46
45
43
41
40
40
39
37
36
34
31
28
25
23
21
19
17
15
14
14
15
19
25
35
45
57
69
77
81
82
80
76
72
69
65
63
60
58
57
55
55
55
55
55
55
54
53
51
49
47
44
42
40
39
37
35
34
32
30
28
26
24
23
22
20
18
16
14
14
14
18
26
36
47
60
72
81
86
87
86
83
81
69
66
63
60
59
57
56
54
53
50
48
45
42
40
35
32
29
26
23
22
22
21
20
19
18
16
15
15
15
14
14
12
10
8
5
3
2
4
9
17
28
39
50
60
66
69
67
65
62
58
54
51
47
44
42
40
40
40
40
40
40
39
37
35
33
30
27
25
22
20
18
18
15
15
15
13
11
11
9
7
7
5
4
4
0
0
0
0
0
0
6
15
26
38
50
61
68
71
72
71
69
65
61
58
54
51
48
45
44
45
45
46
46
46
45
44
42
40
40
37
35
33
30
28
26
24
23
21
19
17
15
13
12
12
11
11
10
10
11
13
18
26
36
48
60
71
78
81
81
79
75
70
66
61
58
55
52
50
48
48
50
51
52
52
51
50
48
46
44
41
40
38
35
33
31
30
28
26
25
23
22
20
18
16
15
15
14
13
13
12
10
10
12
17
25
37
50
63
75
83
86
86
82
78
75
70
66
62
59
55
53
51
51
51
52
52
52
51
49
47
45
42
39
37
35
34
33
32
29
27
25
23
22
20
18
16
15
13
11
9
7
5
2
0
0
0
0
0
0
7
18
32
45
56
64
67
66
64
60
55
51
46
42
38
36
33
32
31
31
31
30
30
29
27
25
23
21
19
16
14
12
10
10
7
6
6
4
3
3
2
2
2
3
3
3
3
3
3
5
6
6
15
24
35
47
58
67
72
73
71
68
65
60
57
52
48
45
43
42
41
43
44
46
47
46
45
43
41
39
37
35
32
30
27
25
24
22
21
19
18
17
17
17
18
17
16
16
16
16
20
29
39
51
63
74
82
86
85
82
77
72
68
64
60
56
54
51
50
50
50
50
50
49
48
46
44
41
37
32
27
22
18
14
12
10
9
8
6
5
3
2
2
3
3
3
2
3
7
14
24
37
49
61
70
74
75
74
70
66
63
61
58
56
54
52
50
48
47
46
46
44
43
41
39
36
33
31
29
27
27
26
25
25
24
23
22
23
22
21
20
19
18
17
16
16
15
13
10
7
5
5
9
17
29
41
54
66
73
77
78
76
73
69
65
61
57
52
48
46
44
43
42
43
43
43
41
40
39
36
34
32
29
26
25
23
21
20
19
19
18
18
18
18
18
17
16
14
12
10
8
7
7
8
11
18
28
40
52
66
78
86
89
88
85
81
77
73
68
64
61
59
57
57
56
58
59
59
59
58
55
52
48
45
42
40
38
36
34
33
32
32
29
28
28
24
23
23
22
20
20
18
15
15
16
18
18
28
39
39
64
77
77
96
100
99
97
93
87
82
77
73
69
65
63
61
60
61
60
59
57
55
53
51
49
47
45
42
40
38
36
35
34
32
30
28
27
26
25
25
25
25
24
23
22
21
21
22
27
36
46
56
67
77
82
84
84
82
80
77
74
70
67
64
61
59
58
58
59
59
59
59
58
57
55
52
50
48
45
42
40
39
37
35
33
31
28
25
24
22
20
19
17
15
15
16
19
25
36
47
60
73
82
87
90
89
86
83
79
76
72
68
65
63
62
62
62
62
62
62
62
61
59
57
54
51
48
45
43
41
40
40
39
38
36
35
34
32
30
27
25
23
22
21
24
30
37
46
56
64
70
73
74
71
67
63
59
55
52
50
48
47
46
46
47
48
49
50
50
48
46
43
40
37
34
31
29
26
24
23
21
19
17
15
14
13
12
12
12
11
11
10
9
8
6
6
7
10
10
26
35
35
52
57
57
56
54
54
48
45
45
40
39
39
37
37
38
39
39
38
38
36
35
32
30
28
26
24
23
22
21
20
19
17
15
15
14
13
13
12
11
10
10
10
9
9
8
7
7
6
7
10
17
26
37
46
56
63
66
66
65
63
60
57
55
53
52
50
49
47
46
46
45
45
44
44
43
41
40
39
37
36
35
34
32
31
29
27
25
23
22
20
18
17
16
15
15
14
13
12
11
11
14
19
28
38
48
58
65
68
69
69
67
64
61
58
55
52
49
47
45
44
44
44
44
44
43
42
41
39
38
36
34
33
32
31
31
31
29
29
28
27
27
26
25
24
23
22
20
18
16
16
15
14
13
12
11
10
11
15
23
33
44
55
64
70
73
72
70
67
63
60
57
54
52
50
48
46
46
45
45
45
44
42
41
40
38
36
34
32
30
28
26
25
25
24
24
22
22
21
20
19
18
19
19
19
18
17
16
15
13
12
10
8
7
7
9
14
22
32
41
50
56
58
57
54
50
46
41
38
36
33
30
28
27
26
26
25
25
25
24
24
23
22
20
18
17
16
16
17
18
19
20
20
18
17
15
14
13
13
12
11
11
8
6
6
4
2
2
1
0
0
0
1
1
14
24
35
45
55
63
66
67
66
64
61
58
55
53
50
48
47
46
46
46
45
46
45
45
43
41
40
38
36
34
32
30
29
27
26
24
24
23
22
22
21
20
19
18
18
19
19
19
17
15
13
12
13
18
25
35
46
56
66
73
75
74
71
68
66
63
61
59
57
55
53
52
51
51
52
52
52
53
53
52
51
50
48
47
45
44
43
42
41
40
40
39
38
37
35
33
31
30
28
26
25
25
23
21
19
18
17
17
23
32
42
54
67
78
87
90
89
85
80
73
67
62
59
56
54
53
52
51
50
50
51
50
49
48
46
44
41
40
39
37
36
35
34
33
32
30
29
27
25
24
24
23
23
22
22
21
20
19
18
17
17
16
17
23
31
40
51
61
69
73
73
71
67
62
58
53
50
46
43
41
40
40
41
43
44
46
46
47
46
44
42
40
40
36
34
34
29
27
27
24
22
22
20
19
19
16
15
15
13
12
12
9
8
8
9
12
16
24
35
47
60
72
82
88
91
90
87
83
79
76
73
70
67
64
63
64
64
65
66
66
65
63
61
58
55
53
51
50
48
46
43
41
38
36
34
32
29
27
25
24
22
21
21
21
22
26
32
42
53
64
75
84
89
90
89
86
82
78
74
70
66
62
60
59
58
58
59
60
60
60
59
58
55
53
50
47
45
43
41
40
37
35
33
30
28
25
24
23
21
19
20
22
23
26
34
43
55
69
80
88
91
92
89
87
84
82
79
77
75
73
72
71
70
70
70
69
69
69
68
66
64
62
59
57
54
52
50
47
45
42
40
39
38
36
34
32
29
27
24
22
20
19
21
27
36
47
60
73
83
91
95
95
92
89
86
82
77
73
70
68
66
64
63
62
61
59
57
54
50
45
41
38
34
31
29
28
28
27
27
26
25
24
22
21
19
17
15
13
12
11
10
8
6
5
3
2
2
6
14
25
38
51
63
71
75
76
74
71
66
63
60
57
55
52
51
51
51
53
54
56
56
56
55
53
51
49
47
45
42
40
40
37
35
35
32
30
30
25
24
24
18
16
16
12
10
10
12
18
18
37
48
59
69
75
77
77
74
71
68
64
61
59
56
54
52
52
51
51
50
49
48
45
43
40
38
35
33
30
28
27
26
26
25
25
24
23
21
21
21
20
20
18
17
15
13
13
14
18
26
36
48
61
74
82
87
89
87
84
80
76
71
66
62
58
57
56
55
56
56
56
56
56
54
52
49
47
43
40
37
33
31
29
27
26
24
23
22
21
19
18
16
14
14
13
12
11
10
9
7
7
8
14
23
35
49
63
74
81
84
85
83
80
76
71
66
61
57
54
53
52
53
53
54
54
54
53
51
48
44
40
35
31
26
23
21
20
18
16
15
14
12
11
10
9
8
6
5
3
1
0
0
0
0
0
1
8
19
30
42
55
65
71
73
71
69
66
62
59
56
55
53
53
52
52
53
54
55
56
56
57
56
55
53
50
48
46
44
42
41
39
37
35
32
29
29
25
23
23
21
20
20
16
15
15
14
16
16
27
37
37
57
66
71
73
72
69
65
61
58
55
53
51
49
48
48
49
50
52
53
53
53
51
49
47
45
43
41
40
39
38
36
34
32
30
28
26
24
23
21
19
16
13
11
9
8
10
16
25
37
49
62
74
83
87
88
86
83
80
76
73
69
65
62
60
58
58
59
60
61
61
60
58
55
52
48
45
42
40
39
37
35
33
29
29
26
24
24
19
17
17
14
12
12
12
17
17
36
48
48
72
79
83
83
80
77
73
68
63
59
55
53
52
52
52
52
52
52
50
48
46
44
41
38
34
31
28
25
23
21
20
19
18
15
12
10
8
5
2
0
0
0
0
0
0
0
0
0
5
16
29
42
56
67
73
76
75
73
69
66
63
60
56
53
50
49
48
49
50
50
50
49
48
44
42
39
35
31
28
26
24
23
23
23
24
23
23
24
24
24
25
26
25
24
23
22
20
19
19
24
32
42
54
65
74
79
80
79
77
73
68
64
59
54
51
49
48
48
48
49
49
49
49
47
46
43
40
38
34
32
29
27
25
23
21
19
17
14
13
13
12
13
13
11
9
9
5
4
4
10
18
18
43
56
56
78
82
82
81
78
75
73
70
68
65
62
59
57
56
56
57
57
56
54
51
48
45
42
40
37
34
32
30
29
27
26
24
23
22
20
18
16
14
13
12
10
8
7
6
5
8
15
24
37
49
62
72
79
81
80
78
74
70
65
61
57
54
50
48
48
48
48
48
48
46
44
41
39
34
30
25
22
19
16
15
13
13
12
11
10
9
8
8
7
6
5
4
3
1
0
0
0
0
2
10
20
31
43
53
59
61
60
57
52
48
43
40
36
34
33
32
33
34
36
37
37
36
34
31
28
24
21
18
16
14
14
14
16
17
18
18
18
16
14
13
13
11
11
10
10
9
8
9
12
18
27
36
46
56
63
66
66
64
60
56
52
48
44
42
40
38
38
38
38
38
38
38
37
35
32
30
27
25
23
21
20
18
17
15
15
14
14
12
11
9
8
8
8
8
8
8
7
7
7
10
16
16
38
50
50
71
76
76
74
71
71
64
62
62
57
55
52
50
49
48
47
46
46
45
44
41
40
37
34
32
30
29
27
26
26
25
25
24
23
21
19
18
17
16
17
17
17
17
15
13
12
12
14
19
27
39
50
62
73
79
81
80
78
74
70
66
62
59
56
54
51
49
48
48
48
48
48
46
44
42
39
35
32
28
25
22
20
18
16
14
14
13
11
10
9
8
8
7
7
7
7
6
6
5
5
5
7
13
22
34
45
57
68
74
75
73
70
65
59
54
50
46
44
42
41
42
42
44
46
47
47
47
46
45
44
42
40
40
39
37
36
35
35
33
32
30
28
26
24
23
22
20
19
17
16
18
21
28
38
48
58
66
72
74
73
70
67
63
59
55
52
49
48
48
49
50
51
52
52
51
49
46
43
40
38
35
33
31
29
28
27
25
24
23
22
21
21
21
21
19
18
17
16
17
22
31
42
54
66
76
83
86
86
84
80
76
72
69
66
63
61
59
58
57
57
56
55
54
52
50
48
45
44
42
40
39
38
38
37
37
37
36
35
34
33
31
30
28
27
25
24
22
21
22
26
34
34
56
68
68
86
90
90
87
83
83
75
72
72
65
62
62
58
58
59
60
60
61
61
59
57
55
52
49
46
43
41
40
38
37
36
35
33
31
29
27
25
23
21
19
17
14
12
10
9
9
13
21
32
43
55
65
71
72
71
68
64
60
57
54
50
47
44
42
41
40
42
43
43
43
42
41
39
37
34
30
27
25
23
21
19
17
16
15
15
14
14
13
12
10
9
8
7
6
6
6
9
13
20
30
41
51
61
67
70
70
67
63
59
56
52
48
45
42
41
41
42
43
44
45
44
43
40
38
34
31
28
25
23
23
22
22
22
21
21
19
19
19
18
17
16
14
12
12
13
18
25
36
47
58
69
76
78
77
74
70
66
63
60
56
54
51
49
48
47
47
46
46
45
45
44
42
40
39
36
34
32
30
28
27
25
24
23
23
21
20
20
19
17
16
16
15
16
18
23
31
41
51
61
70
74
75
74
70
64
59
56
56
50
48
48
48
48
48
51
51
51
52
50
50
46
43
43
39
36
36
33
31
30
28
27
25
24
23
22
20
18
17
14
12
11
11
12
16
23
32
41
51
58
63
64
63
60
56
52
47
44
40
37
35
34
34
35
36
37
38
38
36
34
31
27
24
21
18
16
14
14
13
14
15
16
17
17
17
17
17
15
14
13
13
13
15
20
28
38
47
58
67
72
73
70
66
61
57
53
48
45
42
42
41
42
43
44
46
47
47
46
45
44
42
40
39
37
36
34
32
30
28
26
24
23
21
19
17
15
14
14
16
21
28
38
48
58
66
70
71
69
66
62
58
55
52
49
46
45
44
44
44
44
44
43
42
40
39
36
34
31
29
27
25
24
23
23
22
21
19
18
17
17
16
16
16
14
14
15
18
25
35
45
55
65
71
72
71
69
65
62
58
55
52
50
48
47
45
44
43
43
43
42
41
40
39
37
34
32
30
28
27
26
25
25
25
24
23
22
21
20
20
19
18
18
18
17
16
17
22
30
40
49
60
68
72
74
72
69
66
63
59
56
54
53
52
50
50
47
46
47
47
46
45
46
44
42
40
38
38
34
32
32
29
28
28
25
24
24
22
20
20
17
15
15
11
9
9
7
10
16
25
35
45
54
60
62
61
58
54
52
49
47
44
43
41
40
40
40
41
42
43
44
46
46
46
46
45
43
42
40
39
39
39
38
36
35
33
31
29
27
26
25
25
24
23
22
21
21
22
26
33
41
51
62
72
78
81
81
80
76
72
68
63
59
56
54
53
53
54
55
55
55
54
53
52
51
50
48
46
44
42
40
38
38
37
36
34
32
31
29
28
27
26
25
24
23
22
21
23
28
36
45
56
66
74
79
81
81
80
78
76
74
71
70
68
66
65
64
64
64
64
65
65
65
64
62
60
58
56
53
51
49
47
45
44
42
40
39
36
32
29
26
24
21
19
16
14
13
13
17
23
34
45
57
69
78
82
83
83
82
80
78
76
74
72
69
66
64
63
63
63
62
62
60
59
57
55
52
50
48
45
44
41
40
39
38
36
34
31
31
25
23
23
21
20
20
18
17
17
17
20
20
34
43
43
66
75
75
80
78
75
71
67
66
64
62
59
57
57
57
58
61
62
62
61
60
58
55
52
49
46
44
42
40
38
37
36
36
35
34
32
29
27
25
24
23
20
18
15
13
12
14
18
26
36
46
58
68
74
77
77
74
71
66
61
57
53
51
49
48
48
48
50
52
54
55
55
55
54
52
49
46
44
41
39
36
34
32
30
28
25
24
22
20
19
19
17
15
14
14
16
22
32
43
54
64
73
77
79
78
75
72
67
62
58
56
54
53
53
53
53
52
51
48
46
43
40
36
33
30
27
25
24
24
24
24
24
24
22
20
18
16
15
13
11
9
8
7
8
13
21
33
45
58
70
79
84
85
85
83
81
78
75
72
69
65
61
59
57
56
55
55
54
52
50
47
44
42
39
37
35
33
32
31
30
28
27
26
24
23
23
21
17
14
10
7
4
3
3
6
11
19
28
38
47
53
55
55
53
49
45
42
40
37
35
32
30
28
27
27
25
25
24
23
22
20
18
16
15
14
14
14
14
13
12
12
12
12
11
10
8
7
6
4
2
0
0
0
0
0
0
5
14
14
34
43
43
53
54
54
51
47
47
41
38
38
32
30
29
29
30
31
33
33
33
31
30
28
25
24
22
21
19
17
15
15
14
13
12
11
10
10
11
11
11
11
12
12
12
13
17
23
31
40
49
58
64
68
69
68
66
63
60
57
55
52
49
47
45
44
43
43
42
42
41
40
39
37
35
34
32
30
29
27
25
24
23
21
19
17
15
14
13
11
9
8
8
7
9
12
19
29
40
51
61
69
73
75
73
71
67
65
62
60
58
56
55
54
53
52
52
51
50
47
45
42
40
37
34
31
28
26
25
25
26
27
26
26
25
25
24
22
21
19
18
17
16
16
17
23
31
41
52
63
71
78
81
82
80
76
72
69
66
62
58
55
54
54
53
54
54
54
53
51
49
46
44
42
40
39
38
36
35
33
31
30
28
27
25
25
25
25
24
22
21
19
17
18
20
25
34
44
55
66
74
80
82
81
78
76
72
72
65
61
61
57
55
55
54
54
54
55
54
54
52
51
49
45
45
43
41
39
37
36
34
32
29
27
25
23
20
18
16
14
13
13
16
22
32
42
54
65
73
77
79
77
74
71
68
64
61
57
54
52
50
49
49
49
49
48
47
46
43
40
38
36
32
29
26
24
23
21
20
18
17
15
14
14
13
12
10
9
8
7
5
5
6
9
15
24
34
45
56
64
70
71
70
67
63
60
57
54
51
49
47
47
49
50
52
54
54
54
53
51
49
46
43
41
40
38
36
34
32
31
30
28
27
25
24
23
21
18
15
12
10
8
8
11
18
28
40
51
63
73
79
81
80
77
73
70
67
64
61
58
56
54
54
54
55
56
55
54
53
50
48
45
42
40
37
34
32
29
27
25
24
22
21
20
19
18
17
16
15
14
12
12
11
14
22
32
44
57
70
78
84
87
87
86
83
83
80
76
73
68
65
61
59
57
57
56
55
54
52
50
48
46
45
43
42
40
39
36
34
32
30
29
26
24
22
21
20
17
16
14
13
14
15
18
24
33
44
57
70
81
88
91
91
90
88
85
81
78
75
72
69
69
65
63
63
62
61
61
59
55
55
48
45
45
39
37
37
34
32
32
30
29
27
25
24
22
21
20
18
16
15
13
12
11
11
15
22
32
44
57
69
77
82
82
79
74
70
66
63
59
55
51
49
48
47
48
49
49
50
49
47
45
42
40
37
35
33
31
30
29
27
25
23
21
19
16
13
12
10
8
6
5
3
2
1
2
6
14
26
39
53
67
78
84
86
86
83
79
74
69
65
62
59
58
58
60
61
63
65
66
67
66
63
60
57
53
48
45
43
39
37
34
32
30
29
30
30
29
29
28
27
26
24
24
26
30
38
47
60
73
85
92
95
95
93
90
85
80
74
70
68
65
63
62
62
63
64
63
63
62
59
57
53
51
48
45
42
40
38
35
33
31
28
25
23
21
18
16
14
13
13
16
22
32
44
57
71
83
90
94
94
93
90
87
83
77
73
70
66
64
62
61
61
60
59
58
56
53
49
46
43
40
40
34
32
32
27
25
25
22
20
20
15
12
12
9
7
7
8
12
12
30
41
53
65
73
77
79
78
76
73
69
66
62
60
57
55
54
53
52
52
50
50
47
44
42
39
36
32
29
27
25
22
19
17
14
11
8
6
4
2
1
0
0
0
0
0
0
0
4
14
25
37
47
56
60
62
62
60
57
54
50
48
46
44
42
41
41
42
42
42
40
38
35
32
29
26
22
20
18
16
13
12
11
10
8
7
6
5
3
1
0
0
0
1
3
7
15
24
34
45
55
63
67
68
66
63
59
54
50
48
45
44
43
43
44
45
45
46
45
43
40
38
35
33
32
30
28
25
24
22
20
18
15
14
13
12
10
8
7
5
5
8
15
24
35
47
58
67
72
74
74
72
69
66
63
60
57
54
52
50
48
48
48
47
46
44
42
40
37
35
32
30
28
25
25
24
23
22
20
19
18
16
15
14
13
11
9
9
10
14
21
31
41
53
64
73
77
78
76
74
71
68
65
62
59
57
55
54
54
54
54
54
54
53
52
51
49
47
44
42
41
40
38
37
35
33
31
28
26
24
23
22
21
20
19
17
16
15
15
15
24
33
33
54
66
66
81
82
82
78
74
74
67
63
63
56
53
53
48
47
46
45
43
41
40
37
34
31
29
27
26
25
24
22
20
18
15
13
11
9
7
7
6
4
3
2
2
2
2
2
4
9
18
28
40
51
61
67
69
69
66
63
59
54
50
47
44
41
40
39
39
39
39
39
39
38
37
35
33
30
27
25
24
23
23
23
22
23
23
23
22
22
21
20
19
18
16
14
12
13
16
21
29
38
48
58
67
72
73
72
69
66
62
57
53
50
48
45
44
44
44
45
45
45
45
44
42
40
39
37
35
34
34
33
32
29
27
25
23
21
19
18
17
15
15
14
13
13
12
13
17
24
34
45
57
68
76
80
81
78
75
72
68
66
63
60
57
55
54
53
52
52
51
50
49
47
45
42
40
39
37
36
34
33
31
30
28
26
25
24
22
22
21
19
18
16
16
16
16
17
20
25
33
42
53
63
73
79
81
80
80
74
71
71
65
63
63
61
60
60
60
60
60
57
56
56
53
52
52
48
46
44
43
41
40
40
39
38
37
35
33
31
28
25
24
23
21
19
17
16
16
20
27
37
47
58
68
74
76
75
73
71
68
64
61
59
56
54
52
51
50
50
50
49
48
47
45
43
41
40
38
36
34
32
30
28
26
25
24
23
22
21
19
18
16
16
15
14
13
11
10
11
15
20
29
38
48
58
64
67
67
65
62
58
55
52
51
50
51
52
53
55
57
59
60
61
60
59
57
54
51
48
46
45
44
43
43
42
40
39
37
35
32
29
27
24
23
21
20
20
24
31
40
50
61
71
78
83
84
83
79
75
71
68
66
64
62
60
59
59
60
60
60
58
56
54
51
48
45
44
43
41
40
39
38
37
37
35
34
33
31
29
27
25
24
24
23
23
25
30
38
47
59
69
78
83
85
85
83
80
77
75
73
70
68
66
64
62
63
63
63
63
62
61
58
55
53
49
46
43
41
38
35
33
31
29
28
27
26
24
22
20
19
18
16
14
13
15
19
27
38
48
60
68
73
75
75
72
69
65
60
56
52
48
44
42
42
42
42
41
40
40
38
35
35
30
27
27
22
19
19
13
11
11
8
6
6
4
4
3
3
2
2
2
0
0
0
0
4
12
21
31
41
51
59
63
64
62
59
55
51
48
45
44
43
43
43
44
45
46
47
47
46
46
45
43
41
40
40
38
37
35
32
30
28
26
24
22
21
21
20
19
17
16
16
17
20
27
35
44
53
61
67
69
68
66
62
58
54
51
48
46
45
44
43
43
43
42
40
39
36
34
32
30
28
26
23
21
20
18
17
15
15
14
13
12
11
10
9
7
6
5
4
4
6
10
17
27
37
47
57
62
64
63
61
58
54
51
48
45
43
41
39
37
36
35
35
35
34
33
31
29
27
25
23
22
20
19
17
16
16
16
16
15
15
13
12
11
11
10
9
8
7
7
8
13
20
29
39
49
57
61
61
59
55
52
49
46
43
40
39
38
37
36
36
36
36
36
35
33
31
28
25
23
21
19
16
14
13
12
12
11
11
7
4
4
0
0
0
0
0
0
0
0
0
0
2
2
21
32
32
48
50
50
46
42
38
34
30
27
26
24
23
23
23
24
25
26
27
27
26
25
23
20
18
15
13
13
13
12
12
12
12
11
11
12
13
14
13
13
14
13
13
14
16
20
28
37
47
57
66
71
73
72
69
65
60
56
51
47
44
42
42
43
43
43
43
43
43
42
41
40
38
37
35
33
31
30
28
26
24
24
23
23
22
22
21
19
17
17
16
18
22
28
37
45
54
63
69
71
70
67
63
59
56
53
51
49
48
47
48
48
50
51
52
52
52
51
49
46
42
38
34
29
27
25
25
25
25
23
21
18
16
16
16
16
16
16
15
15
18
25
34
45
56
66
74
77
78
76
72
68
64
60
57
54
53
51
49
49
49
50
51
50
50
48
45
42
40
38
37
35
34
33
31
29
27
25
23
21
20
19
18
17
16
15
14
14
15
17
23
31
42
52
62
70
73
72
69
63
58
53
49
45
41
39
37
35
33
33
34
35
35
34
33
31
27
25
23
22
21
20
19
17
16
15
14
12
10
9
9
9
9
8
7
7
6
6
8
13
13
31
40
40
53
55
55
51
47
47
41
38
38
34
33
33
34
35
36
37
38
38
38
38
36
34
33
32
30
30
29
29
28
26
25
24
24
24
24
23
23
22
20
20
21
24
30
38
48
57
65
70
72
70
66
61
57
53
51
49
47
45
44
44
45
45
46
46
45
44
42
40
39
37
36
33
32
30
29
27
26
25
23
22
21
20
19
18
17
17
16
17
19
23
30
39
48
58
68
73
75
74
71
68
64
60
57
54
53
52
51
50
50
51
51
50
50
49
46
44
42
40
38
37
37
37
35
34
33
32
31
29
28
26
25
25
24
24
23
22
21
19
18
19
21
28
38
49
80
77
75
70
66
62
58
55
52
50
48
48
47
47
46
45
44
42
40
37
34
30
27
25
24
23
23
22
21
20
19
17
17
17
17
16
16
14
13
12
12
11
10
9
9
9
11
15
23
32
42
52
60
64
66
63
58
55
52
52
47
45
45
45
44
44
47
48
48
49
49
49
45
43
43
40
39
39
40
40
39
39
38
36
35
34
33
32
31
31
31
30
29
27
25
24
24
23
24
28
34
42
51
60
69
74
77
77
74
71
66
62
58
54
52
50
49
49
49
50
51
52
52
51
50
49
48
47
45
42
40
40
38
36
35
34
33
31
28
26
24
22
21
21
21
20
19
19
17
17
18
19
22
28
37
46
56
67
74
79
79
78
75
70
66
62
58
55
52
51
50
50
51
51
51
50
49
48
46
45
43
42
40
38
36
34
33
32
31
31
30
29
28
28
27
27
27
26
25
23
21
19
18
17
18
22
29
38
48
58
66
71
73
71
68
65
61
57
52
48
44
41
39
36
35
35
34
34
34
35
35
34
34
32
30
28
26
24
22
21
21
20
19
18
17
17
16
16
16
16
16
15
14
14
14
15
16
20
26
35
44
54
62
68
70
69
67
63
60
57
54
51
48
47
47
48
49
52
54
56
57
57
56
55
53
51
49
47
46
45
44
42
40
39
37
36
35
33
32
31
31
31
30
31
33
38
45
53
61
67
73
75
74
72
68
65
62
62
55
51
51
48
47
47
46
47
47
47
46
46
43
40
40
36
35
35
33
33
32
31
29
27
26
25
24
24
23
22
22
22
23
27
34
42
51
60
67
71
72
70
68
66
63
60
58
55
53
51
49
48
47
46
45
43
42
40
40
38
36
34
32
30
27
25
23
21
19
16
14
13
11
10
9
8
8
8
10
14
21
30
39
48
56
61
62
61
58
54
50
47
44
40
40
40
39
40
40
40
41
41
40
39
37
34
31
29
26
24
23
23
21
20
19
18
17
17
17
16
16
15
14
13
14
17
23
31
40
48
57
63
66
68
67
65
62
58
54
50
48
47
47
48
48
49
50
50
50
49
47
45
42
40
39
37
35
34
32
31
29
27
25
23
22
20
19
18
18
19
23
31
39
48
56
64
68
69
68
66
64
61
58
56
53
51
50
49
49
49
48
48
47
45
43
42
40
39
37
35
34
33
32
31
30
29
27
25
24
23
23
21
20
20
18
17
17
23
31
31
50
58
58
68
69
69
64
61
61
56
54
54
50
48
48
47
47
46
46
45
43
42
40
37
35
33
31
29
27
25
24
23
21
20
19
16
15
14
14
14
13
13
11
10
9
8
8
10
15
23
31
40
48
55
59
61
60
57
54
51
48
45
43
41
40
39
39
39
40
40
40
40
39
38
38
37
37
37
37
37
37
37
36
35
34
33
32
31
30
29
28
28
27
25
24
23
22
22
23
27
33
40
47
55
60
63
63
62
59
57
54
52
50
49
48
47
47
47
47
48
48
47
47
46
44
43
40
39
37
36
34
34
34
34
33
33
31
29
26
24
23
22
20
20
19
19
18
17
17
17
16
17
19
25
32
41
51
59
66
69
69
66
62
59
54
50
46
43
41
40
39
39
39
39
38
37
36
35
33
31
30
29
28
28
27
27
26
25
22
20
19
17
14
11
10
10
9
8
7
7
7
7
6
5
4
3
3
5
9
16
25
34
42
49
52
51
48
44
40
38
35
32
30
27
25
24
24
25
26
26
27
27
26
25
23
21
20
18
18
16
15
14
13
14
13
13
13
12
12
11
10
10
9
8
8
7
7
7
5
4
4
3
5
5
14
21
21
39
46
46
53
53
53
50
47
45
43
42
41
40
40
40
41
42
42
43
43
43
42
41
40
40
38
37
36
36
35
34
33
31
29
27
25
24
22
22
21
20
19
18
18
17
18
20
24
30
38
46
56
64
69
71
71
68
64
61
57
54
53
52
51
51
51
51
52
53
54
53
53
52
51
49
47
46
45
44
43
42
41
40
39
38
37
35
34
32
31
30
29
28
26
24
23
21
20
21
26
34
43
53
62
70
74
76
75
73
70
68
64
60
57
55
54
52
52
52
52
52
52
52
51
49
47
45
42
40
39
38
37
36
35
34
33
32
31
31
30
29
28
28
27
25
24
22
21
20
20
23
30
38
47
57
66
72
74
74
72
69
65
62
59
55
51
47
44
41
41
41
41
40
40
40
38
36
33
31
28
26
24
23
22
20
19
18
16
16
15
15
15
16
16
17
17
16
16
15
15
15
15
23
31
31
51
60
60
73
74
73
69
66
66
60
59
59
58
59
59
61
62
63
64
65
66
66
67
68
67
66
64
63
61
58
56
54
52
49
47
45
44
42
40
40
38
37
36
37
40
46
55
64
73
81
86
88
87
85
83
81
79
77
76
74
72
70
70
69
68
67
66
65
63
60
58
56
54
52
50
49
47
46
44
42
40
38
36
35
34
33
32
31
29
28
29
34
41
52
63
74
83
89
92
91
89
87
84
81
78
76
74
72
71
70
70
69
69
69
68
67
66
65
63
61
59
58
56
54
52
50
46
43
40
39
36
34
32
30
27
26
25
25
28
35
42
53
64
74
81
85
85
84
82
80
78
75
73
71
70
68
67
68
68
68
67
65
62
59
56
53
50
47
44
42
41
40
39
37
34
32
28
25
21
19
15
12
9
7
4
4
5
9
15
24
34
44
53
60
64
65
65
64
62
59
56
52
48
46
45
45
45
46
47
47
47
46
44
42
40
37
34
33
32
31
29
28
27
25
24
22
20
18
17
15
14
14
15
15
16
18
22
27
34
42
50
58
65
69
69
68
65
61
58
56
53
50
48
47
47
47
47
47
44
42
42
37
35
35
31
29
29
25
24
24
21
20
20
17
16
16
16
16
16
16
15
13
13
14
18
25
34
43
53
60
64
66
64
63
60
57
54
52
49
48
47
46
46
46
46
47
45
45
44
42
41
40
39
38
36
35
34
34
33
32
32
30
28
25
22
20
19
18
17
15
14
12
10
9
9
12
18
27
37
47
57
63
67
68
68
66
64
62
60
58
56
54
53
52
51
51
50
50
50
50
49
47
45
44
41
40
38
36
35
33
32
31
29
26
24
21
18
14
12
10
8
7
6
5
4
2
1
0
0
1
5
11
19
30
40
48
55
58
58
56
55
53
51
48
46
43
41
40
40
39
38
37
36
35
33
31
28
26
24
22
21
20
19
19
19
18
17
17
16
16
14
12
10
10
10
11
12
13
14
14
13
12
12
14
18
24
32
40
48
54
58
59
58
55
52
49
46
44
42
40
40
39
38
38
38
38
38
37
36
35
33
31
29
27
27
25
24
24
23
23
23
20
18
18
16
15
15
13
12
12
11
10
10
11
12
16
22
30
40
49
59
65
69
69
67
65
62
59
57
56
54
53
53
53
53
54
54
55
55
55
54
53
51
49
47
45
43
42
40
39
37
35
33
31
29
26
24
23
22
22
21
20
19
17
17
17
19
23
29
37
45
54
62
68
70
70
68
64
60
57
53
49
45
42
40
37
35
34
32
31
30
28
27
25
24
23
22
20
19
18
17
16
16
16
16
15
13
11
10
10
9
9
9
8
8
7
6
5
6
9
15
23
32
40
47
53
55
54
52
49
46
43
40
39
39
38
38
39
40
41
42
43
45
45
46
46
45
44
43
42
40
40
38
37
35
32
28
25
22
20
18
16
14
12
11
9
10
12
17
25
33
42
50
57
61
63
63
61
59
57
55
53
51
49
48
46
45
44
44
43
42
42
40
39
36
34
31
29
28
26
25
24
24
23
22
21
21
21
20
20
19
20
20
20
21
22
26
33
41
50
59
67
72
73
72
69
65
62
58
55
54
53
51
50
50
50
50
50
50
50
49
48
46
44
42
40
40
38
37
36
35
34
32
30
28
26
24
23
23
19
17
17
14
13
13
19
26
26
40
46
46
53
52
52
49
47
47
43
41
40
39
37
36
36
36
36
36
36
35
34
32
30
29
27
25
24
24
23
22
22
21
19
18
17
16
15
11
11
11
13
13
24
32
32
47
54
54
60
59
59
56
53
53
47
46
46
44
44
44
45
46
47
47
46
45
44
42
40
39
38
36
34
33
32
31
30
28
26
24
23
21
19
17
16
15
16
19
25
34
42
51
61
63
63
61
58
55
54
53
51
50
49
48
48
48
49
50
51
52
52
50
49
47
45
43
41
40
40
39
39
40
39
38
37
35
33
32
30
28
26
24
24
24
25
29
35
42
50
59
66
70
72
71
69
66
62
58
54
51
48
45
43
42
41
41
40
40
40
39
38
37
35
34
32
30
28
25
24
24
22
22
21
19
16
15
13
12
10
9
7
6
5
5
5
9
15
24
33
42
50
57
60
62
61
60
58
56
54
52
49
48
48
44
42
42
41
40
40
37
36
36
30
28
28
24
22
22
19
17
17
17
17
17
17
16
16
16
16
16
17
18
20
22
26
32
40
49
58
67
75
80
81
79
76
72
68
64
61
58
56
53
52
50
49
48
48
48
47
45
44
42
40
40
39
38
37
37
36
34
32
31
28
26
25
23
23
21
21
20
21
23
28
36
44
53
62
69
73
73
72
69
66
64
62
60
58
56
55
53
52
52
52
52
52
53
52
51
50
47
46
44
42
41
41
41
40
40
40
39
38
37
36
34
31
29
27
25
25
27
32
40
49
58
68
76
80
81
79
76
73
70
67
65
63
61
60
58
57
57
57
56
55
55
54
52
51
49
47
45
44
42
41
40
39
38
36
35
33
31
30
29
26
24
23
21
19
19
21
27
35
43
52
60
65
66
65
63
60
57
54
50
48
45
43
41
41
41
42
43
44
44
43
43
42
40
40
38
36
35
33
32
30
28
26
23
21
18
16
14
13
13
12
10
9
9
10
12
17
23
32
41
50
57
62
63
62
59
57
55
53
52
51
51
51
52
53
53
54
54
54
53
52
50
48
46
43
42
41
40
38
35
33
30
27
25
25
23
21
21
18
18
18
20
24
24
38
46
46
66
72
72
76
74
74
69
66
66
62
61
60
59
58
58
58
59
59
58
57
55
52
49
46
44
42
41
40
38
36
35
32
31
29
27
25
24
25
24
23
22
22
21
23
29
37
46
57
66
73
76
76
75
72
70
67
64
61
58
55
55
54
55
55
56
57
57
57
56
54
52
50
47
45
43
41
40
38
37
35
33
32
31
29
27
26
25
23
22
21
20
22
27
36
46
57
68
77
81
82
81
79
76
72
68
64
60
57
55
55
55
55
55
55
54
52
51
49
47
44
41
39
37
35
33
31
27
24
21
19
16
13
11
9
8
6
5
4
3
2
3
8
17
26
38
48
57
62
65
65
63
61
58
54
51
48
44
42
40
39
39
39
39
40
39
38
36
35
32
29
27
25
24
22
20
19
18
19
19
20
21
22
22
22
22
21
22
23
26
32
39
48
57
65
70
73
72
69
65
61
58
54
52
50
49
49
49
49
51
51
51
50
49
46
44
42
42
39
38
38
35
34
34
30
28
28
24
22
19
18
16
15
16
19
25
35
45
56
67
75
80
81
79
77
75
72
69
66
63
61
59
58
58
59
59
60
59
58
56
54
51
48
45
43
41
40
38
36
33
31
29
27
26
25
24
22
19
18
17
18
23
31
40
51
62
72
78
81
81
79
76
72
69
64
61
57
54
51
49
47
46
45
43
42
40
39
36
33
29
26
24
22
20
19
17
16
15
14
13
12
10
8
7
6
5
5
6
9
16
24
34
42
51
58
62
63
62
60
57
54
51
50
49
48
48
49
50
51
53
54
55
55
55
54
52
50
49
48
47
45
43
42
40
38
36
34
32
29
27
25
24
24
26
32
40
49
59
70
79
84
85
84
82
79
76
73
70
67
64
62
61
61
62
63
62
62
61
60
58
55
53
50
47
45
42
40
40
38
36
34
32
30
27
25
23
20
18
14
12
9
7
7
10
16
25
35
45
55
63
68
70
70
69
67
65
61
58
55
53
52
51
51
52
52
52
53
53
52
51
50
48
46
44
43
42
41
40
39
39
39
37
36
34
32
29
25
23
21
20
20
23
28
36
45
45
64
71
71
75
72
72
65
60
60
54
52
52
47
47
47
48
49
49
50
49
47
45
42
40
38
36
34
32
30
28
25
24
22
20
18
17
15
15
14
13
11
9
8
6
6
10
18
28
39
51
61
68
72
72
71
68
65
63
61
58
56
53
51
49
48
47
47
46
45
43
41
39
37
34
32
29
27
25
23
22
21
21
20
18
18
17
16
14
12
12
11
10
9
7
5
5
5
7
14
21
32
43
53
60
63
64
62
58
54
51
48
44
41
39
38
35
34
32
31
29
27
24
22
20
17
14
12
11
9
7
6
5
3
2
1
0
0
0
0
0
0
0
0
0
0
0
0
0
0
0
2
11
20
31
40
47
50
51
48
45
41
37
33
28
25
23
22
21
21
22
23
24
23
24
24
24
24
24
24
24
24
23
23
22
21
20
20
19
18
16
15
13
12
12
12
11
11
13
15
20
27
35
44
52
59
63
64
62
59
56
52
48
45
43
41
40
40
40
40
40
41
41
41
39
37
37
32
30
30
26
25
25
24
24
24
22
21
20
19
18
17
17
17
17
17
17
18
23
32
40
50
60
67
72
74
73
70
67
63
60
57
54
53
52
51
50
50
51
52
53
53
53
52
51
49
48
46
44
42
40
39
38
37
35
34
32
30
27
25
24
22
20
18
16
15
16
19
26
35
44
52
59
64
64
62
59
55
51
47
44
41
40
38
37
36
36
36
36
36
35
34
32
30
28
26
25
24
23
23
21
20
20
18
17
16
16
15
14
12
11
10
10
10
9
10
12
16
23
31
40
48
54
58
59
58
58
57
56
56
56
55
54
52
51
52
52
53
54
55
56
56
56
56
56
55
53
52
50
48
46
43
42
40
38
35
34
32
30
28
27
26
25
25
25
27
33
41
50
60
68
74
76
74
71
69
66
64
61
59
58
55
54
53
52
52
52
52
52
51
50
49
47
45
43
40
37
33
29
26
24
24
23
22
21
19
18
17
17
18
18
19
19
18
17
18
23
30
39
48
56
61
63
63
61
59
56
53
50
47
45
43
42
41
41
41
41
42
41
41
40
39
37
35
34
34
33
32
32
31
31
29
28
26
26
24
23
23
21
19
19
16
15
15
13
14
14
23
30
30
47
55
55
61
61
59
57
54
51
48
45
43
42
40
40
38
38
36
35
33
32
32
32
31
30
28
26
25
24
23
22
21
20
20
19
18
18
18
19
19
19
18
17
15
13
12
11
10
9
9
10
15
23
32
42
50
57
60
61
60
58
55
51
49
46
43
41
39
37
37
37
38
39
39
40
39
38
37
35
35
34
33
33
33
32
32
31
30
29
28
27
25
24
23
22
21
21
21
21
20
19
18
17
17
19
22
29
38
47
57
66
71
73
73
70
67
63
60
56
54
52
51
50
50
50
51
51
52
51
51
49
48
46
44
41
40
38
36
34
33
32
31
30
29
28
26
25
24
23
22
21
20
19
18
17
16
15
14
14
14
16
23
32
43
54
63
70
74
74
72
68
64
60
56
53
52
51
51
52
54
55
56
57
57
56
55
53
51
48
46
44
43
41
40
39
38
37
35
34
32
32
32
30
29
29
26
25
25
24
22
22
19
17
17
16
18
18
30
41
41
64
74
74
83
83
80
77
73
69
66
62
59
56
55
55
55
55
55
54
53
51
49
47
44
41
38
35
34
32
31
30
30
30
29
27
26
24
24
23
22
21
21
19
18
17
16
15
14
11
9
8
7
8
12
22
33
44
56
66
72
74
73
71
67
62
59
55
52
50
48
48
48
49
50
52
53
54
54
52
50
48
45
43
42
40
38
36
34
32
31
30
28
28
27
26
26
26
26
27
27
27
27
26
25
24
23
23
23
27
34
43
55
65
75
82
86
85
82
78
74
69
66
63
61
59
57
57
57
58
59
59
59
60
59
58
56
54
51
49
47
45
44
42
40
39
37
35
34
33
32
31
30
30
30
29
27
25
23
22
21
62
74
84
91
94
94
91
88
84
81
77
74
71
69
68
68
68
68
68
68
67
66
64
62
60
57
55
53
51
49
47
45
44
42
40
38
36
35
34
34
34
34
33
31
30
28
26
26
30
38
48
60
73
84
91
94
93
89
85
79
74
69
65
62
60
58
56
55
54
54
54
53
52
51
50
47
44
41
39
36
32
29
26
24
24
19
18
18
16
16
16
17
15
15
11
10
10
10
15
15
33
45
45
68
75
79
81
80
78
76
74
71
67
64
61
59
58
58
59
60
61
61
60
59
56
54
51
48
44
42
40
38
37
35
32
30
28
26
26
26
27
28
28
28
27
26
25
24
26
31
39
48
60
72
83
91
95
96
95
93
89
85
80
76
73
71
69
68
69
70
70
71
70
69
66
64
61
59
56
53
51
47
45
42
40
39
36
33
30
27
25
24
23
21
19
18
15
14
14
16
21
30
40
53
66
76
83
87
87
86
85
83
81
79
77
75
73
71
70
70
69
68
66
64
61
59
56
53
50
47
44
43
42
41
40
40
39
38
36
34
32
30
27
26
24
23
22
21
18
16
14
14
15
20
28
39
51
63
75
83
88
89
88
86
83
80
76
73
71
69
68
68
67
66
66
65
63
61
59
55
52
50
47
45
42
40
38
36
33
30
26
24
21
18
15
12
10
8
6
5
5
3
0
0
0
0
0
0
0
3
3
25
38
38
59
64
64
66
64
64
59
57
57
50
47
44
43
42
41
41
42
41
40
40
37
34
31
28
24
22
19
17
15
14
13
12
12
11
10
9
9
8
7
7
7
7
7
5
3
1
0
1
3
8
15
25
35
45
55
62
65
66
65
62
58
54
50
47
45
43
42
43
43
45
46
46
47
46
45
44
42
41
40
39
37
36
34
33
33
31
30
28
26
24
22
20
19
18
16
14
13
12
11
11
13
18
27
37
48
58
67
72
74
74
72
69
66
63
60
58
56
54
53
52
52
52
51
51
50
48
46
43
41
39
36
34
32
30
29
27
26
25
23
22
21
19
18
18
18
18
17
16
14
13
12
12
12
15
22
31
41
53
65
73
79
80
79
76
73
71
68
66
63
61
59
58
57
57
56
55
55
55
54
53
51
49
47
44
41
38
35
32
30
28
25
24
22
20
18
16
14
12
11
10
8
6
4
1
0
0
0
0
2
11
21
33
44
52
56
58
58
56
53
51
49
47
43
41
40
38
37
37
39
38
38
37
35
33
30
27
24
22
20
18
15
14
13
13
12
11
10
8
8
7
7
6
6
6
6
6
4
4
2
3
3
11
18
18
37
45
45
56
57
57
54
51
51
47
45
44
42
41
40
40
40
40
40
41
41
41
40
40
39
38
36
36
36
35
35
34
32
30
27
25
23
22
21
20
20
18
17
16
16
16
16
20
26
34
43
54
64
72
77
78
77
75
73
70
68
67
65
63
61
59
58
57
56
55
54
52
50
48
45
43
41
40
38
36
34
32
30
28
26
24
22
21
19
18
17
17
16
17
17
18
18
18
20
25
33
43
54
64
74
79
82
80
77
74
71
68
67
65
63
62
61
60
59
60
60
60
58
56
55
53
51
49
47
46
44
43
42
40
40
39
38
36
33
31
29
27
25
24
24
23
22
20
17
16
16
17
22
31
42
54
66
77
84
87
87
85
83
80
77
73
70
67
63
60
58
57
56
55
54
52
50
47
46
43
40
38
35
33
31
29
28
27
25
24
23
22
20
18
16
15
14
14
13
13
12
11
9
8
7
7
9
15
25
36
36
60
70
70
79
78
78
72
68
68
62
60
60
55
53
53
54
55
55
57
56
56
54
52
50
48
47
46
44
43
42
41
40
40
38
36
33
31
28
25
24
23
22
21
19
18
17
17
19
24
33
43
54
65
74
80
83
82
81
80
77
75
71
68
66
64
63
63
63
64
65
65
64
62
60
56
54
52
49
47
46
44
43
41
40
38
36
33
31
28
26
24
23
21
20
19
17
16
15
16
21
29
40
54
68
81
90
94
95
94
92
89
86
82
78
76
74
72
71
70
70
69
69
68
67
66
63
60
57
54
51
48
45
44
43
41
40
39
38
36
34
32
30
29
28
27
25
23
21
19
17
16
15
17
23
32
43
56
68
78
85
88
88
87
84
82
79
76
73
70
68
66
64
64
65
65
65
64
62
59
56
51
47
43
40
36
33
30
28
27
25
24
22
20
19
18
17
15
13
12
11
11
10
9
7
6
5
4
6
12
22
34
48
62
74
81
85
86
84
81
77
73
68
64
60
57
56
55
55
56
57
57
57
56
55
52
50
47
43
40
39
38
37
36
35
34
33
30
28
25
23
21
19
16
14
13
11
9
8
7
7
8
14
22
22
45
58
58
77
81
81
83
81
81
73
68
68
59
56
56
54
55
55
58
58
58
56
54
50
46
42
40
37
34
31
29
27
25
25
23
22
20
18
17
17
16
16
14
12
10
9
8
8
9
15
25
37
49
64
78
88
94
96
96
94
91
87
62
60
59
57
57
56
55
55
55
55
55
55
54
52
51
49
48
46
44
42
41
40
40
39
38
37
36
35
33
32
32
31
31
30
28
27
26
25
24
25
28
33
39
45
53
60
65
67
68
68
67
66
64
62
60
58
56
55
54
53
52
51
51
50
49
48
46
44
42
40
38
36
34
32
31
29
28
26
25
23
22
22
22
22
21
20
20
19
18
17
16
15
15
16
19
23
29
36
43
50
55
59
60
60
59
57
55
52
50
48
46
46
45
45
45
46
46
47
47
47
46
45
44
42
41
40
39
38
36
35
34
33
32
32
31
31
30
30
29
29
29
29
28
27
26
24
24
24
26
30
37
43
51
57
62
65
66
66
64
63
63
58
56
56
52
51
51
51
51
51
51
51
51
50
49
49
46
44
43
41
40
39
38
37
35
34
33
32
31
30
29
28
27
26
26
25
24
23
23
23
24
27
33
40
47
55
62
67
70
70
70
68
67
65
63
62
60
58
57
56
55
54
54
53
53
52
51
49
48
46
44
43
42
40
40
39
38
37
36
35
34
33
32
30
29
28
27
27
27
26
26
25
24
23
22
21
21
24
28
34
41
49
57
64
68
69
68
67
65
63
61
58
56
54
53
52
51
51
51
50
49
48
48
46
45
44
42
41
40
39
38
36
35
34
33
32
31
30
29
27
27
26
25
24
23
22
21
20
19
18
17
16
15
16
19
24
30
37
44
51
55
58
58
57
55
52
50
47
45
44
42
41
41
41
41
41
41
41
40
40
38
37
35
33
31
30
29
28
27
27
26
25
24
24
23
22
21
20
20
19
19
18
18
17
17
17
17
17
17
18
22
27
33
40
46
51
55
57
56
54
52
49
46
44
42
40
40
40
40
40
41
42
42
43
42
42
41
40
40
39
38
38
37
37
37
36
36
35
34
33
31
30
29
28
27
26
26
25
25
24
24
24
29
34
34
46
52
52
60
61
61
59
57
57
53
51
51
49
48
48
48
48
48
48
48
48
47
46
44
43
41
40
40
39
38
37
36
35
34
33
32
32
31
30
30
29
28
28
28
28
27
28
29
32
36
42
48
55
61
65
67
67
66
64
62
61
59
57
56
55
54
53
53
53
53
52
52
52
51
50
49
48
46
45
44
42
42
41
41
40
40
40
39
39
38
37
36
35
35
34
33
32
31
30
31
33
36
40
46
53
60
65
67
68
67
65
63
60
58
56
54
53
52
51
51
51
51
51
51
50
49
48
46
45
43
42
40
39
38
37
37
35
34
33
32
32
31
30
29
28
28
27
26
26
25
24
23
24
26
29
35
40
47
54
59
62
63
63
61
59
57
54
52
50
48
47
46
46
47
47
48
48
48
47
45
43
41
40
39
38
38
38
37
37
37
36
36
35
34
33
33
32
32
31
30
29
28
28
28
28
30
34
39
44
51
57
61
64
64
65
63
63
59
57
57
54
52
52
51
51
51
53
53
53
51
50
50
47
45
43
41
40
40
38
37
36
35
34
33
32
31
31
30
29
29
28
27
26
26
26
26
48
56
62
66
68
68
67
65
64
63
61
59
58
57
56
55
54
53
53
52
52
51
50
49
47
45
43
42
41
40
39
38
37
36
36
35
34
33
31
31
30
29
28
27
26
26
25
24
24
25
27
32
38
44
51
60
64
65
65
64
62
60
58
56
55
53
51
50
50
50
50
50
50
49
48
46
45
43
41
40
39
37
36
35
34
34
33
32
31
30
29
28
26
25
24
22
21
20
19
17
16
15
14
14
16
20
26
32
40
46
51
54
55
55
53
52
50
48
46
44
43
42
41
41
41
41
42
42
41
40
40
38
37
36
34
33
31
31
29
28
27
27
26
25
24
24
23
23
22
21
21
20
19
18
17
17
16
17
19
24
29
36
42
48
52
55
55
55
53
52
50
48
47
45
43
42
42
41
42
42
43
43
43
42
41
40
40
39
37
36
35
34
33
32
31
30
29
28
27
26
26
25
25
25
24
24
24
24
27
32
38
44
51
57
62
64
64
63
62
61
61
59
57
57
54
52
52
52
51
51
51
51
51
49
47
45
43
40
40
34
32
29
27
26
25
24
24
22
21
21
20
20
20
20
19
18
18
18
18
21
25
31
37
43
49
52
54
54
54
52
51
49
46
44
43
42
41
40
40
40
41
41
41
40
40
39
38
37
36
35
34
33
32
31
29
27
26
25
24
22
22
21
19
18
16
14
14
13
12
14
17
23
29
35
40
44
46
46
46
50
46
43
40
36
32
29
26
25
25
25
25
25
25
25
23
21
18
17
15
13
11
10
8
6
4
3
1
1
0
1
1
1
2
3
3
2
2
4
8
14
23
32
41
50
56
59
58
56
51
48
44
41
38
36
35
35
36
37
39
40
40
40
39
37
35
35
35
34
33
32
29
26
24
21
19
17
15
13
11
9
6
4
3
3
6
14
23
34
44
54
62
65
65
63
61
58
54
52
49
46
43
41
41
40
39
40
39
38
36
34
31
29
26
24
23
22
22
22
20
19
19
17
16
16
16
15
15
12
11
11
9
8
8
12
18
18
39
53
67
80
89
92
92
89
85
81
76
71
66
61
55
52
49
48
47
46
47
47
47
47
47
46
45
42
40
38
34
31
27
23
20
18
16
15
14
14
14
13
11
9
8
7
11
18
28
39
51
63
71
75
75
73
69
