Wave
51
54
55
55
53
51
49
48
47
46
45
44
44
43
43
43
43
43
42
41
40
39
38
36
35
34
33
32
31
31
30
30
30
30
29
29
28
28
28
27
27
27
30
34
34
43
49
49
56
57
57
54
52
52
49
48
47
46
45
45
44
44
45
45
44
44
43
42
40
39
38
36
35
34
33
33
32
32
31
31
31
30
30
30
29
29
28
28
27
27
29
32
37
42
49
54
58
59
59
58
56
54
53
52
51
50
49
48
48
47
47
47
47
46
45
44
42
41
40
39
37
36
35
34
33
33
32
32
31
31
31
31
30
30
29
29
28
27
27
26
26
28
31
37
42
49
56
60
62
63
62
60
58
57
56
55
54
53
53
52
51
51
51
50
50
49
48
46
45
43
41
40
39
38
37
36
35
34
34
33
33
32
32
31
31
30
29
29
28
27
26
25
25
26
28
32
38
44
51
57
61
63
63
62
60
58
56
55
54
53
52
51
51
50
50
50
50
49
48
47
46
44
42
40
40
38
37
36
35
34
33
33
32
32
31
31
31
30
30
29
28
28
27
26
26
25
25
26
30
30
40
48
48
60
63
63
62
60
60
56
54
54
52
51
51
50
50
50
50
50
49
48
47
45
44
42
40
34
34
33
33
32
31
31
30
30
29
29
28
27
26
26
25
24
24
25
29
34
40
47
53
58
61
61
60
58
56
55
53
52
51
50
49
48
47
47
46
46
45
44
43
42
40
39
37
36
34
33
32
31
30
29
28
28
28
27
27
26
26
25
24
24
23
22
22
21
21
21
24
28
34
40
48
54
59
61
62
60
58
56
55
53
52
51
50
49
49
48
48
47
47
46
46
44
43
41
40
38
37
35
34
33
32
31
30
29
29
28
28
27
27
26
26
25
24
24
23
23
22
21
21
21
21
24
29
35
41
48
54
57
58
58
56
54
51
50
48
47
46
45
45
44
44
44
44
44
44
43
41
40
39
37
36
34
33
32
31
30
30
29
29
29
29
28
28
28
27
27
26
26
25
25
24
24
23
23
25
28
32
38
44
51
56
59
59
58
56
54
52
50
49
48
47
47
46
46
46
46
46
46
45
44
42
41
40
39
37
36
35
34
33
32
32
32
31
31
31
30
30
30
29
29
28
28
27
26
26
25
25
25
29
33
39
45
52
52
60
61
61
58
56
56
53
52
52
50
49
49
48
48
48
48
47
47
46
44
43
41
40
39
38
36
35
35
34
34
33
33
32
32
31
31
30
30
29
28
28
27
27
26
26
25
24
24
24
26
29
34
40
47
54
59
62
62
61
59
57
55
54
53
53
52
51
50
50
49
49
49
48
47
46
45
43
42
40
40
38
37
36
35
35
34
33
33
32
32
32
31
31
30
29
29
28
28
27
27
26
26
25
25
24
24
24
26
29
35
40
47
54
59
62
63
62
60
57
55
54
53
52
51
51
50
50
50
49
49
49
48
46
45
43
42
40
40
38
37
36
35
35
34
34
33
33
33
32
32
32
31
31
30
30
29
29
28
27
27
26
26
25
26
28
32
38
44
51
58
62
63
63
61
59
57
55
54
53
52
51
50
50
50
50
49
49
48
47
46
44
43
41
40
38
37
36
35
34
34
33
33
32
32
32
31
31
31
30
29
29
28
27
27
26
25
25
24
23
23
24
26
26
37
43
50
57
62
64
64
62
60
58
56
55
54
53
53
52
51
51
50
50
50
49
48
47
46
44
42
40
40
38
37
36
35
34
34
33
33
32
32
31
31
30
30
29
28
27
27
26
25
25
24
23
23
23
22
22
23
26
31
38
45
53
59
63
65
64
63
61
58
57
56
55
54
53
53
52
52
52
51
51
50
49
48
46
44
42
41
40
38
37
35
34
33
33
32
31
31
31
30
30
29
28
28
27
27
26
25
25
24
24
23
23
22
22
22
22
23
26
31
38
45
53
60
65
67
66
64
62
59
57
55
54
53
53
52
52
52
52
52
51
51
50
48
47
45
43
41
40
38
37
35
34
34
33
33
32
32
32
31
31
31
30
30
29
28
28
27
27
26
25
25
24
24
23
23
25
28
34
40
49
57
63
67
69
68
65
63
60
58
56
54
53
52
52
51
51
51
51
51
50
49
48
46
44
42
40
39
37
36
35
34
33
32
32
31
31
30
30
29
29
28
28
27
27
26
26
25
24
24
23
23
22
22
22
25
29
36
43
52
61
67
71
71
71
68
68
63
60
60
57
56
56
54
54
54
53
53
53
52
50
49
47
45
43
40
39
38
36
35
34
33
32
31
31
30
30
30
29
29
28
28
27
26
26
25
24
24
23
23
22
22
21
21
21
21
24
29
36
43
53
62
69
73
74
73
70
67
64
62
60
58
57
56
56
55
55
55
54
54
53
52
50
49
46
44
42
40
39
37
35
34
33
32
31
31
30
30
29
29
28
28
27
26
26
25
24
24
23
23
22
22
21
21
21
21
21
24
29
37
45
55
64
71
74
75
73
70
66
63
60
58
56
55
54
54
54
54
55
55
55
54
53
51
49
47
44
42
40
39
37
36
34
34
33
32
32
32
32
32
31
31
31
30
30
29
28
27
27
26
25
24
24
24
26
31
38
46
56
65
72
76
77
75
72
68
65
62
59
57
56
55
55
55
55
56
56
56
55
54
52
49
47
44
42
40
39
37
36
35
34
33
33
32
32
32
31
31
30
30
30
28
28
28
26
25
25
24
23
23
23
24
24
36
43
53
63
71
76
78
77
75
72
68
66
64
62
61
59
59
58
57
57
57
56
55
54
52
50
48
45
43
41
40
38
37
35
34
34
33
32
32
31
31
30
30
29
28
27
27
26
25
25
24
23
22
22
21
21
21
24
29
36
44
53
62
68
72
72
71
68
65
62
60
59
57
56
55
54
53
53
52
52
51
50
49
47
45
42
40
39
37
35
34
33
32
31
30
30
29
29
29
28
28
27
26
26
25
25
24
23
22
22
21
21
20
20
21
25
31
38
45
54
61
65
66
66
63
61
58
56
54
53
52
51
51
51
50
50
50
50
49
48
47
45
43
41
40
38
36
35
34
33
32
32
32
31
31
30
30
30
29
29
28
27
27
26
25
24
24
23
23
22
23
25
30
37
43
52
59
64
66
66
65
62
60
58
56
55
54
53
52
52
51
51
51
51
50
49
48
46
44
42
40
39
38
36
35
34
33
33
32
32
31
31
30
30
29
29
28
28
27
27
26
25
25
24
24
23
23
24
28
33
40
48
56
63
67
68
68
66
64
61
60
59
59
57
56
56
54
54
54
53
52
52
51
49
49
45
43
43
40
39
39
36
36
35
34
33
33
32
32
31
31
30
30
29
28
28
27
27
26
25
25
24
24
23
23
23
24
27
32
39
46
54
62
67
69
69
68
65
63
61
60
59
58
57
56
55
55
54
54
54
53
52
51
49
47
45
43
41
40
39
38
36
35
35
34
33
33
32
32
31
31
30
29
29
28
27
27
26
25
25
24
23
23
22
22
23
27
32
39
46
55
62
66
68
68
66
64
61
59
57
56
55
54
54
53
53
53
53
52
52
50
49
47
45
43
41
40
38
36
35
34
33
33
32
32
31
31
30
30
30
29
28
28
27
26
25
24
24
23
22
22
22
25
30
36
43
52
59
65
67
67
66
63
60
58
56
54
53
52
51
50
50
50
50
49
49
48
47
45
43
41
39
37
35
34
32
31
30
29
28
28
27
27
27
26
26
25
25
24
23
23
22
21
21
20
19
19
18
18
18
23
28
28
43
52
52
65
67
67
66
63
63
58
57
55
54
53
52
51
50
50
50
49
49
48
46
45
43
40
39
37
35
34
32
31
30
29
28
28
27
27
26
26
25
25
24
23
23
22
22
21
20
20
19
18
18
17
17
17
20
25
31
40
48
56
62
65
66
65
63
60
58
56
54
53
52
51
50
50
49
49
48
48
47
46
44
42
40
39
37
35
33
31
30
29
28
28
27
26
26
26
25
25
24
23
23
22
21
20
19
18
17
16
15
14
14
13
13
14
16
21
27
35
43
52
59
62
64
63
61
58
56
54
52
51
50
49
49
49
49
49
49
49
48
47
46
44
42
40
38
36
34
33
31
30
29
29
28
28
27
27
27
27
26
26
25
25
24
24
23
22
21
21
20
21
24
30
37
44
52
60
64
66
66
64
61
59
56
54
52
51
50
49
48
48
48
48
48
48
47
45
43
41
40
38
36
34
32
31
30
29
28
28
28
27
27
27
26
26
26
25
25
24
23
22
22
21
20
19
19
20
23
28
36
44
53
61
67
70
70
68
66
63
61
59
57
56
55
53
52
52
51
51
50
50
49
47
47
43
41
41
38
36
36
33
31
31
30
29
29
28
27
27
26
26
25
24
24
23
23
22
21
20
20
19
19
18
18
20
25
31
38
46
53
59
63
64
63
61
59
56
55
54
52
51
50
49
48
48
47
47
46
45
44
43
41
40
38
36
35
33
32
30
30
29
28
28
27
27
26
26
25
25
24
23
23
22
21
21
20
19
19
18
18
18
18
20
24
30
38
44
52
57
60
61
60
58
56
54
52
51
50
49
48
48
47
47
47
47
46
46
44
43
41
40
38
36
35
33
32
31
30
30
29
29
28
28
27
27
26
26
25
24
24
23
23
22
21
21
20
20
21
45
52
58
62
63
62
60
58
56
54
53
52
51
50
50
49
49
49
48
48
47
46
45
43
41
40
38
36
35
34
33
32
31
30
30
29
29
28
28
27
27
26
26
25
24
24
23
23
22
21
21
20
20
20
22
29
36
44
52
60
65
68
68
67
64
64
61
60
60
58
57
57
55
55
55
54
53
53
51
50
50
46
44
42
40
39
37
36
35
34
33
32
31
31
30
30
29
29
28
28
27
26
26
25
24
24
23
23
22
22
22
21
21
22
24
29
36
43
52
61
67
70
71
70
67
65
63
61
60
59
58
57
56
55
54
54
54
53
52
51
49
47
45
43
40
39
37
36
34
33
32
32
31
30
30
29
29
28
28
27
26
26
25
24
24
23
23
22
22
21
21
21
20
20
21
24
29
37
45
54
62
68
71
71
70
67
64
61
59
57
56
55
55
54
54
54
54
53
53
52
51
49
47
44
42
40
39
37
35
34
33
32
32
31
31
31
30
30
30
29
29
28
28
27
26
26
25
24
23
22
22
23
25
31
38
46
55
64
70
73
73
71
68
65
62
59
57
56
54
54
53
52
52
52
52
52
51
50
48
46
43
41
39
37
35
34
32
31
30
29
29
28
28
28
27
27
26
26
25
25
24
24
23
22
22
21
20
20
22
26
32
40
50
60
68
74
76
76
74
71
67
65
62
61
59
58
57
56
56
55
55
55
54
53
52
50
47
45
43
40
40
37
35
35
33
32
32
30
30
30
29
29
29
28
27
27
26
25
25
24
23
22
22
21
20
20
20
22
26
34
42
52
63
72
77
79
79
76
73
69
66
64
62
60
59
58
57
57
56
56
56
55
54
52
50
48
45
42
40
39
37
35
34
32
31
31
30
29
29
28
28
27
27
26
26
25
24
24
23
22
22
21
20
20
19
19
19
22
27
35
43
54
65
73
78
79
78
75
71
67
63
60
58
57
56
55
55
55
55
55
55
54
53
51
49
47
44
41
40
38
36
34
32
31
30
30
29
29
29
29
29
28
28
27
27
26
25
25
24
23
22
21
21
22
25
31
39
48
59
69
75
79
79
76
73
68
64
61
58
56
55
54
53
53
54
54
54
54
53
51
49
47
44
41
40
37
35
34
32
31
30
30
29
29
28
28
28
27
27
26
26
25
24
23
23
22
21
20
19
20
23
29
37
46
58
68
76
80
81
79
76
72
68
65
65
61
59
59
57
57
57
56
56
56
55
53
53
49
46
46
41
39
39
35
33
32
31
30
29
29
28
28
28
27
27
26
26
25
25
24
23
22
22
21
20
20
19
21
26
33
42
53
64
74
79
82
81
78
73
69
66
63
61
59
58
57
56
56
56
56
56
55
54
52
50
47
45
42
40
38
36
34
32
31
30
30
29
29
29
28
28
28
28
27
27
26
25
25
24
23
22
22
21
23
27
34
42
53
64
73
78
80
80
76
72
68
64
61
58
56
55
54
54
54
55
55
55
55
54
52
50
47
45
42
40
38
36
35
33
32
32
31
31
30
30
30
30
29
29
28
28
27
26
25
24
23
25
29
36
44
54
65
73
78
80
79
76
72
69
66
63
61
59
57
56
55
55
55
55
54
53
52
50
47
45
42
40
38
36
34
33
31
30
30
29
29
28
28
28
27
27
26
26
25
24
23
22
22
21
21
23
27
35
43
54
64
72
77
79
78
75
72
68
66
63
62
60
59
57
56
55
55
54
54
53
51
49
47
45
42
40
39
37
35
33
32
31
30
30
29
29
28
28
28
27
27
26
25
24
23
22
21
21
20
20
20
26
33
33
51
62
62
76
77
77
74
71
71
65
62
62
59
57
56
55
54
54
53
53
52
50
48
46
43
41
39
37
35
33
31
30
29
29
28
28
27
27
27
26
26
25
25
24
23
23
22
21
20
20
19
20
23
29
38
46
57
66
72
75
75
73
70
66
63
60
58
56
55
54
54
53
54
54
53
53
51
49
47
45
42
40
38
36
34
33
32
31
30
30
30
29
29
29
29
28
28
27
26
25
24
23
22
21
23
27
34
41
50
59
66
70
70
69
66
63
61
58
56
54
53
52
51
50
50
49
49
48
47
45
43
41
40
37
35
33
31
30
28
27
26
26
25
25
24
24
23
23
22
21
20
19
18
17
16
16
17
20
25
32
40
48
56
61
63
63
62
60
57
56
54
53
52
50
49
48
47
46
46
45
44
43
41
40
38
36
33
31
30
28
27
25
25
24
23
23
22
22
21
21
20
20
19
18
17
17
16
16
15
14
14
16
20
20
33
40
48
54
58
58
58
56
56
52
51
51
49
48
47
46
45
44
44
43
43
42
41
40
38
36
34
32
31
29
28
27
26
25
25
24
24
23
23
22
22
21
21
20
19
19
18
17
17
16
15
15
16
19
23
29
37
43
49
53
54
54
52
51
49
48
47
46
45
44
43
43
42
42
41
41
40
40
39
37
36
34
32
31
29
28
27
26
25
25
24
24
23
23
22
22
21
21
20
19
19
18
18
17
17
16
16
17
20
24
30
37
43
48
51
51
50
49
47
45
44
43
42
41
41
40
40
40
40
40
40
40
39
38
36
35
33
31
30
29
28
27
26
25
25
24
24
24
23
23
22
22
21
20
20
19
18
18
17
17
18
21
26
32
39
44
49
52
52
52
50
48
47
46
45
44
44
43
42
42
42
42
41
41
40
40
39
37
36
34
33
31
30
29
28
27
26
26
25
25
24
24
23
23
22
22
21
21
20
20
19
18
17
17
17
17
20
25
31
38
44
50
53
54
54
52
50
49
47
47
46
45
44
44
43
42
42
42
41
41
40
40
39
37
36
34
33
31
30
29
29
28
27
27
27
26
25
25
24
24
24
23
22
22
21
20
20
19
18
18
18
19
22
27
34
40
46
52
54
55
54
52
50
48
47
46
45
44
44
43
43
43
43
43
42
42
41
40
39
38
36
35
33
32
31
30
30
29
29
28
28
28
27
27
27
27
26
26
25
25
24
24
23
22
22
21
22
25
29
35
41
48
54
57
59
58
56
53
51
49
48
47
46
46
46
46
46
46
46
46
46
45
44
42
40
40
38
37
36
35
34
33
32
32
32
31
31
30
30
30
29
29
28
28
27
26
26
25
25
26
30
35
40
47
54
59
61
62
61
58
56
54
53
52
51
50
49
49
48
48
48
48
48
47
46
45
43
41
40
39
37
36
34
34
33
32
32
31
31
30
30
29
29
28
28
27
27
26
25
25
24
23
24
26
30
36
42
50
58
63
65
65
64
62
60
58
56
55
54
54
53
52
52
51
51
51
50
49
48
47
45
43
41
40
38
38
36
35
35
33
32
32
31
31
31
30
29
29
28
27
27
26
25
25
24
23
23
23
25
29
35
42
50
58
64
68
68
67
65
63
60
59
57
56
55
55
54
53
53
52
52
52
51
49
48
46
44
42
40
39
37
36
34
33
32
32
31
31
30
30
29
29
28
28
27
27
26
25
24
23
23
22
22
23
26
31
38
46
55
62
67
69
69
67
64
62
59
58
56
55
54
54
53
53
53
53
53
52
51
49
47
45
43
41
40
38
37
36
35
34
33
33
32
32
32
32
31
31
30
30
29
29
28
27
26
26
28
32
38
44
52
60
66
69
69
68
66
63
61
58
57
55
54
53
53
52
52
52
52
52
51
49
47
45
43
41
40
38
36
35
34
33
32
32
31
31
31
30
30
29
29
28
27
26
26
25
25
26
30
36
42
50
59
65
68
69
69
67
64
62
60
59
57
56
55
53
52
52
51
51
50
49
48
46
44
42
40
39
37
35
34
33
32
31
30
30
29
29
28
28
27
26
26
25
24
24
23
22
22
22
23
27
34
41
50
58
65
69
71
70
67
65
63
61
59
58
57
55
54
53
52
52
51
51
50
48
48
44
42
42
38
36
36
33
32
32
30
29
29
28
27
27
26
26
26
25
24
23
22
22
21
20
20
20
22
27
33
40
49
57
63
66
66
65
63
60
58
56
54
53
52
50
49
49
48
48
48
47
46
44
42
40
39
31
30
29
29
28
27
27
27
26
26
26
25
25
24
23
23
22
21
21
22
26
31
38
46
54
61
65
66
65
63
60
57
55
53
52
51
50
49
48
48
48
48
48
47
45
43
41
40
38
36
34
33
31
30
29
28
28
27
27
27
26
26
25
25
24
23
22
22
21
22
25
30
37
44
52
59
64
65
65
63
61
59
57
55
54
52
51
50
49
48
48
48
47
46
45
43
41
40
38
36
34
33
31
30
29
28
28
27
27
26
26
25
25
24
24
23
22
22
21
20
20
20
21
25
32
40
48
56
63
67
68
67
65
63
61
59
58
56
55
54
53
52
51
51
51
50
49
47
46
44
44
40
38
38
34
33
33
31
30
30
29
28
28
27
27
27
25
25
25
23
22
22
21
20
19
19
20
23
29
36
44
53
60
65
67
67
65
62
59
57
56
54
53
52
51
50
50
49
49
49
48
46
45
43
41
39
37
35
34
32
31
30
29
28
28
28
27
27
26
26
26
25
24
24
23
22
21
21
20
20
22
26
33
40
48
56
62
65
66
64
62
59
57
55
53
52
51
50
50
50
50
50
50
49
48
46
44
42
40
39
37
35
34
33
31
31
30
29
29
28
28
27
27
27
26
25
24
24
23
22
22
23
27
32
40
47
56
62
66
67
66
64
62
59
57
55
54
53
52
51
50
50
50
50
49
48
47
45
43
41
40
37
35
34
32
31
30
29
28
28
27
27
26
26
26
25
25
24
23
23
22
21
20
20
21
25
32
40
48
57
65
69
71
70
68
66
63
61
59
58
57
56
55
54
53
53
53
52
51
50
48
46
44
42
40
38
36
35
33
32
31
30
30
29
29
28
28
27
27
26
26
25
24
23
22
22
21
20
20
21
24
30
38
47
57
65
70
72
72
70
67
64
61
59
57
56
55
54
53
53
53
53
52
52
52
49
46
46
42
40
40
36
34
34
31
30
30
29
28
28
28
27
27
26
26
25
25
24
23
23
22
21
20
20
21
25
31
40
48
58
66
71
73
72
69
66
62
59
57
55
53
53
52
52
52
52
52
52
51
50
48
46
43
41
40
37
36
34
33
32
31
30
30
30
29
29
29
28
28
27
26
26
25
24
23
22
23
25
30
38
46
55
64
70
73
73
71
68
65
61
59
56
55
53
52
52
52
52
52
52
51
50
48
46
43
41
39
37
35
33
31
30
29
28
28
27
27
27
26
26
26
25
24
24
23
22
21
21
21
23
27
34
42
52
62
70
74
75
74
71
68
65
62
60
58
57
56
55
54
53
53
53
52
51
50
48
45
43
40
38
36
34
33
31
30
29
29
28
27
27
27
26
26
25
24
24
23
22
21
20
19
19
19
21
26
34
42
52
61
68
71
72
70
67
64
61
59
57
55
54
52
51
51
50
50
50
49
47
47
44
41
41
37
35
35
31
30
30
27
26
26
25
25
24
24
23
23
22
22
21
20
19
19
18
17
16
16
16
18
22
29
37
45
54
61
65
65
64
61
58
55
53
51
49
48
47
47
47
47
47
47
46
45
44
42
40
39
36
34
32
31
29
28
28
27
26
26
26
25
25
25
25
24
24
23
22
22
21
20
20
19
20
23
29
36
43
52
59
63
65
64
62
59
56
53
51
50
48
47
47
47
47
47
47
47
46
45
43
41
40
38
36
34
32
31
29
29
28
27
27
27
26
26
26
25
25
24
24
23
22
21
21
20
21
24
29
37
44
53
60
65
67
67
65
62
60
57
56
54
53
52
51
51
50
50
50
50
49
48
47
45
43
40
39
37
36
34
33
32
31
30
30
29
29
29
28
28
27
27
26
25
25
24
23
22
22
21
22
26
31
39
46
55
63
68
70
70
68
65
63
61
59
58
57
56
55
54
53
52
52
51
50
49
47
45
43
41
39
37
36
34
33
31
30
30
29
28
28
27
27
26
25
25
24
24
23
22
21
20
19
19
19
21
25
31
39
46
54
60
63
64
63
60
60
55
53
53
51
50
50
48
48
48
47
47
47
46
44
44
41
40
40
36
34
32
31
30
29
28
28
27
27
26
26
26
25
25
24
24
23
22
22
21
20
20
20
23
27
34
41
49
57
62
64
64
62
60
57
55
53
52
51
50
49
48
48
48
48
48
47
46
45
43
41
39
37
35
34
32
31
30
29
29
28
28
27
27
26
26
25
25
24
23
22
21
20
20
20
23
28
35
42
51
58
63
66
66
65
63
61
59
57
56
54
53
52
51
51
50
50
50
49
48
46
44
42
40
39
37
35
33
32
31
30
29
28
28
27
27
26
26
25
25
24
23
23
22
21
20
20
19
20
22
28
35
42
52
60
66
70
70
69
67
64
62
60
59
57
56
55
54
53
52
52
52
51
50
48
46
44
41
40
38
36
34
33
31
30
29
29
28
28
27
27
26
26
25
25
24
23
23
22
21
20
19
19
19
22
27
35
42
52
60
66
66
70
68
68
62
60
60
56
55
55
53
52
52
51
51
51
50
49
49
45
43
40
39
37
35
33
32
30
29
29
28
28
27
27
27
26
26
25
25
24
24
23
22
21
21
20
20
21
24
30
38
46
56
64
70
72
71
69
66
63
60
57
55
54
53
52
52
52
52
53
52
52
50
49
46
44
42
40
38
36
34
33
32
31
30
30
29
29
29
29
28
28
27
27
26
25
24
23
22
22
24
29
35
43
52
62
69
73
74
73
70
67
64
62
59
58
56
55
54
53
53
53
53
52
51
49
47
45
42
40
38
36
34
33
32
31
30
29
29
28
28
27
27
27
26
26
25
24
23
22
21
20
20
20
22
27
35
43
54
63
71
75
76
75
72
69
66
64
62
60
58
57
56
55
55
55
54
53
52
51
48
46
43
41
39
37
35
33
32
31
30
29
29
28
28
28
27
27
26
26
25
24
23
23
22
21
20
19
19
21
25
31
40
49
60
69
74
77
77
74
71
68
65
62
60
58
57
56
55
55
54
54
54
53
51
49
47
44
41
40
37
35
33
32
31
30
29
28
28
27
27
27
26
26
25
25
24
23
23
22
21
21
20
19
19
20
24
24
40
49
49
69
74
74
76
73
73
66
63
63
58
56
55
54
54
54
54
54
54
53
52
50
47
44
42
40
37
35
34
32
31
30
30
29
29
29
29
29
28
28
28
27
26
25
24
23
22
22
21
21
24
29
37
46
56
66
73
77
78
76
72
69
65
63
60
58
57
56
55
55
54
54
54
54
52
50
48
46
43
40
38
36
34
33
31
30
30
29
29
28
28
27
27
27
26
25
25
24
23
22
22
21
20
19
20
22
27
35
44
55
66
74
78
80
78
75
72
69
66
63
62
60
59
57
56
56
56
55
55
54
52
50
47
45
42
40
38
36
34
33
32
31
30
29
29
28
28
27
27
26
26
25
24
24
23
22
22
21
20
19
19
19
21
25
33
41
52
63
72
78
80
79
76
72
69
66
63
61
59
58
57
56
55
55
55
54
53
52
49
47
44
41
40
37
35
33
32
30
30
29
28
28
28
27
27
27
26
25
25
24
23
23
22
21
21
20
19
19
18
19
19
29
37
47
58
68
75
78
78
76
72
68
64
61
58
56
55
54
53
53
54
54
54
53
52
50
48
45
42
40
37
35
33
31
30
29
28
28
28
28
27
27
27
27
26
26
25
24
24
23
22
21
20
19
19
21
25
33
41
52
63
72
77
79
78
75
70
66
63
60
58
56
54
54
53
53
53
53
53
52
51
49
46
43
40
39
36
34
32
31
30
29
28
27
27
27
27
26
26
25
25
24
24
23
22
21
20
19
18
18
20
25
32
41
53
64
73
79
81
80
77
73
69
66
63
61
59
58
57
56
55
55
55
54
53
52
50
47
44
42
40
37
35
33
31
30
29
28
28
28
27
27
27
26
26
26
25
24
24
23
22
21
20
19
19
18
20
24
31
40
51
62
72
79
82
81
78
75
71
67
64
62
60
59
57
56
56
55
55
55
54
53
51
48
45
42
40
38
35
33
32
30
29
29
28
28
27
27
26
26
26
25
22
21
20
19
19
18
18
19
22
29
38
48
59
69
75
78
78
75
71
67
63
60
58
56
55
54
54
53
53
53
52
52
52
48
46
46
40
38
38
34
32
32
29
28
28
27
27
27
27
27
26
26
26
25
24
23
22
21
20
19
20
22
27
34
43
53
62
69
73
73
71
68
65
61
58
56
54
52
51
50
50
50
50
50
49
48
46
44
41
40
37
35
33
31
29
28
27
27
26
26
25
25
25
25
24
24
23
23
22
21
20
19
19
18
18
20
24
31
40
49
59
66
71
72
71
68
65
63
60
58
56
55
53
52
51
51
51
50
50
49
47
45
43
41
39
37
34
33
31
30
29
28
27
27
27
26
26
26
25
25
24
23
23
22
21
20
20
19
18
18
17
19
22
28
36
45
54
63
69
72
72
70
67
65
62
60
59
57
56
55
54
53
52
52
51
51
49
47
45
43
40
39
37
35
33
32
31
30
29
29
28
28
27
27
26
26
25
25
24
23
22
22
21
20
20
19
19
18
18
19
23
29
38
46
56
64
70
72
72
69
66
66
60
58
58
55
54
54
52
51
51
51
50
50
48
47
47
42
40
38
36
34
32
31
30
29
29
28
28
27
27
26
26
26
25
24
24
23
22
22
21
20
19
19
18
18
20
25
32
40
50
59
66
70
70
69
66
63
60
57
55
53
51
50
50
49
49
50
50
49
48
47
45
42
40
38
36
33
32
30
29
28
27
27
26
26
25
25
25
24
24
23
22
22
21
20
19
18
17
18
22
28
35
44
54
62
67
70
69
67
64
61
58
56
53
52
50
49
48
48
48
48
47
47
45
43
41
40
37
34
32
30
28
27
26
25
24
23
23
23
22
22
22
21
21
20
20
19
18
17
16
15
15
15
17
22
29
38
47
56
64
68
70
68
66
63
60
57
55
53
52
50
49
48
48
48
47
47
46
44
42
40
39
36
33
31
29
27
26
24
24
23
22
22
21
21
21
20
20
19
19
18
17
17
16
15
14
14
13
14
17
22
29
39
47
57
63
67
67
66
63
60
57
55
53
51
50
49
48
47
47
47
47
46
45
43
41
40
37
35
32
30
28
26
25
24
23
22
21
21
21
20
20
20
20
19
19
18
18
18
16
16
16
14
14
14
17
22
22
38
47
47
63
67
67
66
63
60
57
54
52
50
48
48
47
47
47
47
47
46
45
44
42
40
38
35
33
31
29
27
26
25
24
23
23
23
23
23
22
22
22
22
21
21
20
19
18
18
17
17
19
24
31
40
49
58
65
69
70
68
66
62
59
56
53
51
49
48
48
47
48
48
48
48
47
45
43
41
40
37
35
33
31
29
28
27
27
26
26
26
26
25
25
25
25
24
23
23
22
21
20
21
25
31
39
47
57
65
70
73
72
70
67
63
60
58
56
54
53
52
51
50
50
50
50
49
48
46
44
41
40
37
35
33
31
30
29
28
27
27
26
26
26
26
26
25
24
24
23
22
21
20
20
20
23
28
36
44
54
62
68
71
72
70
67
65
62
60
58
56
54
53
51
50
50
49
49
48
46
45
43
40
39
36
34
32
30
29
28
27
26
25
25
24
24
24
23
23
22
22
22
20
19
19
18
17
17
18
21
21
34
42
42
59
64
64
67
65
62
60
57
55
54
52
51
49
48
47
47
47
46
45
44
42
40
39
37
34
32
30
29
27
26
26
25
24
24
24
23
23
22
22
22
21
20
20
19
18
18
17
16
16
16
18
22
28
36
44
53
60
64
66
65
63
60
57
55
53
52
51
50
49
49
49
49
49
48
48
46
44
42
40
39
37
35
33
32
31
30
29
29
28
28
28
28
27
27
26
26
25
24
24
23
22
21
20
20
21
24
29
36
44
53
61
66
69
69
67
64
61
59
57
55
54
53
52
52
51
52
52
52
51
50
49
46
44
42
40
38
37
35
34
32
32
31
30
30
29
29
28
28
27
27
26
25
25
24
23
22
22
21
21
22
26
31
39
48
58
66
71
74
74
72
69
67
64
62
61
59
58
57
56
56
56
56
55
55
53
52
49
47
45
42
40
39
37
36
35
34
33
32
32
31
31
30
30
29
29
28
27
26
25
25
24
23
22
21
21
21
24
29
37
45
55
63
70
73
73
71
69
66
63
61
59
58
56
55
54
53
53
52
52
51
50
48
46
44
41
41
38
36
36
33
32
32
30
29
29
28
28
28
27
27
27
26
25
25
23
23
22
21
21
20
20
20
23
29
36
44
54
62
68
70
70
68
65
62
59
57
55
54
53
52
52
52
53
53
53
53
51
50
48
45
43
40
39
37
35
34
33
32
31
30
30
30
29
29
29
28
28
27
26
26
25
24
23
23
22
23
27
32
40
47
56
63
68
70
69
67
65
62
60
58
56
55
54
53
52
52
52
52
52
51
50
48
45
43
40
39
36
35
33
31
30
30
29
28
28
28
28
27
27
27
26
25
25
24
23
22
21
21
20
20
22
26
33
40
49
58
65
70
71
70
68
65
62
60
58
56
55
53
53
52
52
52
52
51
51
49
47
45
43
40
39
37
35
34
32
31
30
30
29
29
28
28
28
27
27
26
25
25
24
23
22
21
20
20
20
22
26
32
40
48
56
62
66
66
65
62
59
56
53
51
49
48
48
47
47
47
47
47
47
47
44
42
42
38
36
36
32
30
30
28
27
27
26
26
26
26
26
26
25
25
24
23
22
21
20
20
19
18
20
23
29
36
43
51
57
60
61
60
58
55
53
50
49
47
46
46
45
46
46
47
47
47
46
45
43
41
40
38
36
34
32
31
30
29
29
28
28
27
27
27
27
26
26
26
25
24
23
23
22
24
27
32
39
46
53
60
63
65
64
62
60
58
56
54
52
51
50
49
49
48
48
48
48
47
45
44
42
40
38
36
34
33
32
31
30
29
29
28
28
28
28
27
27
26
26
25
24
23
22
22
21
23
26
32
39
46
54
60
64
65
64
62
60
58
56
55
54
53
52
51
50
50
50
49
49
48
46
45
43
40
39
37
35
34
32
31
30
29
29
28
28
28
27
27
26
26
25
24
23
22
21
20
19
19
20
23
28
35
42
50
57
62
63
63
61
59
56
54
52
51
50
49
48
47
47
47
47
47
46
45
43
41
40
38
36
34
32
31
30
29
28
28
27
27
27
26
26
26
25
25
24
24
23
22
21
21
20
22
25
31
39
46
54
60
64
65
64
62
59
56
54
52
51
49
49
48
48
48
48
48
48
47
46
46
41
40
40
36
34
34
31
30
30
29
28
28
28
28
27
27
27
26
26
25
24
23
22
22
22
25
30
37
45
53
60
65
67
67
65
63
60
58
56
54
53
52
51
50
50
50
50
50
49
48
46
44
42
40
39
37
35
33
32
31
31
30
29
29
29
28
28
27
27
26
25
25
24
23
22
21
21
21
24
29
36
44
53
61
67
69
70
68
66
63
61
59
57
56
54
53
52
52
51
51
50
50
48
47
45
42
40
39
36
35
33
32
31
30
29
28
28
27
27
26
26
25
25
24
23
22
22
21
20
19
19
18
18
20
23
29
37
45
53
60
64
65
64
61
59
56
54
52
51
50
49
48
48
47
47
47
47
46
44
43
40
39
37
35
33
32
30
29
28
27
27
26
26
25
25
25
24
24
23
23
22
21
21
20
19
19
18
18
17
17
19
23
29
37
44
53
59
63
63
62
59
56
53
51
51
48
47
47
46
46
46
47
47
47
46
45
45
41
40
40
35
34
34
31
30
29
29
28
28
28
28
27
27
27
26
25
25
24
23
23
22
21
21
20
20
21
24
30
37
45
53
60
64
65
64
61
58
56
53
51
50
49
48
48
48
48
48
48
48
48
46
45
43
41
40
37
35
34
32
31
30
30
29
28
28
28
27
27
26
26
25
25
24
23
23
22
21
20
20
19
19
20
22
28
35
43
52
60
66
69
69
68
65
62
59
57
56
54
53
53
52
52
52
52
52
52
51
49
47
45
43
40
39
37
36
34
33
32
32
31
31
30
30
30
29
29
28
27
27
24
23
22
22
21
20
21
23
27
34
41
50
60
67
71
72
71
68
65
62
60
57
56
54
54
53
52
52
53
53
52
51
50
48
46
44
41
40
38
36
34
33
32
31
31
30
30
30
29
29
29
28
27
27
26
25
24
23
23
22
21
21
20
20
20
22
26
33
40
49
59
66
70
72
70
67
64
60
57
54
52
51
50
49
50
50
51
51
51
51
50
48
46
43
40
39
37
35
33
32
31
31
30
30
30
30
29
29
29
29
28
27
27
26
25
24
23
22
22
21
21
21
25
31
31
48
57
57
71
74
73
71
67
63
60
57
54
53
52
51
51
51
51
52
52
51
50
49
47
44
42
40
38
36
34
32
31
30
29
29
28
28
28
27
27
27
26
26
25
24
24
23
22
21
21
20
19
19
19
23
28
36
46
56
66
73
77
78
76
72
68
64
61
58
56
55
54
53
53
53
53
53
53
52
51
49
46
43
41
39
37
35
33
32
31
30
29
29
28
28
28
28
27
27
26
26
25
24
23
23
22
21
20
20
19
19
20
23
29
37
47
58
68
75
79
79
77
73
68
64
60
58
55
54
53
52
52
52
53
53
53
52
50
48
46
43
41
39
36
34
32
31
30
29
28
28
28
27
27
27
27
26
26
25
25
24
24
23
22
21
20
20
19
19
20
24
30
39
49
60
70
77
80
79
76
72
67
62
58
55
53
51
50
50
51
52
53
53
53
53
53
49
46
46
41
39
39
35
33
33
31
30
30
29
29
29
29
28
28
28
27
27
26
25
25
24
23
22
21
22
25
30
39
48
59
69
77
81
81
79
75
70
65
61
58
56
54
53
52
52
53
53
54
54
53
51
49
47
44
41
39
37
34
33
31
30
29
28
28
28
27
27
27
27
26
26
25
25
24
23
22
21
20
19
19
20
23
30
39
49
61
72
79
83
83
81
77
72
68
64
61
59
57
56
55
55
55
56
56
56
55
53
51
48
45
42
40
38
36
34
32
31
30
30
29
29
29
29
29
28
28
28
27
26
26
25
24
23
22
21
21
22
27
34
43
54
66
76
82
84
83
80
75
71
66
63
60
58
57
56
55
55
56
56
56
55
54
52
49
46
43
40
39
36
34
33
31
30
30
29
29
29
29
29
29
29
28
28
27
26
25
25
24
23
22
23
27
33
41
51
63
72
79
81
81
78
74
69
65
61
59
56
55
54
54
54
55
56
56
55
54
52
50
47
44
41
39
37
35
34
33
32
31
31
30
30
30
30
30
29
29
28
27
27
26
25
24
23
24
28
34
42
53
64
73
79
81
81
78
74
70
70
63
60
60
56
55
55
54
54
54
54
53
53
50
47
47
42
40
40
36
34
32
31
30
29
29
29
28
28
28
28
27
27
26
25
24
23
22
21
21
21
23
28
36
45
57
67
76
80
81
80
76
72
69
65
63
60
58
57
56
55
55
55
55
54
53
52
49
47
44
41
40
37
35
33
32
31
30
29
29
28
28
28
28
27
27
27
26
25
24
24
23
22
21
20
20
22
27
35
44
55
66
74
79
81
79
76
72
68
65
62
59
58
56
55
54
54
54
54
53
52
51
49
46
43
40
39
36
34
32
31
30
29
28
28
27
27
27
27
26
26
26
25
24
24
23
22
21
21
20
19
19
21
25
32
41
52
62
71
77
79
78
74
70
66
62
59
56
54
53
52
52
52
52
53
52
52
50
48
46
43
40
39
36
34
33
31
30
30
29
29
28
28
28
28
27
27
27
26
25
24
24
23
22
21
20
20
22
27
35
43
43
64
72
72
78
76
76
68
65
65
58
56
56
53
52
52
51
51
51
51
50
48
46
43
41
39
36
34
32
30
28
27
26
26
25
25
25
24
24
24
24
23
22
22
21
20
19
19
18
17
16
16
17
20
27
36
46
58
68
76
79
80
78
74
70
66
62
60
57
56
54
53
53
53
53
52
52
51
49
47
44
42
40
37
35
32
30
29
28
27
26
26
26
25
25
25
25
24
24
23
22
22
21
20
19
18
17
17
16
15
16
20
26
35
45
57
68
76
80
80
77
73
68
64
60
57
55
53
52
51
50
50
50
50
50
49
47
45
43
40
38
35
33
30
28
27
25
24
24
23
23
23
23
23
22
22
22
21
21
20
19
19
18
17
16
15
15
15
19
25
34
44
55
66
74
77
77
75
71
66
61
57
54
51
49
48
48
49
49
50
51
51
50
49
46
44
41
39
36
34
32
30
29
27
27
26
26
26
26
26
26
26
26
25
25
24
23
22
22
21
20
21
25
31
40
50
61
70
76
79
78
74
70
66
61
58
55
52
51
50
49
49
50
50
50
50
49
47
45
42
40
38
35
33
31
29
28
27
27
26
25
25
25
25
25
24
24
24
23
22
22
20
19
19
21
26
26
43
54
64
72
76
77
75
71
67
64
60
57
55
53
51
50
50
50
50
50
49
48
47
45
42
40
38
35
33
30
29
27
26
25
25
24
24
23
23
23
23
22
21
21
20
19
18
17
16
16
19
24
31
40
49
58
64
68
68
66
63
60
57
54
52
50
48
47
46
45
45
44
44
43
42
41
40
37
35
33
30
28
27
25
24
23
23
22
22
21
21
21
20
20
20
19
18
18
17
16
15
14
14
15
19
25
32
40
48
54
57
58
57
55
52
49
47
45
43
42
41
41
40
40
41
40
40
40
38
36
34
32
30
28
27
25
24
23
23
22
22
21
21
21
21
21
21
20
20
20
19
19
18
17
17
19
22
28
35
41
49
54
57
58
57
55
53
50
49
47
46
45
44
44
44
45
45
45
45
44
43
41
40
38
36
34
33
32
31
30
29
28
28
27
27
27
26
26
26
25
25
25
24
23
23
22
24
24
32
39
39
52
56
59
59
58
57
55
53
51
50
48
47
46
45
45
45
44
44
44
43
42
40
39
37
36
34
33
31
30
29
28
28
27
27
26
26
25
25
24
24
23
22
21
20
20
20
21
24
29
35
41
48
53
56
57
56
55
53
52
51
50
49
48
46
45
44
44
44
44
43
42
41
40
39
37
35
34
32
30
29
28
27
26
25
25
24
23
23
23
22
22
21
20
20
19
18
17
17
16
16
18
23
28
36
42
49
54
56
57
56
54
52
51
50
48
47
46
45
45
44
44
43
43
43
42
40
40
38
36
34
32
30
29
28
27
26
25
25
24
24
24
23
23
22
22
21
20
20
19
18
17
17
18
22
27
34
40
47
53
56
57
56
55
53
51
50
48
47
46
44
43
42
42
42
42
41
41
40
39
37
36
34
32
31
29
28
27
26
25
24
23
23
23
22
22
21
21
20
20
19
18
18
17
16
16
16
17
20
26
33
41
49
56
61
63
63
62
60
58
57
55
54
53
51
50
49
48
48
47
47
46
45
44
42
40
39
37
35
33
32
30
29
29
27
27
27
26
25
25
24
23
23
22
21
21
20
20
20
18
18
18
17
17
17
19
23
30
38
46
55
61
65
66
65
63
61
59
57
55
54
53
51
50
49
48
47
47
46
46
44
43
41
40
38
36
34
32
31
29
28
27
26
25
25
24
24
23
23
22
22
21
21
20
20
19
19
18
18
17
16
16
16
17
20
25
32
40
50
58
64
67
67
65
62
59
57
55
53
51
50
49
49
48
48
48
48
48
47
45
44
42
40
38
36
34
33
31
30
29
28
28
27
27
27
27
26
26
26
25
24
24
23
22
21
21
20
20
19
20
23
29
36
44
53
61
67
69
69
67
64
61
58
55
53
51
50
49
48
48
48
49
49
48
48
46
44
42
40
39
37
34
33
31
30
29
28
27
26
25
25
24
23
22
21
21
20
20
19
19
18
18
18
18
19
22
28
36
45
55
64
70
73
73
72
69
65
62
60
58
56
55
54
53
53
52
52
52
52
51
51
48
45
45
41
39
39
35
33
33
30
29
29
28
27
27
26
26
26
25
25
24
24
23
23
22
21
20
20
19
19
19
23
28
37
46
57
67
74
78
79
77
74
70
67
63
61
58
57
55
54
54
54
54
54
53
53
44
41
39
37
35
33
31
30
29
28
28
27
27
27
27
26
26
26
25
24
24
23
22
21
21
20
19
18
19
21
26
34
43
54
65
73
73
80
78
78
71
67
67
60
57
57
54
53
53
54
54
54
55
55
53
50
48
45
42
40
38
36
34
33
31
30
30
29
29
29
29
28
28
28
28
27
27
26
25
25
24
23
23
24
28
35
43
53
64
73
78
81
80
77
73
69
65
61
58
56
54
53
53
53
54
54
54
54
53
51
49
46
43
40
39
36
34
33
31
30
29
28
28
28
27
27
27
27
26
26
25
25
24
23
22
22
25
31
39
48
58
68
76
80
80
79
75
71
67
63
60
57
55
54
53
53
53
53
53
53
52
51
49
46
43
41
39
37
34
32
31
30
28
28
27
27
26
26
26
26
25
25
25
24
23
23
22
21
20
20
21
21
33
42
42
65
75
75
83
83
83
75
71
71
63
60
60
57
56
56
55
55
55
55
55
54
52
50
47
44
41
40
37
35
33
32
31
30
29
29
28
28
28
28
27
27
26
26
25
24
23
22
21
20
20
23
28
36
45
57
68
76
81
83
81
78
73
69
64
61
58
56
55
54
54
54
54
55
55
54
52
50
48
45
42
40
38
35
33
32
30
29
28
28
27
27
27
27
27
27
27
26
26
25
25
24
23
22
23
27
33
41
51
62
72
78
81
81
78
74
69
65
61
57
55
54
53
53
53
54
55
55
54
53
51
48
45
42
40
38
35
34
32
31
30
29
28
28
28
28
28
28
27
27
26
25
24
24
23
23
26
32
40
50
60
70
76
79
79
77
73
68
64
61
58
55
54
53
52
53
53
53
53
53
52
50
47
45
42
40
37
35
33
31
30
29
28
27
27
27
27
27
27
26
26
25
25
24
23
22
22
24
24
35
44
44
66
74
74
81
80
80
73
69
69
62
60
60
56
54
54
53
53
53
53
52
50
48
45
43
40
38
35
33
31
30
29
28
27
26
26
26
26
26
25
25
25
24
23
22
21
20
20
21
25
32
40
50
61
69
74
76
75
72
68
64
60
57
55
53
51
50
49
49
49
49
49
48
47
45
42
40
38
35
33
31
29
28
27
26
25
25
25
25
24
24
24
24
23
23
22
21
20
19
19
19
20
24
31
40
49
58
66
71
72
71
68
64
60
57
54
52
50
49
48
48
49
49
49
49
48
46
44
42
40
38
36
34
32
31
30
29
28
28
28
27
27
27
27
26
26
25
24
23
22
21
21
21
23
28
36
44
53
61
68
71
71
69
66
63
60
57
55
52
51
50
49
48
48
48
48
47
46
44
42
40
38
36
34
32
30
29
28
27
26
26
26
25
25
25
25
24
24
23
22
22
21
20
19
19
20
24
31
39
48
57
65
70
71
71
68
65
62
59
57
55
53
52
50
50
49
49
49
49
48
46
44
42
40
38
36
34
32
31
29
28
28
27
27
26
26
25
25
25
24
24
23
22
22
21
21
19
18
18
19
22
22
37
45
45
64
69
69
72
69
69
63
60
60
55
53
51
50
49
49
49
49
49
48
47
45
43
40
39
36
34
32
30
29
27
26
26
25
25
24
24
24
23
23
23
22
22
21
20
19
18
18
17
17
18
22
29
37
45
55
63
67
69
68
65
62
58
55
52
50
48
47
47
46
47
47
47
47
46
45
43
41
39
37
34
32
30
28
27
26
25
24
24
23
23
23
23
23
22
22
21
20
20
19
18
17
17
18
22
28
36
44
53
60
65
66
65
62
59
56
52
50
48
46
45
44
44
44
45
45
45
44
42
40
39
37
34
32
30
28
26
25
24
23
22
22
22
21
21
21
20
20
19
19
18
17
16
15
14
14
16
21
27
36
44
53
59
63
64
62
60
56
53
51
48
46
45
44
43
42
42
42
42
42
41
40
38
36
34
32
30
28
26
24
23
22
22
21
21
21
20
20
20
20
19
19
19
18
17
17
16
15
15
14
14
14
20
27
27
44
53
53
64
65
65
61
58
55
52
50
48
47
45
45
44
44
44
44
44
43
42
40
39
37
35
32
30
29
27
26
25
24
24
24
23
23
23
23
22
22
22
21
21
20
20
19
18
17
17
16
16
17
20
26
33
42
51
60
66
69
69
67
63
60
56
53
51
49
47
46
46
46
47
47
48
47
46
45
43
40
39
36
34
32
30
29
28
27
26
26
25
25
25
25
25
25
24
24
24
23
22
22
21
20
20
19
18
18
20
24
31
39
48
58
66
71
73
72
69
65
60
56
53
50
48
47
47
47
47
48
49
49
49
48
46
44
41
40
37
35
33
31
30
28
27
27
26
26
26
26
26
26
26
25
25
24
24
23
22
21
21
20
21
24
30
38
47
57
67
73
76
76
74
70
66
61
58
54
52
50
49
49
49
49
50
50
50
49
48
46
43
40
39
36
34
32
30
29
28
27
26
26
26
25
25
25
25
25
24
24
23
23
22
21
20
19
19
18
19
23
29
39
48
60
70
78
81
81
79
75
71
66
62
59
57
55
54
53
53
54
54
54
54
53
53
49
46
46
41
39
36
34
32
32
30
29
29
28
27
27
27
27
27
27
26
26
25
25
24
23
22
21
20
20
19
21
25
31
40
51
63
73
80
83
82
79
75
70
65
61
58
55
54
53
53
53
54
54
54
54
53
51
49
47
44
41
39
37
34
32
31
30
29
28
28
27
27
27
27
27
26
26
26
25
24
24
23
22
21
21
20
20
22
27
35
44
56
67
76
81
83
81
77
72
67
62
58
55
53
52
51
52
53
54
55
55
55
53
51
49
46
43
40
38
36
33
32
31
30
29
29
28
28
28
28
28
28
28
27
27
26
25
25
24
23
23
25
30
38
47
58
70
78
83
85
83
79
75
70
65
61
58
56
55
54
54
54
55
55
55
54
53
50
48
45
41
39
37
34
32
31
29
28
28
27
27
27
27
27
27
27
26
26
25
24
24
23
22
22
24
29
37
47
59
70
79
84
85
84
81
76
72
68
65
62
62
58
57
57
57
57
57
57
56
56
52
50
50
44
41
41
37
34
34
31
30
30
29
29
29
29
29
28
28
28
27
27
26
25
24
23
22
23
26
32
40
50
62
73
80
85
85
83
79
74
70
66
63
60
59
57
56
56
56
56
56
55
54
53
50
47
44
41
39
37
34
32
31
30
29
28
28
28
28
28
28
28
27
27
26
26
25
24
23
22
21
21
24
29
37
46
57
68
77
82
83
81
77
72
68
63
60
57
54
53
52
52
53
54
54
54
53
51
49
46
44
41
39
36
34
32
31
29
28
28
28
27
27
27
28
28
27
27
26
26
25
24
23
22
23
26
32
40
50
61
71
78
82
82
79
75
70
66
62
58
56
54
53
52
52
53
53
53
53
51
49
47
44
41
39
36
34
32
30
29
28
27
27
27
27
27
27
27
27
26
26
25
24
23
23
23
27
33
41
52
62
72
78
81
80
77
73
69
65
61
58
55
54
52
52
52
52
52
52
51
50
48
46
43
40
38
35
33
31
29
28
27
26
26
25
25
25
25
25
25
25
24
23
22
21
20
20
22
26
34
42
53
64
73
78
79
78
75
71
67
63
63
57
55
55
52
52
52
51
51
51
50
48
48
44
41
41
36
34
31
30
28
27
26
26
25
25
25
24
24
24
24
23
23
22
21
20
19
19
20
23
30
39
48
59
68
74
76
76
73
69
65
62
58
56
53
52
51
50
50
50
50
49
48
47
45
43
40
38
36
33
31
29
28
27
26
25
25
25
25
25
25
25
24
24
23
23
22
21
20
19
20
22
27
34
43
53
63
70
74
74
72
69
65
61
57
54
51
50
48
48
48
48
49
49
49
48
46
44
41
39
36
34
32
30
28
27
26
26
25
25
25
25
25
25
25
25
25
24
23
23
22
22
23
28
34
42
51
60
67
71
72
71
68
64
60
57
54
51
49
48
47
47
48
48
48
48
47
45
43
41
39
36
34
32
30
28
27
26
25
25
24
24
24
24
24
24
23
23
22
21
20
19
20
23
28
64
68
69
67
65
61
58
55
52
50
48
47
46
45
45
46
46
45
45
43
41
40
38
35
33
31
29
27
26
25
25
24
24
23
23
23
23
23
22
21
21
20
19
18
17
16
17
21
27
35
43
52
60
65
67
65
63
60
57
54
52
49
48
46
46
45
45
45
45
44
43
42
40
39
36
34
32
30
28
27
26
25
24
23
23
23
22
22
22
22
21
21
20
19
18
17
16
16
15
16
18
23
30
38
46
53
59
61
61
59
56
53
50
48
45
44
42
41
41
41
41
41
41
41
40
39
37
35
33
31
28
27
25
24
22
22
21
20
20
20
20
19
19
19
19
18
18
17
17
16
15
14
14
13
14
17
23
30
38
46
53
58
60
60
58
55
52
49
46
44
42
41
41
41
42
43
44
44
44
43
41
40
38
36
34
32
30
28
27
26
25
25
24
24
24
23
23
23
23
22
22
21
20
20
19
18
17
17
19
24
30
38
46
54
60
64
65
63
61
58
55
52
49
47
46
45
45
45
45
46
46
46
45
44
42
40
38
36
34
31
30
28
27
26
25
24
24
24
24
23
23
23
23
22
22
21
20
19
18
18
18
19
23
29
37
45
55
62
67
69
69
66
63
63
57
54
54
50
49
49
47
47
47
48
48
48
46
44
44
40
38
36
33
31
30
28
27
26
25
25
24
24
24
24
23
23
23
22
22
21
20
19
19
18
17
17
19
24
31
40
49
58
65
70
71
69
66
62
58
55
52
49
48
47
46
46
46
47
47
47
47
45
44
41
40
37
35
33
31
29
27
26
25
25
24
24
24
24
24
24
23
23
23
22
22
21
20
19
19
18
17
18
20
25
33
41
51
60
67
71
72
70
66
62
58
54
51
48
47
46
46
46
47
48
48
49
48
46
45
42
40
38
36
33
32
30
29
28
27
27
27
27
27
27
27
27
26
26
25
25
24
23
22
21
21
20
22
27
34
41
51
61
68
72
74
72
69
65
61
57
54
51
49
48
48
48
48
49
49
49
48
47
45
43
40
38
36
34
32
30
29
28
27
26
26
26
26
25
25
25
25
24
24
23
23
22
21
20
19
19
20
20
29
37
37
56
66
66
76
76
76
71
67
67
59
56
56
52
51
51
51
51
51
52
51
50
49
47
44
42
40
37
35
33
31
29
28
28
27
27
26
26
26
26
26
26
25
25
24
23
22
22
21
20
19
19
21
25
32
40
51
62
71
76
79
78
75
71
67
63
59
56
54
53
52
51
52
52
52
52
52
51
49
47
44
41
39
36
34
32
30
29
28
27
27
27
26
26
26
26
26
26
25
25
24
23
22
21
20
19
19
20
23
29
37
46
57
67
75
78
79
77
73
68
64
60
56
53
51
50
50
50
51
52
53
53
52
50
48
45
42
40
38
35
33
32
30
29
29
28
28
28
29
29
29
29
29
28
28
27
26
25
24
23
24
26
31
39
48
58
68
76
80
80
78
74
70
65
61
58
55
53
52
52
52
53
53
53
53
52
50
48
46
43
40
38
35
33
31
30
29
28
28
28
28
28
28
28
27
27
26
26
25
24
23
22
21
21
24
30
38
48
59
69
77
81
81
79
76
72
67
64
60
58
56
55
54
54
54
54
54
54
53
51
49
46
43
40
39
36
34
32
31
30
29
29
29
28
28
28
27
27
27
26
26
26
24
23
23
21
21
21
24
30
30
48
60
60
77
81
82
80
76
72
67
64
61
58
56
55
54
53
53
53
53
52
51
49
47
44
41
39
37
34
32
31
29
28
28
27
27
26
26
26
26
26
25
25
24
24
23
22
21
20
19
19
19
22
28
37
46
57
67
74
78
78
76
72
68
63
60
57
54
52
51
51
51
52
52
52
52
50
49
46
44
41
39
36
34
32
30
29
28
28
28
28
28
28
28
28
28
28
27
27
26
25
24
23
22
22
24
29
37
46
56
67
74
78
79
77
73
69
65
61
58
55
54
52
52
51
52
52
52
52
51
49
47
44
41
39
37
34
32
31
29
28
28
27
27
27
27
27
27
26
26
25
25
24
23
22
21
20
21
24
30
39
48
59
68
75
78
78
76
72
68
65
61
59
56
55
53
52
52
52
52
52
51
50
48
46
43
40
38
36
34
32
30
29
28
27
27
27
26
26
26
26
26
25
25
25
23
22
22
20
20
20
19
21
21
34
42
53
64
72
77
79
78
74
70
66
63
60
57
55
54
53
52
52
52
52
52
51
49
47
44
42
40
37
35
33
31
29
28
27
27
27
26
26
26
26
26
25
25
24
23
23
22
21
20
19
18
18
20
25
33
41
52
63
71
76
77
76
72
68
63
59
55
53
51
49
49
49
49
50
50
50
49
48
46
43
40
38
36
33
31
30
28
27
27
26
26
26
26
26
26
26
26
26
25
25
24
23
23
22
21
22
25
31
40
49
59
69
76
79
79
76
72
67
63
59
56
53
52
50
50
50
50
51
51
50
49
47
45
42
40
37
35
32
30
29
28
27
26
26
26
26
26
26
26
26
25
25
24
23
22
21
20
21
25
31
40
49
60
70
76
79
79
76
72
68
64
61
58
55
53
52
51
51
51
51
51
50
49
47
44
42
40
37
34
32
30
28
27
26
25
25
24
24
23
23
23
22
22
21
20
20
18
17
16
16
16
19
24
32
41
52
61
68
71
72
69
66
62
58
55
52
50
48
46
45
45
45
45
45
44
43
41
40
40
35
32
32
27
25
25
22
21
21
20
19
19
19
19
19
18
17
17
16
15
15
14
13
12
11
13
16
22
30
39
47
55
59
60
59
56
52
49
46
43
41
40
39
39
39
39
40
40
40
40
38
37
34
32
30
28
26
24
22
21
20
20
19
19
19
19
19
19
19
19
18
18
17
16
16
15
14
14
15
18
23
30
39
46
53
57
59
58
55
51
48
45
42
40
40
39
39
39
40
40
41
41
41
40
39
37
35
33
31
29
27
26
25
24
24
23
23
23
23
23
23
22
22
22
21
20
20
19
18
18
20
25
31
39
46
53
58
60
60
58
55
52
49
46
44
43
42
41
41
41
42
42
43
42
41
40
39
37
35
33
32
30
29
27
27
26
25
25
25
25
24
24
24
23
23
22
22
21
20
19
19
19
21
26
32
40
47
53
58
60
60
58
55
53
51
49
47
46
45
44
44
44
44
44
45
44
43
42
40
39
39
35
33
33
30
29
29
27
27
27
26
26
26
25
25
25
24
23
23
22
21
20
20
19
20
23
27
34
40
48
54
58
60
59
57
55
52
50
48
47
46
45
44
44
45
45
45
45
45
44
42
40
39
37
36
34
33
31
31
30
29
29
28
28
28
28
27
27
27
26
25
25
24
23
22
22
21
21
22
25
30
36
43
50
56
60
61
60
58
55
53
50
48
47
46
45
45
45
46
46
47
47
46
45
44
42
40
39
37
36
34
33
32
31
31
30
30
30
30
30
30
29
29
28
28
27
26
25
24
23
23
25
28
34
40
47
55
60
63
63
62
60
57
55
53
51
49
48
48
47
48
48
49
49
48
48
46
45
43
40
39
38
36
34
33
32
31
31
30
30
30
29
29
29
28
28
27
26
25
24
24
23
22
22
24
27
33
40
48
56
62
66
68
67
65
63
60
58
56
54
53
52
51
51
51
51
51
51
50
49
47
45
42
40
39
37
35
34
33
32
31
31
31
30
30
30
29
29
28
27
27
26
25
24
23
23
22
21
21
23
26
32
39
47
55
62
66
67
66
64
61
59
56
54
52
51
50
49
49
48
48
48
48
47
47
44
42
42
39
37
37
33
32
32
30
29
29
28
28
28
27
27
26
26
25
25
24
23
23
22
21
21
20
20
20
22
26
32
40
47
55
61
64
65
64
61
58
56
53
51
49
48
47
46
46
46
46
46
46
45
44
42
40
39
37
35
33
31
30
29
28
27
27
27
27
26
26
26
26
26
25
25
24
23
23
22
21
20
20
19
20
22
27
33
40
48
56
62
65
65
63
60
57
54
51
49
48
47
46
46
47
47
48
48
48
47
46
37
35
34
32
31
30
30
29
29
29
29
29
29
28
28
27
27
26
25
25
24
23
22
22
24
28
34
41
50
58
65
68
69
68
66
62
59
57
54
52
51
50
49
49
49
50
50
50
49
48
46
44
41
40
37
34
33
32
30
30
29
29
28
28
28
27
27
27
26
26
25
24
23
23
22
21
20
21
24
30
37
45
54
62
68
70
70
68
65
62
59
59
54
52
52
50
49
49
50
50
50
50
49
49
45
43
43
39
37
37
33
32
30
29
29
28
28
27
27
27
27
26
26
25
25
24
23
22
22
21
20
19
19
19
22
27
34
42
52
61
68
71
72
70
67
63
60
57
55
53
51
50
50
50
50
50
50
50
49
48
46
44
41
40
37
35
33
32
30
29
28
28
27
27
27
27
26
26
26
25
25
24
23
22
22
21
20
20
19
18
18
20
24
31
40
48
58
66
71
72
71
68
65
61
57
54
52
50
49
49
49
50
51
52
52
52
50
49
47
44
41
40
38
35
34
32
31
30
30
29
29
29
29
29
29
29
28
28
27
27
26
25
24
23
23
22
22
25
30
38
46
56
65
72
75
76
74
70
67
63
59
56
54
52
51
51
51
52
53
53
53
52
51
49
47
44
41
40
37
35
34
32
31
30
29
29
29
29
28
28
28
27
27
26
25
25
24
23
22
21
21
22
27
33
41
51
62
70
76
78
78
75
71
68
64
61
58
56
55
54
54
55
55
56
56
55
54
52
50
48
45
42
40
38
36
34
33
32
31
31
31
30
30
30
30
29
29
28
27
27
26
25
25
23
22
21
21
22
22
33
41
41
63
72
72
81
80
80
74
70
66
63
60
58
56
55
55
55
55
56
56
55
54
52
49
47
44
41
39
37
34
33
31
30
30
29
29
28
28
28
28
28
27
27
26
25
24
24
23
22
21
20
19
20
23
29
38
47
58
68
75
79
79
77
73
69
64
60
57
54
53
52
51
52
53
54
54
54
53
52
50
47
44
41
39
37
35
33
31
30
29
29
28
28
28
28
28
28
28
28
27
27
26
25
24
23
23
23
26
32
40
48
59
69
76
79
80
78
74
69
65
60
57
54
53
52
51
52
53
54
54
54
53
52
49
47
44
41
39
36
34
32
31
30
29
28
28
28
28
28
28
28
28
27
27
26
25
24
23
22
22
25
31
39
49
59
69
77
80
81
78
75
70
66
62
58
56
54
53
52
52
53
53
53
53
52
50
48
45
43
40
38
36
34
32
31
30
29
28
28
28
28
28
28
27
27
27
26
25
25
24
23
23
21
20
20
25
31
31
50
62
72
79
82
82
79
75
70
66
62
59
56
55
54
53
53
54
54
54
54
53
51
48
46
43
40
38
35
33
32
30
29
28
28
28
27
27
27
27
27
26
26
25
24
23
22
21
20
20
19
19
22
28
37
46
58
68
76
80
80
78
74
69
64
59
55
53
51
50
49
50
50
51
52
52
51
50
48
45
42
40
37
34
32
30
29
27
27
26
26
26
25
25
25
25
25
25
25
24
23
23
22
21
20
20
22
27
35
45
56
67
75
80
81
79
75
70
65
60
55
52
49
48
47
48
49
50
52
52
52
51
49
46
43
40
38
36
34
32
30
29
28
28
27
27
27
27
28
27
27
27
26
25
24
23
22
22
23
27
34
43
54
65
74
80
82
81
77
73
68
64
60
57
55
53
53
52
53
54
54
54
54
52
50
47
45
42
40
37
35
33
31
30
30
29
29
29
28
28
28
28
28
27
27
26
25
24
23
22
22
25
30
38
47
58
69
77
81
82
80
77
72
68
64
61
58
56
55
54
54
54
55
55
54
53
51
49
46
46
40
38
38
34
32
32
30
29
29
28
28
28
27
27
27
26
26
26
24
23
22
21
20
20
20
24
30
38
47
57
67
73
76
76
73
69
65
61
57
54
52
50
49
48
48
48
48
48
48
46
44
42
40
37
35
32
30
28
27
26
25
25
24
24
24
24
24
24
24
24
23
22
22
21
20
19
18
18
18
21
26
34
43
53
62
69
72
73
70
67
63
59
55
52
50
49
48
47
48
49
49
50
49
48
46
44
41
40
37
35
33
31
30
29
28
27
27
27
27
27
27
27
27
26
26
25
24
24
23
22
22
24
29
36
44
53
62
69
73
73
71
68
64
60
57
53
51
49
48
47
47
47
48
48
48
47
46
44
41
39
37
34
32
31
29
28
27
27
26
26
26
26
26
26
25
25
24
23
23
22
21
20
22
26
32
40
49
59
67
72
74
73
70
67
63
60
57
54
52
51
50
49
49
49
49
49
48
47
45
43
43
38
36
36
31
30
30
27
27
27
26
26
26
25
25
25
24
24
24
23
22
21
20
19
18
19
21
26
34
42
53
63
70
74
75
73
70
66
62
59
56
54
52
51
50
50
50
50
50
49
48
47
45
42
40
38
35
33
31
29
28
27
26
26
26
25
25
25
25
24
24
23
23
22
21
20
19
18
17
17
17
20
25
33
41
51
60
67
70
70
68
65
61
57
54
51
49
47
46
45
45
45
45
45
45
44
42
40
39
36
33
31
28
26
25
23
22
21
21
21
20
20
20
20
20
19
19
18
18
17
16
15
14
13
13
14
16
22
30
39
48
57
64
67
67
65
61
57
53
50
47
44
43
42
42
42
43
44
44
44
43
42
40
38
35
33
30
28
26
24
23
22
22
21
21
21
21
21
21
21
20
20
19
18
17
16
15
15
15
18
24
32
41
51
59
65
68
68
65
61
57
54
50
47
45
44
43
42
42
43
43
44
43
42
40
39
36
34
31
29
26
25
23
22
21
20
20
20
20
20
20
19
19
19
19
18
18
17
16
15
15
15
17
23
30
40
50
60
68
72
73
71
68
63
59
56
53
50
50
47
46
46
46
47
47
47
46
46
42
40
40
36
33
33
29
27
27
25
24
24
23
23
23
23
23
23
23
22
22
21
21
20
19
18
17
18
20
25
33
42
52
62
70
74
75
73
69
65
61
57
54
51
49
48
47
47
47
48
48
48
47
45
43
40
39
36
33
31
29
27
26
25
24
23
23
23
23
23
23
23
22
22
22
21
20
20
19
18
17
17
19
23
30
39
49
59
67
73
74
73
70
66
61
57
53
50
48
47
46
47
47
48
49
49
48
47
45
42
40
38
35
33
31
29
28
27
26
25
25
25
26
26
26
26
26
25
25
24
23
22
21
21
21
25
31
39
48
58
67
73
76
76
73
69
65
60
56
53
51
49
48
48
48
49
50
50
49
48
46
44
41
40
37
34
32
30
29
28
27
26
26
26
25
25
25
25
25
25
24
23
23
22
21
21
23
27
35
43
54
64
72
77
79
78
74
70
66
62
59
59
54
53
53
52
52
52
53
52
52
50
48
48
42
40
40
36
33
33
30
29
28
28
28
27
27
27
27
27
27
26
25
25
24
23
22
21
23
27
34
42
53
63
72
78
80
79
76
72
68
64
61
58
56
55
53
53
53
53
53
53
52
50
48
45
42
40
38
35
33
31
30
29
28
28
27
27
27
27
27
26
26
26
25
24
23
22
21
21
23
28
35
43
53
63
71
76
77
76
73
69
65
61
58
55
53
52
52
52
52
53
53
52
51
49
47
44
42
40
38
35
33
32
31
30
29
29
29
29
29
29
29
29
28
28
27
26
25
24
25
27
32
40
48
58
67
74
77
78
76
73
69
65
62
59
56
54
53
52
52
52
52
52
51
50
48
45
43
40
38
36
34
32
31
30
29
29
28
28
28
28
27
27
26
26
25
24
23
22
22
24
29
36
44
54
63
70
74
75
73
71
67
64
61
58
56
54
52
51
51
50
50
50
49
47
46
43
41
39
36
34
32
31
29
28
27
27
26
26
26
26
25
25
24
24
23
22
21
20
19
19
19
22
28
36
44
54
63
69
72
72
70
68
64
61
58
56
54
54
51
50
50
49
49
49
48
47
47
43
40
40
36
34
34
30
29
29
27
26
26
25
25
25
24
24
24
23
22
21
20
19
18
18
19
23
29
37
45
68
66
63
59
56
52
50
48
46
45
44
44
44
44
44
44
43
41
41
37
35
35
30
28
28
25
24
24
23
23
23
22
22
22
22
22
21
20
19
19
18
17
16
18
21
27
35
43
51
58
62
63
62
59
56
51
48
45
43
42
42
42
42
43
43
43
42
41
40
38
36
33
31
29
27
25
24
23
22
21
21
21
21
21
20
20
20
19
18
17
16
16
16
18
22
29
36
43
51
56
58
58
56
53
50
47
45
42
41
40
40
39
39
40
40
40
39
38
37
35
33
30
28
26
25
23
22
21
20
20
19
19
19
19
18
18
18
17
17
16
15
14
14
13
14
18
24
31
39
46
52
56
57
55
53
50
47
45
43
41
40
40
40
39
40
40
40
40
39
38
38
35
33
33
29
27
27
24
23
23
21
21
21
20
20
20
20
19
19
19
18
17
17
16
15
14
14
15
18
24
31
39
46
53
57
58
57
55
52
49
46
44
42
41
40
40
40
40
41
41
41
41
40
39
37
35
33
31
29
28
26
25
24
24
23
23
23
22
22
22
22
21
21
21
20
19
19
18
17
16
16
17
20
26
33
41
49
56
60
61
60
57
54
51
48
45
43
42
41
41
42
42
43
44
44
44
43
41
40
38
36
34
32
31
29
28
27
26
26
26
25
25
25
25
25
25
25
25
24
23
23
22
21
21
22
26
32
40
48
56
63
67
67
66
63
60
56
53
50
48
47
46
46
46
47
48
48
48
48
47
45
43
40
39
37
35
33
32
30
29
29
28
28
28
27
27
27
27
27
26
26
25
24
23
22
22
23
26
32
40
48
58
66
71
74
73
71
67
64
60
57
54
52
51
50
50
51
51
52
52
51
50
49
46
44
41
40
38
35
34
32
31
30
29
29
28
28
28
28
28
27
27
26
26
25
24
23
22
22
21
21
25
30
38
47
58
67
74
77
78
75
72
68
64
60
57
54
53
53
51
51
51
53
53
53
52
50
50
45
43
43
38
36
36
32
30
30
28
28
27
27
27
27
26
26
26
26
25
25
24
23
22
21
20
20
19
21
26
33
42
53
64
72
78
80
78
75
71
66
61
57
54
52
51
50
51
52
53
53
54
53
52
50
48
45
42
40
38
35
33
31
30
29
28
28
28
28
28
28
28
28
28
27
27
26
25
25
24
23
24
27
33
41
51
62
71
77
80
80
77
73
68
63
59
55
52
51
50
50
51
52
53
53
53
52
50
48
45
42
40
37
35
33
31
29
28
28
27
27
27
27
27
27
27
26
26
25
25
24
23
22
21
22
25
31
40
50
61
72
79
82
83
80
76
71
66
62
58
55
53
52
52
52
53
54
54
54
53
51
49
46
44
41
39
36
34
32
31
29
29
28
28
27
27
27
27
27
26
26
26
25
24
23
22
21
20
20
20
23
29
38
48
61
72
81
85
86
84
80
75
70
65
65
58
56
56
54
54
54
56
56
56
55
53
53
48
45
45
40
37
37
33
31
30
29
28
28
28
27
27
27
27
27
27
26
25
25
24
23
22
21
20
19
19
20
24
32
41
52
65
75
83
86
85
82
78
72
67
62
58
56
54
53
53
54
55
56
56
56
55
53
51
48
44
41
39
37
34
32
31
29
29
28
28
28
28
28
28
28
28
28
27
27
26
25
24
23
22
22
23
26
33
42
53
65
75
82
85
84
81
76
71
66
61
57
54
52
51
51
51
52
53
54
53
52
51
48
45
42
40
37
34
32
30
28
27
26
26
25
25
25
25
25
25
25
24
24
23
22
21
20
19
18
18
19
24
32
41
54
66
77
84
87
86
82
77
72
67
62
58
55
53
52
52
52
53
54
54
54
53
51
49
46
43
40
37
35
32
30
29
28
27
26
26
26
26
26
26
25
25
25
24
24
23
22
21
20
19
18
18
20
25
33
43
55
68
78
85
88
87
83
78
73
67
63
59
56
54
53
53
53
54
55
55
55
54
52
49
46
43
40
37
35
32
30
29
27
27
26
26
26
26
26
26
26
26
25
25
24
23
23
21
20
20
19
20
20
31
40
40
64
75
75
85
85
85
76
71
71
60
56
56
51
51
51
52
53
54
55
55
54
52
49
46
43
40
38
36
33
32
30
29
28
28
28
28
28
28
28
28
28
28
27
27
26
25
24
24
27
33
40
51
62
72
80
84
84
81
76
71
66
61
57
54
52
51
51
51
52
53
53
53
52
50
48
45
42
40
37
34
32
30
29
28
27
27
26
26
26
26
26
26
26
25
25
24
23
22
22
24
28
36
45
56
67
76
81
82
81
77
73
68
64
60
57
54
53
52
51
52
52
52
52
51
50
48
45
42
40
38
35
33
31
29
28
27
27
27
26
26
26
26
26
26
25
25
24
23
22
21
20
20
23
29
37
47
58
69
77
81
82
79
76
71
66
62
59
56
54
53
52
52
52
52
52
52
51
49
47
44
41
39
36
34
32
30
29
28
27
26
26
26
26
25
25
25
25
24
24
23
22
21
20
19
19
18
20
20
31
40
40
62
71
71
80
79
79
72
67
67
59
55
55
51
50
50
50
51
51
51
51
49
47
45
42
40
37
34
32
30
28
27
26
25
25
25
25
25
25
25
25
24
24
23
23
22
21
20
19
18
18
19
23
30
40
50
61
71
77
79
78
75
70
65
60
55
52
49
48
47
47
48
49
50
50
50
49
47
44
41
39
36
34
31
29
28
27
26
25
25
25
25
25
25
26
25
25
25
24
23
22
21
20
19
19
21
27
35
45
56
67
75
79
79
77
73
68
63
59
55
52
50
48
48
48
49
49
50
49
49
47
45
42
40
37
34
32
30
28
26
25
24
24
23
23
23
23
23
23
23
23
22
22
21
20
19
18
17
17
20
26
35
44
56
67
75
79
80
78
74
69
64
60
56
54
51
50
49
49
49
50
50
50
49
48
45
43
40
38
35
32
30
28
27
25
25
24
24
24
24
24
24
23
23
23
22
22
21
20
19
18
17
17
17
20
26
35
45
56
67
75
79
80
78
73
68
64
59
55
52
50
49
48
48
48
49
49
49
48
46
44
42
40
37
34
32
29
27
26
25
24
23
23
23
23
23
22
22
22
22
22
22
20
20
20
18
17
17
17
20
20
34
44
44
66
73
73
77
75
70
65
60
56
52
49
48
46
46
47
48
49
49
49
48
47
44
42
40
37
34
32
30
28
27
26
25
25
25
25
25
25
25
25
24
24
23
22
21
20
19
18
20
24
30
39
48
59
67
72
74
73
70
65
61
57
53
50
48
46
45
45
45
46
46
46
45
44
42
40
38
35
33
30
28
26
25
24
23
22
22
21
21
21
21
21
21
20
20
19
18
17
16
15
16
18
23
31
40
49
58
65
69
70
68
64
61
57
53
50
48
46
45
44
43
44
44
44
43
42
41
40
38
35
33
30
28
26
25
23
22
22
21
21
21
20
20
20
20
19
19
18
18
17
16
15
14
13
14
17
22
30
39
48
56
62
64
64
62
59
56
53
50
47
45
44
43
42
42
42
43
42
42
41
40
38
36
33
31
28
26
24
23
22
21
20
20
20
20
20
20
20
20
20
19
19
19
17
17
17
15
14
14
16
20
20
34
42
42
58
62
62
62
59
59
53
50
47
45
43
43
42
42
43
44
44
44
43
42
41
40
38
35
33
31
30
28
27
26
26
25
25
25
25
25
25
24
24
24
23
23
22
21
21
20
19
19
19
23
28
35
43
52
60
65
67
66
64
61
57
54
51
48
47
46
45
45
45
46
46
46
46
45
43
41
40
38
35
33
31
30
28
27
26
26
25
25
25
24
24
24
23
23
22
22
21
20
19
18
18
17
18
21
26
33
41
50
58
63
66
66
65
62
59
56
53
51
49
47
46
46
46
46
46
46
46
45
44
42
40
39
36
34
32
30
29
27
26
26
25
25
24
24
24
23
23
22
22
21
21
20
19
18
17
17
16
15
16
18
24
31
40
49
58
64
68
69
67
65
61
58
55
52
50
49
48
47
47
47
48
48
47
47
45
43
41
40
29
28
27
26
25
24
24
24
23
23
23
22
22
22
21
20
20
19
18
17
17
16
15
15
15
18
23
31
40
49
59
66
70
71
70
66
62
58
55
51
49
47
46
46
46
47
48
48
48
48
46
45
42
40
38
35
33
31
29
29
26
26
26
25
24
24
24
24
24
23
23
23
22
21
21
20
19
19
18
18
19
23
30
38
48
58
67
72
75
74
71
67
63
58
54
51
49
47
46
46
47
48
49
49
49
48
47
44
42
40
38
35
33
30
29
27
26
25
24
24
24
23
23
23
23
23
22
22
21
20
20
19
18
17
16
17
21
27
35
45
56
66
74
78
78
76
72
68
63
59
56
53
51
50
50
50
51
52
53
53
52
51
49
46
43
40
39
36
34
32
30
29
28
27
27
27
26
26
26
26
26
26
25
24
24
23
22
21
20
19
19
21
26
34
43
54
65
74
80
82
81
78
73
69
64
60
57
55
53
52
52
52
52
52
52
52
50
49
46
44
41
39
36
34
32
30
29
28
27
26
25
25
25
25
25
25
25
25
25
24
23
23
22
22
22
26
31
40
49
59
68
75
78
78
75
71
66
62
57
54
51
49
47
47
48
49
50
50
51
50
49
47
45
43
41
39
39
35
33
33
30
29
29
27
27
27
27
27
27
27
26
26
25
26
26
34
41
50
59
68
74
77
76
73
69
65
60
55
51
48
46
46
46
47
48
49
50
50
49
48
45
43
40
38
35
33
31
29
28
27
26
25
25
25
25
25
25
24
24
24
24
27
33
40
50
60
70
76
80
80
78
74
70
65
61
58
55
53
52
50
50
50
51
51
51
50
48
46
43
41
39
36
34
32
30
29
28
27
26
25
25
24
24
23
23
22
21
20
20
21
25
31
40
49
58
67
72
74
73
71
67
64
61
58
56
54
51
49
48
47
46
45
45
44
42
41
40
37
35
33
30
28
27
25
24
23
22
21
20
20
19
18
18
17
16
15
15
14
15
19
24
32
40
49
56
61
63
62
60
57
54
52
50
48
46
44
43
41
41
40
40
40
40
39
37
36
34
31
29
28
26
24
23
22
21
20
20
19
19
19
18
18
17
16
16
15
14
14
16
20
26
33
40
48
54
57
58
56
54
51
48
46
44
43
41
40
40
40
40
40
40
40
40
39
37
36
34
32
30
29
27
26
25
24
24
23
23
23
22
22
22
21
21
20
20
19
19
20
23
28
28
41
49
49
58
58
58
54
52
52
47
45
45
42
41
41
40
40
40
40
40
40
39
37
36
34
32
31
29
27
26
25
24
23
23
22
22
21
21
21
20
20
19
18
18
17
16
16
16
18
23
29
37
44
51
56
58
58
56
54
52
50
48
46
45
44
43
42
41
41
41
41
41
40
40
39
37
35
33
32
30
29
27
26
25
24
24
23
23
22
22
21
21
20
20
19
19
18
18
17
17
16
15
15
15
17
22
28
36
44
53
60
63
64
63
61
58
56
54
52
50
49
48
47
47
46
46
46
46
45
45
43
42
40
39
37
35
33
32
30
29
28
27
26
26
25
25
25
25
24
24
23
23
22
21
21
20
20
19
19
18
18
18
19
23
29
37
45
55
63
68
71
70
68
64
61
58
55
53
51
50
49
49
49
49
50
50
50
49
48
46
44
42
40
38
36
34
33
32
31
30
29
29
28
28
28
28
28
27
27
26
26
25
25
24
23
22
22
21
20
20
24
30
30
46
57
57
73
76
76
74
70
70
62
59
56
53
52
50
50
49
50
50
51
51
50
49
48
46
43
41
40
37
35
33
31
30
29
28
27
26
26
26
25
25
25
24
24
23
23
22
22
21
20
19
19
18
17
18
21
27
35
45
56
67
76
81
82
81
77
73
69
65
61
58
56
54
53
53
53
53
54
54
54
53
51
49
47
44
42
40
38
35
33
32
30
29
28
27
27
26
26
26
26
25
25
24
24
23
23
22
21
21
20
19
18
18
17
17
19
24
32
42
54
66
77
83
86
86
83
79
74
69
65
61
58
56
54
54
54
54
55
55
55
55
53
52
49
47
44
41
39
37
35
33
31
29
28
27
27
26
26
26
26
25
25
25
25
24
24
23
22
22
21
20
19
19
20
23
30
40
50
62
73
80
84
85
82
78
73
68
63
59
55
53
51
50
51
52
53
54
55
55
54
53
51
48
45
43
40
38
36
34
32
31
30
29
28
28
28
27
27
27
27
27
26
26
25
25
24
23
22
22
25
31
40
50
62
73
81
86
87
85
81
77
72
67
62
59
56
54
53
53
54
55
56
57
56
55
54
51
51
46
43
43
38
36
36
32
31
31
29
28
28
27
27
27
27
27
27
26
26
25
24
23
23
23
25
30
38
48
59
71
80
86
88
87
84
79
75
70
66
62
60
57
56
55
55
56
56
57
56
55
54
52
49
46
43
41
39
37
34
33
31
30
29
29
28
28
28
28
28
27
27
27
26
25
24
24
23
22
22
25
31
40
50
61
72
80
85
86
84
81
76
71
67
63
59
57
55
54
53
53
54
54
55
54
53
51
49
46
43
41
39
36
34
32
31
29
29
28
27
27
27
27
27
27
27
26
26
25
25
24
23
22
22
21
23
28
36
45
56
67
76
82
84
83
80
75
70
65
61
57
54
53
52
52
53
54
55
55
55
54
52
50
48
45
42
40
38
36
34
33
32
31
30
30
30
30
30
30
29
29
29
28
28
27
26
25
26
29
35
42
52
63
73
79
83
83
80
76
72
67
63
59
56
54
52
52
52
52
53
53
53
52
51
49
46
43
40
39
39
34
32
32
29
28
28
27
27
27
27
27
27
27
26
26
25
24
24
22
22
25
30
38
47
58
69
77
82
84
83
79
75
70
66
62
59
57
55
54
53
53
53
54
54
53
52
50
48
45
43
40
38
35
33
32
30
29
28
28
27
27
27
27
27
27
27
26
26
25
24
23
22
22
23
26
33
41
52
64
74
81
84
84
82
78
74
69
66
62
59
57
56
55
54
54
54
54
54
52
51
48
46
43
40
38
36
34
32
30
29
28
28
27
27
27
27
26
26
26
26
25
24
24
23
22
21
21
21
24
29
37
47
58
69
77
82
83
81
77
73
68
64
60
57
55
53
52
52
52
53
53
53
52
50
48
45
42
40
38
35
33
32
30
29
28
28
28
27
27
28
28
28
27
27
27
26
25
24
24
23
25
29
37
45
55
65
73
78
79
77
74
70
65
61
58
55
52
51
50
49
50
50
51
50
50
48
46
44
41
39
36
34
32
30
28
27
26
26
25
25
25
25
25
25
24
24
23
23
22
21
20
20
23
28
36
44
55
65
72
76
77
75
72
68
64
60
57
55
52
50
49
48
47
47
47
47
46
45
43
40
38
36
33
31
29
27
27
24
23
23
22
22
22
21
21
21
21
20
20
19
18
18
16
15
15
16
19
25
34
43
53
63
69
72
72
70
67
63
60
57
54
52
50
48
47
46
46
46
46
46
44
43
41
39
37
34
32
30
28
27
25
24
23
23
22
22
22
22
21
21
21
20
19
19
18
17
16
15
14
15
18
23
31
40
48
57
63
66
66
64
61
57
54
51
49
47
45
44
43
43
43
44
44
43
43
41
40
38
36
33
31
29
27
26
25
24
23
23
23
23
22
22
22
22
22
22
21
21
20
19
18
18
18
20
24
30
38
46
54
60
63
64
62
59
56
53
49
47
45
44
43
42
43
43
44
45
45
44
43
41
40
37
35
33
31
29
28
26
25
25
24
24
24
23
23
23
23
22
22
21
20
19
18
18
20
23
29
36
44
51
57
61
62
61
59
56
53
51
49
47
45
44
43
43
43
43
43
43
42
41
40
38
36
34
32
31
29
28
27
25
25
24
23
23
23
22
22
22
22
22
21
20
20
18
18
18
17
19
19
29
37
37
52
57
60
60
59
57
54
52
49
47
46
45
44
43
43
43
43
43
43
42
41
40
38
36
33
31
29
27
26
24
23
22
21
21
20
20
19
19
18
18
17
17
16
15
14
13
14
16
20
26
34
41
59
57
55
52
49
47
45
43
42
41
41
41
42
42
42
42
41
40
39
37
34
32
30
28
27
25
24
23
22
22
22
21
21
21
21
21
20
20
19
19
18
17
17
19
23
29
37
45
53
59
63
63
62
60
57
52
49
47
46
44
44
44
44
45
45
46
45
45
43
41
40
38
36
33
32
30
28
27
26
25
25
24
24
24
24
23
23
22
22
21
20
20
22
25
31
38
46
54
60
64
65
64
61
58
55
52
50
48
46
45
44
43
43
43
44
43
43
42
40
39
37
35
33
31
29
27
26
25
24
23
22
22
22
21
21
21
21
20
20
19
19
18
17
17
17
20
25
33
41
50
58
63
65
65
63
60
57
55
52
50
48
47
46
45
45
45
45
45
45
44
43
41
40
38
35
33
31
30
28
27
26
25
25
24
24
23
23
23
23
22
22
21
21
20
19
19
18
17
17
18
21
21
33
41
41
58
64
64
66
64
64
57
54
51
49
47
46
45
45
45
45
45
46
45
45
43
42
40
39
37
34
33
31
29
28
27
26
26
25
25
25
24
24
24
24
23
23
22
22
21
20
20
19
18
18
19
23
29
37
46
55
63
68
69
69
66
62
59
55
52
50
48
47
46
46
47
47
48
49
48
48
46
44
42
40
38
36
34
33
31
30
29
29
28
28
28
28
28
27
27
27
26
26
25
25
24
23
22
24
27
33
40
49
58
65
70
72
71
68
65
61
58
55
52
51
49
49
48
49
49
50
50
50
49
47
46
43
41
39
37
35
33
32
30
29
29
28
28
27
27
27
27
27
26
26
25
25
24
23
22
22
21
23
28
35
43
53
63
70
75
77
75
73
69
66
63
60
57
56
54
54
53
53
54
54
54
54
52
51
49
46
43
41
39
37
35
34
32
31
30
30
30
29
29
29
29
28
28
28
28
26
26
26
24
23
22
22
23
23
32
40
40
60
69
69
79
79
79
73
69
65
62
59
57
55
54
53
53
53
54
54
54
53
51
49
47
44
41
40
37
35
33
32
31
30
29
29
28
28
28
28
27
27
27
26
26
25
24
23
22
22
21
20
20
22
26
33
42
52
62
71
76
78
76
73
69
65
61
57
54
52
50
50
50
51
52
53
53
53
51
50
47
45
42
40
38
35
33
32
30
29
29
28
28
28
28
28
28
28
28
27
27
26
25
25
24
23
22
21
21
22
26
33
41
52
62
71
77
80
79
76
72
68
63
59
56
54
52
51
51
51
52
52
53
53
52
50
48
45
42
40
38
35
33
31
30
29
28
27
27
26
26
26
26
25
25
25
24
24
23
22
21
21
20
19
18
18
18
19
23
31
40
51
62
73
80
83
83
81
76
72
67
63
59
56
54
53
52
52
53
53
54
54
53
51
49
47
44
41
39
36
34
32
30
29
28
27
26
26
26
26
26
25
25
25
24
24
23
22
21
21
20
19
18
18
17
16
16
18
22
29
39
50
62
73
81
85
85
83
79
73
68
64
60
56
54
53
52
52
53
53
54
54
53
52
50
50
44
41
41
36
34
34
30
28
28
26
25
25
25
25
25
24
24
24
24
23
22
22
21
20
20
19
18
17
17
16
17
20
26
35
46
58
70
79
84
85
83
79
74
68
63
58
54
52
50
49
50
51
53
54
55
55
54
52
50
47
44
41
39
36
34
32
30
29
28
28
28
28
28
28
28
28
28
27
27
26
25
24
24
23
22
21
20
21
26
33
42
53
65
76
84
87
87
84
80
75
69
64
60
57
54
53
52
53
54
55
56
56
56
54
52
49
47
43
40
38
36
34
32
30
29
29
28
28
28
28
28
28
27
27
27
26
26
25
24
23
22
21
20
20
22
26
34
43
55
68
79
86
89
89
86
82
77
72
67
63
60
58
56
56
56
56
57
58
57
56
55
52
50
46
43
40
38
36
34
32
30
29
29
28
28
28
28
28
28
27
27
27
26
25
24
24
23
22
21
20
19
19
19
22
28
37
47
60
72
81
87
89
87
83
79
73
69
64
61
61
57
55
55
55
56
56
56
56
56
53
50
50
44
41
41
36
34
34
30
29
28
28
27
27
27
27
27
27
26
26
25
25
24
24
23
22
21
20
20
19
18
18
18
22
28
37
48
60
71
80
85
86
84
80
75
70
65
60
57
55
53
53
53
54
55
56
57
56
55
53
50
47
44
41
39
37
35
33
31
30
30
30
30
30
30
30
30
30
29
29
28
27
26
25
24
23
22
21
20
20
23
29
37
47
59
70
79
84
86
84
80
75
70
66
61
58
55
53
52
52
53
54
54
55
54
53
51
48
46
42
40
37
35
33
31
29
28
27
27
27
26
26
26
26
26
26
26
25
25
24
23
22
21
20
19
18
19
22
28
37
48
60
72
81
86
87
85
81
77
72
67
63
60
58
56
55
54
55
55
56
56
55
54
52
49
46
43
40
38
35
33
31
30
29
28
27
27
27
27
27
27
27
26
26
26
25
24
23
22
22
21
20
19
18
18
20
25
33
43
55
67
77
84
86
86
83
78
73
68
64
60
58
56
54
54
54
54
55
55
55
54
52
50
47
44
41
39
36
34
32
30
29
28
28
27
27
27
27
27
27
27
26
26
25
25
24
24
22
21
21
19
19
19
21
27
27
45
56
56
77
82
82
82
78
78
68
63
59
56
53
52
51
51
52
53
54
54
54
53
51
48
45
42
40
37
35
33
31
29
28
28
27
27
27
27
27
27
27
27
27
26
25
24
23
22
21
20
21
24
30
39
49
60
71
78
82
82
79
75
70
66
61
58
55
53
51
51
50
51
51
52
52
51
49
47
45
42
40
37
34
32
30
29
28
27
26
26
26
25
25
25
25
25
25
24
24
23
22
21
20
19
18
18
20
25
32
41
52
64
73
79
81
81
78
73
69
65
61
58
56
54
53
52
52
52
52
52
51
50
48
46
43
40
38
35
33
31
29
28
27
26
25
25
25
25
24
24
24
23
23
22
22
21
20
19
18
17
16
16
15
15
18
23
31
40
50
60
69
74
75
74
71
67
63
59
56
54
51
50
49
48
48
48
48
48
47
46
44
42
40
37
35
32
30
28
26
25
24
24
23
23
23
23
23
22
22
22
21
20
20
19
18
18
16
16
16
14
14
14
15
19
19
34
42
42
61
67
69
69
66
63
59
55
51
49
47
45
44
44
44
45
45
46
45
44
43
41
39
37
34
32
30
28
27
25
25
24
24
24
24
24
24
24
24
23
23
22
22
21
20
19
18
18
17
16
16
17
20
26
34
43
53
61
67
70
69
67
63
59
56
52
49
47
46
45
44
44
45
45
45
45
44
43
41
40
38
35
33
31
29
27
26
25
24
24
24
23
23
23
23
23
22
22
21
21
20
19
18
18
17
16
15
15
15
17
22
29
38
47
58
66
72
74
73
70
67
63
59
56
53
51
49
48
48
48
48
48
48
48
47
46
44
41
40
37
34
32
30
28
27
26
25
24
24
24
24
23
23
23
22
22
21
21
20
19
18
18
17
16
16
15
14
14
16
20
26
35
45
56
65
72
75
76
73
70
66
62
58
55
53
51
50
49
49
49
49
49
49
48
47
45
43
40
39
36
33
31
29
28
26
25
25
24
24
23
23
23
23
22
22
21
21
20
19
18
18
17
16
16
15
14
14
13
14
16
20
28
37
47
58
67
73
75
74
71
67
62
58
54
51
49
47
46
46
46
47
47
48
48
48
46
44
44
40
37
37
32
30
30
26
25
25
23
23
22
22
22
22
22
22
21
21
20
20
19
18
18
17
16
15
15
14
14
15
19
26
35
45
56
65
71
74
74
71
67
62
58
53
50
47
45
44
44
45
46
47
48
48
47
46
44
42
40
37
34
32
30
28
26
25
24
24
24
24
24
24
24
24
24
23
23
23
22
21
20
19
18
17
18
20
26
33
42
53
63
70
75
76
74
71
66
62
58
54
51
49
48
47
47
48
49
49
49
49
47
45
43
40
38
36
33
31
29
27
26
24
24
23
23
23
22
22
22
22
21
21
20
19
18
16
20
25
33
42
52
61
67
70
70
68
65
62
58
55
52
50
48
47
46
46
46
47
46
46
45
44
42
40
38
35
33
30
29
27
25
24
24
23
22
22
22
22
22
21
21
21
20
20
19
18
17
16
16
16
20
25
33
41
50
59
64
67
67
66
63
60
60
54
52
52
48
47
47
46
46
46
46
46
46
43
41
41
38
35
35
31
29
28
27
26
25
24
24
24
24
23
23
23
23
22
22
21
20
19
19
18
17
17
18
21
27
34
42
52
60
65
68
68
66
63
60
57
54
52
50
49
48
48
48
48
49
49
49
48
46
44
42
40
38
36
35
33
32
31
30
29
29
29
29
29
28
28
28
28
27
27
26
25
24
24
23
23
25
29
36
43
52
60
67
70
71
70
68
65
61
59
56
54
52
51
51
51
51
51
52
51
50
49
47
45
42
40
38
36
35
33
32
31
30
30
29
29
29
29
28
28
27
27
26
25
24
24
23
22
23
25
31
38
46
55
63
70
73
74
72
70
67
64
61
59
57
55
54
53
53
53
53
53
52
51
50
48
45
43
40
39
37
35
33
32
31
30
30
29
29
29
28
28
28
27
27
26
25
24
23
23
22
21
20
20
21
25
32
40
49
59
68
74
77
77
75
72
69
66
63
61
59
57
56
55
55
54
54
54
53
52
50
48
46
43
40
39
37
35
33
32
31
30
29
29
28
28
28
27
27
26
26
25
24
23
22
22
21
20
19
19
18
19
21
26
34
42
53
53
71
76
76
76
73
73
66
62
62
57
55
55
52
52
52
52
53
53
52
50
49
46
44
41
39
37
34
33
31
30
29
28
28
28
27
27
27
27
26
26
25
25
24
23
22
22
21
20
19
19
19
21
26
33
42
53
63
72
77
79
78
74
70
66
61
58
55
53
51
50
50
51
51
52
52
52
50
48
46
43
40
38
35
33
31
29
28
27
26
26
26
25
25
25
25
25
24
24
23
22
21
20
19
18
18
17
17
20
26
34
44
55
66
74
78
79
78
74
69
65
61
57
54
52
51
50
50
50
51
51
51
50
49
47
44
41
40
37
34
31
29
28
26
25
24
23
23
23
23
23
23
22
22
21
21
20
20
19
18
17
16
16
15
14
14
15
19
26
36
47
60
71
79
84
85
82
78
73
68
63
60
57
54
53
52
52
52
53
54
54
53
51
49
47
44
41
39
36
33
31
29
27
26
25
24
24
24
23
23
23
23
23
22
22
21
20
19
19
18
18
16
16
16
14
14
14
17
23
23
42
55
55
78
84
84
86
82
82
71
65
60
56
53
51
51
50
51
52
53
54
54
53
52
49
47
44
40
38
35
33
30
28
27
26
25
24
24
24
24
24
25
25
25
24
24
23
23
22
21
20
19
18
17
17
20
26
34
44
57
69
79
84
86
85
81
75
69
63
58
54
51
49
49
49
50
52
54
55
55
54
53
50
47
44
41
39
36
33
31
29
28
27
26
26
25
25
26
26
26
26
26
25
25
24
23
22
21
20
21
25
32
41
52
64
75
83
87
87
84
80
74
69
64
59
56
53
52
52
52
53
54
55
55
54
53
51
48
45
42
40
37
34
32
30
28
27
26
26
26
26
26
26
26
26
26
25
25
24
23
22
21
20
19
20
23
30
39
50
63
75
83
88
89
87
82
77
71
66
62
58
56
54
53
53
54
55
56
56
55
54
51
49
46
42
40
37
34
32
30
28
27
27
26
26
26
26
26
26
26
25
25
24
24
23
22
21
20
19
18
18
19
24
31
41
53
66
77
85
88
88
85
80
74
69
64
60
56
54
53
52
53
53
54
55
55
54
52
49
46
43
40
38
35
32
30
28
28
26
25
25
24
24
24
24
24
24
24
23
23
22
21
21
20
19
19
17
16
16
17
21
29
39
50
63
75
83
87
87
84
79
73
67
62
57
54
51
50
50
51
52
54
55
55
55
53
51
48
45
42
40
37
34
32
30
29
28
27
27
27
27
27
27
27
27
27
26
26
25
24
23
22
21
20
19
20
24
31
40
52
64
75
83
87
87
84
79
73
68
63
58
55
53
51
51
51
52
53
54
54
54
52
50
47
44
40
38
35
32
30
28
27
26
25
25
24
24
25
25
25
25
24
24
23
23
22
21
20
19
18
17
17
20
26
35
46
59
71
81
87
89
87
83
78
72
67
62
58
56
54
53
53
54
54
55
56
55
54
52
49
46
43
40
37
34
32
30
28
27
26
25
25
25
25
25
25
25
25
25
24
24
23
22
21
20
19
18
17
17
18
22
30
40
53
66
77
85
89
89
86
81
75
69
64
60
57
55
54
53
54
54
55
56
55
54
53
50
50
44
41
41
36
33
33
29
27
27
26
26
26
25
25
25
25
25
25
25
24
23
23
22
21
20
19
18
18
19
22
29
39
50
63
74
83
87
87
84
79
74
68
63
58
55
53
52
51
52
53
54
55
55
55
53
51
48
45
41
39
36
34
32
30
28
28
27
27
27
27
28
28
28
28
28
28
27
26
25
24
23
22
22
25
31
40
50
61
72
80
85
85
82
78
73
67
63
58
55
53
51
51
51
52
53
53
53
53
51
49
46
43
40
37
35
32
30
29
28
27
26
26
26
26
26
26
26
26
25
25
24
23
22
21
20
21
24
31
40
50
61
72
79
82
82
80
76
72
68
64
61
59
57
55
54
54
54
54
54
54
52
50
48
45
42
40
37
35
33
31
29
28
28
27
27
27
27
27
27
26
26
26
25
24
23
22
21
20
19
20
23
29
38
47
59
69
77
81
81
79
75
70
66
62
59
56
54
53
52
51
51
51
51
51
49
48
45
43
40
38
35
33
31
29
28
27
26
26
25
25
25
25
25
24
24
24
23
22
22
21
20
19
18
17
17
17
20
26
34
43
55
65
73
77
78
76
72
67
63
59
55
52
50
49
48
48
48
49
49
49
48
46
46
41
39
39
34
31
31
27
26
26
24
23
23
23
23
23
23
23
23
23
22
21
21
20
19
18
17
16
15
16
19
24
32
41
52
63
70
74
75
73
69
64
59
55
52
49
47
46
45
46
47
48
48
49
48
46
44
41
40
37
34
31
29
27
26
24
24
23
23
23
23
23
23
23
23
22
22
21
20
19
19
18
17
16
17
21
27
36
46
57
67
73
76
75
72
68
64
59
55
52
49
47
46
45
45
46
46
46
46
45
43
41
40
37
34
31
29
27
25
23
22
21
21
20
20
20
20
20
20
20
20
19
18
18
17
16
15
14
13
13
14
18
25
34
45
57
67
75
78
78
75
71
66
62
57
54
51
49
48
47
47
48
48
49
48
48
46
44
41
39
36
33
31
28
26
24
23
22
21
21
21
21
21
21
21
21
21
20
20
19
18
18
17
16
15
14
13
15
19
27
36
47
59
69
76
78
78
75
70
65
60
60
51
49
49
45
45
45
46
47
47
47
46
46
43
40
40
35
32
32
27
25
23
22
21
20
20
20
20
20
20
20
20
20
20
19
19
18
17
16
16
15
14
14
17
24
33
43
54
66
74
78
79
76
72
67
61
56
52
48
46
45
45
46
47
48
49
50
49
48
46
44
41
39
36
33
31
29
27
26
25
25
24
24
25
25
25
25
25
25
25
24
23
23
21
20
19
19
21
27
34
44
55
66
75
80
81
79
75
70
65
60
56
53
51
49
48
48
49
50
51
51
50
49
47
45
42
40
37
34
31
29
27
26
25
24
24
24
24
24
24
24
24
24
23
23
22
21
20
19
18
19
23
29
39
49
60
71
78
81
81
79
74
69
64
60
56
53
51
50
49
49
50
50
51
50
50
48
46
43
40
38
35
32
30
28
27
25
24
24
23
23
23
23
23
23
23
23
22
22
21
20
19
18
17
17
20
25
34
43
55
67
76
81
82
80
76
71
66
61
57
54
52
50
49
49
49
50
50
50
50
48
46
44
41
39
36
33
30
28
26
25
24
23
23
23
23
23
23
23
23
23
23
22
21
20
19
18
17
17
18
22
29
39
49
61
71
78
78
80
77
72
51
49
48
47
48
49
50
50
51
50
49
47
44
41
39
36
33
31
29
28
26
25
25
25
25
25
25
26
26
26
26
25
25
24
23
22
23
25
31
39
48
59
69
76
79
79
77
72
67
62
58
58
51
49
49
48
48
49
50
50
49
48
46
44
41
39
36
33
31
29
27
26
25
25
24
24
24
24
24
24
24
24
23
22
22
21
22
24
30
39
48
58
68
75
78
78
76
72
68
63
59
56
53
51
50
50
50
50
50
50
50
49
47
44
42
40
37
34
32
30
28
27
26
25
25
25
25
24
24
24
24
24
23
22
21
20
20
20
23
29
37
45
56
65
71
74
74
72
68
65
61
58
55
52
51
49
48
48
48
49
48
48
47
45
42
40
38
36
33
31
29
27
26
25
25
24
24
24
24
23
23
23
22
21
21
20
19
18
18
20
24
30
39
47
56
63
67
68
66
64
60
57
53
50
48
46
45
44
44
44
45
45
45
44
42
42
39
36
36
32
30
30
27
25
25
24
24
24
23
23
23
23
23
22
22
21
20
19
19
19
22
27
33
40
49
56
61
63
63
61
59
55
52
50
47
46
45
44
44
44
45
45
45
44
43
41
40
38
35
33
31
29
28
27
26
25
25
25
24
24
24
24
23
23
22
22
21
20
19
19
21
25
31
38
45
53
59
62
63
61
59
56
53
51
48
47
45
44
44
43
44
44
44
44
43
41
40
38
36
33
31
30
28
27
26
25
24
24
24
23
23
23
23
22
22
21
20
20
19
18
17
16
17
20
25
32
40
48
55
60
62
62
61
58
55
53
50
48
47
46
45
44
44
45
45
45
44
43
42
40
39
36
34
32
30
29
28
26
26
25
25
24
24
24
23
23
23
22
22
21
20
19
18
18
17
16
16
16
19
24
32
40
48
56
62
65
65
63
61
58
55
52
50
48
47
46
46
46
46
46
46
46
45
43
41
40
38
35
33
31
29
28
26
25
25
24
24
23
23
23
23
22
22
21
21
20
19
18
17
16
16
15
14
14
15
19
26
34
42
51
59
63
65
64
62
58
55
52
49
46
45
44
44
44
44
45
46
46
45
45
43
41
41
37
34
34
30
28
28
25
24
24
23
22
22
22
22
22
22
21
21
20
19
19
18
17
16
15
14
14
16
20
27
35
44
53
61
66
67
66
63
60
56
52
49
47
45
44
43
44
44
45
46
46
46
45
43
41
39
37
34
32
30
28
26
25
24
23
23
22
22
22
22
21
21
21
20
20
19
18
18
17
16
15
14
15
17
22
30
40
49
59
67
72
73
72
68
65
60
57
53
51
49
47
47
47
47
48
48
48
48
47
45
43
40
39
36
34
32
30
28
26
25
24
24
23
23
23
23
23
22
22
22
21
21
20
19
18
18
17
16
15
15
18
23
31
40
51
62
70
76
77
76
73
69
64
60
56
53
51
49
48
48
48
49
49
50
49
48
47
45
42
40
38
35
32
30
28
27
26
25
24
24
23
23
23
23
23
22
22
21
21
20
19
18
17
17
16
15
15
17
21
29
39
49
59
68
73
74
73
70
66
61
56
52
49
46
45
44
44
45
46
46
48
48
48
45
43
43
39
37
37
32
30
30
26
25
25
24
24
23
23
23
24
23
23
23
23
22
22
21
20
19
19
18
20
24
32
40
50
61
69
74
76
75
72
68
63
58
54
51
48
47
46
47
48
49
51
51
51
51
49
47
44
42
40
37
35
32
31
29
28
27
26
26
26
26
26
26
26
26
26
25
25
24
23
22
22
24
29
37
45
56
66
74
79
80
78
75
70
66
61
57
54
52
50
50
50
51
51
52
52
52
51
49
47
44
41
40
37
35
33
31
29
28
27
27
26
26
26
26
26
26
26
25
25
24
23
22
22
21
22
27
34
42
53
64
74
80
83
82
79
75
70
65
61
57
54
53
51
51
52
53
53
54
53
52
51
49
46
43
40
38
36
34
32
30
29
28
27
27
27
26
26
26
26
26
26
25
25
24
23
22
21
20
20
22
26
34
43
54
66
76
82
84
83
80
75
70
65
60
57
54
52
51
51
52
53
53
54
53
52
50
48
45
42
40
37
35
32
31
29
28
27
26
26
26
26
26
26
26
26
26
25
25
24
23
22
21
20
21
24
31
40
49
61
71
79
83
83
80
76
70
70
60
56
56
50
49
49
50
51
51
53
53
53
51
49
49
43
40
40
36
33
33
30
28
28
27
27
27
27
27
27
27
27
27
27
26
25
25
24
24
26
31
39
48
59
70
78
83
84
82
78
73
68
62
58
54
52
50
50
50
51
53
54
54
53
52
50
47
44
41
39
36
34
32
30
29
28
27
27
27
27
27
27
27
27
26
26
25
24
23
23
25
30
38
47
59
70
78
83
84
83
79
74
69
64
60
56
54
52
52
52
52
53
54
53
53
51
49
46
44
40
38
36
33
31
30
28
27
27
26
26
26
26
26
26
26
25
25
24
23
22
22
21
23
27
35
44
55
67
76
83
85
84
80
76
71
66
62
58
56
54
53
53
53
53
54
54
53
52
49
47
44
41
39
36
34
32
30
29
28
27
27
27
27
27
27
27
26
26
25
25
24
23
22
21
21
22
27
34
43
54
65
74
80
81
80
76
71
66
62
57
54
52
50
49
49
49
50
50
50
50
48
46
46
41
39
39
34
32
32
28
27
27
26
26
26
25
25
25
25
25
25
24
24
23
22
21
20
20
19
21
26
34
43
54
66
74
80
81
79
75
70
65
60
55
52
50
48
48
48
50
51
51
52
51
49
47
45
42
40
37
34
32
30
29
28
27
27
27
27
27
27
28
28
28
27
27
26
25
24
23
22
22
25
30
38
47
58
69
77
82
83
80
76
72
66
62
58
55
52
51
50
50
51
52
52
52
51
49
47
44
41
39
37
34
32
30
28
27
27
26
26
26
26
26
26
25
25
25
24
23
22
21
20
19
20
22
28
37
47
58
69
77
81
82
80
76
71
66
62
58
55
53
52
51
51
51
51
51
51
50
48
46
43
40
38
36
33
31
29
27
26
25
25
24
24
24
24
24
24
24
24
23
22
21
20
20
19
18
18
20
26
35
45
56
68
76
81
82
80
76
71
66
62
58
55
52
51
50
50
50
50
51
50
50
48
46
43
40
38
35
33
30
28
26
25
24
24
23
23
23
23
23
23
23
23
23
22
21
20
19
18
17
17
17
21
27
37
47
58
69
76
80
80
77
72
67
61
57
53
50
48
47
47
47
48
50
50
50
49
49
45
42
42
37
35
35
30
28
28
25
25
25
24
24
24
25
25
25
25
25
24
24
23
22
21
21
21
24
30
38
48
59
70
77
81
81
78
74
69
63
59
55
51
49
48
48
48
49
50
50
50
49
47
45
42
40
37
34
32
29
28
26
25
24
24
23
23
23
23
24
24
23
23
23
22
21
20
19
18
19
21
27
36
46
57
68
77
81
82
79
75
70
65
60
56
53
51
49
49
49
49
50
50
50
49
48
46
43
40
38
35
32
30
28
27
26
25
24
24
24
23
24
24
23
23
23
23
22
21
21
20
19
18
17
16
16
19
25
35
45
57
69
78
83
84
81
77
72
67
62
58
55
53
51
50
50
51
51
52
52
51
49
47
45
42
39
36
34
31
29
28
26
25
25
24
24
24
24
24
24
24
23
23
22
22
21
20
19
18
17
16
16
15
15
18
24
33
43
56
68
77
82
84
81
77
72
66
61
56
53
51
49
48
48
49
50
50
51
50
50
47
44
44
39
35
35
29
26
26
23
21
21
20
20
20
21
21
21
22
22
21
21
20
20
19
18
18
17
16
16
16
19
25
34
45
57
69
77
82
83
80
76
70
64
58
54
50
47
46
46
47
48
50
51
51
51
50
47
45
42
39
36
33
31
29
27
26
25
24
24
24
25
25
25
26
26
26
26
25
25
24
23
22
21
21
23
28
36
46
58
70
79
84
85
83
79
73
68
63
58
55
52
51
50
50
51
52
52
53
52
51
48
46
43
40
37
35
32
30
28
27
26
25
25
25
25
24
24
23
23
22
21
20
19
19
21
27
35
45
57
68
76
81
82
80
76
71
67
62
58
55
53
51
50
50
50
50
50
50
49
48
45
43
40
38
35
32
30
28
26
25
25
24
24
24
24
24
24
24
24
23
23
22
21
20
19
18
17
18
20
25
33
43
54
65
73
78
79
77
74
69
65
60
56
53
51
49
48
48
48
49
49
48
48
46
44
41
39
36
34
31
29
27
26
25
24
23
23
23
23
23
23
23
23
22
22
21
21
20
19
18
17
16
16
18
23
31
40
51
61
70
75
76
74
71
66
62
57
53
53
48
47
47
47
47
47
49
49
49
47
45
45
40
38
38
33
31
31
28
27
26
26
25
25
26
26
26
26
26
26
25
25
24
23
23
22
21
21
24
29
37
46
56
66
74
77
78
76
72
67
62
58
54
52
50
49
48
48
49
49
50
49
49
47
45
42
40
38
35
33
31
29
28
27
27
26
26
26
26
26
26
26
26
25
25
24
23
22
21
20
20
23
29
37
46
57
67
74
78
78
75
72
67
63
59
56
54
52
50
49
49
49
50
50
49
48
47
45
42
40
38
35
33
30
29
27
26
25
25
25
25
25
25
24
24
24
24
23
22
22
21
20
19
18
17
17
21
27
36
46
57
68
76
80
81
78
74
69
65
60
57
54
52
51
50
50
50
51
51
51
50
48
46
43
40
38
36
33
31
29
27
26
25
24
24
24
24
24
24
23
23
23
22
21
20
19
18
17
16
15
15
15
19
25
35
44
56
67
75
78
78
76
72
67
62
57
57
50
48
48
47
47
47
48
49
49
48
46
46
41
40
40
34
31
31
27
26
25
24
23
23
23
23
23
24
24
23
23
23
22
21
20
19
18
18
18
21
27
35
44
55
66
73
77
77
74
70
66
61
56
52
49
47
46
46
46
47
48
49
49
48
46
44
41
39
36
33
31
29
27
25
24
24
23
23
23
23
23
24
24
23
23
22
22
21
20
19
19
22
27
36
45
56
66
74
78
79
77
73
68
63
59
55
52
50
49
48
48
49
49
50
50
49
47
45
43
40
38
35
32
30
28
27
26
25
25
24
24
24
24
24
24
24
24
23
22
22
21
20
19
18
19
23
30
40
50
62
72
79
82
82
79
75
70
66
62
58
56
54
52
52
51
52
52
52
51
50
48
46
43
40
38
36
33
31
29
28
27
26
26
25
25
25
25
25
25
24
24
23
23
22
21
19
18
18
17
19
24
32
41
53
64
73
78
80
79
75
70
65
61
57
53
51
49
48
48
48
49
49
49
48
47
45
43
40
38
35
32
30
28
26
25
24
24
24
23
24
24
24
24
23
23
23
22
22
21
20
19
18
17
16
18
22
28
38
48
60
70
76
79
79
75
71
71
61
56
56
50
48
48
47
48
48
50
50
50
49
47
47
42
40
40
34
32
30
28
27
26
25
25
25
25
25
25
25
25
25
25
24
23
22
21
20
19
19
20
24
31
40
51
63
73
79
82
81
78
73
68
63
59
55
52
50
49
49
49
50
50
51
50
49
47
45
42
40
37
34
32
30
28
26
25
24
24
24
24
24
24
24
23
23
23
22
21
20
19
18
17
17
18
22
29
38
49
61
71
78
81
81
78
74
69
64
59
56
53
51
49
49
49
50
50
50
50
49
47
45
42
40
37
34
31
29
27
26
25
24
23
23
23
23
23
23
23
22
22
22
21
20
19
19
18
16
16
15
17
21
29
39
50
62
72
79
82
81
78
74
68
64
59
55
53
51
50
49
49
50
51
51
50
49
47
45
42
40
37
34
32
30
28
26
25
24
24
23
23
23
23
23
23
23
23
22
21
21
20
19
18
17
16
16
19
25
34
44
56
67
76
80
81
79
75
70
70
60
55
55
50
48
48
48
49
49
51
51
51
49
47
47
41
39
39
33
31
28
27
26
25
24
24
24
24
24
25
25
25
25
24
23
23
22
21
20
19
20
25
32
41
52
63
73
79
81
80
77
72
66
61
56
53
50
48
47
47
48
49
50
50
50
49
47
44
42
39
36
33
31
29
27
25
25
24
24
23
24
24
24
24
24
24
23
23
22
21
20
19
19
22
28
37
47
59
70
78
82
82
80
76
71
66
61
57
54
51
50
49
50
51
51
52
52
51
49
47
44
41
39
36
33
31
29
27
26
25
25
24
24
24
24
24
24
24
24
23
23
22
21
20
19
18
17
18
23
30
40
52
64
75
82
85
84
81
76
71
65
61
57
54
52
51
51
51
52
53
53
52
51
49
46
43
40
38
35
32
30
28
26
25
24
24
23
23
23
23
23
23
23
22
22
21
20
19
18
17
16
15
14
16
21
28
39
50
63
74
81
84
83
79
74
69
63
58
54
51
49
48
48
49
50
51
51
51
50
48
46
43
40
37
34
31
29
27
25
24
24
23
23
23
23
24
24
24
24
24
23
23
22
21
20
19
18
17
17
20
26
35
45
45
70
78
78
84
82
82
71
65
65
55
51
51
47
47
47
49
50
50
52
52
50
48
45
42
40
36
33
31
28
27
25
24
24
24
24
24
24
25
25
25
25
24
23
23
21
20
19
19
21
26
34
44
56
68
77
82
84
82
78
73
67
62
57
53
51
49
48
48
49
50
51
51
51
50
48
45
42
40
37
34
31
29
27
25
24
24
24
24
24
24
24
24
24
24
24
23
22
21
20
19
18
18
21
28
37
47
60
71
80
84
85
83
78
73
68
63
58
55
53
51
50
50
51
52
52
52
51
50
47
44
41
39
36
33
31
29
27
26
25
24
24
24
24
24
23
23
23
23
22
21
20
19
18
17
16
18
23
30
40
50
60
68
72
73
72
68
64
60
55
52
49
46
45
44
44
44
44
45
44
43
42
40
38
36
33
30
28
26
24
22
21
20
20
19
19
19
19
18
18
18
17
17
16
15
14
13
12
12
13
16
22
30
39
47
55
59
61
60
57
57
49
46
46
40
39
39
38
38
38
40
40
40
40
39
39
35
33
33
28
26
25
23
22
21
21
21
21
21
21
21
21
21
21
20
20
19
18
18
17
16
17
21
26
33
40
48
54
57
58
56
54
50
47
44
42
40
39
39
39
39
40
40
40
40
40
40
38
36
34
32
30
28
27
26
25
24
24
24
24
24
24
24
24
24
24
23
23
22
21
21
21
24
28
34
40
47
53
56
57
56
53
51
48
45
43
42
40
40
40
40
40
40
41
41
40
40
39
37
35
34
32
30
29
28
27
26
26
26
26
25
25
25
25
25
24
24
23
23
22
21
20
20
20
22
25
31
38
44
51
56
58
58
56
54
52
49
47
45
44
43
42
42
42
43
43
43
43
42
41
40
39
37
35
33
32
31
30
29
28
28
28
27
27
27
27
26
26
25
25
24
24
23
22
21
20
20
19
21
24
30
36
43
50
55
58
58
57
54
52
49
47
45
44
43
42
42
42
43
43
43
43
42
41
40
39
37
35
33
31
30
29
28
27
26
26
26
25
25
25
25
24
24
24
23
22
22
21
20
19
19
18
18
19
23
28
35
42
49
55
58
59
58
56
53
50
48
48
44
43
43
43
43
43
44
45
45
44
43
43
40
38
38
34
32
32
30
29
28
27
27
27
27
27
26
26
26
25
25
24
24
23
22
21
20
20
19
20
24
29
36
43
52
58
62
64
63
61
58
55
53
51
49
48
47
46
46
47
47
48
48
47
46
45
43
41
39
37
35
33
32
31
30
29
28
28
27
27
27
27
26
26
25
25
24
23
23
22
21
20
19
19
18
19
21
26
33
41
50
59
65
69
70
68
66
62
59
57
54
52
51
50
50
50
50
51
51
51
50
49
47
45
42
40
39
37
35
33
32
31
30
29
29
28
28
28
27
27
27
26
26
25
24
23
23
22
21
20
19
19
19
21
26
34
42
51
61
67
71
72
71
68
64
60
57
54
52
50
49
49
49
49
50
50
50
50
49
47
45
42
40
38
36
34
32
31
30
29
28
28
27
27
27
27
27
26
26
25
24
23
23
19
19
18
20
23
30
38
47
57
65
71
74
73
71
67
63
59
56
53
51
49
49
49
50
51
52
52
52
51
49
47
45
42
40
38
36
34
33
32
31
30
30
30
30
30
30
30
29
29
28
28
27
26
25
24
23
22
23
27
33
40
50
59
68
73
75
75
73
69
65
62
58
56
54
52
51
51
51
51
52
52
51
50
48
46
43
41
39
37
35
33
31
30
29
28
28
27
27
27
27
26
26
26
25
25
24
23
22
22
21
20
20
22
26
33
41
51
61
69
74
76
75
72
68
64
60
57
54
52
51
50
49
49
49
49
49
49
47
46
43
41
40
37
35
33
32
30
29
29
28
28
28
27
27
27
27
27
27
26
25
25
24
23
22
21
20
20
22
26
33
41
51
61
69
74
76
75
72
68
63
59
56
53
51
49
48
48
48
49
49
49
49
48
46
44
41
39
37
34
32
30
29
28
27
26
26
25
25
25
25
25
25
25
24
24
23
23
22
21
20
20
19
20
23
29
37
46
57
67
74
77
78
75
71
67
63
58
55
52
50
49
49
50
50
51
52
52
51
50
48
45
42
40
38
36
34
32
31
30
29
29
28
28
28
28
28
28
27
27
26
26
25
24
23
22
22
23
28
35
35
54
64
64
78
80
80
76
71
71
62
59
59
53
52
52
50
51
51
52
52
51
50
48
45
43
40
38
35
33
31
30
28
27
26
26
26
25
25
25
25
25
24
24
23
22
22
21
20
19
18
19
23
29
38
49
60
71
79
83
84
81
77
73
69
64
61
58
56
55
54
54
54
54
54
54
52
51
49
46
43
40
38
36
33
32
30
29
28
27
27
26
26
26
26
25
25
25
24
23
23
22
21
20
19
18
18
17
18
22
28
38
49
61
72
81
85
86
84
80
75
71
66
63
60
58
56
55
55
55
55
55
55
54
52
50
47
44
41
39
37
34
32
31
29
28
28
27
27
27
27
26
26
26
25
25
24
24
23
22
21
20
19
19
18
19
23
30
39
50
62
73
81
85
85
83
78
73
68
63
59
56
54
53
53
53
54
55
55
55
54
52
50
47
44
41
39
36
34
32
30
29
28
28
27
27
27
27
27
27
27
27
27
26
25
24
23
23
21
20
20
24
31
31
50
62
62
81
85
85
82
78
78
68
63
63
56
54
53
52
52
53
54
54
54
53
51
49
46
43
40
38
35
33
31
29
28
27
26
26
26
26
26
25
25
25
25
24
24
23
22
21
20
19
19
21
26
34
44
56
68
78
84
86
85
82
77
72
67
63
60
57
55
54
53
53
54
54
54
53
52
50
48
45
42
40
37
34
32
30
29
28
27
26
26
26
26
26
26
25
25
25
24
23
22
21
20
19
19
18
18
21
26
35
45
58
70
80
85
87
85
81
77
72
67
63
60
57
56
54
54
54
54
54
54
53
52
49
47
44
41
38
36
33
31
29
28
27
26
26
25
25
25
25
25
25
24
24
23
23
22
21
20
19
18
17
17
18
23
30
40
51
63
74
81
85
84
81
76
71
66
61
57
55
53
52
51
52
53
53
54
53
52
50
48
45
42
40
37
34
32
30
29
28
27
26
26
26
26
26
26
26
26
26
25
25
24
23
22
21
20
20
19
19
21
26
34
44
56
68
78
84
86
84
80
75
70
65
60
57
54
53
52
52
52
53
54
54
53
52
50
47
44
41
39
36
34
31
30
28
27
26
26
26
26
26
26
26
25
25
25
24
23
23
21
20
19
18
18
18
16
18
18
31
40
52
65
76
84
87
87
84
79
74
69
65
61
58
56
54
54
54
54
55
55
54
53
51
49
46
43
40
38
35
33
31
29
28
27
26
26
25
25
25
25
25
24
24
23
23
22
21
20
19
18
17
17
16
15
16
19
26
35
46
59
71
81
86
88
86
82
76
71
66
62
58
56
54
53
53
53
54
54
54
53
52
50
47
44
41
38
35
32
30
28
26
25
24
24
24
24
24
24
24
23
23
23
22
22
21
20
19
18
17
16
16
15
15
19
25
34
45
58
70
79
84
85
83
79
73
68
62
57
54
51
49
49
49
50
52
53
53
53
51
49
47
44
40
38
35
33
30
28
27
26
25
25
25
25
25
26
26
26
26
26
25
25
24
23
22
21
20
20
21
26
33
42
54
66
76
83
85
84
81
76
70
65
60
56
53
51
50
50
50
52
52
53
53
51
49
47
47
41
38
38
33
30
30
27
26
26
24
24
24
24
24
24
24
24
24
23
23
22
21
20
19
18
18
20
26
34
44
56
68
78
83
85
83
79
74
69
64
60
56
54
52
51
51
51
52
52
52
52
50
48
45
42
40
37
34
32
30
28
27
26
25
24
24
24
24
24
24
23
23
22
22
21
20
19
18
17
16
16
18
23
31
40
51
62
71
76
77
76
73
68
64
60
56
53
51
49
48
47
47
47
47
47
46
45
43
41
39
36
33
31
28
26
25
23
23
22
22
21
21
21
21
21
20
20
20
19
18
17
16
16
15
14
13
14
17
22
30
39
48
58
65
68
68
66
63
59
55
51
48
45
43
42
42
42
43
44
44
44
43
42
40
38
36
34
31
29
27
26
25
24
23
23
23
23
23
23
23
23
23
22
22
21
20
19
19
18
19
23
28
36
43
52
59
64
66
65
63
59
56
53
50
47
45
44
43
42
43
43
44
44
43
42
40
39
37
35
32
30
28
27
26
25
24
24
23
23
23
23
23
22
22
22
21
20
19
19
18
17
17
19
24
30
38
46
54
60
63
64
63
61
58
55
52
50
48
46
45
44
44
44
44
44
44
44
42
40
40
37
34
34
30
29
29
26
25
25
24
24
24
23
23
23
22
22
21
20
20
19
18
17
16
15
15
16
19
24
32
40
47
54
59
61
60
59
56
54
51
49
47
45
44
43
43
43
43
43
43
42
41
40
38
36
34
32
30
28
27
25
24
24
23
23
23
22
22
22
22
21
21
20
20
19
18
17
16
16
15
15
15
18
22
29
37
44
51
57
59
60
58
56
53
51
48
46
44
43
42
42
42
42
43
43
42
41
40
39
37
35
32
30
29
27
26
25
25
24
24
24
24
24
24
23
23
23
22
22
21
21
20
19
18
18
18
20
24
30
37
45
52
59
62
63
62
60
57
54
51
49
47
45
44
43
43
44
44
44
44
43
42
40
39
37
35
33
31
29
28
27
26
25
25
25
25
25
24
24
24
24
23
22
22
21
20
19
19
18
18
21
25
32
40
49
57
63
67
68
66
64
60
57
54
52
50
48
47
46
46
46
47
47
47
46
45
45
41
39
39
35
33
33
30
28
28
27
26
26
26
25
25
25
25
25
24
23
23
22
21
21
20
19
19
18
19
22
27
35
44
54
63
70
73
74
72
69
65
61
58
55
53
51
50
49
49
49
49
49
49
48
46
45
42
40
38
36
34
32
30
29
28
27
26
26
26
26
25
25
25
25
24
24
23
23
22
21
21
20
19
19
18
19
21
25
33
41
51
62
70
75
76
75
72
67
63
59
55
52
50
49
48
48
49
50
50
50
50
49
47
45
42
40
38
35
33
31
30
29
28
27
27
27
27
27
27
27
27
27
27
26
26
25
24
23
22
22
21
23
27
34
42
53
63
71
76
78
77
73
69
65
60
56
53
51
49
48
48
49
49
50
50
50
49
47
45
42
40
38
35
33
31
29
28
27
26
26
26
26
26
26
26
25
25
25
24
24
23
22
21
20
20
21
24
31
40
49
60
70
77
81
81
78
74
69
65
61
57
54
52
51
51
51
51
52
52
52
51
50
48
45
43
40
38
36
34
32
30
29
28
28
27
27
27
26
26
26
26
25
25
24
24
23
22
21
20
19
19
21
26
34
43
55
66
76
82
84
83
80
75
75
66
62
62
56
54
54
53
53
53
54
54
54
52
50
50
44
41
41
37
34
32
30
29
28
27
27
26
26
26
26
26
26
26
25
25
24
24
23
22
21
20
19
20
22
28
36
45
57
68
77
82
83
81
77
72
67
63
58
55
53
51
51
51
52
53
51
51
46
43
43
38
36
36
32
30
29
28
28
28
27
28
28
28
28
28
27
27
26
26
25
24
23
23
23
27
33
41
52
63
73
80
83
83
80
76
71
66
61
57
54
52
51
51
51
52
53
53
53
52
49
46
43
40
38
36
33
31
29
28
27
26
26
26
26
26
26
26
26
26
25
25
24
23
22
21
20
21
23
29
38
48
60
71
80
85
86
85
81
76
71
67
63
59
57
55
54
54
54
55
55
55
54
52
50
48
45
43
40
39
36
34
32
31
30
29
29
28
28
28
27
27
27
26
26
25
24
23
22
21
20
19
18
19
22
29
38
49
61
72
81
85
86
83
79
74
74
64
60
60
54
53
53
52
53
53
54
53
53
51
49
49
43
40
40
35
33
31
29
28
27
26
26
26
26
26
26
26
26
26
25
25
24
23
22
21
20
19
18
18
21
27
36
46
59
70
79
84
85
82
78
72
67
62
57
53
51
50
49
50
51
53
54
54
53
52
50
47
44
41
38
35
33
30
29
27
26
26
25
25
25
26
26
26
26
26
26
25
24
23
22
21
20
20
21
26
33
42
54
66
76
83
86
85
81
76
71
65
60
56
53
51
50
50
50
52
52
53
53
52
50
47
44
41
39
36
33
31
29
27
26
25
25
25
25
25
25
25
25
25
25
24
23
23
22
20
19
19
19
22
28
37
47
60
72
81
86
87
85
81
76
70
65
60
57
54
53
52
52
53
54
54
55
54
52
50
47
44
41
39
36
33
31
29
28
27
26
26
26
26
26
26
26
26
26
25
25
24
23
22
21
20
19
18
18
21
27
35
45
58
70
80
85
87
86
82
77
71
66
62
59
56
54
53
53
54
54
55
55
54
52
50
48
45
42
40
37
34
32
30
29
28
27
26
26
26
26
26
26
26
25
25
24
24
23
22
21
20
19
18
17
18
22
22
38
49
49
71
79
79
83
80
80
70
65
65
56
53
53
49
49
49
50
51
51
51
50
48
46
43
40
38
35
33
30
28
27
26
25
24
24
24
24
24
24
24
24
24
24
23
22
21
20
19
18
18
17
17
19
24
32
41
53
64
74
80
82
81
77
72
67
61
57
53
50
48
48
48
49
50
52
52
52
51
49
46
43
40
38
35
33
31
29
27
26
26
26
26
26
26
27
27
27
27
26
26
25
24
23
22
21
20
20
23
29
38
48
60
71
79
83
84
81
77
72
66
62
57
54
52
50
50
50
51
52
53
53
52
50
48
45
42
40
37
34
31
29
27
26
25
25
24
24
24
24
25
25
24
24
24
23
22
21
20
19
18
18
19
24
32
41
53
65
75
82
84
83
80
76
70
65
61
57
54
52
51
50
50
51
52
52
52
51
49
46
44
40
38
35
32
30
28
26
25
24
24
23
23
23
23
23
23
23
23
22
22
21
20
19
18
18
16
15
15
20
27
27
47
60
60
80
85
85
82
78
78
68
63
63
55
53
51
51
51
51
52
52
52
51
50
48
45
42
39
36
33
31
28
26
25
24
23
23
23
23
23
23
23
23
23
23
22
21
21
20
19
18
17
16
17
22
29
39
50
62
72
79
82
82
79
74
68
63
58
54
51
49
48
48
49
50
51
52
52
51
49
47
44
41
39
36
33
31
29
27
26
26
25
25
25
25
25
26
26
26
26
25
25
24
23
22
22
23
26
33
41
52
63
72
78
81
80
77
72
67
62
58
54
51
49
48
48
49
50
50
51
50
49
47
44
42
40
37
34
32
30
28
27
26
25
25
24
24
24
24
24
24
23
23
22
21
20
19
20
23
29
37
46
55
63
69
71
71
68
65
61
57
54
51
49
47
46
45
45
45
45
45
44
43
41
40
37
35
32
30
28
26
25
24
23
22
22
22
21
21
21
21
20
20
19
19
18
17
16
15
15
16
21
27
35
43
52
59
63
64
63
61
58
55
53
50
48
46
45
44
43
43
43
43
43
42
40
40
37
35
33
31
29
27
26
24
24
23
22
22
22
22
22
22
21
21
20
20
19
19
18
17
17
16
16
16
22
28
28
43
51
51
61
61
61
57
54
54
49
47
47
43
43
42
42
43
43
43
43
42
41
40
38
36
33
31
29
28
27
26
25
25
24
24
24
24
24
24
24
24
23
23
22
21
21
20
19
19
21
25
31
38
45
52
58
61
61
60
57
55
52
49
47
45
44
43
42
42
43
43
43
43
42
41
40
38
36
34
32
30
28
27
26
25
24
24
24
23
23
23
23
22
22
21
20
19
18
17
16
16
16
19
24
30
38
45
52
56
59
59
57
55
52
50
47
45
44
42
41
41
40
41
41
41
40
40
39
37
35
33
30
28
26
25
24
23
22
21
21
21
20
20
20
20
20
19
19
18
17
16
16
15
14
14
14
17
21
28
36
44
52
58
61
62
60
58
55
53
50
48
46
45
44
43
43
44
44
44
44
43
42
40
39
37
34
32
30
28
27
25
24
24
23
23
22
22
22
22
22
21
21
21
20
19
19
18
17
16
16
16
21
27
27
43
52
52
65
67
67
64
60
60
53
50
50
46
45
45
44
45
46
46
47
46
45
44
42
40
38
36
34
32
30
29
28
27
27
26
26
26
26
26
26
26
26
26
25
24
23
23
22
23
26
32
39
47
56
63
68
71
70
67
64
60
57
53
51
49
47
46
46
47
47
48
48
47
46
44
42
40
39
36
34
32
30
29
28
27
27
26
26
26
26
26
26
25
25
24
23
23
22
21
22
26
32
39
47
56
64
69
70
69
67
63
59
56
53
50
48
47
46
46
46
46
46
46
45
44
42
40
39
36
34
32
30
28
27
26
25
25
24
24
24
23
23
23
23
22
21
21
20
19
18
17
18
20
25
32
40
49
57
63
66
66
64
62
58
55
53
50
48
47
45
45
44
44
45
44
44
43
41
40
38
36
33
31
30
28
27
26
25
24
24
23
23
23
22
22
22
21
21
20
19
18
17
17
16
16
18
22
29
36
44
52
58
60
61
59
56
53
50
47
45
43
42
41
41
41
41
42
42
41
40
40
38
36
34
32
30
29
27
26
25
24
24
24
23
23
23
23
23
23
23
22
22
21
21
20
20
19
19
19
21
21
31
39
39
54
59
59
62
60
60
53
50
50
45
43
43
42
42
42
43
44
45
44
44
42
41
40
38
36
34
32
31
30
29
29
28
28
28
28
28
28
28
28
27
27
26
25
24
24
23
24
26
31
38
44
52
59
63
65
64
62
59
56
53
51
49
47
46
46
46
46
47
47
47
47
46
44
42
40
39
37
35
34
33
32
31
30
30
29
29
29
29
29
28
28
28
27
26
25
24
24
23
23
25
30
36
43
51
59
64
67
67
65
62
59
56
54
52
50
49
48
47
47
48
48
48
48
47
45
44
42
40
38
36
34
33
32
31
30
29
29
29
28
28
28
28
28
27
27
26
25
24
24
23
22
21
22
25
30
37
44
52
60
65
67
66
64
61
58
55
52
50
49
48
47
47
47
47
48
47
47
46
45
43
41
39
37
35
34
32
31
30
29
29
28
28
28
28
27
27
27
27
26
25
25
24
23
22
22
21
21
22
26
32
40
47
56
62
66
67
67
62
59
59
53
50
50
47
46
46
47
47
48
48
48
48
47
45
45
41
39
37
35
34
33
32
31
30
30
30
30
30
29
29
29
29
28
28
27
26
25
25
24
23
24
27
33
40
47
56
63
67
68
67
64
61
58
55
52
50
48
48
47
48
49
49
50
50
49
48
46
44
42
40
38
37
35
34
32
32
31
31
31
30
30
30
30
30
29
29
28
27
27
26
25
25
26
29
34
40
49
57
64
68
70
69
66
63
60
57
55
53
51
50
50
50
50
51
51
51
50
49
47
45
43
41
39
37
36
34
33
32
32
31
31
31
31
30
30
30
29
29
28
27
26
25
24
24
24
25
28
34
41
49
58
65
69
70
69
67
64
61
58
56
54
52
51
50
50
50
51
51
51
50
48
47
45
42
40
39
37
35
34
33
32
31
31
31
30
30
30
29
29
26
25
25
24
23
23
23
26
31
38
46
54
61
65
67
66
64
61
58
55
53
51
49
48
48
47
47
48
48
48
47
46
44
42
40
39
37
35
33
32
31
30
30
29
29
29
28
28
28
28
27
27
26
26
25
24
23
22
22
22
24
29
35
42
50
58
63
63
66
64
64
58
55
55
50
48
48
46
46
46
47
48
48
47
46
46
43
41
40
38
36
34
32
31
30
30
29
29
29
29
29
29
29
29
28
28
27
26
26
25
24
24
25
28
34
40
48
56
62
66
67
66
64
61
58
55
52
51
49
48
48
48
48
49
49
49
48
47
45
43
41
39
37
35
34
33
32
31
30
30
30
29
29
29
29
28
28
27
27
26
25
24
23
22
22
24
28
34
40
49
58
64
68
70
69
66
63
61
58
56
54
52
51
51
50
50
51
51
50
49
48
46
44
41
40
38
36
34
33
32
31
30
30
30
29
29
29
29
29
28
28
27
27
26
25
24
23
23
22
22
23
27
33
40
49
58
66
71
72
72
69
66
63
60
57
55
53
52
51
51
51
51
51
51
51
49
48
45
43
41
39
37
35
34
32
31
31
30
30
29
29
29
28
28
27
27
26
26
25
24
23
22
22
21
20
20
21
24
30
37
45
55
63
69
69
72
69
69
62
59
59
53
51
51
49
49
49
50
51
51
50
49
49
45
43
40
39
36
34
32
31
30
29
29
29
29
29
29
29
29
29
28
28
27
27
26
25
24
24
23
23
24
27
33
40
49
58
67
72
74
74
71
67
63
59
55
52
50
49
48
48
49
50
50
51
50
49
47
45
43
40
39
36
34
32
31
30
29
28
28
28
28
28
28
28
28
27
27
26
25
24
23
23
22
23
26
32
40
48
58
67
73
76
76
73
69
65
61
58
55
52
51
50
50
50
50
51
51
51
50
48
46
43
40
39
36
34
32
31
30
29
28
28
28
27
27
27
27
27
27
26
25
25
24
23
22
22
21
20
21
25
31
40
50
60
70
76
79
79
76
72
68
64
60
57
54
53
52
51
52
52
53
53
52
51
50
47
45
42
40
38
35
33
32
30
29
29
28
28
28
28
27
27
27
26
26
25
24
23
22
21
20
19
18
18
20
24
32
40
51
62
72
78
80
79
76
72
67
62
58
55
53
51
51
51
52
53
53
54
53
52
50
48
45
42
40
37
35
33
32
30
30
29
29
29
29
29
29
29
29
29
28
28
27
26
25
24
24
24
26
31
31
48
59
59
76
81
81
79
75
75
65
60
60
53
51
51
50
51
51
52
53
53
52
51
48
46
43
40
38
36
34
32
31
30
29
29
29
29
29
29
29
29
28
28
27
26
25
24
24
25
29
36
44
55
65
74
80
82
81
78
73
69
65
61
58
56
54
53
53
54
54
55
54
54
52
50
47
44
42
40
38
36
34
32
31
30
30
29
29
29
28
28
28
28
27
26
26
25
24
23
24
26
32
39
48
59
69
76
80
81
79
75
71
67
63
60
57
55
54
53
52
52
53
53
52
51
49
47
44
41
40
38
35
34
32
31
30
29
29
28
28
28
27
27
27
26
26
25
24
23
22
23
25
31
38
47
56
65
72
75
75
72
69
65
61
57
54
51
50
48
48
48
48
49
49
48
47
45
43
40
38
36
33
31
29
28
27
26
25
25
25
25
25
25
25
24
24
24
23
22
21
21
22
25
31
39
48
58
66
71
73
72
69
65
61
57
53
53
49
47
47
46
47
47
48
48
48
45
43
43
39
37
37
33
31
31
28
27
27
27
26
26
26
26
26
25
25
24
23
22
22
23
27
33
40
49
58
65
70
71
70
67
63
60
56
54
51
49
48
47
46
47
47
47
46
45
44
42
40
38
36
33
31
30
28
27
27
26
26
26
25
25
25
25
25
24
23
22
22
22
23
28
34
42
51
60
67
71
72
71
68
64
61
58
55
53
51
50
48
47
47
47
47
46
45
43
41
40
37
35
33
31
29
28
27
26
25
25
25
24
24
24
24
23
23
22
21
20
19
19
19
21
26
33
41
50
59
65
68
68
66
64
61
58
55
52
50
48
47
46
45
44
44
44
43
42
40
39
37
34
32
30
28
27
26
25
24
23
23
22
22
22
21
21
20
20
19
18
17
17
16
15
15
15
18
23
30
38
45
53
58
60
60
58
55
53
50
47
45
43
42
41
40
40
40
40
40
40
39
37
35
33
31
29
27
25
24
23
22
21
21
20
20
20
20
19
19
19
18
17
17
16
15
14
14
14
15
19
25
33
40
48
54
58
59
58
55
52
50
47
45
43
41
40
40
40
40
40
40
40
40
40
37
35
35
31
29
29
26
24
24
23
22
22
21
21
21
20
20
20
19
18
18
17
16
15
14
14
14
17
21
28
37
45
53
59
62
63
61
59
56
53
51
49
47
45
44
44
43
43
43
43
43
42
41
40
38
35
33
31
29
27
26
25
24
24
23
23
23
23
22
22
22
22
21
21
20
20
19
18
18
17
16
16
16
18
23
29
38
47
57
65
69
71
70
67
64
61
57
55
52
50
49
48
48
48
48
48
48
48
47
45
43
41
39
37
35
33
31
29
28
27
27
26
26
26
25
25
25
24
24
23
23
22
21
21
20
19
18
17
16
16
17
20
26
34
43
54
63
70
74
74
72
69
65
60
56
53
51
49
48
47
47
48
49
49
49
48
47
45
43
40
39
36
34
32
30
28
27
26
26
26
25
25
26
25
25
25
25
25
24
23
23
22
21
20
19
19
20
23
29
37
46
57
67
74
78
78
76
72
67
62
58
54
50
48
47
47
48
49
50
50
51
50
49
47
45
45
40
37
37
32
30
30
28
27
27
26
25
25
25
25
25
25
25
24
24
23
22
22
21
20
21
24
31
39
49
60
70
77
81
81
79
74
70
65
60
56
53
51
49
49
49
50
51
52
52
51
50
48
45
42
40
38
35
32
30
29
27
26
25
25
25
25
25
25
25
24
24
24
23
23
22
21
20
19
18
18
19
23
31
40
52
64
75
83
86
86
84
79
74
69
64
60
56
54
52
52
52
53
54
54
55
54
53
51
48
45
42
40
37
34
32
30
29
27
26
26
26
25
25
25
25
25
25
25
24
24
23
22
21
20
19
19
21
27
35
45
57
69
78
84
86
85
81
76
71
65
60
56
53
51
50
50
51
52
54
54
54
53
52
49
46
43
40
38
35
33
31
29
27
26
25
25
25
25
25
25
25
25
25
24
24
23
23
22
21
20
20
23
29
38
48
60
71
80
85
86
84
80
75
69
63
58
54
52
50
49
50
51
53
54
55
55
54
52
50
47
44
41
39
36
34
32
30
29
28
28
27
27
27
28
28
28
28
27
27
26
25
24
25
29
36
44
54
66
75
82
85
85
82
78
73
68
63
63
56
54
54
52
53
53
55
55
55
54
53
53
48
45
45
39
37
37
32
31
31
28
28
27
27
27
27
27
27
27
27
26
25
24
25
27
32
40
49
60
71
79
84
85
83
80
75
70
66
61
58
55
54
53
53
53
54
54
54
54
52
50
47
44
41
39
37
34
32
30
29
28
27
27
26
26
26
26
26
26
26
25
24
23
23
23
25
31
38
47
58
68
76
80
81
79
75
71
66
61
57
54
52
50
49
49
50
51
51
51
50
49
46
44
41
39
36
34
32
30
28
27
26
25
25
25
25
25
25
25
25
24
24
23
22
21
21
21
24
30
38
47
57
67
74
77
77
75
71
67
62
58
54
51
50
49
48
49
50
51
51
51
50
48
46
44
41
39
37
34
32
31
29
28
28
27
27
27
27
28
28
28
27
27
26
26
25
24
24
25
29
36
44
53
63
72
77
78
77
74
70
66
61
57
54
51
50
49
50
50
51
52
52
51
50
48
48
42
40
40
36
33
33
30
29
29
28
28
28
28
27
27
27
27
27
26
25
25
23
23
23
24
29
36
44
54
64
72
76
78
76
73
69
64
60
57
54
52
50
49
49
50
50
50
50
50
48
46
44
41
39
37
34
32
31
29
28
27
26
25
25
25
24
24
23
22
21
20
20
19
18
17
18
20
25
33
42
53
64
72
77
79
77
74
70
65
61
57
54
52
50
49
49
49
50
50
50
50
48
46
44
41
39
37
34
32
30
28
27
26
25
25
25
24
24
24
24
24
24
23
22
22
21
20
19
18
17
17
20
25
33
41
52
62
69
73
74
72
69
64
60
55
51
48
46
45
44
45
45
46
47
47
46
45
43
41
40
37
34
32
30
28
26
25
24
24
23
23
23
23
23
24
23
23
23
22
22
21
20
19
18
18
19
23
30
38
48
58
66
72
74
73
70
65
60
56
52
49
46
45
44
45
46
47
48
48
47
46
44
42
40
38
35
33
30
29
27
26
25
24
24
24
24
24
24
24
23
23
22
22
21
20
19
20
24
30
37
45
53
60
64
65
64
62
59
55
52
49
46
44
43
42
42
42
42
43
43
42
41
41
38
35
35
31
29
29
25
24
24
22
21
21
21
21
21
20
20
20
19
18
17
17
16
16
18
21
27
35
42
50
56
59
60
59
57
54
51
48
46
44
42
41
40
40
40
40
40
40
40
39
37
35
33
31
28
27
25
23
22
21
20
20
19
19
18
18
18
17
17
16
15
15
14
13
13
14
16
21
28
35
42
47
51
53
52
50
48
45
43
41
40
39
38
37
37
37
37
37
37
36
35
33
32
30
28
26
25
23
22
21
20
20
19
19
19
18
18
18
18
17
17
16
15
14
14
13
13
14
17
22
28
35
41
46
50
50
50
48
45
43
41
40
39
38
37
37
37
37
38
38
38
37
36
35
33
32
30
29
27
26
25
25
24
24
23
23
23
23
23
23
23
22
22
21
21
20
19
19
19
20
23
28
34
40
46
51
54
54
53
50
48
46
44
42
41
40
40
40
40
41
41
41
41
40
40
38
37
35
33
32
31
30
29
28
28
27
27
27
27
27
27
26
26
25
25
25
23
23
23
21
21
21
25
29
29
41
48
53
56
57
56
54
52
50
48
47
45
44
44
43
43
44
44
45
45
44
43
42
40
39
37
36
34
33
32
31
31
30
30
30
29
29
29
29
28
28
28
27
26
26
25
25
24
23
23
23
22
23
25
30
36
42
50
57
62
64
64
62
60
58
55
54
52
51
50
49
49
49
49
49
49
49
48
47
45
43
41
40
38
37
35
34
33
33
32
31
31
31
30
30
30
29
29
28
28
27
26
26
25
24
24
23
23
22
23
25
29
35
42
50
58
63
66
66
64
62
59
56
54
52
51
50
49
48
48
49
49
49
49
48
47
45
43
41
39
37
36
34
33
31
31
30
29
29
28
28
28
27
27
26
26
25
24
23
22
22
21
20
20
21
23
28
34
41
48
53
56
57
55
52
49
46
44
41
40
40
39
39
38
39
39
40
40
39
38
37
35
33
31
29
28
26
25
24
24
23
23
23
22
22
22
22
22
21
21
20
20
19
19
18
17
17
17
18
21
25
32
38
44
50
52
53
51
49
46
43
40
39
38
37
37
37
37
37
38
38
39
38
38
36
36
33
32
32
29
28
28
27
26
26
26
25
25
25
25
25
25
25
25
24
24
23
23
22
22
21
21
21
20
21
24
29
36
41
48
53
56
56
55
52
49
46
43
41
40
40
40
40
40
40
40
41
41
41
40
40
38
36
35
33
32
31
30
29
28
28
28
28
28
28
28
28
28
28
27
27
27
26
26
25
24
24
23
23
23
23
24
27
32
39
45
51
56
58
58
56
53
49
46
43
41
40
40
40
40
40
41
42
43
43
43
42
41
40
39
37
35
34
33
32
32
31
31
31
31
31
31
31
31
31
31
31
30
30
29
29
28
28
27
27
28
30
35
40
46
53
59
62
63
62
60
56
53
51
48
47
46
45
46
46
47
48
49
49
49
49
47
46
44
42
40
40
39
38
37
36
36
35
35
35
35
35
35
35
35
34
34
33
33
32
31
31
30
31
34
39
44
51
58
64
67
67
66
64
61
58
55
53
52
51
50
50
50
51
52
52
52
52
51
50
50
46
44
44
40
40
40
38
37
37
36
36
36
35
35
35
35
34
34
33
32
32
31
30
29
29
29
30
34
40
46
54
61
66
69
69
67
64
61
58
56
54
52
51
51
51
51
51
52
52
52
52
51
49
47
45
43
41
40
39
38
36
36
35
34
34
34
34
33
33
33
33
32
32
31
30
29
28
28
27
27
28
32
37
43
51
58
64
66
67
65
63
59
56
54
51
50
48
48
48
49
49
50
51
51
50
49
48
46
44
42
40
39
37
36
35
35
34
34
34
34
34
34
33
33
32
32
31
30
29
29
28
28
30
33
39
44
52
58
63
65
65
63
60
57
55
53
51
49
48
48
48
48
49
49
49
49
48
47
45
43
41
40
38
37
35
34
33
33
32
32
32
32
31
31
31
31
30
29
28
28
27
27
27
30
34
40
46
53
58
62
64
63
61
59
56
54
52
50
49
48
48
48
48
49
49
49
48
47
46
44
42
40
39
38
36
35
34
33
32
32
31
31
31
30
30
30
29
29
28
27
26
26
25
24
25
27
31
36
43
50
57
62
65
65
63
61
58
56
53
52
50
49
48
48
48
49
49
49
49
48
48
45
43
43
40
38
38
35
34
34
32
32
32
31
30
30
29
29
29
28
27
27
26
25
24
24
23
23
24
26
31
37
44
51
57
60
62
61
58
56
53
50
48
46
45
44
44
44
44
45
45
45
44
43
42
40
39
38
36
34
33
32
31
30
30
29
29
28
28
28
28
27
27
27
26
26
25
24
24
23
23
23
25
30
36
42
49
55
60
61
61
59
56
53
50
48
46
45
44
44
44
45
46
47
47
46
46
44
42
40
39
37
36
34
33
32
31
31
30
30
30
30
30
30
29
29
29
28
27
27
26
25
25
27
30
36
42
49
57
62
65
65
64
61
59
56
54
52
50
49
49
48
49
49
49
50
49
48
47
45
43
41
40
39
37
36
35
34
33
33
32
32
32
31
31
31
30
30
29
28
28
27
26
25
25
27
31
37
43
51
59
64
67
67
66
64
61
59
57
56
54
53
52
51
51
51
51
51
50
49
48
46
44
42
40
39
37
37
34
33
33
32
31
31
30
30
30
29
29
29
27
27
27
25
25
25
23
23
22
24
27
32
39
46
54
61
65
66
66
63
61
58
56
54
53
51
50
49
48
48
48
48
47
47
46
44
42
40
39
37
35
34
33
32
31
30
29
29
29
28
28
28
27
27
26
26
25
24
24
23
22
22
21
21
21
23
27
33
40
47
55
61
64
65
63
61
58
55
53
51
50
48
48
47
47
47
47
48
47
47
45
44
42
40
38
37
35
33
32
31
31
30
30
29
29
29
29
29
28
28
27
26
26
25
24
23
23
22
22
25
29
35
42
50
57
62
65
65
63
61
58
55
53
51
50
49
48
47
47
48
48
48
48
47
45
43
41
40
38
36
34
33
32
31
30
29
29
28
28
28
27
27
27
26
26
25
24
24
23
22
21
21
20
21
24
29
37
44
53
60
66
68
68
66
63
61
58
56
54
52
51
50
50
49
50
50
50
49
49
47
45
43
41
40
38
36
34
33
31
31
30
29
29
28
28
28
27
27
26
26
25
25
24
23
22
22
21
21
20
20
19
21
24
30
38
47
56
64
70
72
72
70
66
63
60
57
55
53
53
52
51
51
52
52
52
52
51
51
47
45
45
40
38
38
34
33
33
31
30
30
29
29
29
28
28
28
27
27
26
25
25
24
23
22
21
21
20
20
19
20
24
29
37
45
55
64
70
73
73
71
68
64
60
57
54
52
51
50
50
51
52
52
53
53
52
51
49
46
44
41
40
38
36
34
33
32
31
30
30
30
30
30
30
30
29
29
28
28
27
26
25
25
24
23
23
23
27
32
40
49
59
68
74
77
77
75
72
68
64
61
58
55
54
53
53
53
54
55
55
55
54
52
50
48
45
42
40
38
36
35
33
32
32
31
31
30
30
30
30
29
29
28
28
27
26
25
24
23
23
22
23
27
33
41
79
80
79
76
72
69
65
62
59
57
56
55
55
55
56
56
56
55
53
51
49
46
43
41
39
37
35
34
33
32
31
31
30
30
30
29
29
29
28
28
27
26
25
24
24
23
22
22
21
23
26
32
40
51
62
75
80
80
81
78
78
70
67
67
61
58
58
56
56
56
56
56
56
55
54
54
49
47
44
41
40
38
36
34
33
32
32
31
31
30
30
30
30
29
29
28
27
26
26
25
24
23
22
22
21
22
25
31
39
48
59
69
77
81
81
79
76
71
67
63
59
57
55
53
53
53
53
54
54
54
53
52
50
47
44
42
40
37
35
33
32
31
30
29
29
29
29
29
28
28
28
27
27
26
25
24
24
23
22
21
21
22
26
32
40
50
61
71
77
80
80
78
74
69
64
60
57
54
52
52
52
53
54
55
55
55
54
52
50
47
44
41
40
37
36
34
33
32
32
31
31
31
31
31
31
31
30
30
29
28
27
26
25
25
26
31
38
46
56
67
75
81
83
82
78
74
70
65
62
59
56
55
54
54
54
55
55
55
54
53
51
48
45
43
40
38
36
34
33
32
31
31
30
30
30
30
30
30
29
29
28
27
26
25
24
24
24
27
32
40
49
60
70
77
82
83
81
78
73
69
66
62
60
58
56
55
55
55
55
55
54
53
52
49
46
44
41
39
37
35
33
32
31
30
30
29
29
29
29
29
28
28
27
27
26
25
24
23
22
21
21
21
28
36
36
55
65
65
79
81
81
76
72
72
65
61
61
56
55
55
53
53
53
53
53
52
50
48
46
43
40
39
36
34
33
31
30
30
29
29
29
28
28
28
28
27
27
26
26
25
24
23
22
21
21
20
20
22
27
34
43
54
64
73
78
80
78
75
71
67
62
59
56
54
53
52
52
52
53
53
53
52
51
49
46
43
41
39
37
35
33
32
31
30
30
30
30
30
30
30
30
30
29
29
28
27
26
25
24
23
23
23
26
31
39
48
58
68
75
78
79
76
73
69
64
61
58
55
53
52
52
52
52
53
53
52
51
49
47
44
41
39
37
35
33
31
30
29
28
28
27
27
27
27
27
26
26
25
24
24
23
22
21
20
19
18
18
20
25
33
42
53
64
72
78
79
78
75
71
67
63
59
56
54
53
51
51
51
51
51
51
50
49
47
44
42
40
37
34
32
30
29
28
27
27
26
26
26
26
25
25
25
24
24
23
22
21
21
21
19
18
18
17
16
16
16
18
18
31
40
40
63
73
73
81
80
80
72
67
63
59
56
54
52
52
51
51
51
52
52
51
49
47
45
42
40
37
34
32
30
28
27
26
25
25
25
25
25
25
24
24
24
23
23
22
21
21
20
19
18
17
17
16
16
15
16
18
23
31
40
51
63
72
78
80
79
75
71
66
61
56
53
51
49
49
49
50
51
52
52
52
51
49
46
43
40
38
36
33
31
30
28
27
27
27
27
27
27
27
27
26
26
26
25
24
23
22
21
20
20
19
18
17
18
22
28
37
47
59
69
77
80
81
78
74
69
64
60
56
53
51
50
50
50
51
51
52
52
51
50
47
45
42
40
37
34
32
30
28
27
26
26
25
25
25
25
25
25
25
24
24
23
22
22
21
20
19
18
17
16
16
16
17
22
29
39
50
62
72
79
82
82
79
74
69
65
61
57
54
53
51
51
51
52
52
53
52
51
49
47
44
41
39
36
34
31
29
28
27
26
25
25
25
25
25
25
24
24
24
23
22
22
21
20
19
18
18
17
16
16
15
15
16
19
26
35
45
57
68
76
81
82
80
76
71
66
62
58
55
53
52
51
51
51
52
52
53
52
52
49
46
46
40
38
38
32
30
30
27
26
26
25
25
25
24
24
24
24
24
23
23
22
21
20
20
19
18
17
17
16
15
15
16
20
27
36
46
58
68
75
78
78
76
71
66
61
57
53
50
48
47
47
48
49
50
51
51
50
49
47
44
41
39
36
33
31
29
27
26
25
24
24
24
24
24
24
24
24
24
23
22
22
21
20
19
17
17
16
18
23
30
40
49
59
66
71
72
71
67
63
59
54
50
47
45
44
43
43
44
44
45
45
45
43
41
40
37
34
32
29
27
25
23
22
21
21
20
20
20
19
19
19
19
18
18
17
17
16
15
14
13
12
13
16
21
29
37
46
54
60
63
64
62
59
56
52
49
47
45
43
42
42
42
42
43
43
42
42
40
39
37
35
33
30
28
27
25
24
23
22
22
22
21
21
21
21
21
20
20
19
18
18
17
16
15
14
14
15
19
24
31
40
47
53
58
59
59
57
54
54
49
46
46
43
42
42
41
42
42
42
42
42
40
40
40
36
34
32
30
28
27
26
25
24
23
23
23
23
22
22
22
21
21
20
19
19
18
17
16
15
15
16
18
23
29
36
43
49
53
55
54
52
50
47
45
43
41
40
40
40
40
40
40
40
40
40
40
39
37
35
33
31
30
28
27
26
25
25
25
24
24
24
24
24
24
23
23
22
22
21
20
19
19
19
20
24
29
35
41
48
53
55
56
54
52
50
48
45
44
42
42
41
41
42
43
43
44
44
43
42
40
39
37
36
34
33
32
31
30
30
30
30
29
29
29
29
29
28
28
27
26
25
25
24
25
27
31
36
42
49
54
58
60
59
58
55
53
51
49
48
47
46
45
45
45
45
46
45
45
44
42
40
40
38
36
35
33
32
31
31
30
30
30
29
29
29
29
28
28
27
26
26
25
24
24
23
25
28
33
39
45
51
57
59
60
59
57
55
53
51
49
48
47
46
46
45
45
45
45
45
44
43
41
40
39
37
35
34
32
31
31
30
30
29
29
29
29
28
28
28
27
26
26
25
24
23
22
22
22
23
25
30
36
42
48
54
57
58
57
55
55
51
49
49
47
46
46
45
45
45
45
45
45
44
43
43
40
39
39
36
34
33
32
32
31
31
30
30
30
30
29
29
29
28
27
27
26
25
25
24
23
23
23
24
27
32
38
43
50
55
58
59
58
56
53
51
49
47
46
45
45
44
44
45
45
46
45
45
44
42
41
40
38
37
35
34
33
32
32
31
31
30
30
30
30
29
29
28
28
27
27
26
25
25
24
24
24
27
31
36
42
49
55
59
61
60
59
56
54
52
50
49
48
47
47
47
48
48
49
49
49
48
46
44
42
40
40
38
36
35
34
33
33
32
32
32
31
31
31
30
30
30
29
28
27
27
26
26
26
29
34
40
46
53
59
64
65
65
63
61
59
57
55
54
53
52
51
50
50
51
51
50
50
48
47
45
43
41
40
38
37
35
34
34
33
33
32
32
32
31
31
31
30
30
29
28
27
27
26
25
25
25
28
32
38
45
53
60
64
67
67
65
63
61
61
57
55
55
53
52
52
51
51
51
51
50
50
48
46
46
42
40
40
37
36
35
34
33
32
32
32
31
31
30
30
29
29
28
27
27
26
25
24
24
23
23
22
22
24
27
33
40
48
56
63
67
68
67
65
62
60
58
56
54
53
52
52
51
51
51
51
51
50
48
47
45
43
40
39
38
36
35
34
33
32
32
31
31
30
30
30
29
29
28
27
26
26
25
24
23
23
22
22
21
21
22
25
31
38
45
54
61
67
69
68
66
64
61
58
55
53
52
51
50
50
50
51
51
51
51
50
48
46
44
41
40
38
36
35
34
33
32
32
32
32
31
31
31
31
30
30
29
29
28
27
27
26
25
24
24
24
24
27
33
40
48
57
64
70
72
72
70
67
64
61
58
56
54
53
52
52
52
53
53
53
53
51
49
47
44
42
40
38
37
35
34
33
32
32
31
31
31
31
31
30
30
29
29
28
27
26
25
24
24
24
26
30
37
44
53
61
68
72
73
72
69
66
63
60
58
56
54
53
52
52
52
52
52
52
51
49
47
45
42
40
39
36
35
33
32
31
31
30
30
30
30
29
29
28
28
27
26
26
25
24
23
22
21
21
20
22
22
32
40
40
57
65
65
72
71
71
66
62
62
57
55
55
52
51
51
50
51
51
50
50
48
46
44
42
40
38
36
34
32
31
30
29
28
28
28
27
26
26
25
24
23
23
22
21
20
19
19
20
23
28
36
43
53
61
66
69
69
67
64
61
58
56
53
52
50
50
50
50
50
51
51
50
49
47
45
43
41
39
37
35
34
33
32
31
31
30
30
30
30
30
29
29
28
28
27
26
25
24
24
23
24
26
31
38
45
54
62
68
71
71
70
67
64
61
58
55
53
52
51
51
51
51
52
52
51
50
48
46
43
41
39
37
35
34
32
31
31
30
30
30
30
30
30
29
29
28
28
27
26
25
24
24
24
27
32
39
47
56
64
70
72
73
71
68
65
62
60
57
55
54
53
52
52
52
53
52
52
51
49
46
44
41
40
38
36
34
33
32
32
31
31
31
30
30
30
30
29
29
28
27
26
25
25
25
23
23
24
28
35
35
51
60
60
73
75
75
72
69
69
63
60
60
56
55
54
54
53
53
53
53
52
50
48
46
43
41
39
37
35
34
33
32
31
30
30
30
30
29
29
28
28
27
26
26
25
24
23
22
21
21
21
22
25
32
40
48
57
65
70
72
72
69
66
63
61
58
56
54
53
52
52
51
51
51
51
50
49
47
44
42
40
38
36
34
33
32
31
30
30
29
29
29
29
28
28
27
27
26
25
24
23
23
22
21
21
21
23
27
34
41
50
58
64
67
67
66
63
61
58
56
54
52
51
50
49
49
49
49
49
48
47
45
43
41
39
37
35
33
32
31
30
29
29
28
28
28
28
27
27
26
25
25
24
23
22
21
21
23
27
32
39
45
52
57
59
60
58
56
54
51
49
47
46
45
44
44
44
44
44
44
44
43
41
40
38
36
34
33
31
30
29
29
28
28
28
27
27
27
26
26
25
24
23
22
22
22
24
28
33
39
44
50
53
55
54
53
51
49
47
46
44
43
42
42
42
42
42
42
42
41
40
39
37
35
33
32
30
29
28
27
27
26
26
26
25
25
24
23
23
22
21
21
21
23
23
32
38
38
47
50
50
50
57
57
50
47
47
41
40
40
37
37
37
37
37
37
35
33
30
27
24
20
18
15
13
12
11
10
9
8
8
7
7
6
5
4
4
6
11
19
28
38
46
53
56
55
53
50
46
43
40
38
36
34
33
32
32
33
33
33
33
31
28
26
22
19
16
14
12
10
9
8
8
7
7
6
6
5
5
4
3
4
7
13
21
31
40
49
54
56
54
50
47
43
40
38
36
34
33
32
32
32
33
34
34
33
31
28
25
22
19
17
14
13
11
10
10
9
9
9
9
9
8
8
7
6
5
6
10
18
27
37
46
53
57
56
53
49
44
41
38
35
34
33
32
32
33
34
35
35
35
33
31
28
25
22
19
16
15
13
12
11
11
11
11
10
10
10
10
9
9
10
14
21
30
39
48
55
58
57
54
50
46
42
40
38
36
35
34
34
35
36
37
38
37
36
34
31
28
25
22
20
18
16
15
15
14
14
14
13
13
13
13
12
12
16
23
23
40
50
50
62
63
63
57
52
52
46
43
41
40
40
39
40
40
41
41
40
40
38
35
32
29
26
24
22
21
19
18
18
17
17
16
16
15
15
14
13
13
16
22
31
40
49
57
62
63
61
57
53
49
46
44
42
40
40
40
40
40
40
40
40
40
38
35
33
30
27
24
22
21
19
18
18
17
17
17
16
16
15
14
13
12
11
11
13
19
27
36
45
54
59
61
59
55
50
46
42
40
38
36
36
35
36
36
37
38
37
36
34
32
30
27
24
22
20
18
17
16
16
15
15
15
15
15
14
14
13
12
11
10
9
11
15
23
32
41
51
57
60
58
54
49
44
40
38
35
34
33
33
34
35
37
38
38
37
36
34
31
28
26
23
21
20
19
18
18
17
17
17
17
17
17
16
16
15
14
13
13
16
22
30
40
49
58
63
64
62
58
53
48
45
42
40
40
39
39
40
40
41
42
42
41
40
38
35
32
29
27
25
23
22
21
20
20
20
20
19
19
19
19
18
17
16
15
16
19
26
35
44
55
63
68
68
66
61
56
52
49
46
44
43
42
42
43
43
44
45
45
45
42
40
40
35
32
32
28
26
26
24
23
23
22
21
21
21
21
21
20
19
19
17
16
15
16
21
29
39
50
62
71
76
76
73
68
63
58
54
51
49
48
47
47
47
48
49
50
50
49
47
44
41
38
35
32
30
28
26
25
24
23
23
23
23
23
23
22
22
21
20
19
18
17
16
17
23
31
41
54
65
74
78
78
74
69
63
58
53
49
47
45
45
46
47
49
50
51
51
50
48
45
41
39
36
33
30
28
26
25
24
23
23
22
22
23
23
23
22
22
21
20
18
17
18
21
29
40
51
63
74
81
83
81
76
71
65
60
56
53
51
50
50
51
52
54
55
56
55
53
50
47
43
40
37
35
32
30
28
26
25
25
24
24
24
24
23
23
22
21
20
18
18
20
25
34
44
57
70
80
85
86
83
78
72
66
61
57
54
52
51
51
52
54
55
56
56
55
53
50
47
43
40
37
34
31
29
27
25
24
23
23
23
22
22
22
21
21
19
18
18
16
18
18
32
43
43
70
81
81
90
88
88
77
71
71
62
58
56
55
55
56
57
58
59
59
59
56
54
50
46
42
40
36
33
31
28
27
25
24
24
23
23
23
23
22
22
21
20
19
18
19
23
32
42
56
69
81
88
90
88
83
77
71
65
60
57
54
53
53
54
56
58
60
60
59
57
54
51
47
43
40
36
33
31
29
27
26
25
25
25
25
25
25
24
23
22
22
22
25
32
41
54
67
79
87
90
90
86
80
75
69
63
59
56
55
55
55
57
59
61
61
61
59
56
53
49
45
41
39
36
33
31
30
29
28
27
27
26
26
25
24
24
24
27
33
42
54
67
80
89
94
94
92
87
81
76
71
67
63
61
60
60
61
62
63
64
63
61
59
55
51
47
43
40
37
34
32
30
28
27
27
26
25
25
24
23
22
23
26
32
41
54
67
79
89
93
94
92
87
82
77
72
68
65
63
62
61
62
62
63
63
62
60
57
53
49
45
41
39
36
33
31
29
28
27
26
25
24
24
23
22
20
19
19
21
28
37
48
61
73
82
87
87
85
80
75
70
66
62
59
56
55
54
55
55
56
55
55
52
49
49
41
38
38
31
28
28
23
22
22
19
19
19
17
17
17
15
14
13
11
10
10
14
21
32
43
56
68
76
79
79
75
71
66
61
56
52
50
48
47
48
48
49
50
49
48
46
43
40
37
34
31
28
25
23
21
20
19
18
18
17
17
17
16
16
15
14
12
11
10
10
13
21
31
43
57
69
78
82
81
78
74
69
64
59
56
53
52
51
51
52
53
53
53
52
49
46
43
40
36
33
30
27
25
23
22
21
21
20
20
19
19
18
18
16
15
14
12
12
14
20
30
41
54
67
76
82
83
81
77
72
68
63
60
57
55
53
53
53
53
54
54
53
51
48
44
41
38
34
31
28
26
24
22
21
19
19
18
17
17
16
16
15
14
12
11
9
8
7
8
13
22
34
47
62
74
83
86
85
82
77
72
68
64
60
58
56
54
54
54
55
55
55
53
51
48
44
40
37
34
30
27
25
23
21
20
19
18
17
17
16
16
15
14
14
12
10
10
7
6
6
6
10
10
32
45
60
74
82
82
86
82
77
71
65
60
56
53
51
50
50
51
52
52
53
52
50
47
43
40
36
32
29
25
23
20
18
17
16
15
15
14
14
14
13
13
12
11
9
8
6
5
3
2
3
8
16
29
43
58
72
82
86
85
81
75
69
62
57
52
49
47
46
47
48
50
51
52
51
49
46
43
40
35
31
27
24
21
19
17
16
15
14
14
14
14
14
13
13
12
11
9
8
7
5
6
10
18
30
44
60
74
84
89
88
85
79
73
67
61
56
53
50
49
49
50
51
52
53
52
51
48
45
40
37
33
29
25
22
19
17
15
14
13
12
12
12
12
12
12
11
10
9
8
7
5
4
5
10
20
33
48
66
81
92
97
97
93
88
61
57
55
52
50
49
48
48
49
49
50
50
50
49
48
46
44
41
34
33
32
31
30
30
29
29
29
28
28
28
27
26
26
25
24
23
23
23
25
30
37
44
53
60
66
69
69
68
65
62
58
55
53
51
50
49
49
49
50
50
50
50
49
47
45
43
41
40
38
36
34
33
31
30
30
29
29
29
29
29
29
28
28
27
27
27
25
24
24
23
25
25
35
42
42
59
65
65
69
67
65
61
58
55
52
50
48
48
48
48
49
50
50
50
49
48
46
44
41
40
38
36
34
33
32
31
30
30
30
29
29
29
29
29
29
28
28
27
26
26
26
27
31
37
44
53
61
67
70
71
70
67
64
60
57
54
52
51
50
50
50
51
51
52
51
51
49
47
45
42
40
39
37
35
33
32
31
31
30
30
29
29
29
29
29
28
28
27
26
26
25
26
29
34
40
48
57
65
70
73
72
71
68
64
61
58
56
54
53
52
51
52
52
52
52
51
49
47
45
43
40
39
37
35
34
33
32
31
30
30
30
29
29
29
29
28
28
27
27
26
25
24
23
23
23
26
31
39
47
56
65
71
74
75
73
70
66
63
60
57
55
53
52
52
52
53
53
53
52
51
49
47
45
42
40
38
36
35
33
32
31
31
30
30
29
29
29
28
28
28
27
27
26
26
24
23
23
22
22
22
29
36
36
53
62
62
74
75
75
72
68
68
61
58
55
53
52
51
51
52
52
52
52
51
49
47
45
42
40
38
36
34
32
31
30
29
29
28
28
28
28
27
27
26
26
25
25
24
23
22
22
21
20
19
20
22
27
34
43
53
63
70
75
76
74
71
67
63
59
56
54
52
51
51
51
52
53
53
53
52
50
48
46
43
41
39
37
35
33
32
31
30
30
29
29
29
29
28
28
28
27
27
26
25
24
23
22
22
21
21
23
27
34
42
53
63
71
77
79
78
75
71
67
64
60
57
55
54
53
53
53
54
54
54
53
52
50
47
45
42
40
37
35
33
32
30
29
29
28
28
27
27
27
26
26
25
25
24
23
23
22
21
20
20
19
18
18
20
25
33
42
53
65
74
80
82
81
78
74
70
67
63
61
58
57
56
55
55
56
56
56
55
53
51
49
46
43
40
39
37
35
33
32
31
30
29
29
28
28
28
27
27
26
26
25
24
23
23
22
21
20
20
19
19
18
18
20
24
32
40
52
64
74
81
84
84
81
77
73
68
64
61
58
56
55
54
55
55
55
56
55
54
52
50
50
44
41
41
37
34
34
31
30
30
28
28
28
27
27
27
26
26
26
25
24
24
23
22
21
21
20
19
19
18
18
18
22
28
37
47
59
70
78
82
83
81
77
72
68
63
59
56
54
53
52
53
54
55
56
56
55
53
51
49
46
43
40
38
36
34
32
31
30
30
29
29
29
29
29
29
28
28
27
27
26
25
24
23
22
21
21
21
24
30
38
48
60
70
78
83
84
82
78
73
69
64
60
57
55
53
53
53
53
54
55
55
54
52
50
48
45
42
40
37
35
33
32
30
29
29
28
28
28
28
27
27
27
26
26
25
24
24
23
22
21
20
20
19
21
26
33
42
54
66
76
83
86
85
82
78
74
69
65
61
59
57
56
55
55
56
56
56
56
55
53
50
48
45
42
40
38
35
34
32
31
30
30
30
29
29
29
29
28
28
27
27
26
25
24
23
22
22
21
20
20
21
24
31
40
50
62
73
81
85
85
83
79
74
74
65
62
62
57
55
55
54
55
55
55
55
55
52
50
50
44
41
41
37
35
33
31
30
29
29
28
28
28
28
28
28
27
27
27
26
25
25
24
23
22
21
20
20
20
22
27
35
44
55
67
76
81
83
81
78
73
68
63
59
56
53
52
51
52
52
53
54
54
54
52
50
48
45
42
40
37
35
33
32
30
30
29
29
29
29
29
29
29
29
28
28
27
26
25
25
24
23
22
21
22
25
31
40
50
61
72
79
83
83
81
77
72
67
63
59
56
54
52
52
52
52
53
53
53
52
50
48
46
43
40
38
36
34
32
31
30
29
29
28
28
28
28
28
28
27
27
26
25
24
23
23
21
21
20
20
22
27
34
43
55
66
76
82
84
83
80
76
71
67
63
60
57
55
54
53
53
54
54
54
53
52
50
48
45
42
40
38
35
33
32
31
30
29
28
28
28
28
27
27
27
26
26
25
25
24
23
22
21
20
20
19
19
21
25
33
42
53
65
75
81
84
83
80
76
71
66
62
59
56
54
53
52
52
53
53
53
52
51
49
47
44
41
39
36
34
32
30
29
28
27
26
26
26
26
26
26
26
25
25
24
24
23
22
22
21
20
20
18
18
18
23
29
29
48
60
60
77
81
81
78
74
69
64
59
56
53
51
50
49
50
51
52
52
52
51
50
47
44
42
40
37
35
32
31
29
28
28
27
27
28
28
28
28
28
28
27
27
26
25
24
23
22
21
20
20
22
26
33
42
53
64
73
79
82
81
78
73
69
64
60
56
54
52
51
51
51
52
52
52
52
50
49
46
43
40
38
36
33
31
29
28
27
26
26
26
26
25
25
25
25
25
24
24
23
23
22
21
20
19
18
18
18
21
26
35
44
56
67
76
82
83
82
78
73
69
64
60
57
55
53
52
52
52
53
53
53
52
51
49
46
44
41
39
37
34
32
31
30
29
28
28
27
27
27
27
27
27
26
26
25
24
23
23
22
21
20
19
19
18
18
19
23
29
39
49
61
72
79
83
83
81
77
72
67
63
59
56
54
53
52
52
53
53
53
53
52
51
48
46
43
40
38
35
33
33
29
28
28
27
26
26
26
26
26
26
25
25
24
24
24
22
21
21
20
19
18
17
17
17
19
24
32
41
52
64
73
79
81
80
77
72
67
62
58
54
52
50
49
50
50
51
52
53
52
51
49
46
44
41
39
36
33
31
30
28
27
27
26
26
26
26
26
26
26
26
25
24
24
23
22
21
20
19
18
18
20
25
33
42
53
64
73
78
80
79
76
71
67
62
58
55
52
51
50
50
50
51
51
51
51
49
47
45
42
40
37
34
32
30
28
27
26
25
25
25
24
24
24
24
24
24
23
23
22
21
20
19
18
18
17
16
18
22
28
38
48
60
70
78
81
82
79
75
71
66
62
58
55
53
52
51
51
52
52
52
52
51
49
47
44
41
39
37
34
32
30
28
27
26
26
25
25
25
25
25
25
24
24
24
23
22
21
21
20
19
18
18
18
19
24
31
40
51
62
72
78
80
80
77
72
68
63
59
55
53
51
50
49
49
50
50
50
50
49
47
45
42
40
37
34
32
30
28
27
26
25
25
25
25
25
25
24
24
24
23
23
22
21
21
20
19
18
18
17
18
21
28
36
45
56
66
73
76
76
73
73
65
61
61
53
50
50
47
47
48
48
49
49
49
48
48
45
42
42
38
35
33
31
29
28
27
27
26
26
26
26
26
26
26
25
25
24
23
22
21
20
19
19
19
23
29
37
45
56
64
71
73
73
71
67
63
59
56
53
50
49
47
47
47
47
47
48
47
46
44
42
40
38
35
33
31
29
27
26
25
25
24
24
24
24
24
23
23
23
22
22
21
20
20
19
18
17
17
18
22
28
36
45
55
64
71
74
74
72
68
65
61
58
55
52
51
49
49
49
49
49
49
48
47
46
44
41
39
37
35
32
31
29
28
27
26
26
25
25
25
25
25
25
24
24
23
23
22
21
20
19
19
18
18
19
22
28
37
45
55
64
70
72
72
70
67
63
60
56
54
51
50
49
48
48
48
49
49
48
47
46
43
41
40
37
35
33
31
30
29
28
27
27
27
27
26
26
26
26
25
25
24
23
23
22
21
20
19
19
18
18
19
22
28
28
44
54
54
69
72
72
70
67
67
59
55
55
50
48
48
47
48
48
49
50
49
48
47
45
42
40
38
36
34
32
31
30
29
28
28
28
28
27
27
27
27
26
26
25
24
23
22
21
20
19
19
21
25
31
39
48
57
64
69
71
70
67
63
60
56
53
50
48
47
46
46
46
46
46
46
46
44
43
40
39
36
34
31
29
27
26
25
24
23
23
23
22
22
22
22
19
18
18
17
16
15
15
18
23
31
40
48
57
64
67
68
66
63
60
56
53
50
48
46
45
44
44
44
45
45
45
44
43
41
39
37
34
32
29
28
26
24
23
23
22
21
21
21
21
20
20
19
19
18
17
16
15
14
13
13
13
15
20
26
35
43
51
57
61
61
60
57
54
51
48
46
44
42
41
41
41
41
42
42
42
41
40
38
36
34
32
30
28
26
25
23
22
22
21
20
20
20
19
19
18
18
17
16
15
15
14
13
12
12
12
14
19
25
33
40
47
52
55
56
54
52
49
46
43
41
40
39
38
38
39
40
40
41
41
41
40
39
37
35
33
31
30
28
27
26
25
25
25
25
25
25
25
24
24
23
22
22
20
19
19
18
19
19
28
35
35
49
54
54
58
57
57
53
50
48
46
44
43
43
42
42
43
43
43
43
42
40
40
38
36
34
32
31
29
28
28
27
27
27
27
26
26
26
26
26
25
25
24
24
24
26
30
35
40
47
52
56
58
58
56
54
52
50
48
46
45
43
43
42
42
43
43
43
42
41
40
39
37
35
33
31
30
28
27
26
26
25
25
25
24
24
24
24
23
23
22
22
22
24
28
34
40
45
51
54
55
55
53
50
48
45
43
41
40
40
40
40
40
41
41
41
41
40
39
37
36
34
32
30
29
27
26
25
25
24
24
24
24
24
23
23
23
22
22
21
21
22
25
29
35
41
41
53
56
56
55
53
50
48
46
44
42
41
40
40
40
40
40
40
40
40
39
38
36
35
33
32
31
30
29
28
27
27
27
26
26
26
26
25
25
25
24
24
25
28
33
39
44
50
54
56
56
55
52
50
48
46
46
43
42
42
41
41
41
41
42
42
41
40
40
37
35
35
32
31
31
29
28
27
27
26
26
26
25
25
24
24
23
23
24
27
32
38
44
50
55
58
59
58
56
54
52
50
49
48
47
45
44
44
43
43
43
43
42
42
40
40
38
36
35
33
32
31
30
29
28
28
27
27
27
26
26
26
25
24
24
23
24
26
30
36
42
49
56
60
62
62
61
59
57
55
53
52
51
50
48
47
46
46
46
45
45
44
43
41
40
39
37
36
34
33
32
31
30
29
28
28
28
27
27
27
26
26
25
25
24
23
22
22
23
27
32
39
46
54
60
64
65
64
62
59
57
55
53
51
50
49
48
47
46
46
46
46
45
44
43
41
40
39
37
35
34
33
31
30
29
29
28
28
27
27
27
26
26
25
25
24
24
23
22
22
21
20
20
20
22
27
33
40
49
57
63
66
66
64
61
58
56
53
52
50
49
48
48
47
47
48
48
48
47
46
44
42
40
39
37
35
34
33
32
31
30
30
29
29
29
28
28
28
28
27
27
26
25
25
24
23
22
22
23
27
33
40
48
56
63
67
68
66
64
61
58
55
53
51
49
48
47
47
47
48
48
48
47
47
45
43
43
40
38
38
34
33
33
30
29
29
28
28
27
27
27
26
26
25
25
24
24
23
23
22
21
21
20
21
25
31
39
47
57
65
70
72
72
70
66
63
60
57
55
53
51
50
50
49
49
50
50
50
49
48
46
44
42
40
39
36
35
33
32
30
29
29
28
28
27
27
27
26
26
26
25
24
24
23
23
22
21
21
20
20
19
19
21
26
34
42
53
63
71
76
77
76
73
69
65
61
58
56
54
52
51
51
51
52
52
53
52
52
50
48
46
44
41
40
38
36
34
33
31
30
29
29
28
28
27
27
27
26
26
25
25
24
24
23
22
22
21
20
19
19
20
23
29
38
47
58
68
75
78
78
76
72
68
63
59
55
52
50
49
48
49
49
51
52
52
52
51
49
47
45
42
40
38
36
34
32
30
29
28
28
27
27
27
27
27
27
26
26
26
25
25
24
23
23
22
21
21
24
24
38
46
46
67
75
75
79
78
78
70
65
65
56
53
53
49
49
49
51
52
53
54
54
53
51
49
47
44
41
39
37
35
33
32
30
30
29
29
29
28
28
28
28
28
27
27
26
25
24
24
23
24
28
35
43
53
64
73
79
82
81
79
75
71
66
62
59
56
54
53
52
52
53
54
55
55
54
53
51
49
46
43
40
38
36
34
32
31
30
29
28
28
27
27
27
27
27
27
26
26
25
24
23
23
22
21
23
27
35
43
54
65
75
81
84
84
81
77
73
68
64
60
57
55
54
53
54
54
55
56
55
55
53
51
49
46
43
41
39
37
35
33
32
31
30
29
29
29
29
29
29
28
28
27
27
26
26
25
24
23
22
23
25
29
37
46
57
68
76
82
84
83
80
75
71
66
61
58
55
53
52
52
52
53
54
54
54
53
52
49
47
44
41
39
37
34
32
31
30
29
28
28
28
27
27
27
27
27
27
26
26
25
24
24
23
22
22
23
26
33
41
51
62
72
79
82
82
79
75
70
66
61
57
54
52
51
51
52
53
54
55
56
55
53
51
49
46
43
40
39
37
35
33
32
31
30
30
29
29
29
29
29
28
28
27
27
27
25
24
24
25
30
30
44
55
55
75
80
80
82
79
75
70
65
61
57
55
53
52
51
52
53
54
54
54
53
51
49
46
43
41
39
37
34
33
31
30
29
29
28
28
28
28
28
28
28
27
27
26
25
24
23
23
24
27
34
42
52
64
74
81
84
85
82
79
74
70
66
63
60
58
57
57
57
58
58
58
58
57
55
52
50
47
44
41
40
37
35
34
33
32
31
31
30
30
30
30
29
29
28
28
27
26
25
24
23
22
22
23
27
33
42
52
64
73
80
83
83
81
77
72
68
64
61
58
56
55
54
54
55
55
55
54
53
51
49
46
43
40
39
36
34
32
31
30
29
29
28
28
28
28
28
28
28
27
27
26
26
25
24
23
22
22
21
23
27
33
42
52
64
73
80
83
83
80
76
72
67
63
60
57
55
54
53
53
54
55
55
54
53
51
49
46
44
41
39
37
35
33
31
30
30
29
29
29
29
29
29
29
29
29
28
27
27
25
24
24
23
25
25
37
45
45
66
74
79
80
79
75
71
66
62
58
55
52
51
50
50
50
51
52
52
51
49
47
45
42
40
37
35
32
30
29
27
26
26
26
25
25
25
25
25
25
25
24
23
23
22
21
20
20
22
27
34
42
53
64
73
79
81
81
78
74
69
65
61
58
55
53
52
51
51
52
52
52
51
50
48
45
43
40
38
35
33
31
30
28
28
27
27
26
26
26
26
26
26
25
25
24
23
22
21
20
19
19
19
21
26
33
42
53
63
71
77
78
77
74
71
67
63
60
57
55
53
52
51
51
51
51
50
49
48
46
43
41
39
37
34
32
30
29
28
27
26
26
25
25
25
24
24
24
23
23
22
21
20
20
19
18
17
16
16
16
19
24
32
40
50
60
67
71
72
70
67
64
60
57
54
51
49
48
47
47
47
48
48
47
47
45
43
41
40
38
35
33
31
30
28
27
26
26
25
25
25
25
24
24
24
23
22
22
21
20
20
19
18
18
17
17
17
21
26
34
42
51
60
66
69
69
66
63
60
56
53
50
48
46
46
45
46
47
47
47
47
47
47
43
40
40
36
34
34
30
28
28
26
25
25
24
24
24
23
23
23
23
22
22
21
20
19
18
17
17
18
22
28
36
44
53
60
65
66
66
63
60
57
53
50
48
46
45
44
44
44
44
45
45
45
43
42
40
38
36
33
31
29
27
26
25
24
23
23
22
22
22
21
21
21
20
20
19
18
18
17
16
15
14
15
18
23
30
39
47
56
62
65
66
65
62
59
56
53
51
49
47
46
45
45
45
45
45
45
44
43
41
40
37
35
32
30
28
27
25
24
23
22
22
21
21
21
21
20
20
20
19
18
18
17
16
15
14
14
15
18
23
31
39
47
54
59
61
61
59
56
53
