Wave
34
37
40
40
42
43
43
43
42
41
40
39
37
36
35
33
31
30
30
33
38
43
50
56
59
59
56
53
49
45
43
41
40
39
37
36
35
35
34
34
33
33
32
31
29
27
25
23
22
20
19
17
16
15
16
19
24
31
40
48
56
61
63
62
60
56
52
48
44
41
40
38
37
36
37
37
37
36
35
33
31
29
28
27
26
26
25
25
24
24
24
25
28
34
41
49
56
62
66
66
65
62
59
56
54
52
51
50
49
49
49
49
50
49
48
46
43
40
37
34
32
30
28
27
26
25
25
25
27
32
38
46
55
63
69
71
69
66
62
58
54
52
50
48
45
44
43
43
44
46
48
51
52
53
52
51
48
46
43
41
38
34
30
26
23
20
18
17
19
23
30
38
46
54
59
63
64
63
62
60
59
57
55
53
51
49
48
49
49
50
51
51
50
48
46
43
40
38
36
33
31
28
26
23
20
17
16
16
18
22
30
39
48
58
66
70
71
69
66
62
58
58
51
48
48
42
40
40
38
37
37
34
32
32
27
26
26
24
23
23
23
23
23
24
24
26
31
37
44
51
58
63
66
65
63
59
56
52
49
46
44
42
41
40
40
41
41
41
40
39
38
35
33
31
29
28
26
25
25
24
23
22
22
22
24
29
36
44
54
62
68
71
70
68
65
62
59
57
55
53
50
48
45
42
40
40
39
38
37
36
34
33
32
32
31
30
29
29
28
27
26
26
25
25
24
23
22
24
28
35
43
52
60
66
68
67
64
61
57
55
52
50
48
46
45
44
43
43
42
42
41
40
38
37
34
32
29
27
24
22
20
19
18
17
16
16
15
13
12
11
11
14
21
29
39
48
55
60
61
59
55
52
48
45
42
39
37
34
33
31
31
31
30
30
28
26
24
21
19
17
16
15
14
14
14
15
15
16
18
23
30
39
48
57
64
67
68
66
62
58
54
50
46
43
40
39
38
38
38
38
38
37
36
34
33
31
30
29
28
28
27
27
26
25
25
28
33
33
48
57
57
67
68
68
63
60
60
54
51
51
46
44
42
41
41
41
42
42
42
41
40
38
36
35
33
32
30
29
28
27
26
24
23
22
22
25
31
40
49
59
68
73
75
74
72
68
65
61
58
55
52
49
47
45
44
43
42
41
40
39
37
35
33
32
30
29
28
28
27
27
27
26
26
24
23
20
18
18
20
25
33
41
50
57
60
61
59
55
51
47
44
41
39
37
35
34
33
33
33
32
32
32
31
29
28
26
24
22
20
19
18
17
16
15
14
12
12
13
17
23
32
40
48
54
58
58
56
53
50
47
44
41
40
38
37
37
38
39
40
40
40
39
37
34
32
30
28
27
27
26
25
24
24
26
30
36
44
54
62
69
73
73
70
65
60
55
51
48
44
41
40
38
36
36
36
36
36
35
35
33
32
32
31
31
31
31
31
31
30
29
27
26
25
26
31
38
46
55
63
68
70
69
67
64
62
59
56
54
51
49
47
45
44
44
43
43
42
42
40
40
38
37
35
34
32
31
30
29
28
28
27
26
25
24
23
23
27
32
40
49
59
66
71
72
70
68
64
61
58
55
53
50
48
45
43
41
40
39
38
36
35
33
31
29
29
25
23
23
22
21
21
22
21
21
20
19
19
17
18
18
27
36
45
54
62
67
68
66
63
58
54
49
45
42
40
38
36
35
35
34
34
34
33
32
31
29
28
26
25
24
23
23
22
22
21
21
22
25
31
38
46
55
62
67
68
67
64
61
57
53
50
47
45
43
42
42
43
43
44
44
43
41
40
38
36
34
32
31
30
29
28
27
27
26
25
25
28
34
41
51
61
70
75
77
77
74
70
66
63
60
57
54
52
50
48
47
47
47
46
46
45
43
41
40
38
36
34
32
31
30
29
28
28
28
27
26
25
25
25
26
30
37
45
55
64
72
76
77
75
72
69
65
61
59
56
53
50
48
47
46
46
46
46
44
42
40
39
36
34
33
31
30
29
28
27
26
25
25
25
24
24
22
21
20
19
19
23
30
39
48
58
65
69
69
66
63
59
55
52
48
45
42
40
39
38
37
37
37
37
35
34
32
29
27
26
24
24
23
22
22
22
21
20
19
19
18
19
19
30
38
38
54
61
61
65
63
63
57
54
54
47
44
44
40
40
40
40
40
40
40
40
38
36
35
33
32
31
30
30
29
29
28
27
26
26
26
30
67
72
74
73
70
66
61
58
55
52
49
46
44
42
40
40
40
40
39
38
36
34
32
30
28
27
25
24
23
22
21
21
21
21
21
21
21
20
19
18
17
18
21
28
38
48
59
67
72
73
72
68
64
61
57
53
50
48
46
44
43
42
41
41
41
40
39
38
36
35
33
31
30
28
27
26
25
24
23
23
23
22
22
21
21
20
19
18
18
19
24
31
41
51
61
68
72
71
69
65
61
57
53
50
46
43
40
39
38
37
36
36
35
34
32
30
27
25
23
21
19
18
17
17
17
17
17
17
16
16
17
19
25
32
40
48
55
60
61
60
57
53
49
45
41
38
36
34
33
34
35
36
38
39
39
38
37
35
33
31
29
28
27
25
24
23
23
22
21
23
27
34
42
51
61
68
72
73
71
67
63
59
55
51
48
45
43
41
41
41
41
42
42
42
41
40
39
37
35
33
31
30
28
28
27
27
26
25
24
24
25
29
36
44
54
64
71
75
75
74
71
67
64
64
58
55
55
50
48
48
46
46
46
45
44
42
40
39
39
36
35
35
33
31
30
30
29
29
28
27
26
25
25
26
30
37
44
54
63
70
74
75
74
71
68
65
63
60
57
55
53
51
49
48
47
46
46
44
43
41
40
37
34
32
30
28
27
26
25
24
24
23
22
21
20
20
20
22
28
36
44
54
62
68
70
70
67
63
59
55
51
48
45
43
41
40
40
40
40
40
40
40
38
36
34
33
32
31
30
30
30
29
28
28
27
27
29
32
39
46
54
62
68
71
71
68
65
62
59
56
53
50
47
45
44
44
44
44
44
43
42
40
39
37
35
32
31
30
28
28
27
27
26
25
24
23
23
23
26
32
40
49
59
67
72
75
74
72
69
66
63
61
58
56
54
51
49
48
46
45
44
43
42
40
40
38
36
35
34
32
31
31
30
29
29
28
27
26
26
25
24
23
23
22
22
26
32
40
49
59
66
71
72
71
68
65
62
60
58
56
54
51
49
49
46
46
46
45
45
45
42
40
40
37
35
35
33
32
32
30
29
29
27
26
26
23
22
20
17
15
14
15
19
25
34
44
53
59
63
63
61
58
55
52
49
46
43
41
39
37
36
35
35
34
33
31
30
28
26
24
23
22
22
21
21
21
20
19
18
16
16
18
22
28
36
43
51
56
58
58
55
53
49
46
43
41
40
38
38
38
39
40
41
41
42
41
40
40
38
37
35
33
32
32
31
31
31
31
31
32
35
40
47
56
64
72
76
77
76
73
69
66
64
61
58
56
54
52
51
50
49
48
48
47
45
43
41
40
38
36
35
33
32
31
30
30
29
29
29
28
28
27
26
25
25
27
33
40
49
58
66
71
72
71
69
66
64
61
59
56
54
51
49
46
45
43
42
41
40
38
36
33
32
30
29
27
27
27
26
26
26
26
26
25
24
22
19
17
16
18
23
30
39
46
53
57
58
57
55
53
51
49
47
46
45
43
41
40
40
40
40
39
38
36
34
32
29
27
26
25
23
23
23
22
21
20
19
19
20
22
27
33
40
48
55
60
62
62
60
58
55
52
49
47
45
43
42
42
42
42
43
42
41
40
39
37
35
34
33
31
31
30
29
29
27
26
26
27
30
30
43
52
52
65
68
68
66
63
63
58
56
56
51
49
47
45
43
43
43
42
42
40
40
38
36
35
33
32
30
30
29
28
28
28
27
27
26
25
25
27
31
38
45
55
63
68
71
71
70
67
65
63
60
58
56
53
50
48
46
45
44
43
42
40
40
38
36
35
34
33
32
31
30
28
27
26
25
24
23
22
20
18
16
15
15
19
26
35
43
52
58
61
61
59
56
54
51
48
45
43
40
39
37
35
34
33
33
32
31
30
28
27
26
24
24
23
22
22
22
22
21
21
21
23
27
33
40
49
57
64
67
68
67
64
61
58
55
52
50
47
45
43
43
43
44
43
43
42
41
40
38
36
34
33
32
31
31
30
29
28
27
26
28
33
40
47
56
63
68
70
70
69
67
64
62
60
58
56
53
51
49
47
46
44
43
41
40
39
37
35
34
32
31
30
29
28
28
28
28
28
27
26
25
24
26
31
38
46
55
63
68
70
69
69
65
62
62
58
56
56
52
49
49
45
43
43
40
39
39
35
33
33
29
28
26
24
23
21
21
20
20
20
19
19
18
17
18
22
28
37
45
55
61
65
65
63
60
56
53
49
46
43
40
38
36
34
33
33
32
32
31
30
28
26
24
23
22
21
21
21
20
20
19
19
20
23
29
36
44
53
60
64
65
65
62
60
57
54
52
50
48
46
45
45
44
44
44
44
42
40
39
36
33
31
29
28
27
26
25
24
23
22
21
21
23
28
35
44
54
63
69
72
71
69
66
63
60
58
56
54
52
49
47
46
45
44
44
43
41
40
38
36
33
31
29
28
27
26
25
25
24
24
23
22
22
22
26
33
40
50
58
64
68
68
66
64
61
59
57
54
51
49
46
44
41
40
40
39
38
36
35
32
30
28
25
23
22
20
19
19
18
17
16
14
14
14
16
22
29
39
47
54
59
61
59
57
54
50
47
44
40
38
36
33
33
32
32
32
32
32
31
30
28
27
26
25
25
24
24
23
22
21
21
22
26
32
40
47
56
62
65
66
64
61
58
55
52
50
47
45
43
41
41
41
41
41
40
40
38
36
33
31
30
28
27
26
26
26
25
24
24
24
25
25
36
44
44
62
68
68
70
68
68
61
59
59
53
50
50
45
43
43
41
41
40
40
39
38
36
34
32
31
29
28
27
26
26
25
25
25
25
24
23
22
23
27
33
41
51
60
67
71
72
71
68
65
62
59
56
53
50
47
45
43
41
41
40
40
40
39
37
35
33
32
30
28
26
25
24
22
22
21
20
19
17
16
17
21
27
36
44
53
59
62
62
59
55
52
48
45
41
39
37
35
34
33
33
34
34
33
32
30
28
26
24
23
22
21
20
19
18
17
17
17
20
25
32
40
48
55
61
63
62
60
57
54
50
46
43
41
40
39
39
39
40
40
40
39
38
36
34
32
31
30
28
27
26
25
23
21
20
19
19
22
28
37
46
56
64
69
70
70
67
64
61
58
55
52
49
45
42
40
39
38
37
36
35
34
33
32
31
30
29
29
28
28
27
25
24
22
21
21
24
29
37
44
53
59
63
63
62
60
58
56
53
51
49
47
44
42
41
40
40
40
40
39
39
36
34
34
30
29
29
27
26
26
25
24
24
26
30
30
44
53
60
66
68
67
65
62
59
57
54
52
50
48
46
44
43
42
41
40
39
37
35
33
31
29
28
27
26
26
25
25
25
24
23
21
20
19
21
25
32
40
48
55
60
61
60
56
52
48
45
42
40
37
36
34
33
33
33
32
32
31
30
28
27
25
23
22
21
20
20
19
18
17
17
18
20
25
32
40
47
54
57
58
57
55
51
48
44
41
40
38
37
37
37
38
40
40
40
39
37
35
34
32
31
30
29
29
28
27
26
27
30
36
42
51
60
67
70
71
70
66
62
59
56
52
49
46
44
42
41
40
40
40
40
39
38
36
34
32
31
29
28
27
27
26
26
25
24
23
23
24
28
34
42
51
61
67
71
71
69
66
63
60
57
55
52
49
47
44
43
42
41
41
40
40
39
37
35
33
32
30
28
27
26
25
24
24
23
23
23
23
22
22
21
20
22
26
33
42
52
61
67
70
70
67
64
61
58
55
52
49
47
44
42
40
40
39
38
36
35
32
30
28
26
23
21
20
18
17
16
16
17
17
16
16
16
15
13
13
14
16
22
30
40
48
56
61
61
61
58
58
49
46
46
39
37
37
32
31
31
30
30
30
29
28
28
26
26
25
25
25
25
25
24
23
22
22
22
24
28
35
42
50
58
64
66
66
63
60
56
53
49
45
42
40
39
38
38
38
38
39
38
37
35
33
31
30
28
28
27
26
26
26
26
25
24
24
24
25
29
35
43
53
62
69
73
74
72
68
64
61
57
55
52
49
48
46
44
43
43
42
41
40
39
38
36
34
32
31
30
29
27
26
24
24
23
22
19
18
18
19
24
32
42
52
62
68
71
70
67
63
59
55
51
48
45
42
40
39
37
36
36
35
34
33
31
29
27
25
23
22
21
20
21
20
20
21
20
20
19
18
17
17
19
25
33
41
51
62
65
65
62
59
54
50
46
42
40
37
35
35
36
37
38
39
39
38
36
34
32
30
28
27
26
25
24
23
22
21
21
22
26
33
40
50
59
66
70
70
68
65
61
57
52
48
45
41
39
37
36
36
36
36
36
35
34
34
30
29
29
25
24
24
22
22
22
22
22
22
20
20
20
20
25
32
42
52
63
71
75
76
73
70
66
62
58
55
52
49
47
45
43
43
43
43
43
42
41
40
39
37
35
33
32
30
29
28
26
25
24
23
23
22
22
22
21
20
20
20
23
29
38
47
58
68
74
77
76
72
68
64
59
55
52
48
45
43
41
40
40
39
38
36
35
33
31
29
27
26
25
24
23
23
22
22
22
22
21
21
21
22
24
28
35
42
51
59
66
71
74
74
72
70
67
63
59
55
52
50
48
47
47
47
47
46
44
41
39
35
30
26
22
19
16
14
13
12
11
11
12
15
21
29
38
48
56
61
64
63
60
57
53
50
47
44
42
40
40
40
40
41
42
42
42
40
39
37
34
32
29
27
25
24
23
22
21
20
19
19
18
21
26
34
44
56
66
74
78
79
77
74
71
68
65
63
60
58
56
54
53
52
52
51
50
49
47
44
42
40
38
36
35
33
32
31
31
31
30
30
29
27
26
25
26
30
37
45
54
62
69
71
71
69
65
62
59
56
53
50
48
46
44
43
42
41
40
40
39
37
35
33
31
29
27
26
25
24
24
24
24
24
22
21
21
22
26
26
40
49
49
62
64
64
60
56
56
49
46
46
40
39
37
37
37
38
38
39
38
38
37
35
34
32
31
30
29
28
26
25
24
24
25
29
35
43
52
61
68
72
73
71
69
65
61
57
52
49
46
43
41
40
40
40
40
40
40
39
38
36
34
32
31
29
27
27
26
25
24
23
22
22
24
28
36
44
54
63
69
73
73
71
68
65
63
60
58
55
52
50
47
46
44
43
42
41
40
39
37
35
34
32
31
30
28
27
26
25
24
23
23
23
22
21
21
20
19
21
25
33
41
51
61
67
71
71
69
66
64
61
58
55
52
49
46
43
41
40
39
38
37
36
34
32
29
27
25
23
22
21
20
20
20
20
20
19
19
18
17
16
14
13
12
13
16
23
32
40
49
56
59
60
58
55
52
49
46
42
40
38
36
35
34
34
34
35
34
33
32
31
29
28
27
26
25
25
25
24
24
22
21
20
21
24
30
38
45
53
58
60
60
60
54
51
51
44
41
41
37
36
36
34
35
35
35
35
35
32
31
31
27
26
25
24
23
23
23
23
23
23
22
21
20
20
23
28
36
45
55
64
71
73
73
71
68
65
62
59
56
53
51
48
46
44
43
42
41
40
39
38
36
35
33
32
30
29
28
28
27
26
25
25
24
23
23
22
21
20
18
18
19
24
32
41
52
62
69
73
74
73
70
67
64
61
58
55
51
47
44
41
40
39
38
37
35
34
32
30
28
26
25
23
22
21
21
20
19
18
17
16
15
15
16
20
27
36
44
53
60
64
64
62
59
55
51
47
44
40
38
36
35
35
35
36
36
36
35
34
33
31
30
29
28
27
26
26
26
25
24
24
26
30
37
45
54
62
67
69
69
66
63
59
56
52
49
47
44
43
42
41
41
41
41
40
39
37
35
33
31
29
27
26
25
25
25
24
24
23
22
21
21
24
29
38
46
57
65
71
73
72
70
67
64
61
58
56
53
51
48
47
45
44
44
43
42
41
40
38
36
34
32
31
30
29
29
28
27
27
26
26
26
26
25
24
23
23
25
29
37
46
56
66
73
77
77
74
70
67
64
60
57
55
52
50
47
46
46
45
45
44
43
43
39
37
37
31
29
29
24
22
22
20
19
19
19
19
19
18
17
15
15
17
22
29
39
48
57
63
66
66
63
60
56
53
49
46
43
40
39
37
37
36
36
36
36
34
32
30
28
26
24
23
22
21
21
21
21
21
20
19
19
21
26
33
41
51
59
65
67
67
65
62
58
55
52
49
46
43
41
40
40
40
40
41
40
40
38
35
33
31
29
28
26
25
24
23
22
21
21
21
20
20
19
18
17
17
18
22
29
39
49
60
69
74
75
73
70
67
63
60
57
54
52
49
47
45
44
43
42
42
41
40
39
37
35
33
31
29
27
26
25
24
23
22
21
21
20
20
19
19
19
18
17
16
16
18
23
32
42
53
64
71
74
74
72
68
64
60
56
52
48
44
41
40
38
37
37
37
36
35
34
32
30
27
26
24
23
22
21
20
20
19
19
19
17
17
15
14
14
17
22
30
39
48
57
63
65
65
61
57
52
48
44
40
37
37
33
33
33
35
36
36
37
37
37
33
31
31
25
23
23
20
19
19
18
18
18
19
22
28
36
45
55
63
69
71
71
68
65
61
57
54
50
47
45
43
42
42
42
42
42
41
40
39
38
36
34
32
31
30
29
28
27
26
25
24
23
22
23
26
32
41
51
61
70
75
77
76
74
72
69
67
65
62
60
57
55
53
51
50
48
46
44
42
40
37
34
32
29
28
27
26
25
25
25
24
23
22
20
20
20
24
30
39
49
59
67
72
74
73
70
66
62
59
56
52
49
45
43
40
40
39
38
38
37
35
34
31
29
27
25
23
22
22
22
22
22
22
22
23
26
31
39
48
57
64
69
71
71
69
66
63
61
58
56
54
52
52
52
53
54
54
54
53
51
49
46
43
41
40
38
37
35
33
32
31
32
35
40
47
56
65
71
75
76
74
71
68
64
61
58
54
51
49
47
46
45
45
45
44
43
42
40
38
36
33
32
30
29
27
27
27
27
27
26
26
26
25
25
27
32
39
48
58
68
75
79
79
77
74
70
67
64
61
58
55
52
50
49
48
47
46
46
45
43
42
40
39
37
36
34
32
31
29
28
27
27
26
26
25
25
24
24
22
21
21
28
36
36
55
64
64
73
72
72
66
63
63
57
54
54
49
47
45
44
44
43
42
41
40
37
34
31
28
25
23
21
20
19
19
18
18
18
17
16
15
14
14
15
19
25
34
42
51
58
61
60
58
55
51
47
44
41
39
37
35
34
34
34
35
35
34
33
31
29
27
25
24
23
23
23
22
22
21
21
21
22
25
31
39
47
55
61
65
65
63
61
57
53
50
46
43
41
40
39
39
40
40
40
40
40
39
37
35
33
32
31
30
29
28
28
27
26
24
23
23
25
30
37
46
56
64
70
72
72
69
66
63
59
57
54
51
48
46
44
42
41
41
40
40
38
37
35
33
32
30
29
28
27
26
26
26
26
25
23
22
21
22
25
31
39
47
56
62
66
65
63
60
56
52
49
46
43
40
38
36
33
32
31
30
28
27
25
23
21
19
18
17
16
15
15
15
15
14
14
13
12
11
10
11
14
21
30
39
48
55
60
61
59
59
53
49
49
43
40
40
35
33
33
33
34
34
35
35
35
33
31
31
27
25
24
23
22
21
20
19
19
20
24
31
39
48
57
65
69
70
69
66
63
60
56
53
50
47
45
43
42
42
42
42
41
40
39
37
35
32
30
28
26
25
24
23
22
22
22
21
20
20
19
21
26
35
44
55
64
71
75
75
73
70
67
63
60
57
54
51
48
45
43
42
41
40
40
39
38
36
35
33
32
32
31
30
29
28
28
27
26
24
23
22
22
24
29
37
45
55
63
68
70
69
66
63
59
56
53
50
47
44
42
40
39
38
37
36
34
33
30
28
26
24
22
21
19
19
18
17
17
16
15
14
15
18
24
32
40
50
58
62
63
61
59
55
51
47
44
41
39
36
35
35
36
37
37
37
37
35
33
32
30
29
28
27
26
25
24
23
22
22
24
29
36
44
54
62
68
70
70
67
63
59
56
53
50
47
44
42
41
40
40
40
40
40
38
37
35
33
31
29
28
27
26
25
25
24
24
23
22
21
21
24
63
71
76
76
74
71
66
63
59
56
53
50
48
46
44
43
43
42
41
40
40
38
36
34
32
31
29
28
26
25
25
24
23
23
23
22
21
20
19
19
20
27
36
45
55
64
70
71
69
65
61
57
54
51
49
46
45
45
45
45
47
47
47
47
45
43
41
39
37
34
31
29
27
26
25
24
24
23
22
23
24
29
36
44
54
62
69
72
71
68
64
60
57
53
50
48
45
44
43
43
43
43
43
43
42
40
39
37
34
32
30
29
28
26
25
24
24
26
30
37
45
54
63
69
72
72
69
66
62
58
54
50
47
43
42
40
40
40
40
41
40
39
38
36
34
32
30
29
27
26
24
22
21
20
21
25
32
40
51
61
69
74
75
73
69
65
60
56
51
48
45
42
40
40
40
40
40
39
37
35
33
31
29
27
25
23
22
21
20
19
20
23
28
36
43
52
59
63
64
63
60
56
52
47
43
40
37
35
34
34
35
36
37
37
36
34
32
30
28
27
25
24
23
22
21
22
26
33
40
50
59
67
72
73
71
68
64
60
56
52
49
46
43
41
40
40
40
40
40
40
37
35
35
30
29
29
26
25
25
24
23
23
21
22
22
32
40
40
61
68
73
74
72
69
66
62
59
56
53
50
47
45
43
43
41
41
40
39
37
36
34
32
31
30
29
27
26
26
25
24
24
24
24
23
22
21
21
23
28
36
46
57
66
73
76
75
73
69
65
61
58
54
51
47
45
43
42
41
41
41
40
40
38
36
35
33
31
29
28
26
25
24
22
21
20
20
19
17
16
14
13
14
17
23
32
42
52
60
65
66
64
61
58
54
50
46
43
40
38
36
36
36
36
35
35
33
31
29
27
25
23
22
21
20
19
18
17
16
15
16
18
24
32
40
49
57
62
64
64
61
57
53
49
45
42
40
38
37
37
38
39
40
40
39
37
35
33
32
30
30
29
28
27
26
25
26
30
36
44
53
63
70
75
76
74
70
66
62
58
55
52
49
46
43
42
41
41
40
40
40
38
36
35
33
31
30
29
28
27
26
25
24
24
23
23
25
30
37
45
55
64
71
74
74
72
69
66
63
60
57
54
51
49
48
46
45
45
44
43
41
40
38
36
34
32
30
28
27
26
25
25
25
25
25
24
24
23
23
25
29
37
45
55
55
71
74
74
72
69
66
64
61
61
55
52
52
45
43
43
40
40
40
37
35
35
32
29
27
26
24
22
21
20
19
19
19
18
17
16
15
15
18
23
32
40
50
58
63
65
64
61
58
54
51
47
44
41
39
38
36
36
36
36
36
35
33
31
30
28
27
26
26
26
25
24
24
23
22
22
25
31
39
47
55
62
67
68
67
64
61
57
53
50
47
44
42
41
40
40
40
40
40
40
38
36
34
32
30
28
27
26
25
25
24
23
22
21
22
25
31
39
49
58
67
72
74
73
70
67
64
61
59
56
54
51
48
46
45
44
43
43
42
41
40
38
37
35
34
32
31
30
29
28
28
27
27
26
25
25
24
24
26
32
40
49
59
68
74
76
75
72
69
65
62
59
56
53
50
47
45
43
42
41
40
39
37
35
33
30
28
25
23
22
21
19
19
18
18
17
17
16
15
14
13
13
16
22
30
40
50
59
64
65
64
61
57
54
50
47
44
41
39
37
37
36
36
36
36
35
35
31
29
29
25
24
24
22
22
22
22
22
22
22
25
31
39
46
56
64
69
70
69
66
62
58
54
50
47
44
42
41
41
42
42
43
43
43
41
40
38
36
33
31
30
28
27
27
26
25
25
24
22
22
25
30
39
47
58
66
72
74
73
70
66
63
60
57
54
51
48
46
43
42
41
41
40
40
40
38
37
35
33
31
29
28
26
25
24
23
22
21
21
20
20
19
19
19
22
28
36
46
57
66
72
75
74
70
65
60
54
49
45
41
39
36
33
32
31
30
29
29
28
26
23
21
19
17
15
14
13
12
11
11
11
10
10
10
12
16
23
32
41
50
56
60
60
57
54
50
46
42
39
35
33
31
31
31
32
33
35
35
35
34
32
30
28
26
24
23
22
21
20
19
19
21
26
33
42
51
60
67
70
69
67
63
59
55
51
48
44
41
40
39
38
38
37
37
36
35
33
31
30
28
26
25
24
22
22
21
21
20
19
19
19
21
26
34
44
55
65
73
76
76
74
70
66
62
59
56
53
50
47
44
42
41
40
40
39
38
36
35
33
32
30
29
27
26
25
24
23
23
22
22
21
21
19
18
18
20
25
25
43
54
54
71
74
74
70
65
65
56
52
52
45
42
40
38
37
36
36
37
37
36
35
34
32
30
28
27
25
24
23
23
22
21
21
20
20
19
20
23
29
38
47
57
65
70
71
70
66
62
57
53
49
45
42
40
38
38
38
38
38
38
38
37
35
33
31
30
28
27
27
26
25
24
23
21
21
24
29
37
46
56
64
69
70
69
65
61
57
53
49
45
42
40
38
38
38
38
39
38
38
36
34
32
30
28
26
24
23
22
21
21
20
19
18
18
19
22
28
38
47
58
67
72
74
73
70
66
63
59
56
53
50
47
45
43
42
41
41
40
40
39
37
35
34
32
30
28
27
26
24
24
23
23
22
21
20
19
18
18
20
25
34
43
55
65
72
75
75
72
68
64
59
55
51
48
44
41
39
38
37
36
36
35
34
33
31
29
27
25
24
22
21
20
20
19
19
18
17
16
15
16
20
27
35
44
53
60
64
64
61
57
52
52
44
40
40
35
33
33
33
34
34
36
36
36
34
32
32
29
27
27
25
24
23
21
21
20
21
24
29
38
47
56
64
68
70
68
65
61
57
53
50
47
44
41
40
39
39
40
40
40
40
38
36
34
32
30
28
27
26
25
24
23
22
22
21
21
25
31
40
49
60
69
74
76
75
72
69
65
61
57
54
51
47
45
43
42
42
42
41
41
40
39
37
35
34
32
31
30
29
29
28
27
26
24
23
22
23
28
35
44
54
64
72
76
76
73
69
65
60
56
52
48
44
40
39
37
36
35
35
34
33
32
30
29
27
25
24
23
22
22
21
20
20
19
18
19
23
29
38
46
56
64
68
69
68
64
60
55
51
47
43
40
39
38
37
38
38
39
39
37
36
34
32
30
29
28
27
26
25
24
23
23
26
31
39
48
57
65
70
73
72
70
66
63
59
56
53
50
48
47
47
47
47
47
46
45
43
40
39
37
34
33
31
30
29
28
26
25
25
28
33
40
50
60
69
75
78
77
75
72
68
65
62
58
55
52
50
48
46
46
45
44
43
42
41
40
38
37
35
34
33
32
31
30
29
28
27
26
28
32
39
48
57
67
73
73
77
75
75
68
65
65
58
55
55
49
46
46
43
42
42
40
38
38
33
30
27
25
23
21
19
19
18
18
18
18
18
18
21
27
34
43
53
61
67
69
68
65
60
56
52
47
44
40
38
36
34
33
32
30
27
24
20
15
12
8
5
3
1
0
0
0
0
0
0
0
0
8
16
24
30
35
36
36
34
31
28
26
24
22
22
23
24
26
28
30
32
32
32
30
29
27
26
24
23
22
21
21
20
21
24
30
37
46
54
62
66
68
67
64
61
57
54
50
46
42
39
35
33
31
30
30
29
28
26
24
23
21
20
18
16
15
14
12
11
10
8
8
10
14
22
31
40
49
56
59
60
59
58
55
53
51
49
46
43
40
39
37
36
36
35
35
34
33
32
30
28
27
25
24
23
22
22
22
25
31
39
49
60
70
78
82
84
83
80
78
76
74
72
70
69
66
64
62
60
58
56
53
50
48
44
41
39
36
33
30
28
26
23
22
22
25
25
40
49
49
66
71
71
70
67
67
60
56
56
50
47
47
42
41
41
40
40
40
39
37
35
32
30
27
25
23
21
19
17
16
14
12
11
11
13
18
26
37
46
55
60
62
61
57
53
49
45
41
39
36
33
31
30
30
30
30
30
30
28
27
25
22
20
18
16
14
12
11
9
9
11
15
22
32
41
50
56
60
60
58
55
51
47
43
40
38
35
34
33
34
35
35
36
35
34
32
30
23
22
20
19
18
18
22
29
39
49
59
67
71
72
69
65
61
56
51
48
44
41
39
37
36
35
34
34
34
33
32
30
28
27
25
23
22
20
19
19
18
18
17
16
16
17
21
28
38
48
60
69
74
76
74
70
67
63
59
55
52
49
45
42
40
40
40
39
39
38
36
34
32
30
28
26
24
23
21
20
20
19
18
18
17
16
16
19
24
33
43
54
64
71
74
73
70
65
60
56
52
48
44
40
39
37
35
35
34
33
32
31
29
27
25
22
20
18
17
16
15
15
14
14
14
13
12
11
12
16
24
34
44
54
62
67
68
65
62
57
52
47
42
39
35
32
31
31
31
31
32
32
31
29
27
26
24
23
22
22
20
19
19
18
17
17
23
30
30
49
59
59
71
72
72
67
63
63
54
49
46
43
41
40
40
40
41
41
41
40
39
37
35
32
30
29
27
26
25
24
23
22
21
24
30
39
49
60
70
77
80
80
77
73
69
65
61
57
53
50
47
46
45
44
45
45
44
43
42
40
39
37
35
33
31
29
28
26
26
25
24
24
23
22
21
22
27
35
44
56
68
77
82
83
82
78
74
69
65
61
57
54
52
49
48
47
47
46
46
45
44
42
41
40
38
36
34
32
31
29
28
28
27
27
26
26
25
24
22
21
20
21
25
32
42
53
64
73
78
79
77
73
68
64
60
55
52
48
45
43
42
41
40
40
40
40
38
36
34
32
30
28
26
25
24
23
23
22
21
20
19
19
21
26
34
42
51
59
65
67
67
64
61
57
53
50
46
44
42
41
41
42
43
43
44
43
42
40
38
36
34
33
31
31
30
29
28
27
26
26
28
33
41
50
61
70
70
79
79
79
73
69
69
60
56
56
49
47
47
45
45
45
44
44
44
40
39
36
34
32
30
29
28
27
26
25
24
24
24
24
23
22
21
21
25
31
41
53
65
76
83
86
85
82
78
74
70
66
63
59
56
53
51
49
49
48
48
47
45
43
41
40
39
37
36
34
33
31
30
29
28
27
26
25
24
23
22
22
21
20
19
19
17
17
19
25
34
45
57
69
78
82
83
80
76
72
68
64
60
56
53
50
47
45
44
43
42
42
40
40
38
36
34
32
30
28
27
25
24
23
22
21
20
20
19
18
18
17
15
14
13
13
16
22
32
42
53
64
71
74
73
71
66
62
57
52
47
44
41
40
39
39
40
40
41
41
40
39
38
35
33
31
29
27
26
25
24
23
22
22
21
21
23
29
38
47
58
68
75
78
77
75
71
66
62
58
54
50
47
45
43
43
43
43
42
42
41
39
37
35
33
30
28
26
25
23
22
21
20
20
19
19
18
17
16
15
14
17
24
34
45
58
70
78
82
82
79
75
70
66
62
58
54
51
49
47
46
45
44
44
43
42
40
39
37
34
32
30
29
27
26
25
24
23
22
21
21
20
20
19
19
18
17
17
14
15
15
24
33
33
57
69
69
81
80
78
127
127
127
127
127
127
127
127
127
127
127
127
127
127
127
127
127
127
127
127
127
127
127
127
127
127
127
127
127
127
127
127
127
127
123
120
121
125
127
127
127
127
127
127
121
113
106
99
92
86
80
75
72
70
68
67
66
65
63
61
58
55
52
50
48
46
44
42
40
39
37
36
35
36
39
45
53
61
68
73
75
75
73
70
67
64
60
57
54
51
49
48
47
47
47
47
46
45
43
42
40
38
36
34
33
31
30
30
29
29
28
26
25
25
27
32
39
48
58
67
73
76
76
74
71
67
65
61
58
55
53
51
49
48
47
47
46
46
45
43
41
40
39
37
35
34
33
31
30
29
29
28
27
26
25
24
23
22
25
30
38
47
57
65
71
74
74
72
70
67
64
61
58
54
51
49
47
45
44
44
43
42
41
40
39
37
35
33
31
29
27
25
24
22
21
20
20
19
18
17
16
16
15
16
16
28
37
37
57
64
64
68
67
67
60
56
56
49
45
45
40
40
39
39
39
40
40
39
38
37
35
33
31
29
28
26
26
25
24
23
22
22
23
27
33
40
49
57
64
67
68
67
64
60
57
53
49
46
44
43
42
43
43
44
44
44
43
41
40
38
36
33
32
30
29
28
27
26
25
24
24
27
32
40
48
58
66
71
74
73
71
67
64
60
57
53
50
47
45
43
43
43
43
43
43
42
41
40
38
36
34
32
30
28
27
26
26
25
25
24
23
22
22
24
29
37
46
57
66
73
76
76
74
71
67
64
61
57
54
51
48
46
44
43
42
41
40
40
39
37
36
35
33
32
30
29
27
26
25
23
23
22
21
20
18
17
15
14
15
19
26
35
44
55
62
67
68
66
63
60
56
53
49
47
44
41
40
39
38
38
37
36
35
33
31
29
27
25
24
22
21
20
19
18
17
16
16
17
21
27
35
43
51
58
62
63
62
59
56
52
49
45
42
40
37
36
35
35
36
37
37
37
36
34
33
31
29
28
28
27
27
27
26
25
24
24
26
31
38
47
56
66
72
75
74
72
69
65
61
58
55
52
48
46
44
44
42
42
42
41
40
40
38
35
35
32
30
30
27
26
26
24
24
24
24
23
23
22
21
21
23
28
35
44
55
65
73
76
76
75
71
68
64
61
57
54
51
48
46
44
44
43
43
43
42
41
40
38
36
34
33
32
31
30
29
28
27
26
25
24
23
23
21
20
19
17
16
15
17
22
30
40
50
61
69
72
73
70
66
62
58
53
49
46
43
41
40
40
40
40
40
39
38
36
34
32
30
28
26
24
23
22
21
20
19
18
17
16
17
19
25
32
41
50
59
65
67
67
65
62
57
53
49
45
41
40
38
38
39
40
40
40
40
40
39
37
35
33
31
29
27
26
25
24
23
22
21
21
24
29
37
45
56
65
71
74
74
71
67
64
59
55
51
48
45
42
41
40
40
40
40
40
40
39
37
35
33
32
30
28
27
25
24
22
21
20
20
19
19
18
17
17
18
22
29
40
50
62
71
76
78
77
73
69
65
61
57
53
50
50
45
44
44
43
43
43
42
40
40
37
35
35
31
28
28
25
23
23
21
20
19
18
17
16
15
14
13
12
10
10
11
16
24
35
46
58
67
73
74
72
68
64
60
55
51
47
43
40
40
39
39
40
40
40
40
38
37
35
32
30
28
26
24
22
21
20
19
18
17
17
18
22
28
36
45
55
64
69
72
71
69
65
60
56
52
48
44
42
40
40
40
40
40
40
40
40
38
36
34
32
30
28
26
25
24
23
23
22
21
20
19
19
22
29
37
47
58
68
75
78
78
75
71
67
63
59
56
53
50
47
46
44
44
44
44
44
43
42
40
39
37
35
33
31
30
28
27
26
25
25
25
24
24
23
22
21
21
22
26
32
41
53
65
74
81
83
82
79
75
71
66
63
59
56
53
51
49
48
48
47
47
46
44
42
40
39
36
33
31
29
27
25
23
22
21
20
19
19
18
17
16
15
15
16
21
28
38
48
59
68
73
74
73
70
66
61
56
52
48
45
42
41
41
41
42
42
42
41
40
38
36
34
32
30
28
27
26
25
25
24
24
23
22
24
28
35
43
52
62
70
74
75
75
72
68
63
59
54
50
47
45
44
43
43
44
45
45
44
42
42
39
37
37
33
31
31
28
27
27
26
25
25
23
22
22
23
27
34
44
55
67
76
82
84
83
80
76
73
68
65
61
58
54
52
51
50
49
49
49
48
47
45
44
42
40
39
37
34
33
31
29
28
27
26
25
25
24
23
22
21
19
19
20
26
34
44
55
66
74
78
79
78
74
70
65
61
57
53
50
47
45
44
43
43
43
42
42
40
40
38
36
34
32
29
28
26
25
24
23
22
21
20
19
19
20
24
31
40
49
58
66
71
72
71
67
64
59
54
50
47
44
42
42
42
43
44
45
45
44
43
41
40
37
35
33
31
29
27
26
25
24
23
24
28
34
42
52
62
70
75
77
76
73
69
65
61
57
53
50
47
45
44
43
43
44
43
43
41
40
38
36
34
32
30
29
27
26
25
24
24
23
21
20
19
19
22
28
38
48
60
81
78
74
71
67
63
59
56
53
51
49
48
48
48
47
47
45
44
42
40
38
36
34
32
30
28
26
25
24
23
22
22
22
21
20
20
19
19
20
24
32
42
53
64
73
77
78
76
73
69
65
60
57
53
49
45
44
43
43
43
43
42
41
40
37
35
32
29
27
25
24
23
22
22
21
20
19
18
18
21
26
33
42
52
61
67
70
70
68
65
61
58
54
50
47
44
42
42
42
43
44
44
43
42
40
38
36
34
31
29
28
26
25
24
23
22
23
26
32
40
50
60
68
74
76
75
72
68
63
59
55
51
48
45
43
42
41
42
42
42
42
41
40
39
37
35
33
31
29
28
27
26
26
26
25
25
24
24
25
28
35
44
55
66
75
81
83
83
80
76
72
67
63
59
56
53
50
49
48
47
46
46
45
44
43
42
40
40
39
37
36
34
32
30
28
26
25
24
23
21
20
18
17
16
19
25
34
44
56
67
75
80
81
79
77
73
69
65
61
57
53
50
48
46
45
44
43
41
40
39
37
35
32
30
29
27
25
24
23
22
21
20
19
18
16
15
14
15
18
24
33
41
50
58
62
63
61
58
53
49
44
40
38
35
33
32
32
33
34
35
36
36
35
33
31
28
26
24
22
21
21
18
17
17
14
13
13
18
25
25
43
52
52
64
66
64
61
57
57
48
45
41
39
36
35
34
34
34
34
34
33
32
30
27
25
23
21
19
18
17
16
16
15
14
13
13
13
15
21
30
40
51
61
69
73
74
72
68
64
61
57
53
50
47
44
42
41
40
40
40
40
40
39
37
35
33
31
30
28
26
25
24
23
23
22
21
20
19
18
18
20
25
34
44
56
67
75
79
80
79
76
72
68
64
60
57
53
50
47
45
45
44
43
43
41
40
38
36
33
31
28
26
24
22
20
18
17
16
15
15
14
13
12
12
12
15
22
32
42
54
64
72
75
74
71
66
61
56
51
46
43
40
39
39
39
40
41
42
41
40
39
37
35
32
30
29
27
26
25
24
23
23
22
22
25
30
38
47
57
66
73
76
77
75
72
68
64
60
56
53
50
48
46
46
45
45
43
42
40
38
36
33
31
29
27
26
25
24
23
23
22
21
20
19
19
20
25
25
42
53
53
73
78
78
78
76
76
70
66
66
60
56
56
51
50
49
49
48
48
47
46
45
43
42
40
38
37
35
33
32
30
29
28
26
25
24
22
21
20
21
25
33
42
54
65
75
81
83
83
80
77
73
70
66
63
60
57
54
52
50
49
48
46
45
43
41
39
36
33
30
28
25
23
20
19
17
16
15
14
13
12
11
10
12
17
25
35
45
56
64
68
69
67
64
59
55
50
46
41
39
36
35
34
34
35
35
35
35
34
33
31
29
28
26
26
25
24
23
22
21
20
21
24
29
37
46
56
65
72
75
75
73
69
65
60
56
52
49
46
44
43
43
44
44
44
43
42
40
38
36
34
31
29
27
25
24
23
22
21
20
20
19
17
16
17
19
24
33
44
57
68
77
81
82
80
76
72
68
64
60
56
53
51
49
47
47
47
46
46
45
44
42
40
38
36
34
32
30
29
28
27
26
25
25
24
24
24
23
21
20
19
18
21
26
35
45
57
68
76
79
80
78
74
70
66
62
59
55
52
50
48
47
47
47
47
46
44
43
40
38
35
32
29
26
24
23
22
21
21
20
20
19
18
17
16
14
16
20
20
36
46
46
64
68
68
66
63
63
53
48
48
40
37
37
34
35
35
38
39
40
40
38
36
34
31
29
28
27
26
25
24
23
21
20
20
21
26
33
41
52
62
69
74
75
73
70
65
61
56
52
48
45
43
42
42
42
42
42
42
41
40
38
35
33
31
29
27
26
25
24
23
22
21
20
19
18
20
26
35
45
57
67
75
79
80
78
74
70
66
62
58
54
51
48
46
44
44
44
44
43
42
41
40
39
37
35
33
32
30
28
27
26
25
25
25
24
24
23
22
21
22
24
30
39
49
60
71
78
82
82
79
75
71
67
63
60
57
54
51
49
47
46
46
45
44
43
41
39
37
34
31
29
27
25
23
22
21
20
19
19
18
18
17
16
16
15
14
14
17
23
33
43
55
66
73
77
76
72
68
62
57
53
48
44
41
40
39
39
39
39
40
39
38
36
34
32
29
27
25
24
23
22
21
20
19
18
18
20
24
31
40
50
50
68
73
73
73
70
70
61
57
57
49
46
46
43
43
43
44
44
44
43
41
40
38
35
33
31
29
28
27
26
25
24
22
21
20
20
22
28
37
48
59
70
78
81
82
79
75
71
67
63
59
56
53
50
48
48
48
48
48
48
47
45
43
41
40
38
35
33
31
30
28
27
26
25
24
23
22
21
19
18
17
17
21
28
38
48
60
70
76
79
78
75
71
67
63
60
57
53
50
48
46
45
44
43
43
42
40
39
37
35
32
30
28
26
23
22
20
19
18
17
16
16
15
14
13
12
14
18
25
35
45
56
64
69
70
68
65
60
56
52
48
44
40
39
37
36
37
37
38
37
37
35
33
31
29
26
24
23
22
21
20
20
19
18
18
19
22
28
37
46
56
64
69
70
69
65
61
56
52
47
43
40
38
37
36
37
38
39
39
38
37
34
32
29
27
25
23
22
21
20
19
19
19
18
17
16
16
16
19
25
34
44
55
64
71
73
73
70
66
61
57
53
50
46
43
41
39
38
38
37
37
37
36
35
33
31
30
28
26
24
23
21
20
20
19
18
18
17
17
17
16
15
14
14
16
21
29
40
50
61
69
73
73
71
71
63
59
59
52
48
48
42
40
40
38
38
38
36
35
35
31
29
29
24
22
20
18
16
15
15
14
14
14
13
13
12
11
12
16
22
31
41
52
60
66
67
66
62
57
51
46
42
38
35
32
30
30
30
31
32
33
32
31
29
27
24
23
21
20
19
18
18
17
16
16
17
20
26
35
44
54
62
68
70
69
65
61
56
51
46
42
39
37
35
35
36
38
38
39
38
37
35
33
30
28
26
24
22
21
20
20
18
17
17
17
20
26
35
45
57
67
74
77
77
74
70
65
61
57
53
49
46
43
41
40
40
40
39
38
37
36
34
32
30
28
26
24
22
21
20
19
18
17
17
16
16
18
24
32
42
54
66
75
79
79
76
72
66
61
56
52
48
45
43
41
40
40
40
40
40
40
40
39
37
36
34
33
31
30
29
27
25
24
23
24
28
35
43
53
63
70
75
76
74
71
66
62
58
54
51
48
46
44
43
44
44
44
44
44
42
41
41
38
36
36
33
31
31
28
27
27
29
34
34
50
60
60
74
76
75
72
68
64
60
57
53
50
47
45
43
42
41
40
40
38
36
33
31
30
29
28
26
25
24
23
21
19
18
18
19
24
32
41
51
60
66
68
67
64
59
54
49
45
41
38
36
34
34
34
34
35
35
34
33
31
29
26
24
22
20
19
17
16
16
16
18
23
31
40
50
59
66
69
68
65
60
55
50
45
41
39
37
36
37
38
39
40
40
40
38
36
34
32
30
28
27
26
25
24
24
27
32
40
50
61
70
76
79
78
75
70
65
61
56
52
48
45
43
42
42
43
43
43
42
41
40
37
35
33
32
30
29
28
27
25
24
23
24
28
35
43
54
64
73
78
79
78
74
70
66
62
59
55
51
49
46
44
43
43
42
42
40
40
38
37
35
33
31
29
28
27
26
25
25
24
23
22
21
21
25
31
40
51
62
70
76
77
76
73
69
65
60
56
53
49
46
44
42
42
41
41
40
40
38
36
33
30
28
26
25
24
22
22
21
20
19
19
17
17
19
23
31
40
49
58
65
68
68
65
61
56
51
47
43
40
37
35
34
35
36
36
37
37
35
34
34
30
28
28
26
25
25
22
20
20
20
23
23
38
47
47
64
69
71
70
67
63
59
55
51
48
45
42
41
41
41
41
41
40
40
38
36
34
31
29
27
26
25
24
23
22
21
20
20
21
26
34
43
54
65
72
77
77
74
71
66
62
58
54
50
47
45
43
41
41
40
40
40
39
37
35
33
31
29
24
24
23
22
21
21
19
18
17
17
20
26
34
45
57
67
75
78
78
75
70
66
61
57
54
50
47
44
42
41
41
41
40
40
40
38
36
34
32
30
27
25
24
22
20
20
19
19
18
18
17
16
14
13
13
18
25
37
48
59
68
73
74
72
67
62
57
52
48
44
40
39
37
37
37
38
38
38
37
36
33
31
28
26
24
22
21
20
19
17
16
15
14
14
16
20
28
37
47
56
64
68
68
65
61
56
51
46
41
38
36
34
34
34
35
36
36
36
35
33
31
29
26
24
22
21
20
19
19
17
16
16
19
25
25
44
55
55
71
74
74
69
65
65
56
51
51
44
41
40
38
38
38
38
38
37
36
34
32
30
28
26
25
23
22
21
20
20
19
19
18
17
17
17
21
28
38
49
61
70
76
78
76
72
67
62
58
54
50
47
44
42
40
40
40
40
40
40
38
37
35
33
31
29
28
25
24
22
21
20
19
19
18
18
17
15
14
14
17
24
34
44
56
66
72
74
72
68
63
58
53
49
45
41
39
37
36
36
36
37
37
36
35
33
31
28
26
24
22
21
19
18
17
17
16
16
16
18
22
30
39
48
58
65
69
69
67
63
58
53
47
43
40
37
35
35
36
37
39
40
40
39
37
35
33
30
28
26
25
24
22
21
20
19
19
21
26
34
44
55
65
72
75
75
71
67
62
57
52
48
44
41
40
38
37
37
38
38
37
36
34
33
31
28
26
24
23
21
20
20
19
19
19
18
18
17
16
17
21
28
38
49
62
72
78
80
78
74
69
64
60
56
52
49
46
43
42
41
41
41
41
40
40
38
36
34
32
30
28
26
24
23
22
21
21
21
20
19
17
16
17
21
28
38
49
59
67
71
71
68
62
57
57
46
41
41
34
32
32
29
29
29
30
31
31
29
27
27
23
21
21
18
17
16
15
14
14
13
14
17
23
31
40
50
59
65
67
66
62
56
51
45
40
37
33
31
30
30
32
34
36
37
37
36
34
32
30
27
26
24
23
22
21
21
21
24
29
37
46
57
66
72
75
74
71
66
60
55
50
46
43
40
39
39
39
39
39
39
39
37
35
33
30
28
26
24
23
23
22
21
20
20
20
23
30
38
48
58
67
73
74
73
70
66
62
58
55
52
48
46
43
42
41
40
40
40
40
39
37
36
34
31
30
28
27
25
24
24
24
24
23
23
23
23
25
31
40
49
60
70
78
81
80
77
72
68
64
60
56
53
50
47
45
44
43
43
42
41
40
39
37
34
32
29
27
25
23
22
21
20
19
18
18
17
17
16
16
15
16
21
28
38
49
59
68
73
74
71
67
63
58
53
49
45
41
39
37
37
37
37
37
36
35
33
31
28
28
24
23
23
22
22
22
22
23
23
25
29
29
43
53
53
69
72
72
71
67
61
56
50
44
40
36
32
30
29
29
30
31
31
31
31
29
28
27
25
24
23
22
21
20
18
17
17
19
23
31
40
51
61
68
72
72
69
65
61
58
54
50
47
44
41
39
37
36
36
35
35
34
33
31
29
28
27
26
26
25
26
26
25
25
24
23
23
25
30
38
47
57
65
70
72
70
66
62
58
55
52
49
46
44
41
40
38
37
36
35
34
32
30
28
26
23
21
19
18
17
16
16
16
15
14
14
13
15
20
28
37
46
55
62
64
63
60
56
52
48
44
40
38
36
34
33
33
33
33
33
32
31
29
26
24
22
21
19
19
18
18
18
18
18
21
26
33
42
52
61
67
70
70
67
63
58
54
49
45
42
40
39
38
39
39
39
39
38
36
34
32
30
28
26
24
23
22
21
20
19
19
20
24
31
40
51
61
70
75
75
74
70
66
61
57
54
51
47
44
42
40
40
39
39
38
37
36
34
32
30
28
26
24
23
22
22
22
22
22
22
22
22
24
28
36
45
55
66
73
76
76
73
69
65
61
57
54
51
48
45
45
41
41
41
40
40
40
37
35
35
30
27
27
23
21
21
19
18
18
18
17
17
16
15
15
18
23
32
43
54
63
68
70
69
66
61
57
53
50
46
43
40
40
39
39
39
39
38
37
36
33
31
28
26
24
22
21
20
19
18
17
17
17
19
23
31
40
50
59
65
68
68
66
62
58
53
49
45
42
40
39
38
39
40
40
40
39
37
35
33
31
28
26
25
24
23
22
21
20
21
24
31
40
49
60
68
74
75
74
70
65
61
56
52
49
45
43
41
40
40
40
40
39
38
37
35
32
30
28
26
25
24
23
23
22
23
23
23
22
22
21
22
26
33
42
53
64
73
78
79
77
74
69
65
62
58
54
51
48
46
44
42
41
41
40
40
38
37
35
33
31
30
29
27
26
25
24
23
22
22
22
22
21
20
19
18
19
23
30
40
51
62
71
76
76
74
70
65
61
57
53
50
46
44
41
40
40
40
40
40
40
40
38
36
34
31
29
29
25
23
23
20
19
19
18
18
18
15
14
14
17
24
24
43
55
55
70
72
71
68
64
60
55
51
47
44
40
39
38
37
37
37
37
36
34
32
30
27
25
23
22
20
19
17
16
15
13
13
13
17
23
31
40
50
57
62
63
62
58
54
49
44
40
36
33
31
30
31
32
34
35
35
34
33
31
29
28
26
25
24
23
21
19
18
18
20
26
34
43
53
62
67
70
69
65
61
56
52
47
43
40
39
37
37
38
39
39
39
39
38
36
34
32
31
29
28
27
26
26
25
24
24
24
27
33
40
50
61
69
75
77
76
72
68
64
59
55
52
49
46
43
41
40
40
40
40
39
38
36
34
32
31
29
27
26
24
24
23
23
23
22
22
21
21
22
26
33
42
53
63
71
75
76
74
70
67
64
60
57
54
51
48
46
44
43
42
41
41
40
39
38
36
34
33
31
30
29
28
28
27
27
26
26
25
25
24
22
21
22
26
33
41
52
63
71
75
76
73
69
64
60
56
52
49
46
43
42
41
40
40
40
40
40
39
37
35
33
30
28
26
24
22
21
19
18
17
17
19
24
31
40
50
59
65
68
68
65
61
61
51
46
46
39
37
37
35
36
36
36
36
36
33
31
31
27
25
25
23
22
21
21
20
20
20
23
29
37
46
57
65
71
73
71
68
63
58
54
49
46
43
40
39
38
37
38
38
38
37
36
34
32
30
29
27
26
25
25
24
24
23
22
21
22
24
29
38
47
57
66
72
75
74
71
68
64
61
57
54
51
48
45
43
42
41
40
40
40
39
38
35
34
32
30
29
28
28
27
26
25
24
23
22
21
23
27
34
42
53
63
71
75
76
75
71
68
64
60
57
54
50
47
44
42
41
40
39
37
36
34
31
29
27
25
23
22
20
20
19
18
18
18
18
17
16
16
17
22
30
40
49
60
67
70
70
67
64
59
54
50
46
42
39
37
35
34
35
35
35
35
34
32
30
28
27
26
25
24
23
22
21
20
20
20
23
28
36
45
55
63
68
70
68
65
61
56
51
47
43
40
39
37
37
37
37
38
38
37
35
33
31
29
27
25
24
23
23
21
21
21
21
20
20
19
19
19
27
36
36
58
67
67
76
76
76
68
64
60
57
53
50
47
44
42
41
41
40
40
40
39
37
34
32
30
28
26
24
23
22
21
21
21
20
20
20
19
19
18
17
19
23
31
41
52
63
71
76
76
74
70
65
61
58
54
50
47
44
41
40
39
38
37
36
34
32
30
27
25
23
21
19
17
16
15
14
13
13
13
12
11
10
9
8
8
9
14
22
33
44
55
65
70
70
67
63
57
51
46
41
38
34
32
31
30
31
32
33
33
32
31
29
26
24
21
19
18
17
16
16
16
15
15
15
16
20
27
36
46
57
66
72
73
71
67
62
56
51
46
42
39
37
36
36
36
37
38
38
37
36
34
32
29
27
25
23
21
20
19
18
18
17
16
15
15
15
19
26
37
49
61
72
78
80
79
75
69
64
59
54
50
46
43
40
39
38
38
38
38
37
36
34
32
29
27
25
23
21
20
19
18
17
17
17
16
16
15
15
14
16
22
31
42
54
66
74
78
78
75
70
65
46
43
41
39
38
38
38
37
37
35
34
32
29
27
24
22
20
18
16
15
14
14
13
13
12
11
10
9
11
16
24
36
48
60
70
75
75
72
66
61
55
49
44
40
36
33
32
32
32
33
34
35
35
33
31
27
25
22
20
18
17
17
16
16
16
16
15
16
17
23
31
41
52
63
72
76
77
74
70
65
59
53
48
44
40
39
38
38
38
39
40
40
40
38
36
33
30
28
26
24
23
21
20
20
19
19
19
18
18
17
18
22
30
40
53
65
76
83
85
83
80
75
69
65
60
55
51
48
45
44
43
43
43
43
42
41
40
39
37
35
33
31
30
28
27
25
24
23
23
22
22
22
21
20
19
18
17
18
23
31
41
54
66
77
83
84
82
78
73
68
63
58
54
51
48
45
44
44
44
45
45
45
44
42
40
38
35
33
31
29
27
25
24
22
21
21
20
20
19
18
17
16
15
15
18
25
36
47
60
71
78
81
79
75
70
64
58
53
48
44
41
40
39
39
40
40
40
40
40
38
35
33
30
28
26
24
23
23
21
21
21
20
20
20
30
38
38
59
69
69
78
77
77
70
64
64
53
49
45
42
40
40
41
42
43
43
43
42
40
39
37
34
32
30
29
27
26
25
24
23
22
22
25
31
40
52
64
75
82
86
85
82
78
73
69
64
60
56
52
50
49
48
47
47
47
46
45
43
42
40
39
37
34
32
30
29
28
28
27
27
26
25
24
24
26
33
41
53
65
76
83
86
86
83
78
74
69
65
61
58
55
53
51
51
50
50
50
49
48
46
44
41
39
36
34
31
29
27
26
24
23
22
22
21
20
20
19
18
18
20
26
35
46
58
70
78
83
83
80
76
70
65
60
55
50
47
44
43
43
44
45
45
45
43
41
40
37
34
32
29
27
25
24
23
22
21
21
21
23
28
36
45
55
65
73
77
77
75
71
67
62
57
53
49
46
44
43
44
44
45
45
45
44
41
40
37
34
32
30
28
26
25
24
23
21
20
20
21
26
35
45
57
68
77
82
83
81
77
73
68
64
59
56
52
49
47
46
46
46
46
45
44
42
40
39
36
34
32
30
28
26
25
24
23
23
22
22
21
20
18
18
20
26
35
46
58
70
79
84
84
82
82
75
71
71
62
58
58
52
49
49
46
46
46
44
43
43
40
38
36
33
31
28
26
24
23
22
21
20
20
19
18
17
15
14
14
16
22
31
41
53
64
72
75
75
72
68
63
58
54
49
45
42
40
39
39
39
40
40
40
39
37
34
32
29
27
25
24
23
22
21
20
19
18
19
22
28
37
46
57
66
72
75
74
71
67
62
56
51
47
43
40
39
38
38
39
40
40
39
37
35
33
30
28
26
24
22
21
19
19
18
16
15
15
15
19
27
37
49
61
71
77
79
77
74
69
65
60
56
52
48
45
43
41
41
41
41
41
40
39
37
35
32
30
27
25
23
21
20
19
18
18
18
18
17
17
16
16
20
26
36
46
59
69
77
80
79
76
71
66
61
57
53
49
46
44
42
42
42
42
42
41
40
39
37
35
32
30
27
25
23
21
20
19
17
16
16
15
14
13
12
11
12
17
26
36
48
60
69
74
75
73
68
63
58
53
48
44
44
38
37
37
37
37
37
38
37
37
34
31
31
27
25
25
22
20
19
17
16
15
15
17
22
30
40
50
60
68
72
73
70
67
62
57
52
47
44
41
40
39
40
40
41
42
42
40
39
37
35
33
30
28
27
26
25
23
22
21
20
22
27
35
45
57
68
76
80
80
78
74
69
64
59
55
51
48
45
43
42
42
42
42
41
40
39
37
35
32
30
28
26
25
24
22
22
21
20
19
19
18
20
25
34
44
56
68
77
82
83
81
77
73
68
63
59
55
52
49
47
46
46
46
46
45
44
43
40
38
35
33
30
28
26
24
22
21
20
20
19
18
17
15
14
15
19
27
38
49
61
71
77
79
77
73
69
64
58
54
50
46
43
42
41
41
41
42
41
40
40
38
35
33
30
28
27
25
23
22
20
19
18
20
23
30
39
49
59
68
73
74
73
69
65
60
55
50
47
44
42
42
43
44
45
46
46
45
43
41
39
37
35
33
31
30
28
27
26
27
30
37
45
56
66
75
80
82
81
78
74
70
66
61
58
54
52
49
47
47
47
47
47
46
45
43
40
39
36
34
32
31
29
28
27
26
25
24
24
23
26
26
40
51
51
73
80
80
82
79
79
71
68
68
60
57
57
52
50
49
48
47
47
46
45
43
41
39
37
34
32
30
28
27
26
25
24
24
23
22
21
20
19
22
27
36
46
57
68
75
79
78
76
72
67
62
58
54
49
46
43
41
41
40
40
40
40
38
36
34
31
29
26
25
23
22
20
20
18
17
16
15
14
14
16
21
29
39
49
59
66
69
69
66
62
57
51
46
41
38
35
34
33
34
36
37
37
38
36
35
33
30
28
26
24
23
22
21
20
19
18
19
23
30
39
49
60
68
74
75
74
71
67
62
58
53
49
46
43
41
40
41
41
41
40
40
38
36
33
31
29
27
25
23
22
21
20
19
17
16
15
15
18
25
35
46
58
68
75
78
77
74
70
66
61
57
54
50
47
44
42
41
41
40
40
40
39
38
36
34
32
30
28
26
24
22
21
20
19
19
19
18
17
16
15
14
16
22
31
41
54
66
66
79
79
79
73
68
68
58
53
53
45
42
42
39
38
38
37
36
36
32
29
26
24
21
19
17
16
15
14
14
14
14
14
13
13
12
11
10
10
13
19
29
40
52
63
71
74
74
71
66
61
55
49
44
40
37
34
33
33
33
34
34
34
33
32
30
28
26
24
22
21
19
18
17
16
15
14
14
16
21
30
40
52
63
72
77
78
76
72
66
61
56
50
46
42
40
39
39
39
40
40
40
39
38
36
33
31
28
26
24
22
20
19
18
17
16
16
15
15
14
13
15
20
29
40
54
67
78
84
86
84
80
75
70
65
61
56
52
49
46
44
43
43
43
43
42
41
40
37
35
32
30
28
26
24
22
21
20
19
18
17
17
17
16
15
14
13
13
16
22
33
45
59
71
81
85
86
83
78
73
68
63
58
54
50
46
44
42
41
41
40
40
38
36
34
31
28
26
23
21
19
18
17
16
16
16
15
14
13
12
11
11
13
19
29
40
53
64
73
77
77
74
69
63
57
51
45
40
37
35
34
34
36
37
38
39
38
37
35
33
31
28
26
24
23
22
21
20
19
18
17
20
26
35
45
57
69
78
82
83
80
80
71
65
65
55
50
50
44
42
42
41
42
42
41
40
40
36
33
33
28
26
24
22
21
20
19
19
18
17
16
16
18
24
33
44
58
72
82
89
91
89
86
81
76
71
66
62
58
55
52
50
50
49
49
49
48
46
44
42
40
38
35
32
30
28
26
24
23
22
21
21
19
18
18
18
22
29
40
52
65
77
86
90
89
86
81
76
70
64
60
55
51
49
47
46
46
45
45
44
42
40
38
35
32
29
27
24
23
21
20
20
19
18
17
15
14
13
15
20
28
39
51
63
72
77
79
77
72
67
61
55
50
45
41
39
38
38
39
40
40
40
40
39
37
34
32
29
27
25
24
22
20
19
18
17
17
20
27
37
49
61
72
80
83
83
80
76
70
65
59
54
50
46
44
43
44
45
45
46
45
44
41
39
36
33
31
28
25
23
22
21
20
19
18
17
16
16
19
26
37
49
63
76
85
90
90
87
83
78
73
68
64
59
56
56
51
50
50
50
50
50
48
46
46
41
39
39
34
31
31
27
25
25
23
22
21
20
19
18
17
17
21
28
39
51
65
76
85
88
88
84
80
75
70
66
61
57
54
51
49
48
47
47
47
46
44
42
40
37
34
31
28
25
23
21
20
19
18
17
16
15
14
13
11
11
13
19
29
40
53
66
75
80
81
78
74
68
63
57
52
47
43
40
40
39
40
40
40
40
39
37
34
32
29
27
25
24
23
23
23
23
22
21
21
23
27
35
45
57
69
78
83
85
83
79
74
69
63
57
52
48
45
44
43
43
42
40
38
35
31
28
26
23
22
20
19
18
16
15
14
15
20
28
40
52
66
77
84
87
87
84
80
75
70
65
60
56
52
49
48
47
47
46
46
45
44
41
40
37
34
31
29
26
24
23
21
20
20
19
18
17
16
19
25
34
46
60
72
82
88
89
87
84
79
75
70
66
62
58
55
53
51
51
50
49
48
47
45
42
40
38
36
33
31
29
26
24
23
21
20
19
18
16
14
12
12
14
19
29
40
54
66
76
81
82
80
76
71
65
60
54
50
46
43
41
41
41
42
41
41
40
37
34
31
31
25
22
22
19
17
17
15
14
14
12
14
14
28
38
38
61
69
69
76
73
70
65
59
54
49
45
42
40
40
40
41
42
42
41
40
37
34
31
28
25
23
21
19
18
17
16
15
13
12
11
11
14
21
31
43
58
70
80
84
85
82
78
74
69
64
59
55
52
49
47
46
46
46
46
46
44
42
40
38
36
33
30
28
26
24
22
21
19
18
17
16
15
14
12
12
14
20
30
42
56
70
80
86
88
86
82
77
73
68
63
59
55
51
48
46
45
44
43
42
41
40
37
33
30
26
23
20
18
16
14
13
12
11
10
9
8
7
6
4
4
8
15
25
38
52
64
73
78
78
75
70
64
59
53
48
44
40
38
37
37
37
38
38
38
36
34
31
28
25
22
20
17
15
14
13
12
11
10
11
15
22
32
44
56
67
74
78
77
74
69
64
58
53
47
44
41
40
40
41
42
44
44
43
42
40
37
34
31
29
26
26
23
21
21
18
16
16
17
21
21
40
53
53
78
85
88
87
83
83
74
69
64
60
56
52
50
48
47
47
47
46
45
43
41
39
36
33
30
28
25
23
21
20
19
18
17
17
16
15
14
13
14
18
27
39
53
67
80
87
91
90
86
81
76
71
66
62
58
54
51
49
48
47
47
46
45
43
41
39
36
32
29
27
25
22
21
20
19
18
18
18
18
18
17
16
15
13
13
15
21
31
44
58
71
81
86
86
82
77
71
64
59
53
49
45
42
41
40
40
41
41
40
39
36
33
30
27
24
21
18
16
15
14
13
12
11
9
8
9
12
19
30
41
53
63
70
72
70
66
60
53
47
41
36
31
29
28
29
30
33
34
35
35
34
33
30
28
25
23
21
19
17
15
14
12
12
12
17
26
37
50
63
75
82
85
84
80
74
68
62
56
51
46
43
40
40
40
40
40
40
39
37
35
32
28
25
22
20
17
15
14
13
12
12
11
10
10
12
18
28
40
55
70
81
88
90
88
84
79
73
68
63
58
54
50
47
46
45
45
44
44
43
41
40
37
34
32
29
26
24
22
20
18
17
17
16
14
13
12
11
12
18
28
41
41
70
82
82
90
88
88
79
73
73
63
58
58
50
47
47
45
45
45
44
43
41
39
35
32
28
25
22
19
17
16
15
13
12
11
10
9
8
11
17
28
40
53
66
76
81
81
79
74
68
62
56
50
46
42
40
40
40
41
42
42
41
40
39
36
33
30
28
26
25
23
22
21
19
18
19
22
29
38
49
62
74
82
86
85
82
77
71
65
59
53
49
45
43
42
43
44
44
44
44
42
40
37
34
31
28
25
23
21
19
18
17
15
15
15
17
24
35
47
62
75
85
90
91
89
84
79
73
68
62
57
53
50
48
47
46
46
46
45
44
42
40
38
35
32
29
27
24
22
20
19
18
17
17
16
14
13
13
15
21
31
43
57
71
81
87
88
86
82
77
71
67
62
58
54
51
49
47
46
46
46
45
43
41
39
36
34
31
28
26
24
23
22
21
20
20
19
18
16
15
13
12
13
17
26
38
50
64
75
81
82
80
75
69
69
57
51
51
43
40
40
39
40
40
40
40
40
37
34
34
28
25
25
19
17
15
13
12
11
9
8
7
7
10
16
26
38
49
60
67
70
69
65
60
53
46
40
36
32
29
29
30
32
34
37
38
37
36
34
31
28
26
24
22
20
19
17
16
15
14
16
20
29
40
52
64
75
81
82
80
75
69
63
56
50
45
40
38
36
36
36
37
38
38
37
36
34
32
29
27
25
23
21
20
19
18
17
16
15
15
16
21
30
42
55
68
79
85
87
85
80
75
70
65
61
56
52
49
46
45
44
43
43
43
42
40
39
36
34
32
29
27
26
24
22
21
20
19
18
16
15
16
19
26
37
49
63
75
83
86
85
82
76
70
65
59
55
50
46
44
42
41
41
40
40
39
37
34
31
28
25
22
19
18
16
16
15
15
15
14
13
12
11
12
16
24
35
47
60
71
79
82
80
76
69
62
55
48
42
38
34
32
32
33
34
36
37
36
35
34
31
28
26
23
21
19
18
17
15
13
12
12
14
20
30
41
54
67
76
81
80
77
72
66
59
54
48
43
40
36
34
33
33
33
33
32
31
29
28
27
26
24
24
23
22
22
19
17
17
12
10
10
10
15
15
38
51
51
76
82
82
82
78
78
67
62
56
52
48
45
44
43
44
45
45
44
43
41
39
36
33
30
28
26
24
23
21
19
18
16
18
22
31
42
55
68
79
86
87
85
80
75
69
62
57
52
48
44
42
40
40
40
40
39
38
36
33
30
27
25
22
20
18
17
15
15
14
14
17
24
35
47
60
73
82
87
86
82
77
70
64
58
52
48
44
41
40
40
40
40
41
40
40
38
35
33
29
26
24
22
20
19
18
18
17
16
15
14
15
19
28
39
52
67
79
86
88
86
81
74
67
60
54
48
44
41
40
39
40
40
41
41
41
40
37
34
31
28
25
23
21
19
17
16
14
12
12
14
20
29
40
53
65
73
78
77
73
68
60
53
47
41
37
34
33
34
35
38
40
40
40
40
37
35
32
29
26
24
22
20
18
17
16
18
24
34
46
60
73
82
87
87
84
78
72
65
59
53
48
48
41
40
40
41
42
42
42
40
40
36
33
33
27
24
24
20
18
18
15
14
13
12
12
16
24
36
49
65
78
87
92
91
87
81
75
69
63
58
53
50
47
46
45
45
46
46
45
44
41
40
37
34
31
28
25
23
21
19
18
17
16
15
15
14
12
11
11
12
18
28
41
56
71
82
89
91
88
83
77
71
65
59
54
49
46
43
42
42
42
42
42
41
40
37
33
30
27
23
21
18
16
14
13
11
10
10
9
8
7
5
4
5
10
18
31
44
58
69
76
78
76
71
64
57
50
43
38
34
31
30
30
32
34
35
36
35
33
31
28
25
22
19
17
16
14
13
12
12
11
11
14
19
28
39
51
64
74
80
81
79
74
68
61
55
48
44
40
39
38
38
40
40
41
40
40
37
34
31
29
26
23
21
19
18
17
16
15
14
12
12
13
18
28
40
55
69
80
86
88
85
80
75
69
63
58
53
48
45
43
41
41
41
41
41
40
39
37
34
31
28
26
23
22
20
19
18
17
17
16
16
16
15
14
13
15
21
31
43
57
71
82
89
90
88
83
77
71
66
60
56
52
49
47
46
46
46
46
46
44
42
40
36
33
33
26
23
23
18
17
17
15
14
14
13
11
11
9
10
10
21
32
32
59
72
81
85
85
81
74
67
60
53
47
41
38
36
35
36
36
37
37
36
35
32
29
26
23
21
19
17
16
15
14
13
12
12
14
19
28
39
51
63
72
77
78
76
71
65
59
53
48
43
40
38
37
38
39
40
40
40
40
38
35
33
29
27
25
23
22
21
20
19
18
16
16
16
20
29
40
52
66
78
85
88
87
83
78
73
67
62
58
54
50
47
46
45
45
44
44
43
42
40
39
36
34
32
30
28
26
25
24
22
21
21
20
19
18
17
16
15
17
21
30
41
55
68
79
85
87
85
81
76
71
66
62
57
53
50
48
46
45
45
45
45
44
42
40
38
35
32
29
26
24
21
20
18
17
16
15
15
15
14
13
12
10
9
9
12
19
29
40
53
64
72
74
73
69
64
59
54
49
45
41
39
37
37
37
38
38
38
37
35
32
29
26
24
21
19
18
17
17
14
13
13
11
11
11
16
23
23
42
52
52
65
66
66
60
55
55
44
40
36
33
35
36
36
35
33
31
28
26
23
21
19
18
17
16
15
14
13
12
13
17
24
34
45
56
65
71
72
70
66
61
56
51
47
43
40
37
35
35
35
35
36
35
34
33
30
28
25
22
20
18
16
15
14
14
13
13
13
13
12
12
12
14
20
29
40
52
64
72
76
76
73
68
64
59
55
51
47
44
41
40
39
39
39
38
38
37
35
33
31
28
26
24
22
20
19
18
17
16
16
15
15
14
14
13
12
10
9
10
15
23
34
46
58
68
73
74
71
66
60
54
49
44
40
36
34
32
31
31
31
32
31
31
29
27
24
22
19
17
15
13
12
11
10
10
10
9
8
7
7
9
14
22
33
43
53
61
64
64
61
55
49
43
38
33
29
26
25
26
28
30
32
34
34
33
32
29
27
25
23
21
20
20
19
18
17
16
16
18
24
32
42
54
64
72
75
75
72
67
61
55
50
45
41
39
36
35
35
35
36
36
35
34
33
30
28
26
23
22
20
19
18
17
16
16
16
16
15
14
14
15
18
26
36
48
61
73
80
83
81
77
77
66
61
61
53
49
49
44
42
42
40
40
40
39
38
38
34
32
32
27
25
23
22
21
20
19
19
19
19
19
19
19
19
18
17
16
17
20
28
39
51
64
75
82
84
82
77
71
65
60
55
50
46
43
40
39
38
38
37
37
36
35
33
30
28
26
23
21
20
18
17
17
17
17
17
17
17
16
15
13
13
14
19
27
38
49
61
69
74
74
71
65
59
53
46
41
38
35
33
33
34
36
38
39
39
38
36
34
32
29
27
25
23
22
22
21
20
20
19
18
18
20
26
35
45
57
68
76
79
79
75
70
64
58
53
48
44
40
39
37
37
38
38
38
38
37
35
33
31
28
26
24
23
22
21
20
20
20
19
19
19
18
17
17
17
22
30
40
54
67
78
84
86
84
79
73
67
62
57
53
50
47
45
43
43
43
43
42
41
40
38
36
33
30
28
26
24
22
21
20
19
19
18
18
18
18
17
16
15
14
15
20
29
40
53
67
77
77
82
78
78
65
59
59
46
41
41
35
34
34
33
34
34
35
35
35
32
30
27
25
22
20
18
17
15
14
14
14
13
13
11
10
10
12
18
28
39
51
63
71
74
74
70
64
57
51
44
40
35
32
31
31
32
35
37
38
38
37
35
33
30
27
25
23
22
20
20
19
18
17
16
16
19
26
36
47
60
70
78
81
80
76
70
64
58
52
47
43
40
39
38
39
40
40
40
40
39
37
34
32
29
26
24
22
21
19
19
18
18
17
16
16
16
18
25
35
48
61
74
83
87
86
82
77
71
65
60
55
50
47
44
42
42
42
42
42
42
40
40
38
35
33
31
29
26
24
23
22
21
20
20
19
19
19
18
16
15
16
20
28
40
53
67
79
86
88
86
81
75
69
64
58
54
50
46
44
42
42
41
41
41
40
39
36
33
30
27
25
22
20
19
17
17
16
16
16
16
15
13
13
14
18
26
37
49
62
73
79
81
79
73
67
60
53
46
41
37
35
33
33
34
36
37
37
37
35
33
31
29
27
25
23
22
21
20
20
19
19
19
21
26
35
46
58
69
77
81
80
76
71
64
58
51
46
41
39
37
37
37
39
40
40
40
39
39
34
31
31
25
23
23
20
20
20
19
18
18
16
16
16
25
36
36
62
75
84
88
88
84
79
73
68
62
58
53
49
46
45
44
43
43
43
43
42
40
39
36
34
32
30
28
26
25
24
24
23
23
23
22
21
20
19
21
27
37
48
61
74
84
89
89
86
80
75
69
64
60
56
53
50
49
48
47
47
46
45
43
41
39
36
33
30
27
25
23
21
20
19
19
18
18
17
16
14
14
15
21
30
41
54
66
76
80
81
77
72
66
60
54
49
44
41
40
39
39
40
40
40
40
39
37
34
31
28
25
23
21
20
19
19
18
17
17
17
20
26
36
46
58
68
76
78
77
73
68
62
56
50
46
42
40
39
40
40
41
43
43
42
41
39
36
33
30
27
25
24
22
21
20
20
18
17
17
18
23
32
43
56
69
80
85
86
84
79
73
67
62
57
53
49
46
44
43
43
43
43
43
42
40
38
36
33
30
28
26
24
22
21
20
19
19
19
18
18
18
17
16
16
19
27
27
50
64
64
84
87
87
82
76
76
65
60
60
51
48
48
44
43
42
42
42
41
40
39
36
34
32
30
28
26
25
24
23
22
21
21
21
21
20
20
19
17
16
15
17
22
31
43
57
70
79
84
84
80
73
66
60
54
49
45
41
40
39
39
39
40
40
39
38
36
34
32
29
27
24
23
21
20
19
19
18
17
16
15
15
18
24
33
43
54
63
69
71
69
65
60
55
49
44
40
39
37
37
38
40
41
42
43
42
40
38
35
33
30
29
27
26
25
24
23
22
22
24
30
39
49
61
71
78
81
80
76
71
65
60
54
50
46
42
40
40
40
41
42
43
43
41
40
36
33
30
28
26
24
23
22
21
21
20
19
18
19
21
28
37
48
61
73
81
84
84
81
76
71
66
62
57
54
50
47
45
44
43
42
42
40
39
37
35
33
30
28
27
25
24
23
22
21
20
20
18
17
16
16
18
24
33
44
56
67
74
76
75
71
65
60
56
52
49
47
45
44
43
43
42
42
40
39
36
32
29
25
22
19
17
15
13
12
10
7
5
3
1
0
0
4
11
21
31
41
49
54
55
52
48
43
39
34
29
25
22
20
20
21
21
24
25
25
26
25
25
24
24
24
23
22
22
19
17
17
16
17
17
30
40
50
61
69
73
74
71
67
61
55
48
43
39
35
33
32
33
35
36
37
36
35
32
29
25
23
21
20
19
19
18
18
19
23
31
42
55
67
77
84
85
83
79
74
68
63
58
53
49
45
43
42
42
42
42
42
41
40
38
35
32
30
28
27
26
26
26
25
25
27
31
40
50
62
75
84
90
91
89
85
80
76
72
69
66
63
60
58
56
54
52
51
49
47
44
41
39
37
35
34
34
34
34
35
35
35
35
35
33
32
30
29
28
29
35
43
56
70
82
93
98
99
96
92
87
82
78
73
69
65
60
57
54
52
51
50
48
47
45
43
40
39
36
34
32
31
29
28
27
26
25
24
24
23
21
20
18
17
20
27
37
49
62
74
82
85
84
81
76
71
66
62
58
54
51
48
46
45
44
43
42
41
40
39
36
34
31
29
27
26
25
24
23
22
21
20
19
18
16
15
16
21
29
29
52
64
64
77
77
77
68
62
62
50
45
45
38
35
35
34
34
34
34
34
33
31
29
26
23
21
19
17
15
14
13
11
10
10
11
15
22
33
43
55
64
69
71
68
63
57
50
44
39
34
31
30
30
31
34
36
37
38
37
35
33
31
29
27
25
23
22
20
18
17
16
18
24
34
45
58
70
79
83
82
78
72
66
59
52
46
41
38
35
33
34
34
35
36
35
34
32
30
27
25
23
21
19
17
16
15
15
14
13
12
11
12
15
22
33
46
61
74
83
87
86
82
76
70
64
58
53
49
45
43
42
42
42
43
43
43
42
40
38
36
33
30
27
25
23
21
20
19
18
18
18
17
16
15
14
14
16
23
34
47
62
75
84
87
87
83
77
70
64
58
53
49
46
43
42
41
41
41
41
40
39
37
34
32
28
25
22
20
18
17
16
15
15
14
13
13
11
11
12
16
24
36
48
61
71
78
79
76
70
63
56
50
43
39
35
32
31
32
34
36
38
38
38
36
33
30
28
25
23
22
21
20
19
17
16
16
17
22
30
40
52
65
74
80
81
78
73
67
60
54
48
43
40
38
37
38
39
40
41
41
40
39
37
34
32
29
29
24
22
22
20
19
19
17
16
16
18
25
25
47
61
61
84
88
88
85
79
79
66
61
56
51
47
45
43
42
43
43
44
44
43
41
39
36
33
31
29
27
25
24
23
23
22
21
21
20
19
19
22
29
39
52
66
78
87
91
90
86
80
74
69
63
59
55
52
49
47
47
47
47
47
47
46
44
42
40
37
35
32
30
28
26
25
24
23
22
22
16
18
25
35
46
59
71
79
83
82
78
73
67
61
56
51
47
44
42
41
41
42
43
43
42
40
39
36
33
30
27
25
24
22
21
19
18
17
16
17
21
28
38
48
60
70
76
78
76
73
68
62
56
51
47
42
40
40
41
42
43
44
44
42
40
38
35
33
30
29
27
26
25
23
22
21
21
23
29
38
49
61
73
82
86
86
83
78
72
67
62
57
53
49
47
45
45
45
45
45
45
43
41
40
37
34
32
30
28
26
25
24
24
23
23
22
21
19
19
20
25
35
46
59
72
82
87
88
88
80
75
75
66
62
62
54
52
52
48
48
48
48
47
47
44
42
42
38
35
33
30
28
26
25
23
22
22
21
21
20
20
21
20
19
18
17
18
22
30
41
54
68
79
86
88
86
82
77
71
66
62
58
54
52
50
50
50
50
50
49
46
44
40
37
33
29
26
22
20
17
15
14
13
13
13
12
12
11
10
10
13
19
29
41
53
65
74
78
77
74
68
62
57
51
46
42
39
37
36
36
37
37
37
36
34
32
29
26
23
21
19
18
17
16
15
14
13
13
14
17
25
34
45
57
67
74
76
74
70
65
59
53
48
43
40
37
36
36
37
38
39
39
38
36
34
31
28
25
22
20
18
17
16
15
15
14
13
12
14
18
27
39
51
64
75
81
82
80
75
69
64
58
54
49
46
43
41
40
40
40
40
40
40
38
36
34
31
29
26
24
22
21
20
19
18
18
18
17
16
15
14
16
21
31
42
56
68
78
83
83
81
76
71
65
61
56
52
49
47
45
44
44
44
44
43
42
41
39
37
34
31
29
27
25
23
22
21
20
19
18
18
17
16
14
13
12
14
20
29
41
55
67
77
81
81
78
72
67
61
55
50
46
42
40
39
39
39
39
39
39
37
37
32
29
29
24
21
21
17
16
16
12
10
10
7
7
7
16
25
25
48
59
66
70
69
65
60
54
48
42
38
34
31
30
31
32
34
36
37
37
36
34
32
29
27
24
23
21
19
18
16
15
15
19
27
38
49
62
72
79
81
78
74
68
62
56
50
45
41
39
37
37
37
38
38
38
37
35
33
30
27
24
22
20
18
17
16
16
15
15
14
14
16
22
32
43
57
69
78
83
82
79
74
68
63
58
53
49
46
43
41
40
40
40
40
39
38
36
33
33
28
25
23
21
20
19
18
18
17
16
16
14
13
13
16
22
32
44
57
69
77
80
79
76
71
66
61
56
51
47
44
40
39
37
37
36
36
35
33
32
29
27
25
22
21
20
19
19
19
18
18
18
16
14
12
11
13
18
28
40
52
63
70
72
71
66
61
54
49
44
40
37
34
33
33
34
35
36
36
35
33
31
28
25
22
20
18
16
14
13
11
10
9
11
15
23
34
44
56
65
69
69
67
62
62
50
44
44
36
33
33
31
32
32
36
37
37
36
34
34
28
26
26
21
20
18
17
15
14
13
13
16
23
33
44
57
68
75
77
76
72
67
61
56
51
46
43
40
38
38
38
38
39
40
39
37
35
33
30
28
25
24
22
21
20
20
19
18
18
17
18
21
29
40
52
65
76
83
85
84
80
75
70
66
61
57
53
50
47
46
45
44
44
44
42
41
40
38
35
33
31
29
27
26
25
24
22
21
20
18
17
17
20
26
36
47
60
71
79
82
82
78
74
69
64
60
56
52
48
46
44
43
43
42
42
40
39
37
34
32
29
27
24
23
21
20
18
17
15
14
13
14
18
26
36
47
58
67
72
72
70
65
59
53
47
42
38
35
33
32
33
35
37
37
37
36
33
31
28
26
24
22
21
19
17
16
15
16
19
26
36
47
59
69
76
80
79
75
71
65
59
54
49
44
41
40
39
39
40
40
39
38
36
34
31
29
26
24
22
20
19
19
18
18
17
16
15
16
21
29
40
52
66
76
83
85
83
79
74
69
64
60
55
51
48
45
43
42
42
42
42
41
40
38
36
33
31
28
26
24
23
22
21
21
20
20
20
19
18
17
17
19
26
37
37
62
74
74
85
84
84
75
70
70
60
55
55
47
43
43
40
40
40
40
39
38
36
34
31
29
26
24
21
19
17
16
14
13
12
11
9
8
7
6
6
9
15
26
39
51
65
75
81
82
79
73
68
62
56
51
46
43
40
39
39
40
40
40
40
39
37
34
31
28
25
22
20
18
16
15
14
13
12
12
15
21
30
40
52
63
71
75
74
71
66
60
54
48
43
40
37
36
36
37
38
40
40
39
37
35
32
29
27
24
22
21
20
19
18
17
16
16
19
26
36
47
61
72
80
83
82
78
73
67
62
56
52
48
44
41
40
40
40
40
39
39
37
35
32
30
27
24
22
20
19
18
17
16
16
15
14
14
14
19
27
38
50
63
74
81
83
81
77
72
67
62
57
53
49
45
42
40
40
39
39
40
39
38
36
34
31
29
27
25
23
21
19
18
17
16
15
14
13
11
10
9
10
15
24
37
49
63
73
78
79
75
70
64
57
52
46
42
40
37
36
35
35
35
36
36
36
33
30
30
25
22
22
17
15
15
12
11
11
8
7
8
13
20
31
43
55
64
70
71
68
63
57
52
46
41
38
35
33
33
34
36
38
39
39
39
37
34
32
29
27
25
23
22
21
20
19
18
18
20
27
36
48
61
73
81
84
83
79
73
66
60
55
49
45
42
40
40
40
40
40
41
41
40
39
36
33
30
27
24
22
20
19
18
18
17
17
16
15
14
16
23
32
44
58
70
80
84
84
81
76
71
65
60
56
52
48
45
43
42
41
41
41
41
40
39
37
35
32
30
28
26
24
23
22
22
21
21
20
20
19
18
17
15
14
15
20
30
41
55
69
79
84
83
79
72
65
58
51
45
40
37
34
33
32
33
34
35
35
34
33
30
27
24
21
19
16
15
13
12
11
10
9
8
7
6
9
14
24
36
48
60
68
73
72
68
62
55
48
41
35
31
27
26
26
28
30
32
35
35
35
33
31
28
25
23
21
19
18
17
16
14
14
14
17
25
36
48
62
74
82
85
83
78
72
65
58
51
45
41
38
36
35
35
37
38
38
38
37
35
32
29
27
24
22
20
18
17
16
16
15
14
13
12
15
21
32
45
60
75
85
90
90
90
81
74
74
61
56
56
47
43
43
40
40
40
40
40
40
37
35
35
29
27
27
22
20
18
17
16
15
14
14
13
12
12
12
16
25
38
51
67
80
88
91
89
84
77
69
62
55
48
43
40
37
36
36
36
37
38
38
37
35
32
30
27
24
21
19
17
16
14
13
12
11
10
9
10
15
24
36
49
63
73
79
81
77
72
64
57
49
42
37
33
31
30
32
34
36
38
38
38
37
34
32
29
27
24
22
20
19
17
15
14
13
14
18
27
40
53
67
78
86
88
85
80
74
67
61
54
49
44
41
40
40
40
40
41
41
41
40
38
36
33
30
28
26
24
22
21
20
19
18
17
17
16
16
21
29
41
56
72
86
95
99
98
94
88
81
75
68
62
57
52
49
47
46
47
48
48
48
48
46
44
41
39
36
32
30
27
25
23
22
21
20
19
18
18
21
28
40
53
67
80
88
91
90
86
80
74
69
63
58
54
50
47
45
44
43
43
43
42
40
38
34
30
26
22
19
19
14
13
13
10
9
9
7
8
8
23
35
35
62
73
73
81
77
77
65
57
49
42
37
32
28
27
29
31
34
37
38
39
38
37
35
33
31
29
27
26
23
21
19
17
19
24
33
44
58
71
81
87
87
84
78
72
65
59
53
48
44
41
40
40
41
42
43
42
41
40
37
34
31
29
26
25
23
21
20
18
16
16
18
26
37
50
65
79
89
94
94
90
85
79
73
67
62
57
53
50
49
48
49
49
50
49
48
46
43
40
37
34
31
29
27
25
24
23
22
21
20
20
20
23
31
42
56
71
83
92
97
97
93
88
83
77
72
67
62
59
56
54
53
53
53
52
51
49
47
44
41
38
36
33
30
28
26
25
23
22
21
19
18
16
15
17
22
32
43
57
69
79
84
84
81
76
70
63
57
51
46
42
42
43
43
42
40
38
35
31
28
25
23
21
19
17
16
14
13
14
18
26
37
48
60
71
77
79
78
74
68
62
56
50
45
41
39
38
38
39
40
40
40
40
38
35
33
30
28
26
24
22
21
19
17
16
15
18
26
37
49
62
74
81
84
83
79
73
68
62
56
51
47
43
40
39
39
39
39
39
38
36
34
31
28
26
24
21
21
19
17
17
15
13
13
12
15
15
33
44
44
68
75
75
77
74
74
64
58
54
49
45
41
39
37
36
37
37
38
38
38
36
34
32
29
27
25
23
21
20
19
18
17
16
15
15
18
24
33
45
58
69
77
80
78
74
67
61
54
49
43
39
36
33
32
31
31
31
31
30
28
26
23
20
17
14
12
11
10
9
8
7
6
5
6
11
19
30
41
53
62
67
68
65
59
53
46
40
34
29
25
24
23
24
26
28
29
29
28
27
25
22
20
17
16
14
12
10
9
8
9
14
22
33
44
57
67
72
73
70
65
59
53
47
41
37
34
31
30
30
31
32
32
32
31
29
26
24
21
19
17
15
13
12
11
11
10
9
10
12
19
30
42
56
68
77
82
81
78
72
66
61
56
51
47
44
41
39
39
38
38
38
38
37
34
32
29
26
24
22
20
19
18
17
16
16
16
15
14
13
12
13
17
24
35
48
61
72
80
82
80
76
70
64
58
52
47
42
39
36
35
35
34
34
34
33
32
32
28
26
26
21
19
19
16
15
15
14
13
13
11
10
10
12
18
28
40
52
64
73
77
77
72
66
60
53
46
40
36
32
31
31
33
35
37
38
38
37
35
33
30
27
25
23
21
19
18
16
15
14
14
18
25
35
47
59
70
77
80
78
73
67
60
54
48
42
39
35
33
33
33
34
35
36
35
34
32
30
27
25
23
21
20
18
17
17
16
14
13
12
13
18
27
39
52
66
78
85
86
84
79
73
67
62
57
52
47
44
41
40
40
40
40
40
40
39
37
34
31
28
25
23
21
19
17
16
16
15
14
13
11
11
13
19
30
43
57
71
80
85
84
80
74
67
60
53
47
42
38
34
32
31
30
31
31
31
30
29
26
24
21
19
16
14
12
11
10
9
9
8
7
7
7
11
19
31
44
57
69
77
79
77
71
64
57
50
43
39
34
31
29
29
30
32
33
34
34
33
31
29
26
24
23
22
21
19
18
17
15
15
16
21
30
41
55
68
79
85
85
82
76
69
62
55
48
42
39
36
34
35
36
37
38
38
36
34
31
29
26
24
23
21
21
20
20
19
18
17
17
20
27
38
50
64
76
84
87
86
81
75
69
69
57
52
52
44
41
41
40
40
40
41
40
40
38
35
35
30
27
27
23
21
20
19
19
18
18
17
15
15
16
21
30
43
57
71
82
88
88
85
79
73
67
61
55
51
47
44
42
41
41
42
42
42
41
40
38
35
31
28
25
23
21
19
18
17
16
15
14
14
13
11
12
14
21
32
44
59
71
80
84
83
78
72
65
58
51
45
40
37
35
34
35
36
38
39
39
38
36
33
30
26
24
21
19
18
17
16
15
14
13
13
16
22
32
44
57
69
78
82
82
78
72
65
57
50
44
40
36
34
34
35
36
38
39
39
37
35
33
30
28
25
23
21
19
18
16
15
14
13
16
22
33
46
61
75
85
90
90
86
80
73
66
60
54
49
45
42
40
40
40
41
41
41
40
39
36
33
30
27
25
23
21
20
19
18
17
16
16
15
16
21
29
41
55
70
82
90
92
89
84
78
72
66
60
55
51
47
45
43
42
42
42
41
40
39
36
33
30
27
25
22
20
18
17
15
15
15
13
12
12
10
11
11
27
40
40
67
79
79
85
82
82
69
62
62
49
44
40
37
35
35
36
37
37
37
37
35
33
31
28
26
24
22
20
18
16
14
13
12
14
19
28
40
52
65
75
80
80
76
71
64
57
51
44
40
36
34
34
35
37
38
39
39
38
36
33
30
28
25
23
21
20
18
17
15
14
15
20
29
40
55
69
80
87
89
86
81
74
67
61
55
49
45
42
40
39
40
40
40
40
39
37
35
32
29
26
24
22
20
19
18
17
16
15
14
15
19
27
39
53
67
79
87
89
88
83
77
70
65
59
54
50
47
44
43
42
42
43
43
42
41
40
37
34
30
27
24
22
20
18
17
16
14
13
11
11
14
20
31
43
56
68
76
79
78
74
68
62
56
50
45
41
39
37
36
36
37
38
38
37
36
33
30
27
25
22
20
18
16
14
13
11
10
12
16
24
35
46
57
66
71
72
69
64
58
51
45
40
35
32
30
30
31
34
35
36
36
36
33
31
29
26
25
23
22
20
19
17
16
17
20
28
38
50
62
73
79
81
79
74
69
63
57
52
47
43
40
39
38
38
38
38
38
37
35
33
30
28
27
25
23
22
20
18
16
14
12
9
10
10
20
31
31
56
66
66
76
75
75
67
63
63
55
51
51
44
42
42
40
40
39
39
37
35
33
30
27
25
23
21
19
18
16
15
14
15
20
28
39
50
61
70
74
75
72
68
63
58
53
49
45
42
40
39
39
39
39
39
38
36
34
32
30
27
26
25
23
22
21
20
19
21
26
34
44
56
66
74
77
77
73
68
63
58
53
49
45
42
40
39
38
38
38
38
38
36
34
32
29
27
24
23
22
20
19
18
17
15
14
14
18
25
35
46
57
66
71
70
68
63
57
51
46
41
38
35
33
32
32
32
33
33
32
31
29
27
25
23
22
20
19
18
17
16
15
14
14
17
23
31
41
52
61
67
69
67
63
58
52
46
41
38
35
33
33
34
35
36
37
37
35
34
32
29
27
25
24
23
21
20
19
18
18
21
27
37
47
58
68
74
76
74
69
64
58
52
47
43
40
37
35
34
34
35
35
35
35
33
31
29
27
25
23
21
20
19
19
18
18
17
16
15
15
19
26
26
48
61
61
79
81
81
75
70
70
59
55
55
47
44
44
40
40
40
40
39
38
36
34
32
29
27
25
24
23
22
22
21
21
20
18
16
15
16
20
28
39
50
62
71
76
76
73
67
61
55
50
45
40
38
35
34
34
34
35
36
36
35
33
31
29
27
25
24
22
22
21
20
19
18
18
20
25
33
43
55
66
74
78
77
73
68
61
54
47
42
39
35
33
33
34
35
36
37
37
35
33
30
27
24
22
20
18
16
14
13
12
14
20
29
40
53
64
72
76
75
71
65
58
52
46
40
37
34
32
31
32
33
34
34
34
33
31
28
26
23
21
19
18
17
16
14
13
12
12
14
19
29
41
55
68
78
82
83
79
74
68
62
56
51
47
43
40
38
37
37
37
37
37
37
35
33
31
28
26
24
23
21
20
19
18
17
16
15
14
13
15
21
31
43
58
71
81
86
86
82
76
70
63
57
52
46
42
40
38
37
37
37
37
37
35
33
31
28
25
23
20
18
16
15
14
14
13
12
12
11
10
11
16
25
38
50
63
73
78
78
74
68
62
55
48
42
38
34
31
31
32
33
35
37
37
37
36
34
31
29
27
25
23
21
20
18
18
16
18
18
33
44
44
68
77
77
81
76
76
64
57
57
45
40
40
36
35
35
37
39
39
39
38
36
34
31
29
27
25
23
22
21
19
18
17
19
24
33
44
58
71
81
87
87
84
78
72
66
60
54
49
45
42
40
40
40
40
40
41
41
40
39
36
34
31
28
26
24
22
21
20
20
19
18
17
16
17
22
30
42
56
69
81
88
90
88
83
76
70
64
58
53
49
46
44
42
42
42
42
42
41
40
39
36
33
30
27
24
22
20
18
17
17
17
16
15
14
13
14
18
26
37
49
62
73
79
81
78
73
67
60
54
48
43
40
38
37
37
38
39
39
39
38
35
33
30
27
25
22
21
19
18
17
16
15
15
18
24
34
46
58
70
78
81
80
76
71
64
58
51
45
41
38
36
36
37
38
40
40
40
39
37
35
32
30
27
25
23
21
19
18
16
15
16
20
29
41
55
68
80
87
89
87
82
76
70
64
58
53
49
45
43
42
42
42
43
43
42
40
39
37
28
26
24
22
21
20
19
18
17
17
19
24
34
45
59
73
83
88
88
85
80
75
69
64
59
55
51
48
46
45
44
44
44
44
43
41
40
37
35
33
30
29
27
26
25
24
23
22
21
20
19
17
16
17
21
34
46
59
71
79
83
82
78
72
66
60
54
49
45
42
40
39
39
40
40
40
40
39
36
34
31
28
26
24
22
21
20
18
17
16
16
17
21
29
40
51
62
71
76
77
75
71
65
59
53
47
43
40
39
39
40
40
42
43
43
42
40
38
35
32
29
27
25
23
22
20
19
17
16
16
18
25
36
48
62
74
83
86
86
82
76
70
64
59
53
48
44
41
40
40
40
40
40
40
40
38
36
33
30
28
26
23
21
19
18
16
15
14
13
13
13
15
20
30
42
55
68
78
83
83
80
75
69
64
59
54
50
46
43
41
40
40
40
40
39
37
35
33
30
27
25
23
21
20
19
17
16
15
14
13
11
9
8
9
13
21
33
45
59
70
76
78
75
70
64
58
52
46
42
39
36
35
34
35
36
37
37
36
34
32
30
27
25
22
20
18
17
15
14
13
12
12
16
23
33
44
57
68
75
77
76
71
66
59
53
47
42
38
35
34
34
35
36
36
38
37
37
33
30
30
25
23
23
18
17
17
14
13
13
12
16
23
35
47
60
72
79
82
80
76
70
64
58
53
48
43
40
39
37
37
37
37
37
36
34
33
30
28
26
24
22
20
19
18
17
17
16
16
15
14
14
16
23
33
46
60
73
82
87
86
83
77
71
65
59
54
49
45
42
41
40
40
41
41
41
41
40
38
36
33
30
27
24
22
20
18
17
16
15
15
14
13
11
10
11
16
25
37
50
64
75
81
83
80
74
67
61
54
49
44
40
38
36
36
37
38
39
39
39
37
34
31
28
24
22
19
17
16
14
13
12
10
9
8
9
14
22
34
47
60
71
78
80
78
73
67
61
54
48
43
39
36
35
35
36
38
39
39
39
37
35
32
29
26
23
21
19
17
16
14
13
11
10
11
16
25
38
51
66
78
85
87
85
80
74
67
61
55
50
45
42
40
39
39
39
40
40
40
38
36
34
31
29
27
24
22
21
19
17
16
15
15
15
15
14
13
13
12
14
14
32
45
45
77
88
88
95
92
92
79
72
72
60
55
50
47
45
44
43
44
44
44
43
42
40
39
36
34
32
29
27
25
23
21
20
19
18
18
17
15
14
12
10
11
16
26
39
52
67
78
85
86
83
77
70
63
56
50
45
40
38
37
37
37
38
39
39
39
37
34
32
29
26
23
21
19
17
16
15
13
12
11
12
15
23
34
45
58
69
76
79
77
73
67
60
54
48
43
39
37
36
37
38
40
41
42
42
41
40
37
35
32
30
28
27
25
23
21
20
19
22
30
40
54
68
80
88
91
90
86
81
75
69
63
58
54
50
48
46
46
46
47
47
47
46
43
41
39
37
34
32
30
29
28
26
25
24
22
22
23
27
36
48
62
76
89
97
100
98
94
88
82
76
70
65
60
57
54
52
52
52
52
52
51
50
48
45
42
40
37
34
31
29
28
26
26
25
25
24
22
21
21
25
33
44
57
70
82
89
91
90
85
79
74
68
62
57
52
48
46
44
44
46
46
46
45
44
41
39
36
33
31
29
27
25
23
22
21
19
18
17
16
19
24
34
45
58
69
77
82
81
77
72
65
58
52
46
42
39
38
38
40
41
41
44
44
44
41
40
40
34
32
32
28
26
24
22
20
20
21
26
26
46
59
59
80
85
86
83
78
72
66
60
54
49
46
43
42
43
43
44
45
44
42
40
39
36
33
31
28
26
24
22
20
19
19
18
17
16
15
14
15
21
30
42
57
71
83
89
91
89
84
79
74
68
63
59
54
51
49
47
47
46
46
46
45
43
41
39
36
34
31
29
27
26
25
24
23
22
21
21
20
19
18
17
15
13
12
12
16
25
37
50
65
77
85
87
86
81
76
70
64
59
55
50
46
44
42
41
41
41
40
40
38
36
32
29
26
23
20
17
16
15
14
13
13
12
12
12
11
10
9
8
7
8
13
23
35
48
62
72
78
78
75
69
63
56
49
43
39
35
31
30
30
31
32
33
34
34
33
31
29
27
24
22
20
19
18
17
16
15
14
13
12
14
19
28
40
53
65
76
81
82
79
74
68
62
56
50
45
40
38
36
36
36
37
37
38
37
35
32
30
27
24
22
20
18
16
14
14
12
11
11
11
10
10
8
9
9
22
35
35
65
79
79
91
90
90
80
74
68
62
57
53
49
46
44
43
43
43
43
42
41
40
38
35
32
30
27
24
22
20
18
17
16
15
14
13
13
12
12
12
11
10
9
9
12
20
33
48
64
79
89
93
92
88
82
74
68
62
56
51
47
43
42
41
41
42
43
43
42
40
38
35
31
27
24
21
18
15
14
12
11
11
10
9
8
8
10
15
24
37
51
64
76
83
84
82
77
70
63
56
49
43
39
36
34
34
34
36
37
38
37
36
34
32
30
28
26
24
23
22
21
20
19
18
17
17
21
30
40
54
68
80
89
91
90
85
79
73
66
59
53
48
44
42
41
41
42
43
43
43
41
40
37
34
31
28
25
23
20
19
17
16
15
15
14
13
12
11
13
20
31
45
61
76
88
95
96
93
88
82
76
70
65
60
56
53
50
49
48
48
48
47
46
44
42
39
36
33
30
27
25
23
21
20
19
19
18
18
17
16
15
15
17
23
34
47
62
77
89
95
96
94
89
83
77
70
64
59
54
50
46
44
43
43
43
43
42
40
38
36
32
29
26
24
22
20
18
17
16
15
14
13
12
11
12
17
26
39
52
67
67
85
87
87
80
73
73
59
53
53
42
39
39
37
37
37
40
40
40
40
38
35
33
30
28
26
24
22
21
19
17
16
17
22
30
41
55
69
81
88
91
90
86
81
75
68
62
56
52
49
47
46
47
48
49
49
48
46
43
40
38
35
32
30
29
27
25
24
23
21
20
20
23
31
41
55
70
83
92
97
97
94
89
83
78
73
68
64
60
57
55
55
54
54
54
53
52
50
47
45
42
40
37
34
32
29
27
26
25
24
23
22
21
20
18
18
19
26
36
48
63
77
88
95
96
94
90
85
80
75
70
66
62
58
56
54
53
53
52
51
49
47
44
41
38
35
32
29
26
24
21
20
18
17
16
15
14
13
11
10
9
11
18
28
40
53
66
76
82
82
80
75
70
64
59
53
48
44
42
40
40
40
41
41
40
39
36
33
30
27
25
23
21
20
19
18
18
17
15
15
16
20
28
38
50
62
73
79
82
80
77
71
66
60
54
49
45
42
40
40
40
41
41
41
41
40
40
34
31
31
26
23
23
19
17
17
16
15
15
14
13
13
13
17
25
37
50
64
77
85
88
87
83
78
73
68
64
59
55
51
48
46
45
44
44
43
42
40
39
36
33
30
27
25
23
21
19
17
16
15
14
14
13
13
12
11
10
9
10
13
21
33
46
60
73
81
84
83
80
75
69
64
59
55
51
47
44
41
40
40
39
39
37
35
33
30
28
25
22
20
18
16
15
13
13
12
12
11
10
9
7
6
7
11
19
30
42
56
67
74
77
75
71
65
59
52
46
41
37
34
32
32
33
34
36
36
36
35
33
30
27
24
22
20
18
17
16
14
13
12
11
11
13
20
30
42
55
67
76
81
80
77
71
65
59
52
47
42
39
36
35
35
36
37
37
37
35
33
30
27
25
22
20
18
16
14
13
12
11
11
10
9
9
9
13
22
34
47
62
76
84
88
87
84
78
72
66
61
56
51
47
44
42
41
41
41
41
40
40
38
36
33
30
27
25
22
20
18
17
15
14
14
13
13
12
11
10
9
12
18
29
42
57
72
82
88
89
86
81
74
68
62
57
51
47
43
40
39
39
39
39
38
36
35
32
29
26
23
21
18
16
14
13
12
12
11
11
9
7
7
7
12
12
33
46
46
71
77
77
76
71
71
58
51
51
40
36
33
31
31
33
34
36
37
37
36
35
32
30
27
25
22
21
19
14
15
18
26
37
49
63
75
83
86
85
80
75
68
62
56
50
46
42
40
39
40
40
41
41
41
40
38
35
31
28
25
22
19
17
15
13
12
11
10
8
7
7
11
19
31
46
62
76
87
92
92
89
83
77
68
63
57
53
49
46
45
44
44
44
43
42
41
39
36
33
30
27
25
22
20
17
16
14
13
13
12
12
12
11
10
9
9
13
21
33
48
64
79
89
94
93
89
83
76
69
63
57
52
48
44
42
40
40
40
40
40
38
36
33
29
26
23
20
18
15
13
12
10
9
9
9
9
8
7
6
5
7
12
23
36
51
65
77
84
86
83
77
70
62
55
48
42
39
36
34
33
34
35
37
38
38
38
36
33
30
26
23
21
19
18
17
15
14
12
10
10
12
20
31
44
59
73
83
88
88
88
78
72
72
59
53
53
43
40
40
40
40
40
43
42
42
39
36
36
30
27
27
22
19
17
15
14
13
13
13
12
11
11
12
17
27
40
54
70
84
92
95
94
89
83
77
71
65
60
56
52
50
48
47
47
48
48
47
45
42
40
37
33
30
27
24
22
20
18
17
16
15
15
15
14
13
12
11
11
14
22
33
47
63
77
88
93
93
89
83
77
71
65
59
54
49
46
44
43
43
44
44
43
42
40
37
34
31
29
26
23
21
19
17
16
16
15
14
13
12
11
11
13
20
30
43
57
70
80
85
85
82
76
70
62
56
49
44
40
39
38
39
40
42
44
44
43
41
40
37
34
30
27
25
23
21
19
18
16
15
14
16
22
31
43
57
70
81
88
90
87
83
77
70
63
56
51
47
44
42
42
43
44
45
45
44
42
40
38
35
31
28
25
23
21
19
18
17
16
15
14
13
13
15
21
32
45
61
76
87
94
96
93
89
83
78
72
66
61
57
54
51
50
49
49
49
48
47
45
43
40
38
35
32
29
26
24
22
20
19
18
18
17
16
16
14
13
11
11
13
20
32
46
62
77
88
95
95
92
87
81
75
69
64
59
54
50
47
46
45
44
44
43
43
40
38
38
31
28
28
22
19
19
15
14
14
12
11
11
8
7
7
6
10
18
29
43
57
70
79
83
82
78
71
64
57
50
44
40
36
34
34
36
38
40
40
40
40
38
36
33
29
26
24
22
20
18
17
15
14
13
14
19
28
40
53
67
78
85
87
85
80
74
67
60
54
48
43
40
39
38
39
40
41
41
40
39
37
34
31
28
25
22
20
18
16
15
14
14
13
12
11
11
14
22
34
48
65
79
90
95
95
92
86
80
73
67
62
57
53
50
48
47
46
46
46
45
44
42
40
37
34
31
28
26
23
21
19
17
16
15
15
14
14
13
11
10
10
13
22
35
50
66
80
90
95
94
90
84
77
70
63
57
52
47
44
43
42
43
43
43
43
41
40
37
34
31
27
24
22
19
17
15
14
13
12
11
10
8
8
11
18
29
41
55
69
79
84
84
80
74
67
59
52
46
40
38
36
35
36
39
40
41
42
41
40
37
34
31
27
25
22
20
19
18
17
17
14
14
14
24
35
35
63
76
76
90
90
90
80
74
74
60
54
54
45
43
43
42
43
44
44
43
41
40
37
33
30
27
24
22
20
19
17
16
16
15
13
12
11
12
17
27
40
55
71
84
93
96
95
91
85
79
73
67
62
58
54
51
49
49
48
49
49
48
46
44
41
38
34
31
28
26
23
21
19
18
17
16
15
15
15
14
13
12
10
9
12
19
30
44
60
75
87
93
93
90
85
79
72
66
60
55
50
46
44
42
42
42
42
42
40
39
36
33
30
27
23
21
18
16
15
14
13
13
12
10
9
7
7
11
19
31
43
57
70
78
81
80
76
70
62
55
48
42
38
34
33
33
35
37
38
39
38
37
34
31
28
25
22
19
17
15
14
13
12
11
10
13
19
29
41
56
69
80
87
88
85
81
74
68
61
54
49
44
41
40
40
41
42
42
41
40
39
36
32
29
25
22
19
16
14
13
12
11
11
10
10
8
7
6
8
14
25
39
54
71
84
92
95
94
90
84
77
71
65
60
55
52
49
48
47
46
46
46
45
43
41
39
35
32
28
25
22
20
18
16
14
13
12
11
11
10
9
8
6
5
3
4
10
20
35
52
69
84
93
97
95
91
91
58
55
55
48
45
45
42
41
41
40
40
40
40
39
39
36
34
34
31
30
28
27
26
26
25
25
25
24
23
23
22
23
26
31
38
45
53
58
62
63
61
59
55
51
48
44
41
40
38
38
38
39
40
40
41
40
40
39
38
36
34
33
31
30
29
28
27
26
25
25
27
31
37
43
51
58
64
66
66
65
62
58
55
52
48
46
43
42
41
41
41
42
42
42
41
40
39
38
36
34
33
32
31
30
29
28
28
27
27
26
26
27
31
36
43
51
59
66
70
71
70
68
65
62
59
56
53
51
49
48
47
47
47
47
47
46
45
43
42
40
39
38
36
35
34
33
32
32
31
30
30
29
29
29
31
36
42
49
57
64
68
70
69
68
65
62
59
56
54
52
50
49
48
48
47
47
47
46
44
43
41
40
37
35
34
32
31
31
30
30
29
29
28
27
26
26
28
31
36
42
50
58
64
67
68
66
63
60
56
53
50
47
45
43
43
43
43
44
44
44
43
42
40
39
38
38
34
33
33
31
29
29
27
27
27
30
34
34
47
54
54
64
65
65
62
59
56
53
49
46
44
42
41
41
42
43
43
43
42
41
40
38
36
35
33
32
31
30
29
28
27
26
26
26
28
32
38
45
53
60
65
68
68
67
64
61
58
55
53
50
48
47
46
45
45
45
45
44
43
42
40
39
37
36
34
32
31
30
29
28
28
27
27
26
25
25
27
32
38
45
53
60
65
67
67
65
63
60
57
54
51
49
47
45
44
44
43
43
43
42
41
40
39
37
35
33
32
31
29
28
28
27
26
26
25
25
25
24
23
22
23
25
29
36
43
51
58
63
65
64
62
58
55
51
48
45
43
41
40
40
40
40
40
40
40
39
38
36
34
33
31
29
28
27
26
25
24
23
23
23
24
27
33
39
45
51
55
57
57
55
52
49
45
41
39
37
35
35
35
36
37
38
39
38
37
36
34
33
31
30
29
28
27
26
25
25
24
25
28
33
40
46
54
60
64
65
64
61
58
55
51
48
45
42
40
40
40
40
40
40
40
40
39
37
36
34
32
30
29
28
27
26
25
25
24
24
23
22
22
24
29
35
42
51
58
64
67
67
65
62
59
56
52
49
46
46
42
41
41
41
41
41
40
40
40
38
36
36
33
31
31
28
27
27
25
25
25
24
23
23
23
26
30
37
44
51
58
63
65
65
63
61
58
55
52
50
48
47
46
45
45
45
45
44
43
41
40
38
36
33
32
30
29
28
27
26
25
25
24
25
27
31
37
43
51
57
61
63
62
60
57
53
49
46
43
41
40
40
40
40
40
41
41
41
40
39
38
36
34
32
30
29
27
26
25
25
26
30
36
42
50
57
62
65
65
64
61
58
54
51
48
45
43
42
41
41
41
41
41
40
40
39
37
35
33
32
31
29
29
28
27
26
26
28
31
37
43
51
57
62
64
63
61
57
53
49
45
42
40
38
37
37
37
38
38
39
38
38
36
35
33
31
30
29
27
26
25
24
23
23
24
27
32
39
45
52
57
59
59
57
53
49
46
42
40
37
36
36
36
37
39
40
40
40
39
38
36
35
33
32
31
29
28
27
27
28
30
35
40
47
54
59
62
63
61
59
55
51
48
45
42
42
40
39
39
40
40
40
40
40
40
36
34
34
30
29
29
27
27
27
26
26
25
25
26
29
35
41
49
57
63
66
67
65
63
59
56
53
50
48
45
44
42
42
42
42
42
41
40
40
39
37
36
34
33
32
31
30
30
29
29
29
28
28
27
26
27
28
33
39
46
53
60
64
66
65
63
60
57
53
51
48
46
44
42
41
41
41
41
41
40
40
39
37
35
34
32
30
29
28
27
26
25
25
24
23
23
22
21
21
23
27
34
40
48
55
59
61
60
58
54
51
48
45
42
38
39
39
39
39
38
37
35
33
32
30
29
28
27
26
25
24
23
23
23
24
28
33
40
46
52
56
58
57
55
52
48
44
41
39
37
36
36
36
38
39
40
40
40
39
37
36
34
33
31
30
29
28
27
26
27
30
36
42
49
56
62
65
65
63
60
56
53
49
45
43
40
40
39
40
40
40
40
40
40
39
37
36
34
32
31
30
29
28
27
27
26
26
25
26
28
32
39
46
54
61
65
67
66
63
59
56
52
49
46
44
42
40
40
40
40
40
40
40
39
37
36
34
33
31
30
29
28
27
26
26
26
25
25
24
25
27
32
38
45
52
58
62
63
61
61
55
52
52
45
42
42
39
38
38
37
37
37
37
36
36
34
32
32
29
27
26
25
24
23
23
23
23
23
22
22
22
24
27
33
39
46
52
56
58
57
55
51
47
43
40
37
35
33
33
33
34
35
35
36
35
35
34
32
31
29
28
27
26
26
25
24
24
23
24
26
30
35
40
47
52
55
56
54
52
48
44
41
38
35
34
32
32
33
34
35
36
36
36
35
34
32
31
30
28
27
26
25
24
23
22
21
22
26
31
38
44
51
56
59
58
56
53
50
46
43
40
39
37
36
35
35
35
36
36
36
36
35
34
32
31
29
28
27
26
25
24
24
24
23
23
23
22
22
23
26
30
37
44
51
56
59
60
58
55
52
49
46
43
40
40
38
37
37
37
38
38
38
38
37
36
35
33
32
30
29
28
27
26
25
24
24
24
23
23
22
22
23
27
32
39
45
51
55
57
56
53
50
46
43
40
38
36
34
33
33
34
35
35
35
35
34
33
32
30
29
27
26
26
24
24
24
22
22
22
22
25
25
35
40
40
51
53
53
51
56
56
42
37
31
27
24
24
25
27
30
32
34
34
33
31
29
25
23
20
18
16
15
13
11
10
10
13
21
32
44
57
69
76
78
76
71
65
58
51
45
40
37
34
33
33
34
35
35
36
35
33
31
29
26
23
21
20
18
17
16
15
14
13
13
13
15
22
32
44
58
70
79
83
83
79
74
68
62
57
52
48
45
43
42
41
41
42
42
42
40
39
37
34
31
29
27
25
23
22
21
21
20
20
20
19
18
17
18
20
27
38
50
63
75
84
87
86
82
76
70
63
58
53
49
45
43
42
42
42
42
42
41
40
39
36
34
31
28
25
23
21
20
18
18
17
17
16
15
14
13
12
12
14
21
31
42
55
66
74
77
75
71
64
58
51
45
40
36
34
33
33
35
37
38
39
38
36
34
31
28
25
23
21
20
19
18
18
17
16
15
17
22
30
40
52
64
73
78
78
74
69
63
56
50
45
41
39
37
37
38
40
40
40
40
39
37
34
31
29
26
24
22
20
18
18
17
17
17
16
15
14
14
16
21
31
43
57
70
81
86
86
83
78
71
66
60
55
51
47
44
43
42
42
42
42
42
40
39
39
34
31
31
27
25
25
22
20
20
18
18
18
17
16
16
16
15
14
13
12
12
14
21
32
45
60
74
85
90
90
86
80
74
68
62
57
52
49
46
44
43
44
44
44
43
42
40
39
36
33
31
28
26
25
24
22
21
21
21
20
19
19
18
18
17
16
14
13
11
9
8
11
18
30
43
59
72
82
86
85
80
73
66
59
52
46
41
38
35
34
34
36
37
38
38
37
35
32
30
27
24
21
19
17
15
14
14
13
13
12
12
11
11
10
11
15
23
34
46
59
71
78
81
78
73
67
60
53
47
42
39
37
36
36
37
39
40
40
39
37
35
31
29
26
23
21
19
18
17
16
16
15
15
14
13
12
12
14
20
30
42
57
71
82
88
89
86
80
74
68
62
56
51
47
44
42
41
42
42
43
43
43
41
40
37
34
31
28
26
24
22
21
20
20
19
18
18
17
17
16
15
14
13
13
16
23
35
50
65
80
90
94
94
89
83
76
70
64
59
59
51
48
48
46
46
46
47
46
46
43
41
41
35
32
32
26
24
24
20
18
17
17
16
16
16
15
15
14
13
12
10
9
9
14
23
36
50
65
79
87
89
87
82
75
67
60
53
48
43
40
39
39
40
41
42
43
43
41
40
37
34
31
28
26
25
24
23
22
22
21
19
18
17
17
20
26
36
48
62
74
84
89
89
85
80
73
66
59
53
48
44
42
41
41
43
44
45
45
43
41
39
36
33
30
27
25
23
21
20
19
18
18
17
17
17
16
15
14
17
23
33
47
63
78
91
98
100
97
92
86
80
74
69
64
60
57
54
52
51
51
51
51
50
49
47
44
41
39
36
33
30
28
26
25
24
23
22
22
21
21
20
19
17
16
15
17
24
36
50
66
82
94
100
101
98
92
62
59
56
53
50
48
46
45
44
44
44
44
44
43
42
40
40
38
36
35
33
32
31
30
30
30
29
29
29
28
27
26
26
27
30
35
41
49
56
61
63
63
61
58
55
52
48
45
43
41
40
40
40
41
42
43
43
42
41
40
39
37
36
35
34
33
32
31
31
30
30
30
32
36
41
48
54
60
64
65
64
62
59
56
54
51
48
46
44
43
43
43
44
44
44
44
44
42
40
40
38
36
36
34
33
33
31
31
31
29
29
29
30
33
33
44
52
59
66
69
70
69
67
65
62
59
57
54
52
51
50
49
49
49
48
48
47
46
45
43
41
40
39
38
37
36
35
34
34
33
33
33
32
32
31
31
32
35
40
46
53
60
66
69
69
68
66
64
61
59
56
54
52
51
50
49
49
49
49
49
48
47
46
44
42
40
40
38
36
35
34
33
32
31
31
31
30
29
28
28
27
28
31
35
41
48
55
60
63
64
63
60
58
55
52
49
47
45
43
43
43
43
43
43
43
42
41
40
39
37
35
34
33
32
32
31
31
30
30
29
29
30
32
37
41
48
53
58
60
60
58
56
53
50
47
44
42
40
40
40
40
40
40
40
40
39
37
36
34
32
31
30
29
28
27
27
26
26
25
25
25
24
24
23
24
26
29
35
41
49
55
59
61
60
58
56
53
51
49
46
44
43
41
40
40
40
40
40
39
39
38
36
35
34
33
32
31
30
29
29
28
27
27
27
26
26
26
25
25
23
22
22
24
28
34
40
47
47
58
60
59
57
54
51
49
46
44
42
40
40
39
39
38
38
38
37
36
35
33
32
30
29
28
27
26
26
26
25
25
25
25
25
24
23
23
22
23
26
31
37
42
48
52
54
54
52
49
46
43
41
39
37
35
35
34
35
35
36
36
36
36
35
34
32
31
30
29
29
28
28
28
27
27
27
26
26
28
31
36
40
46
52
55
56
55
53
50
47
44
42
40
39
37
36
36
36
37
37
37
37
36
35
33
32
31
30
29
28
27
27
27
26
26
26
26
26
26
26
25
25
25
27
31
37
43
50
56
61
62
61
58
55
52
49
47
45
43
41
40
40
40
40
40
40
39
39
38
36
35
33
32
31
30
29
29
28
28
28
27
27
27
27
27
27
27
26
25
25
25
26
31
37
43
51
57
62
63
63
60
57
54
52
49
46
44
43
41
40
40
40
40
41
41
40
40
39
37
36
34
32
31
30
28
28
27
27
26
26
26
26
26
25
25
24
23
23
23
26
31
37
44
51
57
60
61
59
56
52
49
45
42
40
38
37
36
36
36
37
38
38
38
38
36
35
33
32
31
30
29
29
28
28
28
28
28
28
27
27
27
32
38
38
50
56
56
62
61
61
55
51
51
45
42
40
39
38
37
38
38
39
39
39
38
37
36
34
33
31
30
29
28
28
27
27
27
27
27
26
26
26
26
26
29
34
40
48
56
62
66
67
66
63
59
56
52
50
47
44
43
41
40
40
40
41
41
41
40
40
39
37
36
34
33
32
31
30
29
29
28
28
28
28
28
27
27
26
26
28
32
39
46
54
60
65
67
66
63
60
57
54
51
49
47
45
44
43
43
43
43
43
42
41
40
38
36
34
32
30
29
28
27
27
27
27
27
27
27
26
26
26
28
32
37
44
51
57
62
64
63
61
58
54
51
47
44
42
40
40
39
40
40
40
40
40
39
33
32
32
31
30
30
29
29
29
30
32
37
42
48
55
61
64
65
64
61
58
54
50
47
44
42
41
40
40
41
42
43
43
43
42
41
40
38
37
35
33
32
31
30
30
29
28
28
29
31
36
41
49
57
63
68
68
67
64
64
58
55
55
49
47
47
45
44
44
44
44
44
43
42
42
39
38
38
35
34
33
32
31
31
31
31
30
30
30
29
29
29
32
38
44
52
60
66
70
70
69
66
63
60
57
54
51
49
47
46
45
45
45
45
45
44
43
42
41
40
39
38
37
35
35
34
33
32
32
31
31
31
30
30
29
28
27
26
28
32
38
44
52
60
65
68
67
65
61
58
54
50
47
45
43
41
41
41
41
42
42
41
41
40
39
37
35
34
32
31
30
29
29
28
28
27
26
26
25
26
28
33
39
45
52
57
61
62
61
58
55
52
48
45
42
40
40
39
39
40
40
41
41
41
40
39
38
36
34
32
31
30
29
28
28
28
27
27
26
26
26
29
33
40
47
54
61
65
66
65
62
59
55
52
49
46
44
42
41
41
41
41
42
42
42
41
40
39
37
35
34
33
32
31
30
29
28
28
28
27
27
27
26
26
25
25
25
27
31
38
45
54
62
67
70
69
67
63
60
56
53
50
48
45
44
43
43
43
43
43
42
42
40
40
38
37
35
34
32
31
30
29
28
28
28
27
27
27
27
27
26
26
25
24
24
24
27
33
40
48
56
63
67
67
65
62
58
54
51
51
45
42
42
40
40
40
41
41
41
41
40
40
38
36
36
33
31
31
29
29
28
28
28
27
27
26
26
25
26
29
34
40
46
53
59
62
63
61
58
54
51
47
44
41
40
39
39
39
40
41
41
42
41
40
40
38
36
34
33
31
30
29
28
28
27
26
26
27
30
35
41
49
56
62
65
65
64
61
57
53
49
46
43
40
39
38
38
39
39
40
40
40
39
38
36
35
33
32
30
29
28
27
27
26
26
26
25
25
24
25
29
34
41
50
58
65
69
70
68
65
62
58
55
52
49
47
45
44
44
44
44
45
45
44
43
42
40
39
38
36
34
33
32
31
30
30
29
29
30
29
29
29
28
28
29
33
40
46
54
62
67
70
69
67
64
60
56
53
49
47
44
43
42
42
43
43
43
43
42
41
40
39
38
36
35
33
32
31
30
29
28
28
27
27
29
33
39
45
52
58
63
64
64
61
57
53
49
45
42
40
38
38
38
39
40
41
41
41
41
40
39
37
37
34
32
32
30
29
29
27
27
27
30
35
35
48
55
55
65
66
66
62
58
58
51
47
44
42
40
40
40
40
41
41
42
41
40
40
38
36
34
33
31
30
29
29
28
28
27
26
26
26
27
30
36
42
50
59
65
69
70
69
67
63
60
57
55
52
50
48
47
46
46
46
46
46
45
44
43
41
40
39
37
36
34
33
32
31
30
30
29
29
29
28
28
27
26
27
31
37
43
52
60
66
69
70
68
65
62
59
56
53
50
48
46
45
45
45
45
45
45
44
43
41
40
39
37
35
33
32
30
29
28
27
27
27
26
26
25
25
24
23
24
26
31
38
45
53
60
64
65
64
61
57
53
50
46
43
41
40
39
39
40
40
41
41
40
40
39
37
35
33
31
30
29
28
27
26
26
25
24
24
23
24
27
32
39
46
53
59
63
63
62
59
56
52
48
45
42
40
39
38
38
38
39
40
39
39
38
37
35
33
32
30
29
27
26
26
25
24
24
24
24
23
23
22
21
22
24
30
37
45
54
62
67
69
68
66
63
59
56
53
50
47
45
44
43
43
43
43
43
42
41
40
39
37
35
33
32
30
29
27
26
26
25
24
24
24
23
23
23
22
22
21
21
21
21
25
25
39
47
47
63
67
67
66
63
63
55
52
52
45
43
43
41
40
41
41
42
41
41
40
39
38
36
34
32
30
28
27
26
25
24
24
24
23
23
22
22
21
20
21
24
29
36
44
51
58
62
62
61
58
54
50
46
42
40
37
35
34
34
35
35
36
37
36
35
34
32
31
29
27
26
25
24
23
22
21
21
21
22
25
31
38
45
53
59
63
64
62
60
56
52
48
44
41
40
38
38
38
39
40
40
40
40
39
38
36
34
32
30
29
28
27
26
25
24
24
24
27
32
39
46
55
61
66
67
66
64
60
57
53
50
47
44
42
41
41
41
41
42
42
41
41
40
39
37
35
34
32
31
30
29
28
28
28
27
27
26
26
27
31
37
44
52
60
66
69
69
68
65
62
58
55
52
49
47
45
44
44
44
44
44
44
43
42
41
40
39
37
35
34
33
32
31
30
30
29
28
28
27
27
27
30
34
40
48
55
61
65
66
65
62
58
55
51
48
45
43
41
40
40
41
41
41
42
41
41
39
38
38
34
32
32
30
29
29
27
26
26
25
27
31
36
42
49
55
59
61
60
58
55
51
48
44
41
40
39
38
39
40
40
41
42
41
40
40
38
36
35
33
32
31
30
29
28
27
28
31
35
41
48
55
61
64
66
65
62
59
56
53
50
48
46
44
43
43
43
44
44
44
43
42
40
40
39
38
37
36
35
35
34
33
31
30
29
31
34
39
45
52
58
62
64
63
62
60
58
55
53
51
49
47
46
45
45
45
44
44
43
42
40
40
38
36
34
33
32
30
29
29
28
29
31
35
40
47
54
60
63
64
63
61
59
56
53
50
48
46
44
43
42
42
41
41
41
40
40
38
37
35
34
33
32
31
30
29
29
29
29
32
36
41
48
54
59
62
62
61
58
55
52
49
46
44
42
41
40
40
40
40
40
40
39
38
37
35
33
31
30
29
27
26
26
25
24
23
22
22
23
26
31
38
45
52
57
59
59
58
55
52
48
45
43
40
40
39
38
38
39
39
39
38
37
36
34
32
30
29
27
26
25
24
23
22
22
23
26
31
37
43
50
54
57
58
56
53
50
46
43
40
38
37
36
36
37
38
39
39
39
38
38
35
33
33
30
29
29
27
26
26
25
26
26
35
41
41
55
60
60
61
59
59
53
49
46
44
41
40
39
39
38
39
39
39
38
37
36
35
33
31
30
29
28
27
26
26
25
25
24
24
26
30
37
43
51
58
62
64
63
61
58
55
52
49
47
45
43
41
40
40
40
40
40
40
39
38
37
35
33
32
30
29
28
27
26
25
25
25
25
24
24
24
23
22
22
22
25
30
38
45
54
61
64
65
63
60
57
53
49
46
43
41
40
39
39
39
39
40
39
39
38
37
35
33
32
30
29
27
26
25
25
24
24
23
23
22
22
22
25
29
36
42
49
55
59
60
58
55
52
48
44
40
38
36
35
35
36
37
39
40
40
39
38
37
35
33
32
30
29
28
27
26
25
24
25
27
31
38
44
51
57
61
62
61
58
55
51
48
45
42
40
39
38
38
39
39
40
40
39
38
36
35
33
31
30
28
27
26
25
25
25
24
24
24
23
23
24
26
31
39
46
54
61
65
66
65
65
58
55
55
48
46
46
42
40
40
40
40
40
40
40
40
38
36
36
33
31
30
29
28
27
26
26
25
25
25
24
24
24
23
23
22
22
22
24
29
36
44
53
61
66
67
66
64
60
56
52
49
46
43
41
40
40
40
40
40
40
40
40
38
37
35
33
31
30
28
27
26
25
24
24
24
24
23
23
23
23
22
21
20
20
22
27
34
41
49
57
61
63
61
58
54
49
45
41
39
36
34
34
34
35
36
37
37
37
36
35
33
32
30
29
28
27
26
26
26
25
25
25
24
25
27
31
37
43
51
58
62
64
63
60
57
52
48
44
40
38
37
36
35
36
37
38
38
38
38
36
35
33
32
30
29
27
26
25
25
25
24
24
24
24
23
24
25
28
34
41
50
58
65
68
69
67
63
59
55
52
49
46
43
42
41
40
40
40
40
40
40
40
39
37
36
34
32
31
30
29
28
28
27
27
27
27
27
27
26
26
26
27
30
36
42
51
59
65
68
68
66
63
59
55
51
48
45
43
42
41
41
41
41
42
42
41
40
40
38
36
34
32
31
29
28
27
26
25
24
23
23
23
25
30
36
43
51
58
63
64
63
60
56
52
48
44
41
39
37
37
37
37
38
39
40
40
39
37
35
34
32
31
30
29
29
28
28
28
28
28
28
30
34
40
46
53
59
63
64
63
60
57
53
48
44
42
40
40
40
40
40
41
42
42
41
40
39
38
36
34
33
32
31
30
30
30
29
28
28
28
30
34
40
46
54
61
65
67
67
64
61
58
55
52
50
47
46
44
44
44
44
44
44
44
43
42
40
40
38
37
35
34
34
33
33
33
33
32
32
31
31
31
33
36
41
48
55
61
66
68
68
66
63
60
57
55
52
50
48
46
45
44
44
44
44
44
43
42
41
40
39
38
36
35
35
34
33
33
32
32
31
30
29
28
27
26
28
32
38
44
50
56
58
59
57
54
51
48
45
43
41
40
39
39
39
39
40
40
40
39
38
36
35
34
33
32
31
31
31
30
30
29
29
28
30
32
37
42
48
53
57
59
58
57
54
51
47
44
41
40
39
38
38
39
40
40
40
40
40
39
37
36
34
33
32
32
31
30
29
29
29
29
32
36
36
47
54
54
62
62
62
58
55
55
49
46
46
42
40
40
40
39
39
39
39
38
37
36
35
33
32
31
31
30
29
29
29
28
28
27
27
26
26
26
29
34
40
47
53
58
61
61
59
57
55
52
50
48
46
44
43
42
41
40
40
40
40
40
39
38
36
35
34
33
32
31
31
30
30
30
29
29
29
28
28
27
26
27
29
34
40
45
52
57
59
59
58
55
52
49
47
44
43
41
40
40
39
39
39
39
39
38
37
35
34
33
32
31
30
29
28
28
28
28
28
27
27
26
26
27
29
33
39
44
50
54
56
56
54
52
49
46
43
41
40
39
38
38
38
39
40
40
40
39
38
37
35
34
33
32
31
30
30
29
28
28
27
28
30
33
38
43
49
54
57
58
57
55
52
49
46
44
42
40
39
38
38
38
38
38
38
38
37
35
34
33
32
31
29
29
28
27
27
27
26
26
26
26
26
26
25
25
24
25
28
33
40
47
54
60
64
64
63
60
57
54
51
48
46
44
43
41
41
40
40
40
40
40
40
39
37
36
34
33
32
31
30
29
29
28
28
28
27
27
27
27
27
26
26
26
25
25
24
24
24
27
32
39
46
54
61
65
66
64
64
57
54
54
48
45
45
41
40
40
39
39
39
39
38
38
36
34
34
31
30
29
28
27
27
27
26
26
26
26
26
26
26
25
24
24
23
24
28
33
40
46
53
57
59
59
57
53
50
46
42
40
38
37
36
36
37
38
39
40
40
39
38
37
35
33
32
30
29
28
28
27
27
27
26
26
26
26
28
32
38
44
51
57
61
63
62
59
55
52
48
45
42
40
39
38
37
37
38
38
39
38
38
37
36
34
33
31
30
29
28
27
26
26
26
25
25
26
26
25
25
25
24
25
28
33
40
48
56
63
67
68
66
63
59
55
51
48
45
43
41
40
40
40
40
40
40
40
40
39
37
35
34
32
31
30
29
28
28
27
27
27
27
26
26
26
26
25
25
24
23
23
23
25
30
37
45
54
61
66
68
66
63
59
55
50
47
43
40
39
38
38
38
39
39
40
40
39
38
37
35
33
31
30
28
27
26
26
26
25
25
25
25
24
24
23
25
28
34
40
48
54
59
59
61
59
59
51
47
47
40
38
38
35
35
35
37
39
39
40
40
40
37
36
34
32
31
30
29
28
27
27
26
26
26
26
27
32
38
45
53
60
66
68
67
65
61
57
53
49
46
43
41
40
39
39
40
40
40
40
40
40
38
36
35
33
31
30
29
28
28
27
27
27
27
27
27
26
26
26
27
31
37
44
53
61
67
70
70
68
65
61
57
54
51
48
46
44
43
43
43
43
43
43
43
42
41
40
39
37
36
34
33
32
31
30
29
29
29
29
29
29
29
28
28
28
28
31
37
44
52
60
67
70
71
69
66
62
58
54
51
48
45
43
42
42
42
43
43
43
43
42
41
40
38
37
35
34
33
33
32
32
32
31
31
30
29
29
31
34
40
45
52
58
62
63
62
60
56
53
49
46
43
41
40
40
40
41
42
43
44
44
44
42
41
40
39
37
36
35
34
33
32
32
31
31
33
37
42
49
57
63
67
68
67
65
62
58
54
51
48
45
43
43
42
43
44
44
44
44
43
41
40
39
38
36
35
34
33
32
31
31
31
31
30
30
29
29
32
36
41
49
57
63
67
69
68
65
62
59
56
53
51
48
47
45
44
44
44
44
44
44
43
42
40
40
40
36
35
33
32
32
32
30
30
30
29
29
29
28
27
27
26
28
28
37
44
52
58
63
65
65
62
59
56
53
50
47
45
44
42
42
41
42
42
42
41
41
40
39
37
35
34
32
31
30
29
28
27
27
27
26
26
25
25
24
23
24
27
31
38
44
51
57
60
61
60
57
54
51
47
44
41
40
39
38
38
38
39
40
40
40
39
37
36
34
33
31
30
29
29
28
28
27
26
26
26
27
29
34
40
45
51
56
58
58
56
53
50
47
44
41
40
38
37
37
37
38
39
39
38
38
36
35
33
32
31
29
28
28
27
27
26
26
25
25
26
29
34
40
46
53
58
61
61
59
57
54
51
48
46
43
41
40
40
39
39
39
39
39
38
37
36
35
34
32
31
30
29
29
28
28
28
28
27
27
27
26
25
26
28
32
38
44
51
58
61
62
61
59
56
54
51
49
46
44
42
41
40
40
40
40
40
39
39
38
37
35
34
33
32
31
30
30
29
29
28
28
27
27
27
26
26
24
24
24
24
28
28
40
47
47
59
61
61
58
54
54
47
44
41
40
38
36
36
36
37
38
38
38
38
37
36
35
34
32
31
30
29
28
28
27
26
26
25
24
25
27
32
37
42
48
52
55
55
53
51
48
46
43
40
39
38
37
36
37
38
38
39
39
38
37
36
34
33
31
30
29
28
28
27
26
26
26
28
31
36
42
48
54
58
60
59
57
54
50
47
44
41
40
39
38
37
37
37
38
38
38
37
36
35
34
32
31
30
28
28
27
26
26
26
26
25
25
25
28
32
38
45
52
58
62
63
62
60
56
53
50
47
45
43
41
40
40
40
40
40
40
40
39
38
37
35
34
32
31
30
29
28
27
27
27
27
27
27
26
26
26
27
30
35
41
49
56
62
66
67
65
62
59
56
53
51
48
46
45
44
43
43
43
43
43
42
41
40
39
37
35
33
32
30
29
28
27
27
27
26
26
26
25
25
25
27
32
38
44
51
57
61
62
61
58
55
51
47
44
41
40
39
38
38
39
40
40
40
40
39
37
36
34
33
32
31
30
29
29
28
28
27
27
29
32
37
42
49
55
60
62
61
60
57
53
50
47
44
42
41
40
40
40
40
41
41
41
40
40
39
37
37
34
33
33
31
30
30
29
29
29
28
28
28
28
32
37
43
50
57
63
65
65
63
60
57
54
52
49
47
45
43
42
42
42
42
42
42
42
41
40
39
38
36
35
34
33
32
31
31
31
30
30
30
30
29
29
28
27
28
30
35
41
49
56
63
66
67
65
63
60
57
54
51
49
47
45
44
43
43
43
43
43
43
42
41
40
39
37
36
34
33
32
32
31
30
30
29
29
28
28
27
26
26
26
28
32
38
44
52
58
62
63
62
59
56
52
49
46
43
41
40
39
39
39
39
40
40
40
39
37
36
34
33
32
31
30
29
29
28
27
27
26
26
26
28
33
39
44
51
56
60
60
59
57
53
50
46
43
41
40
39
39
39
40
40
41
41
41
40
39
38
36
34
33
32
31
30
29
28
28
27
26
27
29
33
39
45
53
58
62
63
62
59
56
53
49
47
44
42
40
40
40
40
40
40
40
40
39
38
37
35
34
33
32
31
30
29
29
28
27
27
27
26
26
25
25
25
25
29
29
40
49
49
63
67
67
66
63
60
56
53
50
47
45
43
42
41
41
41
42
42
41
41
40
39
38
36
35
33
32
31
30
29
28
28
28
28
27
27
27
27
26
26
25
25
27
31
38
45
53
61
66
60
56
52
49
46
44
42
40
40
40
40
40
40
40
39
38
36
35
33
31
30
28
27
26
26
26
26
26
26
25
25
24
23
24
26
31
37
43
51
57
57
62
61
61
54
50
50
42
40
40
35
34
34
35
37
38
38
38
38
37
36
35
33
32
31
30
29
28
27
27
26
26
27
30
35
41
49
56
62
65
65
63
60
56
51
48
44
41
40
38
38
38
38
39
40
40
40
39
37
36
34
33
31
30
29
27
26
26
26
25
25
25
24
24
24
26
31
38
45
54
62
68
71
70
68
65
61
57
54
51
48
45
44
43
42
42
42
42
42
42
41
40
39
37
35
34
33
31
30
29
29
28
28
27
27
27
26
26
25
25
25
28
33
40
48
56
64
69
71
70
67
64
60
57
53
50
47
44
43
42
41
42
42
42
42
41
40
40
39
37
35
34
32
31
30
29
29
28
28
27
26
26
26
29
29
40
48
48
61
64
64
63
60
60
52
48
48
41
40
40
38
38
38
40
41
41
41
41
40
39
38
36
35
34
33
32
31
30
29
28
28
30
35
40
47
55
62
66
68
67
65
61
57
54
50
47
45
43
42
41
42
42
43
43
43
42
41
40
39
37
36
34
33
32
31
30
29
28
27
27
28
31
36
43
52
60
67
71
72
71
69
65
62
59
56
53
51
49
48
47
47
47
47
47
46
45
44
43
41
40
39
37
36
35
33
32
32
31
30
29
28
28
27
29
33
40
47
56
63
69
72
72
71
68
65
62
59
56
54
52
50
49
48
48
48
48
48
47
46
44
42
40
39
36
34
33
31
30
30
29
28
27
26
26
26
28
33
40
47
55
61
66
67
67
64
61
57
53
50
46
44
42
41
40
41
42
42
42
42
41
40
39
37
36
34
33
32
31
30
29
28
27
27
28
31
37
43
50
58
63
66
67
65
62
59
55
51
48
45
42
41
40
40
40
41
41
41
41
40
39
39
35
33
33
30
29
29
27
26
26
24
23
23
24
28
28
41
50
59
65
69
70
68
66
62
58
55
52
48
46
44
43
42
42
43
43
43
42
41
40
39
37
35
33
31
30
29
28
27
26
26
25
25
24
23
24
26
31
38
45
54
61
67
69
69
67
64
61
58
55
52
49
46
45
43
43
43
43
43
43
42
40
39
37
35
33
31
29
27
26
25
25
24
23
23
22
21
21
23
28
35
42
50
58
63
65
65
62
59
55
51
47
44
41
39
38
37
37
38
39
39
39
38
37
35
34
32
31
29
28
27
26
25
25
24
24
26
30
36
43
51
58
64
66
66
64
60
57
53
49
46
43
41
40
40
40
41
42
42
42
41
40
39
37
35
33
32
30
29
28
28
27
26
26
28
33
39
46
55
63
68
71
71
70
67
64
61
58
55
52
50
48
47
47
47
47
46
46
45
43
41
40
39
37
36
35
34
33
32
32
31
30
30
29
29
31
36
42
50
58
65
70
72
72
70
68
65
62
59
57
54
52
51
50
49
49
49
48
47
46
45
44
42
40
39
37
36
34
33
31
30
30
29
28
27
27
26
25
27
30
36
43
51
58
64
67
68
67
64
61
61
55
52
52
46
45
45
43
43
43
43
42
42
40
38
37
35
33
33
30
28
27
26
26
25
24
24
23
24
27
32
38
43
50
55
58
58
57
55
51
48
45
42
40
38
37
37
38
39
39
40
40
39
37
36
34
33
31
30
29
28
27
26
25
25
25
27
31
37
43
49
55
59
61
60
58
56
52
49
47
44
41
40
39
39
39
39
39
38
37
36
35
33
32
30
29
28
27
26
25
25
24
24
24
23
23
22
22
24
28
35
41
49
56
61
63
63
61
58
56
53
50
48
46
44
42
41
40
40
40
40
40
39
38
36
35
33
32
31
29
28
27
27
26
26
25
25
25
24
24
23
23
24
28
33
40
47
54
59
61
61
60
57
54
51
48
46
43
41
40
39
39
38
38
38
37
36
35
34
32
31
29
28
27
26
25
25
24
24
24
24
23
23
22
22
22
25
29
35
41
48
53
56
57
55
53
50
47
43
40
39
36
35
35
35
35
36
37
37
36
35
33
32
32
29
28
28
26
26
26
25
24
24
24
25
25
34
40
40
51
56
56
56
54
52
49
45
42
40
38
37
36
36
36
37
38
38
37
36
35
34
32
30
29
28
27
26
26
25
25
25
24
24
24
24
27
31
38
44
51
56
59
60
59
56
54
51
48
45
43
41
40
39
38
37
37
37
37
37
36
35
34
33
32
30
29
29
28
27
27
26
26
26
25
25
24
23
23
23
24
27
33
40
47
54
58
61
60
59
56
53
50
47
45
43
41
40
39
38
38
38
38
37
36
35
34
32
30
28
27
26
25
24
24
23
23
23
23
23
23
22
22
21
22
24
28
35
41
48
55
58
59
57
54
51
47
44
41
39
36
35
34
33
34
35
35
36
35
35
34
32
31
29
28
27
27
26
26
25
25
24
24
24
27
31
37
43
50
55
59
60
58
56
52
49
45
42
40
38
37
36
36
36
37
38
38
38
37
36
35
33
32
30
29
28
27
26
26
25
25
24
24
24
25
29
35
42
50
57
62
65
64
62
59
55
52
49
46
44
42
40
40
40
40
40
40
40
39
38
37
35
34
33
31
30
29
28
27
27
27
26
26
26
26
25
25
24
26
29
35
42
50
58
63
66
66
66
60
56
56
49
46
46
42
40
40
39
39
39
39
38
38
37
35
35
32
30
29
28
27
26
25
24
24
24
24
24
24
23
23
22
23
25
30
36
43
52
59
63
64
63
60
56
51
47
43
40
38
36
35
35
35
36
37
38
38
37
36
35
33
32
30
29
28
28
27
27
26
26
26
25
26
29
34
40
47
55
61
65
65
64
61
57
53
49
45
42
40
38
37
37
38
39
40
40
40
39
38
36
35
33
31
30
29
28
27
26
26
26
26
25
25
25
25
27
31
38
45
54
62
68
70
70
67
64
60
56
52
49
46
44
42
41
41
41
41
42
42
41
40
40
38
36
35
33
32
31
29
29
28
28
27
27
27
26
26
26
27
30
36
42
51
59
65
69
69
68
65
61
57
53
50
46
44
41
40
40
40
40
40
40
40
39
38
36
35
33
32
31
29
28
28
27
26
26
25
25
24
24
25
28
33
40
47
55
61
65
65
64
60
56
52
47
43
40
38
36
36
36
36
38
40
40
40
40
40
37
35
35
32
30
30
28
27
27
26
25
25
26
30
36
42
50
58
64
67
67
65
61
57
53
49
45
42
40
39
38
39
40
40
40
41
40
40
39
37
36
34
33
31
30
29
28
28
27
27
26
26
25
25
25
29
34
42
50
59
67
71
71
70
67
63
59
55
51
48
45
43
42
41
41
42
42
43
42
42
41
40
39
37
35
34
33
31
30
29
29
28
27
27
27
27
26
26
25
25
24
24
26
30
37
45
55
63
70
73
72
70
66
63
59
55
51
48
45
44
43
42
43
43
44
44
43
42
40
40
38
36
34
32
31
29
28
28
27
26
26
26
25
25
24
24
23
23
25
29
36
43
51
59
65
68
68
65
62
57
53
49
45
41
40
38
38
38
39
40
40
40
40
39
38
37
35
33
32
30
29
28
27
26
26
25
24
24
26
30
36
43
52
59
65
68
68
66
63
59
54
50
47
43
41
40
40
40
40
41
41
42
41
40
40
38
36
35
33
32
30
29
28
27
27
26
25
25
25
27
31
38
45
54
63
69
73
73
71
68
65
61
57
54
51
48
46
45
45
44
45
45
45
45
44
42
41
40
38
36
35
33
32
31
30
29
29
28
28
28
27
26
26
28
32
32
46
55
55
69
72
72
70
67
67
60
57
54
51
48
47
46
45
45
46
46
46
45
45
43
42
40
39
37
36
34
33
31
30
29
28
28
27
27
26
25
24
24
25
29
35
42
50
59
65
69
69
67
64
60
56
53
49
46
44
42
42
42
43
43
44
44
44
42
41
40
38
36
34
32
31
30
29
29
28
27
27
27
28
32
38
44
52
59
64
67
67
65
62
58
44
42
41
41
42
43
43
43
43
42
40
40
38
36
34
33
31
30
30
29
28
28
27
26
27
30
35
41
49
58
65
69
70
69
66
63
60
56
53
50
47
45
44
43
43
43
43
43
42
41
40
39
38
36
34
32
31
30
28
28
27
27
26
26
25
24
25
27
32
39
46
54
61
66
67
66
64
61
57
54
51
48
46
44
43
42
41
41
41
41
40
40
38
37
35
34
32
30
29
28
27
26
25
24
23
23
23
22
21
21
20
20
23
27
34
42
50
58
58
64
64
64
57
53
53
46
42
42
39
37
37
37
38
38
39
38
38
36
35
33
31
30
28
27
26
25
24
24
23
23
22
23
26
31
38
44
52
59
62
64
63
60
56
52
48
44
41
39
37
37
36
37
38
38
39
38
38
36
35
33
31
30
28
27
26
26
25
24
24
23
23
24
28
34
40
48
57
63
67
68
66
63
60
56
53
49
46
43
41
40
40
40
40
40
40
40
39
38
37
35
34
32
31
29
28
27
27
26
26
25
24
24
25
27
32
40
47
55
62
66
67
66
64
60
56
53
50
47
44
42
41
40
40
40
41
40
40
40
39
38
36
34
33
31
30
28
27
26
25
25
24
24
23
22
22
22
25
30
36
44
52
59
64
65
64
61
57
53
49
45
42
40
38
37
37
38
39
40
40
40
40
38
37
35
34
32
31
29
28
27
26
26
25
26
28
33
39
46
53
59
62
63
62
60
56
52
48
45
42
40
39
39
39
40
40
41
41
40
40
39
37
35
33
32
31
30
29
28
27
27
28
31
36
43
51
58
64
68
68
67
64
61
58
54
51
49
46
44
43
42
42
42
42
42
41
40
40
38
37
35
34
33
32
31
30
29
29
28
28
31
36
36
49
56
56
65
65
65
61
58
58
52
50
50
45
43
43
42
41
41
41
41
40
40
38
36
35
33
31
30
29
28
28
27
26
26
25
25
27
30
36
42
49
55
59
61
60
58
55
52
49
46
43
41
40
39
38
38
38
39
38
38
37
35
34
32
31
29
28
27
27
26
25
25
24
25
27
30
36
41
47
53
56
56
55
52
48
44
41
38
35
33
32
32
32
34
35
35
36
35
34
33
32
30
29
28
27
26
26
25
25
26
29
33
40
45
51
56
58
58
56
54
50
47
44
41
39
37
36
36
36
36
37
37
37
37
36
34
33
32
30
29
28
27
27
26
25
25
24
25
26
30
36
42
49
56
60
62
62
60
57
54
50
48
45
43
41
40
40
40
40
40
39
39
38
37
35
34
32
31
30
29
28
28
27
27
27
27
27
26
26
26
25
26
27
32
38
45
52
58
62
64
62
60
56
53
50
47
45
43
41
40
39
39
39
39
39
39
38
37
35
35
32
31
31
29
27
27
26
26
26
25
25
25
24
24
24
23
24
24
33
40
46
53
57
59
58
56
53
49
45
42
40
37
36
35
34
35
36
37
37
37
36
35
34
32
30
29
27
26
25
25
24
24
23
23
24
25
29
34
40
46
52
57
59
58
56
53
50
46
42
40
37
36
35
35
36
37
38
38
38
37
36
35
34
32
31
29
29
28
27
26
26
26
25
25
25
27
31
37
43
51
58
63
65
64
61
58
54
50
47
44
42
40
39
39
38
39
39
39
39
38
37
36
34
33
31
30
29
28
27
27
26
26
26
26
26
26
25
25
25
26
30
36
43
51
59
64
66
66
63
59
56
52
48
45
43
40
40
39
38
39
39
39
39
39
38
36
35
33
32
30
28
27
26
25
25
24
24
24
24
24
23
23
22
22
22
24
28
35
42
50
57
63
64
64
61
56
52
48
44
40
38
36
35
35
36
37
38
39
39
38
37
35
33
32
30
28
27
26
25
24
24
23
23
22
22
22
24
28
34
40
48
54
59
61
60
58
54
50
46
41
39
36
34
33
34
35
37
38
39
40
39
38
37
36
34
33
31
30
29
28
28
27
27
28
28
28
28
30
34
34
47
54
54
65
67
67
61
57
57
48
44
44
38
36
36
33
33
33
34
35
35
34
33
32
31
29
28
27
26
26
25
25
25
24
24
24
24
23
22
22
23
27
33
40
48
55
60
63
63
60
57
54
50
47
44
42
40
39
39
39
40
40
40
40
40
39
37
35
33
31
29
28
27
26
26
26
25
25
25
24
24
23
23
24
26
32
39
46
54
60
64
65
64
61
57
53
50
47
44
41
40
40
40
40
40
40
40
40
40
38
36
34
32
31
29
29
29
29
29
29
29
29
30
34
39
45
52
58
63
65
65
62
59
55
51
47
44
41
40
40
40
40
41
42
42
42
41
40
39
37
36
34
33
32
31
30
29
29
28
29
32
36
42
49
56
62
65
65
63
60
57
53
50
47
44
43
41
40
40
40
41
41
41
40
40
39
37
36
34
33
32
31
30
30
30
29
29
29
28
28
28
30
34
40
47
54
61
66
67
66
64
61
57
54
51
48
46
44
43
41
41
41
41
41
41
41
40
39
39
36
34
34
32
31
31
30
29
29
29
28
28
27
26
26
29
34
40
46
53
58
61
62
60
57
53
49
46
43
40
39
38
37
37
37
38
38
38
38
37
35
34
32
31
29
28
27
27
26
25
25
25
25
26
29
34
40
45
51
56
57
57
55
51
48
44
40
38
35
34
33
33
34
35
36
37
37
37
36
34
33
31
30
29
29
28
28
27
26
26
27
30
36
41
48
55
60
62
62
60
56
53
49
46
42
40
38
37
37
37
37
38
38
38
38
37
36
34
33
32
31
30
29
29
28
28
27
27
27
26
26
27
30
36
42
49
56
61
64
63
61
58
55
51
48
46
44
42
40
40
39
39
40
40
40
39
38
37
36
35
33
32
31
30
29
28
28
28
27
27
27
26
26
26
27
31
37
43
50
57
61
62
61
59
56
52
49
46
43
41
39
38
37
36
37
37
37
37
37
37
36
34
33
32
30
29
28
27
26
26
25
25
24
23
23
23
25
30
36
42
48
54
57
57
55
52
49
45
41
39
36
34
33
33
34
35
36
37
37
37
36
35
33
32
30
29
28
28
27
27
26
26
26
26
29
33
39
45
51
56
59
59
58
55
51
47
47
41
39
39
36
36
36
38
39
39
40
39
39
37
35
35
32
31
31
29
28
28
27
26
26
26
28
33
39
46
53
59
63
64
63
61
57
54
51
48
45
43
41
41
40
40
40
40
40
40
40
39
38
36
35
33
32
31
30
29
29
28
28
28
27
27
27
30
34
40
47
55
61
65
66
64
61
58
54
51
48
45
43
42
41
40
41
41
41
42
42
41
40
40
38
37
35
33
31
30
28
27
27
26
26
26
27
30
35
41
48
55
61
64
64
62
59
56
52
49
45
43
41
40
40
40
40
40
41
41
41
40
40
38
37
35
34
33
32
31
30
30
30
30
33
38
44
51
58
63
66
66
65
62
58
54
50
47
44
42
40
40
40
40
40
41
41
41
41
40
40
38
37
36
34
33
32
31
30
29
30
34
39
44
50
56
60
61
60
57
54
51
47
44
42
40
40
39
39
40
40
40
40
40
39
38
36
35
33
32
31
30
29
28
27
27
28
30
35
40
46
51
56
58
57
55
55
47
43
43
38
36
36
34
34
34
37
38
39
39
38
38
36
35
35
32
31
30
30
29
29
31
35
40
46
52
58
62
63
62
59
56
52
48
45
43
40
40
39
39
40
40
40
40
39
38
36
35
33
32
30
30
29
28
27
27
27
28
32
38
44
51
58
62
64
63
61
57
54
51
48
46
44
42
41
40
40
40
40
41
40
40
39
38
36
35
33
32
31
30
30
29
29
29
28
28
28
28
31
36
41
49
56
61
64
65
63
61
57
54
52
49
47
45
43
42
42
42
42
42
41
41
40
39
38
37
35
34
33
32
31
30
30
30
29
29
29
29
28
28
27
28
30
34
40
47
54
60
63
64
62
59
55
52
49
45
43
40
40
38
38
38
38
39
38
38
37
36
34
33
31
30
29
28
27
26
26
26
26
26
25
24
24
23
24
26
31
37
43
57
54
51
47
43
40
37
35
33
33
33
34
35
37
37
38
37
36
35
34
33
31
30
29
29
28
27
26
26
26
28
33
38
44
50
56
59
60
58
55
52
48
45
42
40
37
36
35
35
36
36
37
37
37
36
35
33
32
30
29
28
27
27
26
26
26
25
25
24
25
27
32
39
45
53
60
60
65
63
63
57
53
53
46
44
44
40
39
39
39
39
39
40
40
40
38
37
35
34
33
31
30
29
29
28
28
27
27
27
27
27
26
26
25
25
27
32
38
45
53
60
64
65
63
60
57
53
49
46
43
41
39
38
37
37
38
38
38
38
38
37
36
34
33
31
30
28
27
26
25
25
24
24
24
24
23
23
22
22
24
28
34
40
48
56
61
63
62
59
56
51
47
43
40
38
36
35
35
36
37
38
39
39
39
38
37
35
34
33
32
31
30
30
29
29
29
28
28
29
32
37
43
50
57
62
65
65
63
60
56
51
47
43
40
38
37
36
36
37
38
39
39
38
38
36
35
34
32
31
30
29
28
28
28
27
26
26
25
26
29
35
41
50
58
64
67
67
65
63
59
56
53
49
47
44
42
41
41
41
41
41
41
41
40
39
38
36
35
33
32
31
30
30
29
29
29
29
29
29
29
29
28
28
30
33
39
45
53
61
66
69
68
66
63
60
56
56
50
48
48
44
43
43
43
44
44
44
44
44
42
41
41
39
37
37
35
34
34
32
31
31
31
30
30
29
29
28
27
26
26
28
33
39
46
54
60
64
66
65
62
58
54
50
47
44
42
40
39
39
39
40
40
40
40
40
39
38
36
35
33
32
31
30
29
29
28
27
27
26
26
27
31
36
41
48
54
59
62
62
60
57
54
50
47
44
41
40
40
40
40
40
41
41
41
41
40
39
38
36
35
33
32
32
31
30
30
30
29
28
28
28
29
32
37
43
51
58
63
65
65
63
60
56
53
50
47
45
43
41
41
40
40
41
41
41
40
40
39
37
36
34
33
32
31
31
30
29
29
29
29
28
28
28
27
27
26
26
27
30
35
41
48
56
62
65
65
63
60
57
53
50
47
45
43
41
40
40
40
40
40
40
40
40
39
38
36
35
33
32
31
30
29
29
28
28
27
27
27
27
26
26
25
24
23
23
23
26
31
38
45
53
58
61
61
59
56
52
48
45
42
40
38
36
36
36
36
37
38
38
37
37
35
34
32
31
29
28
27
26
26
25
25
25
24
24
23
24
26
30
36
42
49
55
58
60
59
56
53
49
46
42
40
38
36
36
36
37
38
39
39
40
39
39
37
35
35
32
31
31
29
28
28
28
27
27
26
26
26
29
34
40
48
55
61
64
65
63
60
57
53
50
47
44
42
41
40
40
40
40
41
41
41
40
40
39
37
35
34
33
32
31
30
30
29
29
29
29
29
28
28
28
28
31
37
42
50
58
63
67
67
65
62
59
55
52
49
47
45
43
42
42
42
42
42
42
41
40
40
38
37
35
34
33
32
31
31
30
30
30
30
29
29
29
28
28
27
28
31
35
41
48
55
61
64
64
62
59
55
51
48
45
43
41
40
40
40
40
40
40
40
40
39
38
36
34
33
32
31
30
29
29
28
28
27
27
26
26
27
30
35
40
47
53
57
59
59
57
54
51
47
43
41
39
38
37
38
39
40
40
41
41
40
40
39
38
36
35
33
32
32
31
31
30
30
29
29
31
36
41
48
55
61
64
65
64
62
58
55
52
49
46
44
42
41
41
41
42
42
42
42
41
40
39
38
36
35
34
33
32
31
30
30
30
29
29
29
28
28
28
31
35
35
49
56
56
66
68
68
64
60
60
54
51
51
47
45
43
43
42
43
43
43
42
41
40
40
38
37
36
35
34
33
32
31
31
31
30
30
30
30
30
29
29
28
28
31
35
41
48
56
62
66
66
64
61
58
54
51
47
45
43
41
40
40
40
40
40
40
40
40
39
37
36
34
33
32
30
29
29
28
28
28
28
27
26
26
26
27
30
35
41
47
53
58
59
58
56
53
49
45
42
40
38
36
36
36
37
38
40
40
40
40
39
38
37
35
34
33
32
31
30
30
29
28
28
29
31
35
41
47
54
60
63
63
62
59
55
52
48
45
42
40
39
38
38
39
40
40
40
40
39
38
37
35
34
32
31
30
29
29
28
28
28
28
28
27
27
28
30
34
40
47
55
62
67
68
67
64
61
57
53
50
47
45
43
42
41
41
41
41
41
41
41
40
39
38
36
35
34
33
32
31
30
30
29
29
29
29
29
28
28
27
26
26
28
32
38
45
53
60
65
66
65
63
59
56
52
49
46
44
42
40
40
40
40
40
40
40
39
38
37
35
34
32
31
29
28
27
27
26
26
26
26
25
25
24
24
25
28
33
40
46
53
59
61
61
59
56
56
48
44
44
38
36
36
34
35
35
37
38
38
39
38
38
36
34
33
32
31
30
29
29
28
28
27
27
28
30
35
41
48
56
62
65
65
64
61
57
53
49
45
42
40
39
39
39
40
40
40
40
40
40
39
38
36
34
33
32
31
30
29
29
28
28
27
27
27
27
29
33
39
46
54
62
67
69
69
66
63
59
55
52
49
46
44
43
42
42
43
43
44
44
44
43
41
40
39
37
36
34
33
32
31
31
30
30
29
29
29
29
28
28
27
28
31
36
42
50
58
65
69
70
68
66
62
59
55
52
49
47
45
44
44
44
45
45
45
45
44
42
41
40
38
36
34
33
31
30
29
29
29
28
28
28
27
27
27
27
29
32
39
45
52
59
64
66
65
62
59
55
51
48
44
42
40
40
40
40
40
41
42
41
40
40
38
37
35
34
33
32
31
31
30
30
29
29
29
30
33
38
44
51
58
63
66
66
65
61
58
54
50
47
44
42
41
41
41
42
42
43
43
43
42
41
41
38
36
36
33
32
32
30
29
29
28
28
28
27
26
26
31
37
44
53
61
67
71
71
69
66
63
59
55
52
50
48
46
45
45
45
46
46
46
45
44
43
41
40
38
37
35
34
32
32
31
30
30
29
29
29
29
28
28
27
29
32
38
44
53
61
66
69
69
68
64
61
57
54
51
48
46
45
44
43
43
43
44
44
43
42
41
40
38
36
35
33
32
30
29
28
28
27
26
26
26
25
24
24
23
23
24
28
35
41
50
57
63
65
65
63
59
55
51
48
44
42
40
40
39
39
40
40
41
41
40
40
38
36
34
32
30
29
28
27
26
25
25
24
23
23
24
27
32
38
45
52
59
62
63
62
59
56
52
48
45
42
40
39
38
39
40
40
40
40
40
40
39
37
35
34
32
31
29
29
28
27
27
26
25
25
25
27
32
38
46
54
61
66
68
68
65
62
58
55
52
48
46
43
42
41
41
41
42
42
42
42
41
40
39
37
35
34
33
32
31
30
29
28
28
28
27
27
27
26
26
25
25
26
30
36
44
52
61
67
71
71
69
66
62
59
55
52
49
47
45
44
44
44
44
45
45
44
44
42
40
39
38
36
34
33
32
32
30
29
29
28
27
27
27
26
26
25
24
24
22
22
22
31
39
39
55
63
67
68
66
63
59
55
51
47
44
42
40
40
40
40
40
41
41
41
40
40
38
36
34
32
31
30
29
28
27
26
26
25
25
24
24
24
25
29
34
41
49
56
62
65
66
64
61
57
54
50
46
43
41
40
40
40
41
42
43
44
43
42
41
40
39
37
35
33
32
31
30
29
29
28
28
27
26
26
26
29
34
40
49
57
64
69
71
70
67
64
60
57
53
50
47
46
44
44
44
45
45
46
45
44
43
41
40
38
37
35
34
32
31
31
30
29
29
29
28
28
28
27
26
26
26
29
34
41
50
58
66
70
72
71
68
65
61
58
54
51
49
47
45
45
45
45
46
46
45
44
43
41
40
39
37
35
34
32
31
30
29
29
28
28
28
27
27
27
26
25
24
24
24
27
32
39
47
55
62
67
68
67
64
61
57
53
49
46
43
42
40
40
41
41
42
42
42
41
40
39
37
35
35
32
31
31
29
29
29
27
27
27
25
26
50
57
62
65
65
63
60
56
52
48
44
42
40
39
39
40
40
41
42
42
41
40
40
38
36
34
33
31
30
29
28
27
26
26
25
25
26
30
36
43
52
60
65
69
69
67
64
61
57
54
51
48
45
44
43
43
43
43
43
43
42
41
40
39
37
35
33
32
31
30
29
28
28
27
27
27
26
25
25
26
29
35
42
50
59
65
69
70
69
66
63
60
56
53
51
48
46
45
45
45
45
45
45
44
43
42
40
39
38
36
34
33
32
30
29
29
28
28
28
27
27
26
25
24
24
25
28
34
41
49
57
63
66
66
64
61
58
54
51
47
45
43
41
40
40
41
41
42
42
41
40
39
38
36
34
32
31
30
29
28
27
27
26
25
24
24
26
30
35
41
49
56
61
63
63
61
58
55
51
47
43
41
39
38
38
38
39
40
40
40
39
38
36
34
33
31
30
28
27
26
26
25
24
24
23
23
25
29
35
42
50
58
64
67
67
65
62
59
56
52
49
47
45
43
42
42
43
43
44
43
43
42
40
39
37
35
34
32
31
30
29
28
28
28
27
27
26
26
25
26
30
36
42
51
59
65
68
68
68
65
65
59
56
56
50
48
48
45
44
44
44
44
44
43
42
42
40
38
36
34
33
31
30
29
28
27
26
26
25
25
24
23
23
24
28
34
40
48
56
61
64
64
62
59
56
52
49
45
43
41
40
40
40
40
40
41
41
40
40
38
36
35
33
31
30
29
28
27
25
24
23
22
22
23
26
32
39
46
53
59
62
63
61
59
55
51
48
44
42
40
40
39
40
40
41
42
42
41
40
40
38
36
35
33
31
30
29
28
27
26
25
25
28
33
39
46
55
62
66
68
67
65
62
59
55
52
49
46
44
43
42
43
43
43
43
43
42
40
40
38
36
34
32
31
30
29
28
28
27
27
26
25
25
25
28
33
40
47
56
63
68
70
69
67
64
60
57
54
51
49
47
45
44
43
43
44
43
43
42
41
40
39
37
35
34
32
31
30
29
28
27
27
26
26
25
24
23
23
25
29
36
43
51
59
64
67
66
64
61
58
54
51
48
45
43
42
42
42
43
43
43
43
42
42
40
38
38
34
32
32
30
29
29
27
27
27
25
24
24
26
30
35
41
48
55
60
62
62
60
57
54
50
47
43
41
40
39
39
40
40
41
42
42
41
40
39
37
36
34
32
31
30
29
29
28
27
27
28
31
36
42
50
57
62
65
66
65
62
59
55
52
48
46
43
42
41
41
41
42
42
41
40
39
37
35
33
32
30
29
28
27
26
26
25
25
25
24
24
24
26
30
37
44
52
59
64
67
66
64
61
58
55
52
49
46
44
43
42
41
41
41
41
41
40
40
38
37
35
33
31
30
29
28
27
26
25
25
25
25
24
24
23
23
24
27
32
39
46
54
60
63
64
62
59
56
52
49
46
43
40
40
39
38
38
38
39
38
38
37
35
34
32
30
29
27
26
25
24
23
23
22
22
22
21
20
20
21
24
30
36
43
50
56
59
59
57
54
50
46
42
40
37
35
33
33
34
35
36
36
37
36
35
34
32
31
29
28
26
25
24
24
23
22
22
22
24
28
34
41
48
55
59
61
60
58
54
50
46
43
40
38
36
35
35
36
37
38
38
38
37
36
34
33
31
29
28
27
26
25
25
24
24
23
23
23
25
30
37
44
52
60
65
67
67
64
61
61
54
50
50
45
43
43
40
40
40
41
41
41
40
40
40
37
35
34
32
31
30
29
28
28
27
27
27
26
26
25
26
28
33
40
47
56
62
67
68
67
64
60
57
53
50
47
45
43
41
41
41
41
41
41
41
40
40
38
37
35
34
32
30
29
28
26
26
25
24
24
23
23
22
22
24
29
35
42
50
58
63
66
65
63
59
55
51
47
43
40
39
38
37
38
38
39
40
40
39
38
37
35
33
31
29
28
26
25
24
23
23
22
22
23
26
31
38
45
52
58
61
62
60
57
53
49
45
42
40
38
37
37
37
39
40
40
40
40
40
39
37
35
34
32
31
30
29
27
26
26
25
27
32
38
45
53
60
65
67
66
64
60
56
53
49
46
43
41
40
40
40
40
40
41
40
40
39
38
36
34
33
32
30
29
28
27
27
27
26
26
26
25
25
27
31
38
45
54
62
68
71
71
69
66
62
58
54
51
49
46
45
44
44
44
44
44
44
43
42
42
40
38
38
35
34
34
31
31
31
30
29
29
29
29
29
28
27
27
27
29
34
40
48
57
64
69
71
70
67
64
60
56
52
49
46
44
43
42
42
42
43
43
43
42
41
40
38
36
35
33
32
30
29
29
28
28
27
27
26
26
25
26
28
32
38
45
53
59
64
65
65
62
58
54
50
46
43
40
39
38
38
39
40
40
41
41
40
40
39
37
35
34
32
31
30
29
28
28
27
27
28
31
36
42
49
56
62
66
67
65
63
59
55
51
47
44
42
41
40
40
40
41
41
41
40
40
38
37
35
33
32
30
29
28
28
27
26
26
26
25
25
25
25
27
32
39
46
55
63
68
71
70
68
64
60
57
53
50
47
45
43
42
42
42
42
42
42
42
41
40
38
37
35
33
32
30
29
28
28
27
27
26
26
26
26
26
25
24
24
24
26
31
38
45
54
62
67
69
68
65
62
58
54
51
47
45
43
41
41
40
41
41
41
41
40
39
38
36
35
33
31
30
29
28
28
27
27
27
26
26
26
25
24
24
23
22
23
27
32
40
47
55
62
65
65
63
59
55
51
47
43
40
38
37
36
37
37
38
39
40
39
39
37
36
34
32
31
29
28
28
26
25
25
24
23
23
23
25
29
36
42
42
56
60
60
60
57
57
50
46
42
40
38
37
37
38
40
40
41
42
41
40
40
38
36
34
32
30
29
28
27
26
26
25
25
27
31
37
44
52
59
65
67
67
65
62
58
54
50
47
44
42
41
40
40
40
40
40
40
40
39
37
36
34
33
31
30
30
29
29
29
29
28
28
28
28
30
35
40
48
56
62
66
67
66
63
60
57
53
51
48
46
44
43
43
43
43
43
43
43
42
40
40
38
37
35
34
33
32
31
30
30
29
29
28
28
27
29
33
38
45
52
59
64
66
66
64
60
57
53
50
47
44
42
41
40
40
40
41
41
40
40
39
38
36
35
33
32
31
30
29
28
28
27
27
26
28
31
35
41
47
54
58
61
61
59
55
52
48
44
41
39
38
37
37
38
40
40
41
41
40
40
38
37
35
34
33
32
31
30
30
29
29
30
33
38
43
49
55
60
62
62
60
58
55
51
48
45
43
41
40
40
40
40
41
41
40
40
40
38
36
36
33
32
32
30
30
30
29
29
29
28
27
27
30
35
40
46
53
59
63
64
63
61
58
55
52
50
48
45
44
43
42
42
42
42
42
41
40
40
38
37
35
34
33
32
31
31
30
30
30
30
29
28
28
28
30
33
38
43
50
55
59
60
59
58
55
53
50
48
46
44
42
41
40
40
40
40
40
40
39
38
36
35
33
32
30
29
28
28
27
27
27
26
25
25
24
24
26
29
35
40
46
51
54
56
55
53
50
47
44
41
40
38
36
35
35
36
36
36
36
36
35
33
32
30
29
28
27
26
26
25
25
25
24
24
25
28
32
37
41
47
51
54
54
53
62
57
51
45
40
36
32
30
30
31
32
33
33
33
32
29
27
24
21
18
16
14
12
11
10
9
8
7
7
6
7
12
20
31
43
56
66
72
74
71
67
61
55
50
46
42
39
36
35
34
34
35
35
35
34
33
31
29
27
24
22
20
18
16
14
13
13
13
13
13
13
13
13
12
12
14
21
31
43
56
67
75
77
75
71
65
59
54
49
44
41
38
36
34
34
34
34
34
34
33
31
29
26
24
21
19
17
14
13
11
10
9
9
8
8
7
5
4
3
3
4
11
11
35
48
48
69
73
73
67
60
60
47
40
40
32
29
29
26
27
29
31
31
31
30
27
24
21
18
15
13
11
9
8
8
7
6
6
6
9
15
24
36
48
60
69
74
74
70
64
58
51
45
30
31
32
33
34
33
32
29
26
24
21
18
16
14
12
11
10
10
10
9
9
8
8
10
17
28
41
56
71
81
86
86
82
76
69
62
56
51
46
42
40
38
37
37
37
37
37
36
35
33
31
28
26
24
21
19
17
16
15
14
13
13
13
13
12
11
10
10
13
22
34
48
63
77
86
89
87
82
75
68
61
55
50
45
42
40
40
40
40
41
41
41
40
38
35
32
29
26
24
21
18
16
14
13
12
11
11
11
10
9
7
6
7
11
21
34
48
63
75
83
85
81
75
67
59
51
44
39
35
32
31
31
33
35
36
37
36
34
32
29
25
22
19
17
15
13
12
11
9
8
7
7
10
17
28
40
55
67
76
80
79
75
68
60
53
53
40
34
34
28
28
28
31
33
33
35
34
34
30
27
27
22
20
20
16
14
13
11
10
8
8
9
15
25
40
55
71
84
91
93
90
84
76
69
62
55
49
44
41
39
39
39
40
40
40
40
39
36
33
30
26
23
21
18
17
16
14
14
14
14
14
13
12
12
15
23
36
50
66
81
91
96
95
90
82
75
67
60
54
49
45
43
41
40
41
42
43
43
43
41
40
37
34
31
28
26
24
22
21
19
18
17
16
14
14
14
18
27
39
53
68
80
88
90
88
82
74
66
59
52
46
41
39
37
37
37
39
40
40
39
37
35
32
29
26
23
22
20
18
17
15
14
13
14
19
28
40
52
64
74
79
80
76
69
61
54
46
40
35
31
30
31
33
35
38
39
40
39
36
34
31
28
26
24
23
21
19
18
17
18
23
33
44
59
72
83
90
91
88
82
75
69
62
56
52
48
46
45
45
46
47
48
48
47
45
42
40
37
34
32
29
27
26
25
24
23
21
21
21
25
33
43
58
72
85
94
97
96
92
86
80
74
69
63
59
56
53
52
51
51
51
51
49
47
45
42
40
37
34
32
30
28
27
26
25
24
23
22
21
19
19
21
27
38
50
64
78
88
88
92
89
89
77
71
71
61
57
57
50
48
48
46
46
46
43
41
41
36
32
29
25
23
20
18
16
15
14
14
13
12
11
10
12
17
26
38
50
63
73
78
79
76
71
65
59
53
47
43
40
37
36
37
37
38
38
37
36
33
30
27
25
23
21
20
19
18
17
16
15
16
19
25
35
47
59
70
78
81
80
76
70
64
58
52
48
44
41
40
40
41
42
43
43
42
40
38
35
33
30
28
26
24
23
22
21
20
19
19
20
24
33
43
57
70
81
87
89
87
83
78
73
68
64
59
56
52
50
48
47
47
47
46
45
43
41
39
36
33
31
28
26
25
24
23
23
22
21
20
20
22
27
36
48
61
73
82
87
88
85
80
75
70
65
61
57
53
50
48
47
46
46
46
45
43
41
39
36
34
31
28
26
24
22
20
19
18
17
16
15
15
14
12
10
9
9
13
22
34
48
63
76
84
86
84
79
73
67
61
55
51
46
43
41
40
40
40
41
41
40
39
36
36
30
26
26
21
19
19
16
15
15
13
12
12
10
12
12
27
38
38
63
73
78
78
75
70
65
59
53
48
44
40
39
38
39
40
40
41
40
39
37
35
32
29
26
24
22
20
19
19
18
18
17
16
14
14
16
22
33
45
59
73
82
87
86
82
76
71
65
60
55
50
46
43
41
40
40
40
40
40
38
36
33
30
28
25
23
21
20
18
17
17
16
15
15
14
14
14
13
12
10
10
11
17
29
42
58
73
85
91
91
87
81
74
68
62
56
51
47
44
41
40
40
40
40
40
39
37
35
32
30
27
24
22
20
18
17
16
15
14
14
13
13
12
11
10
9
7
5
6
11
21
35
50
66
78
85
87
83
77
70
63
56
50
45
41
38
36
36
36
37
38
37
36
34
31
28
24
21
18
16
13
11
9
8
6
5
4
3
5
11
20
32
45
58
69
74
75
72
66
59
51
44
39
34
30
28
28
29
32
34
35
35
34
33
30
27
24
22
19
18
16
15
15
13
12
12
12
16
24
36
50
65
78
87
91
88
82
75
68
60
54
49
44
41
40
39
40
40
41
41
41
40
38
35
32
28
25
23
21
19
18
18
18
18
17
16
16
17
22
31
44
58
73
73
91
92
92
83
76
76
62
56
56
47
43
43
40
40
40
40
40
39
37
35
32
29
26
23
20
18
17
16
15
14
14
13
12
11
10
12
18
29
42
57
70
81
85
84
80
73
65
58
51
45
40
37
34
33
34
35
37
38
38
37
34
32
29
25
23
20
18
16
14
12
11
10
9
10
14
23
34
47
61
72
79
81
78
72
64
56
49
42
38
35
33
33
34
36
38
40
40
40
39
37
34
31
28
26
23
22
20
18
16
15
14
14
19
28
40
53
66
77
83
83
80
75
69
63
57
52
48
45
42
41
40
40
41
41
41
40
39
37
35
33
32
29
28
27
26
25
23
22
19
18
21
28
39
51
65
77
85
88
86
82
77
71
66
60
55
51
48
45
44
43
43
44
43
42
40
38
35
32
29
27
25
23
22
21
19
19
21
26
35
46
60
72
82
88
88
85
81
75
69
64
59
55
51
48
47
46
47
47
46
45
44
41
40
37
35
33
32
30
29
29
26
24
24
28
35
35
56
68
68
84
85
85
79
73
73
63
58
58
51
48
48
46
45
45
45
44
42
40
38
35
33
30
28
26
25
23
23
22
21
19
18
17
18
24
34
46
60
73
82
87
86
81
75
67
61
54
48
43
40
37
36
36
36
37
37
36
34
32
29
27
24
21
20
18
16
16
14
14
12
11
10
11
14
22
34
45
58
68
74
75
72
66
60
53
46
40
36
32
31
31
32
34
37
38
39
37
35
32
29
26
24
21
20
18
16
15
14
14
17
24
34
46
59
71
79
82
81
76
70
64
57
51
46
42
40
39
39
39
40
41
42
42
41
40
37
34
31
28
26
24
22
20
18
16
14
12
14
19
28
40
54
67
77
82
82
79
74
68
63
57
52
48
44
40
39
38
38
38
38
38
37
35
33
30
28
26
23
21
20
18
17
15
14
14
13
12
11
10
9
9
11
17
28
41
56
71
82
87
87
83
78
71
65
60
55
51
47
44
42
40
40
40
40
40
39
37
35
33
30
28
25
23
21
19
18
16
15
14
13
12
11
10
9
7
6
8
16
27
40
55
69
78
81
79
74
68
61
54
48
43
39
36
34
33
34
35
36
37
36
35
32
29
29
23
20
20
16
14
14
12
10
10
7
7
7
16
27
27
51
63
63
74
73
68
62
55
49
42
38
34
32
31
31
33
35
36
36
36
34
32
29
26
24
21
19
18
17
15
14
13
12
13
17
26
39
53
67
78
85
86
83
77
70
64
57
51
46
42
39
37
37
37
38
38
39
38
36
33
31
28
25
22
20
18
17
15
14
13
12
12
11
11
10
10
9
8
8
8
12
21
35
51
68
84
94
98
96
91
62
58
54
51
48
45
43
42
40
40
40
40
40
40
40
39
38
36
34
33
32
30
29
28
28
27
27
27
27
27
27
26
26
26
26
25
24
24
23
24
28
34
42
50
58
64
67
66
64
60
56
52
48
45
42
40
39
38
38
38
38
39
39
38
37
36
35
33
31
30
28
27
26
25
24
24
23
23
23
23
23
22
22
22
23
28
34
40
48
55
60
62
61
58
54
50
46
42
40
37
35
34
34
35
37
38
39
39
39
37
36
35
33
32
30
29
28
28
27
27
27
26
26
26
27
31
31
43
51
51
63
65
65
62
59
59
51
47
43
40
39
38
37
37
38
39
39
39
39
38
37
36
34
32
31
30
28
27
27
26
26
25
25
25
25
25
24
24
24
27
33
40
48
57
64
69
70
69
66
62
58
54
51
48
46
44
43
42
42
42
43
43
42
42
41
40
39
37
35
34
33
32
31
30
29
29
28
28
28
28
27
27
26
26
25
26
29
34
41
50
58
65
69
70
69
66
62
58
54
51
48
45
43
41
41
40
41
41
41
41
40
40
39
37
35
33
31
30
28
27
26
26
25
25
25
25
25
25
24
24
25
27
33
65
67
66
63
60
55
51
47
43
40
39
38
37
38
39
40
40
40
40
40
38
36
36
32
31
31
28
28
28
27
27
27
26
26
26
29
34
40
47
54
61
65
66
65
62
59
55
51
47
44
41
40
40
40
40
41
42
42
42
41
40
39
37
36
34
33
32
31
30
29
29
28
28
27
27
28
32
38
44
53
61
67
70
71
69
66
62
58
55
52
49
47
45
44
43
43
44
44
44
44
43
42
41
40
38
37
35
34
33
32
31
30
30
29
29
29
28
28
27
27
29
33
39
39
55
63
63
71
71
71
66
62
62
55
52
52
47
45
45
43
43
43
44
44
43
42
41
40
39
37
35
34
32
31
30
29
28
27
27
27
27
26
26
25
25
24
26
30
36
43
52
60
65
68
67
65
62
58
54
50
47
44
42
41
40
41
41
42
43
43
42
41
40
39
37
35
34
32
31
31
30
30
29
29
28
28
29
32
37
42
50
57
63
66
66
65
62
58
54
50
50
44
41
40
40
40
40
40
41
41
41
40
40
38
36
34
33
31
30
29
29
28
27
27
26
25
25
27
32
38
45
54
61
67
69
69
66
63
60
56
53
49
46
44
42
41
41
41
41
41
41
40
40
39
37
35
33
31
30
28
27
26
26
25
25
25
25
24
24
23
24
26
31
38
45
54
61
66
68
67
65
62
58
54
51
48
45
43
42
40
40
40
40
40
40
40
39
37
36
34
32
31
29
28
27
26
25
25
24
24
24
24
23
23
22
23
26
31
39
46
54
60
63
64
62
59
59
51
47
47
40
38
38
36
36
36
37
38
38
38
37
37
35
33
33
30
29
28
27
27
26
26
25
25
25
26
30
35
41
49
56
61
63
63
61
58
54
50
46
43
41
40
38
38
39
39
40
40
40
40
39
37
36
34
33
31
30
29
28
28
27
27
26
26
26
26
28
32
38
45
53
60
65
68
68
65
62
59
55
52
49
46
44
42
41
40
40
41
41
41
40
40
39
38
36
35
34
32
31
30
30
29
29
28
28
28
27
27
27
28
32
38
44
52
59
64
66
66
64
61
58
54
51
48
46
44
42
41
41
41
41
41
40
40
40
38
37
35
33
32
30
29
28
27
26
26
26
25
25
24
24
25
28
33
40
46
54
59
62
63
61
58
54
51
47
44
41
40
39
38
38
39
40
40
40
40
39
38
36
34
33
32
30
29
29
28
28
27
27
26
27
28
32
37
43
50
57
62
64
64
62
59
56
52
49
46
43
41
40
40
41
41
42
42
42
42
40
40
38
37
35
34
33
32
31
30
30
29
28
28
28
30
35
40
47
54
61
65
67
67
65
62
59
56
53
51
48
46
45
45
44
45
45
45
45
44
43
41
40
39
38
36
35
34
34
33
33
32
32
32
31
31
31
30
30
30
38
44
44
58
64
64
67
66
66
61
59
56
54
51
49
48
46
46
45
45
45
45
44
43
41
40
39
37
36
34
33
32
31
30
30
29
29
28
28
27
26
26
27
30
35
40
47
54
59
62
62
61
58
55
52
49
46
44
42
41
40
41
41
42
42
41
41
40
38
37
35
33
32
31
30
30
29
29
28
27
27
27
28
32
37
42
49
55
59
61
61
59
56
53
50
47
44
42
40
40
40
40
40
40
40
40
39
38
36
35
33
31
30
29
28
27
27
27
26
26
25
25
25
28
33
39
46
53
59
63
64
63
60
58
55
52
49
46
44
42
41
40
40
40
40
40
40
39
37
36
34
33
32
30
29
29
28
27
27
26
26
25
25
24
24
24
26
31
38
44
52
58
61
62
61
59
56
53
50
47
45
42
41
40
39
39
39
39
39
38
37
36
35
33
31
29
28
27
26
25
24
24
24
23
23
22
22
21
23
27
32
39
46
46
57
60
60
57
54
54
47
43
43
39
37
37
35
35
35
36
37
37
36
35
35
32
30
28
27
26
25
24
24
23
23
23
25
29
34
40
48
54
59
60
60
58
55
51
48
44
41
39
37
36
36
36
37
38
38
38
37
36
35
33
32
30
29
28
27
26
25
25
24
24
24
27
32
39
46
54
61
65
66
65
62
58
55
52
48
45
43
41
40
40
39
40
40
40
39
39
37
36
34
33
32
30
29
28
27
27
26
26
26
25
25
24
24
25
27
33
40
47
55
62
67
68
67
64
60
57
54
51
48
45
43
41
41
40
40
41
41
40
40
39
38
36
34
33
31
30
28
27
26
25
25
24
24
23
22
22
21
23
27
33
40
48
56
62
65
64
62
59
55
51
47
44
41
39
38
37
37
38
39
39
39
38
37
36
34
33
31
29
28
27
26
25
24
23
22
23
25
29
35
42
49
56
61
62
61
59
56
52
48
44
41
39
38
37
37
38
39
40
40
40
39
38
37
35
34
32
31
30
29
28
27
26
26
28
32
38
45
54
61
66
68
68
65
62
58
54
51
48
45
43
41
40
40
41
41
41
41
41
40
39
37
36
34
33
31
31
30
29
29
28
27
27
27
28
32
32
45
53
53
67
70
70
69
66
66
59
56
56
51
49
49
45
45
44
44
43
42
41
40
39
38
36
35
34
33
32
32
31
31
31
30
30
30
29
29
30
32
37
43
51
59
65
69
69
68
65
61
57
54
50
47
45
43
42
41
42
42
42
42
42
40
40
38
37
35
33
32
31
30
29
28
28
27
27
28
32
37
43
50
56
60
62
62
59
56
52
49
45
42
40
39
39
39
40
41
42
43
42
42
40
40
38
37
35
33
32
31
29
28
28
30
33
39
45
52
59
64
66
66
64
61
57
54
50
47
44
42
41
40
40
40
41
41
40
40
38
36
35
33
32
31
30
29
29
28
28
27
27
27
28
32
37
43
51
58
63
65
65
63
60
57
54
51
49
46
45
43
42
41
41
41
41
41
40
40
39
38
36
35
33
32
31
30
29
29
28
28
27
27
26
26
26
29
35
40
48
55
60
63
64
62
59
56
54
51
49
46
44
43
41
41
40
40
40
40
40
38
37
37
33
32
32
29
28
28
27
