Wave
38
36
35
33
31
29
28
26
24
23
21
21
20
19
19
18
18
17
16
17
21
25
31
38
44
50
54
58
59
59
58
56
55
53
52
52
51
51
52
53
54
55
55
54
53
52
50
48
46
44
41
40
39
38
37
36
36
35
35
34
33
31
30
28
27
25
23
21
20
18
15
12
10
8
10
13
19
26
34
41
46
50
52
52
52
51
50
48
47
45
44
43
43
44
45
47
49
50
51
51
51
50
49
48
47
45
44
43
42
42
41
40
40
40
39
38
37
35
34
32
30
29
28
27
29
32
37
42
48
54
58
61
63
63
63
63
62
60
59
57
56
55
54
54
54
55
55
55
54
53
51
49
47
45
44
42
41
40
39
38
37
36
36
35
34
33
33
32
31
30
28
27
25
25
26
30
36
43
51
58
64
68
71
72
72
72
72
72
71
71
70
69
69
68
67
67
66
65
63
61
58
56
54
52
50
48
46
44
42
41
40
39
37
35
33
31
30
29
28
28
26
25
25
22
22
22
29
35
35
50
57
57
64
66
66
65
64
64
62
61
61
59
58
58
58
57
56
55
54
53
52
51
49
48
46
44
42
40
39
37
36
35
34
33
32
31
30
29
27
25
23
21
19
18
19
21
25
30
37
44
50
55
58
61
62
61
61
60
59
57
57
56
56
56
57
56
56
55
53
52
50
49
46
44
41
40
37
35
33
32
31
29
28
27
27
27
26
25
24
23
22
21
22
26
31
37
42
49
54
58
60
61
61
60
60
58
56
54
53
51
51
50
50
49
49
47
46
44
43
41
39
37
35
32
31
29
27
26
25
24
23
22
22
22
21
20
19
18
17
16
18
21
26
33
39
45
50
53
54
55
55
54
53
52
50
49
47
46
45
44
44
44
44
43
42
40
38
36
33
30
28
26
25
24
23
23
23
22
21
21
21
21
21
20
19
18
17
18
21
26
32
39
45
50
54
56
57
57
56
55
53
52
50
49
48
48
48
48
48
48
47
46
46
44
42
42
39
36
36
32
31
31
29
28
28
28
27
27
25
24
24
23
22
22
21
19
19
19
22
27
33
40
48
55
60
62
63
63
62
61
61
60
59
58
57
56
55
54
54
53
51
50
48
47
45
43
41
40
39
37
35
33
32
31
30
29
27
26
25
24
23
22
21
20
19
18
16
15
14
13
13
16
20
26
34
41
48
52
56
57
57
56
55
54
52
51
49
47
46
46
45
45
45
45
44
43
42
40
39
38
36
34
32
30
28
27
26
25
25
24
24
23
22
21
20
20
19
18
17
16
15
15
16
19
24
30
37
43
50
53
55
56
56
55
53
51
49
47
45
44
43
42
43
43
44
44
44
44
43
41
40
38
36
34
33
31
30
29
28
28
28
28
27
27
27
26
25
25
24
23
22
21
20
18
19
22
27
34
41
50
57
61
64
65
65
64
63
61
59
58
56
55
54
53
52
52
52
51
51
51
50
49
47
45
43
42
40
39
38
37
36
36
36
36
35
35
34
33
32
31
30
29
27
26
25
24
23
23
23
26
32
39
46
53
60
65
68
70
70
69
68
67
65
64
62
61
61
60
59
58
57
56
55
55
52
50
50
46
44
44
40
38
38
34
33
33
29
28
28
26
25
25
24
23
23
21
20
20
19
18
17
16
16
16
19
23
30
37
44
51
55
58
60
60
60
59
58
56
55
53
53
52
51
51
51
51
51
50
50
49
47
46
44
42
40
39
37
35
34
33
33
33
33
33
32
31
30
29
29
28
27
27
26
24
23
23
23
25
29
35
42
49
56
61
64
65
65
64
62
61
59
57
55
53
52
52
51
50
50
50
50
49
48
46
44
42
40
38
37
35
33
32
32
31
30
29
29
28
28
27
26
25
24
23
22
21
20
19
17
17
17
21
26
33
41
49
57
62
65
66
65
65
64
63
63
64
67
70
74
79
83
86
87
87
87
84
81
58
55
53
51
50
48
47
47
47
46
46
46
48
50
52
54
57
59
61
62
64
65
66
65
65
64
63
62
61
61
62
64
67
69
71
71
70
66
61
55
48
41
36
31
26
23
21
19
18
18
18
19
19
19
20
21
21
22
22
22
23
23
23
24
24
24
25
25
25
25
25
25
26
26
26
26
26
26
25
25
25
25
25
24
24
24
25
27
30
33
38
41
45
48
50
51
51
51
51
50
50
59
58
57
56
55
54
55
55
54
54
53
52
50
48
45
43
41
40
38
37
36
35
34
34
33
32
32
31
31
30
29
28
27
27
25
24
23
22
20
20
22
27
33
39
46
53
58
61
63
63
63
62
60
59
57
55
54
53
53
53
53
54
54
53
52
51
49
47
45
44
42
40
40
39
38
37
36
35
34
33
33
32
32
32
31
30
29
28
27
25
24
23
24
26
30
37
43
51
59
64
68
70
70
69
69
68
66
65
64
63
61
60
60
59
59
59
59
58
56
55
52
50
47
45
43
42
41
40
39
39
38
36
35
33
32
32
31
29
28
27
27
26
25
24
23
22
21
22
24
28
35
42
51
59
65
69
72
73
73
73
72
72
72
71
70
70
69
67
66
65
64
63
61
60
58
56
54
52
50
48
46
44
43
41
40
39
37
36
34
32
31
29
28
26
25
23
22
21
20
19
18
17
16
15
16
18
22
29
37
45
53
58
62
64
64
64
64
63
63
63
62
62
62
60
59
59
58
57
57
54
51
51
46
43
43
38
36
36
32
31
29
28
27
26
25
24
23
22
21
20
19
17
16
15
13
11
10
9
8
7
6
6
7
10
15
22
28
35
40
44
47
48
48
47
46
45
44
44
43
42
42
41
41
42
42
43
43
43
42
41
39
37
35
33
31
30
28
28
27
26
26
25
25
24
24
23
22
21
21
20
19
18
17
15
14
14
15
17
21
28
35
40
46
50
52
53
52
51
49
48
47
45
44
43
42
42
42
42
43
43
43
42
41
40
39
37
35
33
31
30
28
27
27
26
26
26
25
25
24
24
23
22
21
21
20
19
18
17
16
17
20
24
29
36
42
48
53
55
56
57
56
55
54
53
53
52
52
52
52
52
52
52
51
51
50
48
46
45
43
41
40
39
38
37
36
35
34
33
33
32
32
31
30
29
29
28
27
26
26
24
23
22
21
21
23
26
30
36
42
49
55
60
62
64
64
64
64
62
61
61
59
58
58
57
56
56
55
54
54
52
51
51
49
47
47
44
43
42
41
40
39
38
37
37
36
36
35
34
33
31
29
27
25
24
22
21
21
20
18
18
18
20
25
31
37
43
49
53
55
56
55
54
53
51
50
49
48
48
47
48
47
47
47
46
46
45
43
42
40
39
37
35
33
31
30
29
28
28
27
27
27
26
25
25
24
23
22
22
22
21
21
19
19
18
17
16
16
19
24
29
36
41
47
51
54
54
53
52
50
49
47
44
43
41
40
40
40
40
40
40
39
39
38
36
34
32
30
27
25
24
22
22
21
21
21
20
20
19
19
18
17
16
15
15
14
13
12
11
11
10
11
13
17
23
30
36
41
45
47
48
47
46
45
43
41
40
39
38
38
37
37
38
39
40
40
40
40
39
38
35
33
31
30
28
27
27
27
27
27
27
27
27
26
26
26
26
25
25
24
24
24
26
29
34
40
46
52
57
59
60
60
59
57
56
54
53
52
51
50
50
50
50
51
52
52
51
50
49
48
46
45
43
42
40
40
40
39
38
38
37
36
36
35
34
33
32
32
31
30
29
29
30
34
39
44
51
58
64
68
70
70
71
71
71
68
67
67
64
63
63
62
61
61
61
60
60
58
56
56
53
51
51
48
47
45
45
44
44
43
43
42
41
40
37
36
34
33
31
29
29
31
35
40
47
54
60
64
66
67
66
65
64
64
63
62
62
61
61
61
59
59
59
58
57
57
55
54
54
50
49
49
46
45
45
43
42
40
39
38
38
37
36
35
33
32
31
30
29
26
24
24
23
24
27
32
38
43
50
56
59
61
62
62
61
60
59
58
56
55
54
53
53
53
52
52
52
51
50
48
46
44
42
40
38
36
35
33
32
31
30
30
29
28
26
25
24
22
21
20
19
18
16
15
14
13
13
13
16
20
26
33
40
44
48
50
51
51
49
48
46
44
42
41
41
40
40
40
41
41
41
40
40
39
38
36
35
33
32
30
29
27
26
25
25
24
23
23
23
23
22
22
22
22
22
22
22
21
21
23
27
32
38
44
50
54
57
58
58
56
55
54
52
51
49
48
47
47
47
47
47
48
48
48
48
47
47
44
42
42
39
37
37
35
34
34
33
32
32
31
31
30
30
29
28
27
27
27
27
29
33
39
44
50
56
61
63
64
63
62
61
60
58
57
55
54
53
52
52
52
52
53
53
52
51
50
49
48
46
44
41
40
39
38
37
36
35
34
33
33
32
31
30
29
28
28
27
26
26
25
26
28
33
40
46
54
61
66
68
70
70
69
68
67
66
65
64
64
63
62
62
62
61
60
59
58
57
55
53
51
49
47
45
43
42
41
40
40
39
38
38
36
35
35
33
33
31
30
30
29
28
26
25
24
22
22
24
28
34
40
48
55
61
64
66
66
66
66
65
65
64
63
62
61
59
58
57
57
58
58
57
56
54
52
49
47
45
44
42
40
40
39
38
36
35
33
32
31
30
30
29
28
27
26
24
23
22
21
20
19
18
17
17
16
17
20
25
32
40
47
54
59
62
63
62
61
60
59
57
56
54
53
51
50
49
49
49
48
47
46
45
43
42
40
39
37
36
35
34
33
32
32
31
30
29
28
27
26
25
25
23
23
21
20
19
18
17
16
14
13
12
11
10
11
15
21
28
35
41
47
50
51
52
51
51
48
46
46
42
40
40
40
40
40
40
40
40
39
38
38
35
33
31
29
27
25
24
23
22
22
21
22
22
21
21
20
20
19
18
16
15
13
13
12
11
11
10
10
10
13
18
24
31
39
44
48
50
51
50
49
48
46
44
41
40
38
36
36
36
37
37
38
38
38
37
36
35
33
32
30
30
28
27
26
26
25
25
25
25
24
24
23
22
21
20
20
20
19
19
19
21
25
30
36
41
48
54
57
60
60
60
59
57
55
54
52
51
51
50
50
50
50
51
52
52
52
51
50
48
46
44
42
41
40
39
38
38
36
36
36
36
36
35
35
34
34
33
33
32
32
31
30
32
35
40
46
53
60
66
69
71
72
71
70
69
67
66
64
63
62
62
61
61
61
60
60
59
58
57
56
55
54
52
50
48
47
46
46
45
45
45
45
44
43
42
41
40
38
37
35
33
32
30
29
27
27
30
34
40
47
54
60
64
67
69
69
70
70
70
69
69
69
69
67
67
64
62
62
59
57
57
55
53
53
51
50
50
47
46
46
43
42
41
40
40
38
37
36
35
34
33
32
31
30
29
28
26
25
24
23
23
25
29
35
41
49
55
60
63
64
65
64
63
62
61
60
58
57
56
55
54
54
53
53
52
52
50
49
47
45
43
41
40
38
36
35
34
33
31
31
30
29
28
27
25
24
22
21
20
19
18
17
16
14
13
11
11
11
13
17
22
28
35
41
45
47
48
49
49
48
47
46
46
45
44
44
44
44
44
45
46
46
46
45
44
42
40
38
36
34
33
32
31
30
29
28
28
28
27
27
26
25
25
23
22
21
20
19
17
16
15
15
17
21
26
32
38
43
47
49
50
50
49
48
47
45
43
42
40
40
40
40
40
40
41
41
41
40
40
38
37
35
33
32
31
30
29
29
28
27
27
27
27
27
26
26
25
25
24
22
21
21
20
19
19
22
26
32
40
46
53
58
60
61
62
61
60
59
58
57
55
54
53
53
53
53
53
52
52
51
49
48
46
44
42
40
40
39
38
37
36
35
35
34
33
33
33
32
31
31
30
28
28
27
26
26
25
24
23
23
25
29
34
40
48
48
60
63
63
65
64
64
62
61
61
59
58
58
56
55
55
55
54
54
54
53
52
50
48
46
43
42
40
40
39
38
37
36
36
35
35
34
34
34
34
33
32
31
30
29
27
27
26
25
24
23
22
22
24
28
35
41
49
56
61
63
64
64
63
62
62
61
61
61
60
60
59
58
57
57
56
55
54
52
50
48
47
45
43
41
40
39
38
38
36
35
33
32
31
29
28
27
27
26
25
24
23
21
20
19
18
17
16
15
14
13
15
19
24
31
38
45
50
55
57
58
58
58
56
55
53
51
49
49
48
47
46
45
45
45
44
43
42
41
40
38
36
34
33
32
30
29
28
27
27
25
25
24
23
22
21
20
19
18
17
16
15
14
13
12
11
11
10
9
9
11
15
20
27
34
40
46
49
51
51
49
48
47
45
44
42
41
41
40
40
41
41
42
43
43
43
43
42
41
40
38
37
35
34
32
31
30
29
28
27
27
26
26
25
24
23
22
22
20
19
19
16
15
15
16
19
19
30
37
37
49
54
54
57
57
57
55
53
50
48
46
45
44
44
44
45
46
47
47
47
46
45
44
43
42
40
39
38
37
36
36
35
34
33
33
32
32
31
30
29
29
28
27
26
25
25
25
27
31
37
43
50
57
62
66
68
68
68
67
66
65
64
62
61
61
61
60
60
60
60
61
60
60
59
57
55
52
50
48
46
45
45
44
44
43
42
42
41
40
40
39
39
39
37
36
34
33
31
30
30
31
36
41
48
56
63
69
73
75
76
76
75
75
74
74
73
72
72
71
70
69
69
68
67
66
65
63
62
60
58
56
54
52
51
49
47
46
44
42
41
40
39
38
36
35
33
32
30
29
28
26
25
23
22
22
24
29
35
42
50
57
63
66
68
69
69
69
68
67
67
66
66
65
64
63
61
61
59
58
56
55
52
51
49
47
45
42
41
40
38
37
36
35
35
34
34
32
31
30
28
28
26
25
24
22
21
19
18
17
16
16
17
20
25
31
38
45
53
59
63
66
66
65
64
64
63
61
60
59
57
56
54
53
52
51
49
48
46
45
43
40
39
38
35
33
31
30
29
27
27
26
26
25
24
24
22
21
21
19
18
18
16
15
15
13
12
12
10
10
10
18
24
24
40
46
51
55
56
56
56
55
54
52
50
48
47
46
46
46
47
47
48
48
47
46
44
42
40
38
36
34
32
31
30
29
28
27
27
27
26
26
25
25
24
24
23
22
21
20
19
18
18
19
23
28
35
42
50
57
62
65
67
66
66
65
63
62
60
58
57
55
54
54
54
54
55
55
55
53
52
49
46
43
40
39
37
36
35
34
33
33
32
32
32
31
31
30
29
28
27
26
24
23
22
20
20
22
27
33
40
49
57
64
68
71
72
73
72
72
71
70
68
67
67
66
65
64
63
63
62
61
59
57
55
53
51
49
46
44
43
41
40
39
38
37
36
36
35
35
34
34
33
32
31
30
28
26
25
24
22
22
22
25
30
36
44
53
62
70
77
81
83
84
84
82
80
77
75
72
70
68
67
66
65
64
62
60
58
57
54
52
49
47
45
42
40
39
38
36
35
33
33
31
30
30
28
27
27
25
23
23
20
19
19
17
16
16
15
16
16
26
33
40
48
55
60
63
65
66
65
64
63
62
61
60
59
59
59
58
58
56
55
53
51
48
46
44
42
40
38
36
34
31
29
27
26
25
23
22
21
20
18
17
16
15
15
14
13
12
11
9
8
6
6
4
4
5
8
12
19
27
36
44
50
55
57
58
58
56
55
53
51
50
48
47
46
45
45
45
45
45
45
44
43
41
39
35
32
29
26
25
23
22
21
20
19
18
18
18
17
17
16
16
14
13
13
12
10
9
8
8
7
8
12
18
25
33
41
48
53
57
58
59
59
58
57
56
54
52
51
50
49
49
50
52
53
55
54
53
50
46
42
39
36
33
28
28
27
27
27
27
26
26
25
24
24
23
22
22
20
19
19
21
27
34
41
50
59
66
71
74
76
76
75
74
73
71
70
69
68
66
65
64
64
64
64
63
62
62
60
58
55
52
49
46
43
41
40
38
37
35
34
34
34
34
34
34
34
32
30
27
24
21
18
17
17
19
23
31
40
49
58
66
72
76
78
79
79
78
78
77
76
76
75
75
74
72
72
70
69
68
66
64
62
62
56
53
53
48
46
46
42
41
41
38
37
37
34
33
33
30
28
28
24
22
21
20
19
18
16
15
15
16
19
25
33
41
51
59
66
71
75
76
76
77
76
75
75
74
74
72
71
70
69
68
67
65
64
62
59
57
54
51
49
46
43
41
39
37
35
33
32
30
29
28
26
25
23
21
20
18
16
15
13
11
10
8
7
6
5
6
9
15
23
32
41
50
57
62
64
65
65
64
62
60
59
57
55
54
53
53
52
52
52
52
50
48
46
43
40
38
35
32
30
28
27
25
24
23
22
21
21
20
20
19
18
17
16
15
15
14
13
12
11
10
9
10
12
18
24
32
40
48
54
58
61
61
61
59
57
55
53
50
48
47
46
46
46
47
48
48
47
46
44
42
40
37
33
30
28
25
24
23
23
22
22
22
22
21
21
20
20
19
18
17
15
14
13
12
12
14
20
27
36
44
53
60
65
68
69
69
68
67
65
63
61
60
59
58
58
58
58
58
59
59
58
56
56
51
47
47
41
40
40
36
35
35
32
31
31
29
28
28
27
26
25
24
23
22
20
19
18
17
18
21
27
36
45
55
63
70
75
78
79
79
78
77
76
74
73
71
69
68
67
66
66
65
65
63
62
60
58
55
53
50
47
45
43
41
40
39
38
37
36
35
33
32
30
28
26
25
23
22
20
18
17
15
14
14
15
19
25
34
44
55
64
71
75
78
78
78
78
77
77
76
75
73
71
69
68
66
65
64
63
61
59
57
54
51
48
45
43
40
38
36
34
33
31
31
30
29
27
26
25
23
22
21
19
17
15
14
13
12
11
9
8
8
9
12
18
27
36
46
55
62
66
68
69
69
68
67
65
64
62
61
59
58
57
56
56
56
55
54
53
51
48
46
43
41
39
37
35
33
32
30
30
29
28
28
26
25
25
24
23
22
21
19
18
16
14
13
10
9
8
9
13
20
28
38
48
57
64
68
70
71
70
68
66
64
61
59
57
55
54
53
53
53
53
53
52
50
47
44
41
39
36
33
31
29
26
24
23
22
22
22
21
21
20
19
18
17
17
16
15
13
13
12
12
15
21
29
38
47
56
63
68
71
71
71
69
67
67
62
60
60
57
57
57
58
58
59
58
57
57
54
52
52
48
45
42
40
39
37
35
34
33
32
31
30
29
27
26
25
23
22
20
19
18
20
24
31
40
49
58
66
71
74
76
76
75
74
73
71
69
68
66
64
63
63
62
62
61
60
58
56
53
51
47
44
41
39
36
33
31
29
27
24
23
20
19
17
16
14
13
11
10
9
7
5
6
10
16
24
33
42
51
57
61
63
63
63
62
60
59
57
55
54
52
51
50
49
50
50
50
49
48
46
43
40
38
35
32
30
28
26
25
24
24
23
22
22
21
20
19
18
16
15
13
12
11
13
17
24
32
41
50
57
62
65
66
65
64
62
60
57
54
52
50
49
48
49
49
50
50
50
49
48
45
43
40
38
35
32
30
29
28
26
26
25
25
24
23
23
21
20
18
17
16
15
16
20
25
33
42
52
61
67
72
75
75
74
73
72
69
67
64
63
61
60
59
59
60
60
60
59
59
55
53
53
48
45
45
41
40
40
37
37
37
36
35
35
33
32
32
29
28
28
25
24
24
28
34
43
53
65
76
84
90
93
94
93
92
91
90
88
86
85
84
83
81
80
80
80
79
78
76
74
55
54
52
50
49
47
46
45
44
43
41
40
40
38
37
36
35
34
34
33
32
31
30
29
28
28
28
30
33
37
41
47
52
57
60
62
63
63
63
62
62
61
60
59
58
57
56
55
54
53
52
51
50
49
47
46
44
43
41
40
39
38
36
35
34
33
32
31
30
30
29
29
28
27
27
26
25
24
23
22
22
21
21
21
23
27
32
37
42
47
51
54
55
56
56
55
54
53
52
51
49
49
48
48
47
47
47
46
45
45
43
42
40
39
38
36
35
34
33
32
31
30
29
29
28
28
27
26
25
24
23
22
21
21
20
19
18
17
16
16
16
17
19
24
29
34
40
43
47
49
50
50
49
48
47
46
44
43
42
41
41
42
42
43
44
44
44
43
42
40
39
37
36
34
33
32
31
30
29
29
28
28
27
27
26
26
25
25
24
23
23
22
21
20
20
20
22
26
30
35
40
45
48
50
52
52
52
52
50
49
48
46
45
44
43
43
43
43
43
44
44
44
43
42
42
39
38
38
35
34
34
33
32
32
32
31
31
30
30
30
30
29
29
28
27
27
26
26
27
30
34
39
43
49
53
57
58
59
60
59
59
58
57
56
55
54
53
53
52
52
52
52
52
51
50
49
48
46
44
42
41
40
40
39
38
37
36
35
35
34
33
33
32
32
31
31
30
29
29
28
28
28
29
32
36
40
46
51
55
58
61
61
62
62
61
61
60
59
59
58
57
56
56
55
55
54
53
53
52
50
49
48
46
45
44
43
42
41
40
39
38
37
36
35
34
34
33
32
31
31
30
30
29
28
27
27
26
27
28
31
35
40
45
50
54
57
58
59
59
58
57
56
55
54
54
53
52
51
51
50
50
49
48
47
46
45
43
42
41
40
39
38
37
36
36
35
34
33
33
32
32
31
31
30
29
28
27
27
26
26
25
24
24
24
24
26
28
32
37
41
45
49
52
53
54
53
53
52
51
50
49
48
47
46
45
45
45
44
44
43
43
43
40
39
39
36
34
34
32
31
31
29
29
29
28
27
27
27
26
26
25
25
24
23
22
22
21
20
19
19
18
18
18
20
24
28
33
37
40
43
44
45
45
44
47
45
43
41
40
39
38
37
38
38
39
39
39
38
37
35
32
30
27
24
22
20
19
18
17
16
15
14
13
13
12
11
10
9
8
7
6
5
4
3
2
1
2
5
11
18
26
34
40
44
47
49
50
50
50
50
49
48
48
47
46
46
47
48
50
51
52
52
52
52
51
51
50
49
49
48
48
48
48
48
48
48
47
46
45
43
41
40
39
38
36
35
36
39
42
48
56
64
71
76
79
81
82
81
80
78
76
74
71
69
67
66
66
67
67
67
67
67
66
64
62
59
57
54
51
49
47
46
44
43
41
40
39
37
35
33
32
31
30
29
27
26
24
24
26
31
38
47
57
67
75
80
84
86
88
89
90
89
89
88
87
85
83
82
80
79
77
76
73
71
69
67
66
63
50
49
48
46
44
43
41
40
39
38
37
36
35
34
33
32
31
31
30
29
28
27
26
27
29
33
38
42
48
52
56
58
58
58
58
58
57
57
57
57
56
56
55
54
54
51
49
49
46
45
45
43
43
43
42
42
42
41
40
40
40
39
39
36
34
33
31
30
29
28
28
27
27
27
26
25
25
24
25
26
29
33
37
40
44
47
48
48
48
47
54
53
51
51
50
50
51
51
51
52
52
52
52
51
50
49
48
46
44
43
40
38
35
32
29
26
23
21
18
16
14
12
10
8
7
6
6
5
5
5
5
5
4
2
1
1
3
6
13
22
31
40
47
52
55
56
56
55
53
52
50
48
47
46
46
46
46
47
47
46
46
45
43
41
40
39
37
34
32
30
28
25
24
22
22
21
20
19
19
18
17
15
13
12
10
8
7
6
5
4
4
4
4
6
10
16
22
29
36
40
42
43
42
42
41
40
39
37
35
33
32
32
31
30
30
29
28
27
25
23
21
18
15
13
11
9
8
8
8
8
8
9
9
10
11
11
12
13
12
12
11
11
10
10
9
7
6
4
3
3
5
10
17
25
32
37
40
41
40
38
33
33
24
20
20
12
9
9
7
8
8
11
11
11
11
11
11
10
7
7
2
0
0
0
0
0
0
0
0
0
0
0
0
0
0
0
0
0
0
0
0
1
14
26
37
43
45
45
43
40
35
32
29
26
23
21
21
20
20
22
23
24
24
23
21
17
14
11
7
3
0
0
0
0
0
0
0
0
0
0
0
0
0
0
0
0
0
0
0
0
8
21
36
49
63
72
77
78
78
76
73
69
65
61
57
54
51
49
49
49
50
51
52
52
52
49
46
43
40
37
34
31
31
32
34
36
39
41
43
44
43
41
39
35
33
30
26
22
20
18
18
23
31
42
55
66
76
81
84
83
81
79
77
76
73
69
64
60
56
53
51
50
50
49
47
46
45
43
41
40
38
35
32
29
25
22
19
16
13
11
9
7
5
3
1
0
0
0
0
0
0
0
0
0
0
0
0
3
15
28
41
53
59
61
60
57
52
48
45
43
41
41
40
41
41
41
40
40
38
36
33
31
29
26
22
19
16
14
10
8
6
5
3
2
2
2
1
1
1
2
3
5
5
6
6
5
3
2
1
0
0
0
0
0
0
2
13
26
38
49
57
59
57
55
55
52
50
50
45
42
42
40
40
40
40
40
40
38
36
36
32
29
29
21
18
15
13
12
11
12
12
11
10
10
9
8
7
5
5
4
3
1
0
0
0
0
0
0
0
0
0
0
0
3
15
28
40
51
58
61
60
57
52
47
42
38
33
28
27
25
25
24
23
23
24
25
26
25
24
22
18
13
9
7
5
4
5
5
5
5
5
7
9
11
12
12
11
10
9
9
9
8
8
6
4
1
0
1
6
15
27
38
48
57
62
64
64
60
56
50
45
39
33
29
26
24
24
24
26
28
29
29
28
26
24
21
19
16
14
12
11
11
11
10
11
11
12
13
14
16
18
18
19
20
20
20
21
22
20
20
18
24
33
44
57
70
79
85
87
86
85
84
83
80
78
76
73
67
64
62
61
61
62
61
60
60
59
57
54
51
46
43
39
35
31
28
25
22
19
15
11
9
7
5
3
2
1
2
4
4
3
1
0
1
7
16
30
44
61
76
86
86
94
94
94
93
92
92
87
85
85
59
58
58
57
57
57
56
56
56
55
54
52
52
51
51
51
50
50
50
49
49
48
48
48
48
47
47
46
45
44
43
41
40
39
38
37
36
37
40
45
51
58
64
68
70
70
69
68
66
65
63
62
61
60
59
58
57
56
57
57
56
55
54
53
51
49
47
46
46
45
44
43
42
41
40
40
39
39
38
38
37
36
34
33
31
30
29
28
27
27
28
30
34
40
45
52
58
62
65
65
64
62
60
58
55
52
50
49
48
48
48
48
48
47
46
45
44
43
41
40
39
38
36
35
34
35
35
35
34
33
33
32
31
31
31
29
27
25
23
21
22
25
31
38
44
50
54
56
56
55
52
50
47
44
41
39
36
35
34
34
35
36
37
38
38
37
36
35
33
32
30
29
28
28
28
27
27
27
26
26
26
26
27
27
26
25
25
24
26
29
34
39
44
48
51
51
51
58
53
47
42
36
29
22
17
13
11
10
11
12
14
15
15
13
11
9
6
4
2
1
0
0
0
0
0
0
0
1
2
3
4
4
5
5
7
13
23
35
48
62
73
80
84
85
85
83
80
76
72
68
64
62
60
60
61
61
61
61
62
63
63
61
59
59
51
46
46
39
36
36
33
32
32
31
31
31
32
32
32
31
30
29
31
39
50
64
79
93
104
110
112
113
111
109
107
105
103
101
99
98
98
99
100
101
102
101
99
96
91
63
62
61
59
58
56
55
53
52
52
52
52
52
52
52
52
51
50
50
48
47
46
47
49
54
60
68
75
81
86
88
88
87
85
84
81
79
77
75
73
72
72
71
71
71
70
69
68
66
64
62
60
57
54
52
50
47
45
43
42
41
40
40
39
39
38
37
36
36
36
35
33
32
31
30
30
32
37
42
49
56
62
66
69
69
68
66
65
63
61
60
59
58
57
57
56
55
54
53
53
52
51
50
48
46
43
40
39
36
35
33
32
31
31
30
29
28
27
27
26
25
24
23
22
20
18
17
16
16
15
15
18
22
29
37
44
51
56
59
60
59
57
55
54
52
51
50
48
47
46
46
45
44
44
43
41
40
39
37
34
32
29
27
25
24
23
23
23
23
21
20
20
18
17
17
16
15
15
14
13
13
10
10
10
9
11
11
22
29
37
43
48
51
52
52
50
48
46
43
41
39
37
36
35
35
36
38
39
40
40
40
40
38
35
33
31
29
26
25
24
23
23
23
24
24
23
23
22
22
21
20
19
18
17
15
16
18
22
28
36
43
50
56
59
60
61
60
59
57
54
52
49
47
46
46
46
47
47
48
48
48
48
47
45
44
41
40
38
36
34
33
33
32
32
32
32
32
31
31
30
30
29
29
29
28
28
27
27
29
34
41
49
58
67
73
77
78
79
79
78
77
76
74
73
71
69
67
66
65
64
64
63
62
60
58
56
53
50
47
45
42
40
39
38
37
37
36
36
35
34
33
33
32
31
30
29
28
27
26
26
27
31
37
43
53
62
71
77
81
83
83
82
80
77
75
72
69
67
65
64
63
62
62
61
60
59
57
56
54
52
50
48
46
44
43
41
40
39
38
37
35
34
32
30
28
26
25
24
22
21
20
19
18
17
19
22
29
36
44
53
60
66
68
69
69
68
67
64
62
59
57
56
54
54
53
53
53
53
53
52
50
49
46
44
41
39
37
36
34
32
31
29
27
26
25
25
23
22
22
20
18
18
16
14
14
10
8
8
7
9
9
22
31
31
48
53
53
58
59
58
56
53
50
47
44
42
41
40
40
41
41
42
43
43
42
41
40
37
35
32
29
27
25
23
21
20
19
19
19
19
19
20
21
22
22
22
22
21
19
18
17
17
19
24
31
39
47
54
60
63
64
64
62
60
57
54
50
47
44
42
40
40
40
41
42
43
43
43
41
40
38
35
32
30
28
26
25
25
24
24
24
25
25
25
25
24
24
23
22
21
20
21
24
30
38
45
54
62
67
70
71
71
70
68
66
64
61
58
56
55
55
55
55
57
57
57
57
56
55
53
51
49
47
45
43
41
40
40
40
39
39
38
37
36
35
35
34
33
31
30
30
31
35
41
51
61
72
82
88
92
95
95
95
94
92
90
89
87
85
84
83
82
82
81
81
80
78
76
74
55
54
52
51
49
48
46
45
43
42
41
40
40
39
38
37
36
36
35
34
33
33
32
33
34
37
37
44
48
48
56
58
59
59
59
59
57
56
56
55
54
54
53
52
52
51
51
50
50
49
47
46
44
43
41
40
39
38
37
37
36
36
35
35
35
34
34
33
33
32
31
31
30
29
29
29
30
32
36
40
43
48
51
54
55
55
55
54
53
65
63
60
59
58
57
56
56
56
55
55
53
52
49
47
44
41
39
37
34
32
30
29
27
26
25
24
23
23
22
21
20
18
17
16
14
12
11
9
10
12
18
25
35
45
54
61
66
68
69
68
66
64
62
59
57
55
53
51
50
50
49
49
47
46
44
41
39
36
33
31
28
26
24
22
21
20
20
19
18
17
16
15
14
13
12
11
9
8
7
5
5
7
12
18
27
36
44
51
56
59
61
60
58
56
54
51
49
47
46
45
45
46
47
48
50
50
50
49
48
46
43
41
39
37
36
34
32
31
30
28
27
26
26
25
25
24
24
23
22
21
21
24
30
38
47
57
66
73
78
81
81
81
79
77
74
71
68
66
64
62
62
62
62
62
62
61
60
59
56
54
51
48
45
42
40
39
38
36
35
34
33
31
30
29
29
28
26
25
23
20
18
18
21
27
35
44
55
67
76
83
87
90
91
91
90
89
89
85
83
83
80
79
79
77
75
75
72
69
69
51
50
50
46
45
45
41
40
40
39
37
36
36
35
34
33
32
31
30
29
28
27
26
26
25
25
27
29
34
39
43
49
53
56
58
58
59
58
58
57
56
55
54
54
53
53
52
52
51
50
50
49
47
46
45
44
42
40
40
39
38
37
36
35
35
34
33
33
32
32
31
31
30
29
28
28
27
26
25
25
25
27
30
35
55
57
58
58
57
56
55
54
53
52
52
51
51
50
50
50
49
48
47
46
45
43
42
40
40
39
37
36
35
34
33
32
32
31
31
30
29
29
28
27
26
25
24
22
22
21
21
21
21
24
28
33
38
42
47
52
53
54
53
52
51
50
48
47
45
44
43
43
43
43
43
43
43
42
41
40
39
38
37
35
34
32
31
30
29
29
28
28
27
27
26
25
25
24
24
24
23
22
22
21
21
23
25
29
34
39
43
47
50
52
53
53
52
51
50
49
47
46
45
45
45
45
45
46
47
47
47
46
46
44
42
42
40
39
39
36
36
36
35
35
34
34
34
33
33
32
32
32
31
30
30
29
30
31
34
38
43
48
53
58
61
62
63
63
62
61
60
59
58
56
56
55
55
54
54
54
54
53
52
51
50
48
47
45
44
42
41
40
40
39
38
38
37
37
36
35
35
34
33
32
31
31
30
29
28
28
28
31
35
40
45
51
57
61
63
65
65
65
64
63
62
60
59
58
57
56
56
55
55
54
54
53
52
51
49
48
46
44
43
41
40
39
38
37
36
36
35
34
33
32
30
29
28
27
25
24
23
22
21
20
19
20
23
27
32
37
42
46
50
52
53
53
52
51
50
48
47
46
44
43
43
43
42
42
42
42
42
41
40
39
37
36
34
32
31
30
29
29
29
28
28
27
27
26
26
25
25
24
24
23
22
22
21
20
21
22
25
30
35
40
45
49
53
54
55
55
54
53
51
49
48
46
45
45
44
45
45
46
46
46
46
45
43
42
41
40
38
37
36
35
34
33
33
33
32
32
32
32
31
31
30
30
29
29
28
27
27
29
32
36
41
46
52
56
60
61
62
63
62
62
60
59
58
57
56
55
55
54
55
55
55
54
54
52
51
51
48
46
46
43
42
42
40
40
40
39
38
38
37
37
36
36
36
36
35
35
34
34
33
33
33
35
39
42
48
54
59
63
66
67
68
68
67
66
64
63
61
60
59
58
57
57
56
56
55
55
54
52
51
49
47
45
43
41
40
39
38
37
36
35
34
33
33
32
31
31
30
29
28
27
26
25
24
23
22
23
25
28
33
39
44
50
54
57
59
60
60
59
58
57
55
54
52
51
50
50
50
49
49
48
47
46
45
43
42
40
39
37
35
34
32
31
30
29
28
28
27
26
26
26
25
25
24
23
23
22
21
20
19
19
19
21
25
30
35
41
46
50
53
54
55
54
53
52
50
49
47
45
44
44
44
44
45
45
46
45
44
43
41
40
39
37
35
34
33
32
31
31
31
30
30
29
29
28
27
27
26
25
25
24
23
23
22
21
22
23
26
31
36
41
47
52
55
57
58
57
56
55
54
52
50
48
47
46
46
46
46
47
47
47
47
46
46
44
42
42
39
38
38
35
35
35
33
32
32
31
31
30
30
29
29
29
28
28
27
26
26
27
29
33
38
43
50
55
60
63
65
66
65
65
64
62
61
60
59
58
57
56
55
55
55
54
54
53
52
50
48
47
45
43
42
40
40
39
39
38
37
36
35
35
34
33
33
32
31
30
30
29
28
27
27
27
29
32
37
42
49
56
62
66
69
71
71
71
70
69
68
67
65
64
63
62
61
60
60
59
58
57
56
54
53
51
49
48
46
44
42
40
40
38
37
36
35
35
34
33
32
31
30
29
28
27
26
25
24
24
23
22
23
25
28
33
39
45
52
58
61
63
64
64
63
63
62
61
60
58
57
56
55
54
54
53
52
51
50
48
47
45
43
41
40
39
37
35
34
33
32
31
31
30
29
27
26
25
24
24
23
22
22
21
20
19
19
18
18
18
20
23
27
33
39
45
50
53
55
56
56
55
54
53
52
50
49
47
46
45
45
44
44
44
44
43
41
40
38
36
34
32
30
28
27
25
24
24
23
23
23
23
23
22
22
21
20
20
19
19
18
18
17
16
16
17
20
24
30
37
42
48
53
55
57
57
56
56
53
51
51
47
45
45
43
43
43
43
43
43
43
42
42
40
39
39
35
33
32
30
30
29
29
28
28
27
27
27
27
27
27
26
26
25
24
23
23
25
28
33
38
44
50
56
59
61
63
62
62
60
59
57
55
53
51
50
50
50
50
50
50
50
49
48
47
45
43
41
40
38
37
35
34
34
33
32
31
31
30
30
30
29
29
28
28
27
26
25
26
29
33
39
44
51
57
62
65
67
68
67
66
65
64
62
61
60
58
58
57
57
57
57
56
56
55
54
52
50
48
46
44
42
41
40
39
38
37
36
34
33
33
32
31
30
29
28
27
26
25
25
25
28
32
38
43
50
56
60
63
65
65
65
64
62
61
59
57
56
55
54
53
53
53
53
52
51
50
49
47
45
43
41
39
37
35
33
31
30
29
28
27
26
25
24
23
22
21
21
20
19
19
18
19
21
24
29
35
40
47
52
55
57
58
58
57
55
53
51
49
48
47
46
45
44
44
45
45
45
43
42
42
40
38
38
34
32
32
30
29
29
28
27
27
26
26
26
25
25
24
24
23
22
22
23
25
29
34
40
45
51
56
59
60
60
60
59
57
55
53
51
50
49
48
48
48
49
49
50
50
49
48
46
44
43
41
40
39
37
36
36
35
34
34
33
32
32
32
32
31
30
30
29
29
29
32
37
42
48
55
61
65
67
69
69
69
68
67
65
63
62
60
59
59
58
58
58
57
57
55
54
52
51
49
47
45
43
41
40
39
38
37
35
34
33
32
31
30
30
29
28
27
26
25
25
25
27
30
35
41
48
54
59
62
64
65
65
64
63
62
61
60
58
57
56
55
54
54
53
53
52
51
49
47
45
42
40
38
36
34
32
30
29
28
27
26
25
25
24
24
23
22
21
20
19
18
17
18
20
23
29
35
41
47
53
56
58
59
59
57
56
54
52
50
49
47
46
46
45
45
45
45
44
43
42
40
38
36
34
32
31
29
28
28
28
27
27
27
27
27
26
26
25
25
24
23
22
22
23
26
30
35
40
47
52
57
61
63
63
62
61
59
57
56
54
53
52
51
51
51
51
51
51
51
50
48
46
44
42
40
40
39
38
37
36
36
34
33
33
32
32
32
30
29
29
27
26
26
25
25
27
31
36
36
49
56
61
64
67
67
67
67
66
65
64
62
60
59
57
56
56
55
55
54
53
51
49
47
45
43
41
40
38
36
35
33
32
30
30
29
28
27
26
26
25
24
23
22
21
20
19
18
18
20
23
28
34
40
47
53
58
61
63
63
62
61
59
58
55
54
53
51
50
49
49
48
48
47
46
45
43
41
40
38
36
34
32
30
29
27
26
25
24
23
22
22
21
20
18
18
17
16
15
14
13
12
11
11
13
17
22
29
37
43
49
53
54
55
55
54
53
51
50
48
46
45
44
43
43
43
43
43
43
42
40
39
37
35
33
31
29
28
26
25
24
23
23
22
22
22
21
20
20
19
18
18
17
16
15
15
14
15
18
23
29
35
41
47
52
55
56
57
56
55
53
51
48
46
45
43
43
43
43
44
44
45
45
45
44
42
41
40
38
37
35
34
33
32
32
31
31
30
30
30
29
29
28
27
27
25
24
24
23
22
22
24
29
29
41
49
49
61
64
64
67
66
65
64
62
60
58
56
55
53
53
53
53
53
53
53
52
50
49
47
44
42
40
39
37
36
34
33
31
30
29
29
28
27
26
26
25
24
23
23
22
21
20
19
20
23
28
34
40
48
54
60
62
64
65
64
63
62
60
58
56
54
52
51
51
51
51
51
51
51
50
49
47
46
44
41
39
37
35
33
32
30
29
27
26
25
24
23
23
22
22
21
20
19
17
17
16
16
18
22
28
34
41
48
53
57
59
59
59
57
55
53
51
49
47
45
44
43
43
44
44
44
44
43
42
40
39
37
35
33
31
29
28
27
26
26
25
24
24
24
23
23
23
22
22
21
20
20
19
20
23
27
33
39
45
51
56
58
59
59
58
57
55
53
51
49
48
47
47
47
47
48
49
50
50
49
48
47
45
43
41
40
39
37
36
35
34
34
33
33
32
32
31
31
30
30
29
32
38
43
50
57
63
68
70
72
72
71
69
67
65
63
61
59
58
58
57
58
58
58
58
57
56
55
53
51
48
46
44
42
40
39
38
37
36
34
33
32
31
30
29
28
27
26
25
24
23
24
26
31
36
43
53
53
64
67
67
68
67
67
65
63
62
61
59
58
57
56
56
55
55
54
53
52
50
48
46
43
41
40
38
37
35
34
32
31
30
29
29
28
27
26
25
24
23
22
21
20
19
20
23
27
33
40
46
53
58
61
63
64
64
62
61
59
57
54
52
50
49
48
47
47
47
47
46
45
43
41
40
37
35
33
31
29
27
26
24
23
23
22
21
21
20
19
19
19
18
17
17
16
16
17
20
25
31
38
45
51
55
58
59
58
57
55
53
51
48
46
44
43
43
43
43
43
44
44
43
42
41
40
37
35
34
32
31
30
29
28
28
28
27
27
26
26
26
25
25
24
23
22
21
21
22
25
29
35
41
49
55
61
64
65
65
64
63
61
59
57
55
54
52
51
51
51
51
51
51
50
49
48
46
44
42
40
39
37
35
34
33
31
30
30
29
28
28
27
26
26
25
24
23
22
21
22
24
28
34
40
48
56
62
62
68
69
69
69
67
67
64
62
62
59
58
58
56
56
56
54
53
53
50
48
46
44
41
40
38
36
35
34
33
32
31
30
29
28
28
27
27
26
25
24
23
23
21
21
21
23
27
32
39
46
54
60
64
67
67
67
66
65
63
61
59
57
56
54
53
52
52
51
51
50
49
48
46
44
41
40
37
35
33
31
30
29
28
27
26
25
24
23
23
22
21
20
20
18
17
16
15
14
15
18
23
29
37
44
51
56
59
61
61
60
59
57
54
52
50
48
46
45
45
44
44
44
44
43
42
40
39
37
35
33
30
28
26
25
23
22
22
21
20
20
20
19
19
18
18
17
16
15
15
14
13
15
18
23
30
37
43
49
54
57
58
58
57
55
53
50
48
46
44
42
42
42
42
42
43
43
42
42
40
39
37
35
33
31
29
28
27
26
26
25
24
24
23
23
23
22
22
21
20
19
19
20
23
28
34
40
47
53
58
61
62
62
61
59
57
55
53
51
50
48
48
48
48
48
49
49
49
48
47
45
43
41
39
37
35
34
33
31
31
30
29
29
28
28
28
27
26
26
25
24
24
25
29
34
40
48
56
63
68
71
73
73
72
71
69
68
68
64
62
62
59
58
58
58
57
57
56
55
55
50
48
48
43
40
40
38
36
35
34
33
32
31
30
30
29
28
28
27
26
25
24
23
23
24
28
33
40
47
55
62
67
69
71
71
70
69
67
66
64
62
61
59
58
57
56
56
55
54
52
51
49
47
44
41
39
37
34
33
31
29
28
27
26
25
24
23
22
21
21
20
19
18
17
16
15
15
17
20
25
32
40
47
54
59
62
64
64
63
62
60
58
56
54
52
51
50
49
49
49
49
49
48
47
45
43
40
39
36
34
32
31
29
29
28
27
27
26
26
25
25
25
24
24
23
22
21
20
20
21
24
29
35
42
49
57
62
66
68
68
67
66
64
62
59
57
55
53
52
52
52
52
52
52
51
50
48
46
43
41
39
37
35
33
31
30
29
28
27
27
26
25
25
24
24
23
22
21
20
19
18
17
17
19
24
30
37
45
53
60
65
68
70
70
69
68
66
64
62
61
59
58
57
56
55
55
54
54
52
50
50
46
44
44
39
37
37
33
31
31
28
28
28
26
25
25
23
22
20
19
17
16
14
12
10
8
6
6
7
12
18
25
33
41
48
53
57
59
59
59
59
58
57
55
54
52
51
51
50
51
51
52
52
52
51
49
47
45
42
40
38
36
34
32
31
30
29
28
28
27
26
25
24
24
22
22
21
20
19
21
24
29
36
42
49
55
60
63
64
64
63
61
59
56
53
51
49
47
46
46
46
46
46
45
44
43
41
40
38
36
34
31
29
28
26
25
24
23
23
22
22
21
21
20
19
19
18
17
17
17
18
23
29
36
44
52
60
65
68
70
70
69
67
65
63
60
58
56
54
53
52
51
51
51
50
49
48
47
45
42
40
38
35
33
31
29
28
26
26
25
25
24
24
24
23
22
22
21
21
21
23
27
33
40
46
54
60
65
67
68
68
67
65
63
61
58
56
54
52
50
49
49
50
51
51
51
50
49
48
46
43
41
40
38
36
35
33
32
31
30
29
28
28
27
26
25
24
24
26
30
36
42
50
57
63
67
69
70
69
67
65
63
61
59
57
55
54
53
52
52
52
52
51
50
48
46
43
41
39
36
34
32
30
28
28
26
25
25
23
23
23
22
21
21
19
18
18
22
27
27
40
47
53
58
60
61
61
60
59
57
55
52
50
48
47
46
45
45
45
45
44
43
42
40
38
36
33
31
29
26
25
24
23
22
22
21
20
20
19
19
18
18
17
16
15
15
16
19
25
32
39
45
51
55
57
58
57
56
54
52
50
48
46
44
43
43
43
44
45
45
45
45
44
42
40
40
38
36
34
33
32
31
30
30
29
29
28
27
27
27
26
25
25
24
24
25
28
32
39
45
52
58
62
65
66
66
65
64
62
60
58
56
55
53
53
52
53
53
53
52
51
50
49
46
44
42
40
38
36
34
33
32
30
29
29
28
27
27
26
25
24
23
23
22
21
20
20
21
24
28
34
40
48
54
59
62
63
63
63
61
60
58
57
55
54
53
51
51
50
49
49
48
47
46
44
41
40
38
35
33
31
29
28
26
25
25
25
25
25
25
25
24
24
23
22
22
20
19
18
17
16
16
20
24
24
37
44
44
55
58
58
60
59
59
57
55
55
51
50
50
48
47
47
47
47
46
46
45
44
42
40
39
37
35
33
32
30
29
28
27
27
26
26
25
25
24
23
23
22
21
20
20
19
19
20
23
27
33
40
45
51
55
57
58
58
58
56
55
53
51
49
48
47
46
46
47
47
47
47
47
46
44
42
40
39
37
35
34
33
32
31
31
30
30
29
29
28
28
27
27
26
25
24
24
22
22
21
21
23
27
33
39
45
52
57
61
62
63
62
61
60
58
56
55
53
52
50
49
49
49
49
49
49
48
47
46
44
42
40
39
37
36
34
33
31
30
29
28
28
27
26
26
25
25
24
23
23
22
21
21
20
19
20
22
26
32
38
44
51
55
58
60
60
59
58
56
54
52
50
49
47
46
45
45
45
45
45
46
45
44
42
40
39
37
35
33
32
31
29
28
28
27
26
26
25
25
24
23
23
22
22
21
20
20
19
19
20
23
27
33
39
45
51
55
58
59
59
58
56
54
52
50
48
47
46
45
46
46
47
48
48
48
47
46
44
42
40
39
37
35
34
33
32
31
31
31
31
30
30
29
29
28
28
27
26
26
25
25
25
24
25
25
33
39
39
53
59
59
66
67
67
66
65
65
62
61
61
58
56
56
55
55
54
54
54
53
52
51
49
47
45
43
41
40
38
36
35
33
32
31
30
30
29
28
28
27
26
26
25
24
23
22
21
21
21
22
26
31
38
44
51
57
61
63
64
64
63
62
60
59
57
55
54
53
52
51
51
51
50
50
49
48
46
44
42
40
39
37
35
34
33
31
30
29
28
27
27
26
25
25
24
23
23
22
21
20
19
18
18
18
20
24
29
35
41
47
53
56
58
58
58
57
55
53
51
49
48
46
45
44
44
45
46
46
47
46
45
43
41
39
37
34
32
31
30
28
28
27
26
26
26
25
25
25
24
24
23
23
22
21
21
20
21
23
27
32
38
45
51
56
60
62
62
62
61
59
57
55
53
51
50
49
49
49
49
50
50
51
50
49
48
46
44
42
40
39
37
36
34
33
32
32
31
30
30
29
29
29
28
28
27
26
26
25
25
25
27
32
32
44
51
51
64
68
68
71
70
70
68
67
67
63
62
62
60
59
58
58
57
57
56
55
54
52
50
48
45
43
41
40
39
37
36
36
35
34
34
33
32
31
30
29
28
27
26
25
24
23
22
21
23
26
31
38
44
52
59
63
66
68
68
68
67
65
64
62
60
59
57
56
55
55
52
51
49
47
45
42
40
38
36
35
33
32
30
29
28
27
27
26
25
24
24
23
23
21
20
20
19
18
18
17
18
18
26
33
33
47
54
54
63
64
64
64
63
63
58
56
54
52
50
49
48
48
48
48
48
47
46
44
42
40
38
35
33
31
29
27
27
25
25
24
24
23
23
22
22
21
21
20
19
19
18
17
16
15
14
15
18
24
30
37
44
51
55
58
59
59
57
56
53
50
47
45
42
41
40
40
40
41
42
42
42
41
40
39
37
34
32
30
28
27
26
26
26
25
25
25
25
25
25
25
24
24
23
23
22
21
20
19
20
22
26
33
40
47
55
60
64
66
67
66
65
63
61
58
56
54
52
51
51
51
51
52
52
52
51
50
48
47
45
43
41
40
38
37
36
35
34
33
32
31
31
30
30
29
28
28
28
26
25
25
24
23
23
29
34
34
49
58
58
71
74
74
77
76
76
73
71
69
67
65
63
62
61
61
61
61
60
60
58
56
54
52
49
46
44
42
40
39
37
36
34
33
32
31
30
29
29
27
26
26
25
24
23
21
20
19
19
21
25
31
38
45
53
60
65
68
69
69
68
66
64
61
59
57
55
53
52
52
51
51
51
50
49
48
46
44
42
40
37
35
33
31
29
27
26
25
25
24
23
22
21
21
20
20
19
19
18
17
16
15
16
18
21
27
34
41
49
55
60
62
63
63
62
60
58
55
53
51
49
48
47
47
47
48
48
47
47
45
43
40
38
35
33
30
28
26
25
24
23
23
22
22
22
22
22
22
21
21
20
20
19
19
20
22
26
32
40
47
54
60
64
66
66
66
64
62
60
58
55
53
52
51
50
51
51
52
53
53
52
51
50
48
45
43
41
39
37
36
34
33
32
32
31
30
30
30
29
29
28
27
26
26
25
25
28
32
32
45
54
54
69
75
75
80
81
80
79
77
77
74
72
72
70
68
67
66
65
64
62
61
59
57
55
52
49
46
44
41
40
38
37
35
34
33
31
30
29
28
27
26
25
24
23
22
21
20
21
23
28
35
42
51
58
64
69
71
72
72
71
69
67
65
63
61
59
57
56
55
54
53
52
51
49
47
44
42
40
38
35
33
31
29
28
27
25
24
23
22
22
21
20
20
19
18
17
16
15
14
14
15
18
24
30
38
46
53
59
63
65
65
64
63
60
57
54
52
49
47
46
45
45
45
46
46
45
44
42
40
38
35
33
31
29
27
25
24
22
21
21
20
20
19
19
18
18
18
17
16
15
14
13
13
15
19
25
32
40
47
54
59
62
63
63
62
60
58
55
52
50
48
46
45
45
45
46
47
47
46
45
43
41
39
36
34
32
30
28
27
26
25
24
24
24
24
24
23
22
22
21
20
20
20
20
22
25
31
38
45
54
61
66
69
70
70
69
67
65
62
59
57
55
53
52
52
52
53
52
52
51
49
48
45
43
40
38
36
34
32
31
29
28
27
27
26
26
25
24
23
23
22
21
20
19
20
22
26
32
40
47
56
56
68
71
71
73
72
72
68
66
66
61
59
59
56
55
55
55
55
55
53
51
48
45
42
40
37
35
33
31
30
28
27
26
25
24
23
22
22
21
19
18
17
16
16
17
19
23
29
37
44
52
59
63
66
67
66
65
63
61
58
55
53
51
49
48
48
48
49
49
48
47
46
44
41
39
36
33
31
29
27
26
25
24
24
23
23
22
22
22
21
20
20
19
18
18
20
23
28
36
42
51
57
62
65
66
66
65
63
61
59
56
53
51
49
48
48
48
49
49
49
48
46
45
42
40
39
36
35
33
32
30
29
28
28
27
27
26
26
26
25
24
23
23
22
22
24
29
35
41
49
58
65
70
73
74
74
73
72
69
67
64
62
60
58
57
57
56
56
56
56
54
52
50
47
44
41
39
37
35
33
32
31
30
29
28
27
26
26
25
24
24
23
22
21
20
20
22
27
33
40
50
59
66
72
75
77
77
76
74
72
70
67
65
63
61
59
58
58
56
55
55
53
51
51
46
43
43
38
36
36
32
30
30
27
26
26
25
24
23
23
22
21
20
19
18
17
16
15
15
17
22
28
37
45
54
62
68
71
73
73
72
70
68
65
63
60
58
56
54
52
51
51
50
50
48
46
44
41
39
36
34
31
30
28
26
25
24
23
22
22
21
21
20
20
19
18
17
16
15
14
13
13
13
16
21
28
36
44
52
59
64
67
68
67
66
63
60
57
54
52
50
49
48
47
47
47
46
45
44
43
41
39
37
34
31
28
26
24
23
22
21
20
20
19
19
18
17
17
16
15
15
14
13
12
11
11
13
16
22
30
38
45
52
57
60
61
60
59
57
54
52
49
46
43
42
40
40
40
41
42
42
42
41
40
38
36
33
30
28
27
25
24
23
22
22
21
21
21
20
20
20
19
18
17
16
15
15
15
17
22
28
35
43
52
59
63
66
67
66
64
62
60
57
54
52
49
48
47
46
47
48
48
49
48
47
45
43
40
38
36
33
31
29
28
26
25
25
24
24
24
23
23
23
22
21
21
20
20
19
20
24
30
37
45
55
63
70
75
77
78
78
76
74
72
70
67
65
63
62
61
60
60
59
59
59
57
55
55
50
47
47
41
40
40
35
34
34
31
30
30
28
27
27
26
26
25
24
23
22
21
21
22
26
32
39
48
57
66
72
76
78
79
78
76
75
73
70
68
66
63
61
60
59
58
57
56
55
53
51
49
46
43
40
39
36
33
31
30
28
27
26
25
24
24
23
23
22
21
20
19
18
17
17
18
22
28
35
42
50
58
63
66
67
67
66
64
62
59
57
54
52
51
50
49
49
49
49
48
47
46
44
41
40
37
34
32
30
28
27
25
24
23
22
22
21
21
21
20
19
18
17
16
15
15
15
17
21
27
34
41
48
54
59
61
61
60
58
56
53
50
47
45
43
42
41
41
42
42
43
42
41
40
38
36
34
31
29
27
25
24
22
21
20
20
19
19
18
18
17
17
16
16
15
15
14
14
16
20
25
32
39
46
51
55
56
57
55
54
52
49
46
44
42
40
40
40
40
40
41
42
42
42
41
40
38
35
33
31
30
28
27
27
25
24
24
23
23
23
22
22
22
20
20
20
20
21
21
29
35
35
48
53
57
59
59
57
54
51
47
44
41
39
38
37
36
36
38
39
40
41
42
42
42
41
40
38
37
35
34
32
31
30
30
29
28
27
26
25
24
23
22
21
20
19
19
21
25
30
37
44
51
57
61
64
64
64
62
60
58
56
53
51
49
47
46
46
46
46
46
45
44
42
41
40
38
36
35
34
32
31
31
31
30
30
30
31
31
31
30
29
28
27
27
27
27
27
29
33
38
44
51
58
64
69
71
72
72
70
69
68
66
65
64
63
61
60
60
59
59
58
58
57
56
55
53
51
49
48
45
44
42
40
40
39
38
37
36
34
33
32
30
28
26
24
21
19
17
15
15
17
21
26
32
38
43
47
48
49
48
47
45
43
41
39
35
33
30
29
28
28
28
29
30
30
29
29
27
27
26
25
25
24
24
24
23
23
23
23
23
23
23
23
24
25
25
26
27
28
28
30
34
39
44
50
57
63
67
69
70
69
68
66
64
62
60
58
56
54
53
52
51
51
51
50
50
49
47
46
44
42
40
39
38
36
35
34
33
33
33
32
31
31
30
29
28
28
25
24
24
27
31
31
41
48
48
59
62
62
65
64
64
62
60
60
57
55
54
53
52
52
52
51
51
50
48
46
44
42
40
38
36
33
31
29
28
27
27
26
26
26
25
25
25
24
24
23
24
25
28
33
39
44
51
56
60
62
63
63
62
60
59
57
55
53
51
50
50
49
49
49
48
48
47
46
44
42
40
39
37
35
33
32
31
30
29
28
27
26
26
25
24
24
23
23
23
24
28
32
38
44
50
55
59
61
61
61
59
57
55
52
50
48
46
45
44
44
44
44
44
44
43
42
40
39
37
35
33
31
30
28
27
26
25
24
24
23
23
22
22
21
20
21
23
27
32
38
43
48
51
53
53
52
51
49
47
44
38
38
38
38
38
38
37
36
34
32
30
28
26
24
22
21
19
18
18
17
16
16
16
16
16
16
15
15
15
16
19
23
28
34
40
45
49
51
52
52
51
49
47
45
43
41
40
40
40
40
40
41
41
42
41
40
39
37
37
33
32
32
28
27
27
26
25
25
24
24
24
23
23
23
22
22
23
24
28
32
38
44
50
55
58
59
59
58
56
55
53
51
49
48
47
46
46
46
47
47
47
47
46
44
43
41
40
39
38
36
34
33
32
32
31
31
30
30
29
29
28
28
27
26
26
26
26
29
33
39
44
51
56
61
64
65
65
64
63
62
60
58
57
55
54
53
52
52
52
51
51
50
49
47
46
44
42
40
39
37
36
34
33
32
31
30
29
28
28
27
27
26
25
25
24
23
22
22
23
27
31
37
43
50
55
59
62
63
63
63
62
60
59
58
57
56
55
54
54
53
53
53
52
52
51
49
47
45
42
40
40
38
37
36
35
33
32
31
31
31
30
30
29
28
27
27
26
25
24
23
23
25
28
32
38
43
49
54
57
59
59
59
57
56
54
52
51
49
48
47
46
46
46
46
45
44
43
42
41
40
38
36
34
32
31
29
28
27
27
26
26
25
25
24
24
23
23
22
22
21
20
19
19
18
19
22
26
31
37
42
48
53
56
57
57
56
55
53
51
49
47
45
44
43
43
44
44
45
45
45
44
42
40
39
37
35
33
32
30
30
28
27
27
26
26
26
25
24
24
23
22
22
21
20
20
18
18
18
19
21
26
32
38
43
48
52
54
55
54
53
52
50
48
47
45
44
43
43
44
45
46
46
47
46
45
44
42
40
39
38
36
35
34
33
32
32
31
31
30
30
29
29
29
29
28
28
27
27
27
26
27
29
34
39
45
51
57
61
64
65
65
64
62
61
59
57
55
53
52
51
51
51
51
51
52
51
50
49
47
46
44
42
40
39
38
36
36
35
34
34
33
33
32
31
31
30
30
29
28
27
27
26
25
26
29
33
39
45
53
60
64
67
69
69
68
66
64
62
60
58
57
55
54
53
53
53
53
53
53
52
51
49
47
45
43
41
40
38
37
36
35
34
33
32
31
30
29
28
28
26
25
24
23
22
21
20
20
20
23
28
33
40
47
54
58
61
63
63
63
61
60
58
55
54
52
51
50
50
50
51
51
50
50
48
47
45
43
41
40
38
36
34
33
31
30
30
30
28
28
28
27
26
26
26
25
25
23
22
22
20
20
20
24
28
28
40
47
53
57
60
61
61
60
58
56
54
51
49
47
46
46
46
46
47
48
48
47
46
45
43
41
39
37
35
33
31
30
30
29
28
28
28
27
27
27
27
26
26
25
24
23
23
23
24
27
32
39
45
53
60
64
67
68
68
67
65
63
61
59
57
56
55
54
54
54
55
55
55
54
53
52
50
48
46
43
41
39
38
36
35
34
33
32
32
31
30
29
29
28
28
28
27
26
26
26
26
28
31
36
40
46
52
57
61
63
65
66
66
66
65
64
62
61
59
58
57
57
57
57
56
55
53
51
48
46
43
40
38
36
34
32
30
29
28
27
26
24
23
22
21
20
19
18
18
17
16
15
15
15
17
21
28
35
42
50
56
60
63
63
63
62
60
58
56
54
52
51
50
49
49
50
51
51
52
51
50
47
45
42
39
36
34
31
29
28
27
26
25
24
24
23
23
22
21
21
20
20
20
19
19
18
19
20
24
29
36
43
50
55
60
62
62
62
60
58
56
53
51
48
47
46
45
45
45
46
46
45
44
42
40
39
37
35
32
30
29
27
27
26
25
25
24
23
23
23
23
23
22
21
21
20
19
19
21
24
24
35
41
41
55
60
62
64
64
62
60
58
55
52
50
48
46
45
44
45
45
45
45
45
44
42
40
39
37
35
33
31
30
29
28
27
27
27
26
26
27
26
26
25
24
23
23
23
24
28
34
40
48
56
63
68
71
72
72
71
68
66
64
62
59
57
56
54
54
53
54
54
54
53
52
50
48
45
42
40
38
36
35
33
32
31
31
30
29
29
29
28
27
26
25
24
23
22
22
23
26
32
40
47
57
65
71
75
77
77
76
75
73
71
69
67
65
63
62
60
59
58
58
57
55
54
52
49
47
44
42
40
38
35
34
32
31
30
29
28
27
27
26
25
24
24
22
21
20
19
18
18
19
22
28
36
43
52
60
65
69
70
71
70
69
67
65
63
61
59
57
56
54
54
54
53
52
51
49
47
45
42
40
38
35
33
31
29
28
27
26
25
24
23
23
22
21
20
20
19
18
17
17
15
14
14
16
20
20
33
41
41
57
63
63
67
67
67
63
61
61
55
53
51
49
47
47
47
47
48
48
47
46
44
42
40
38
35
33
31
29
28
27
26
25
25
24
24
23
22
22
21
20
20
18
18
16
15
15
16
20
25
32
40
48
56
62
66
67
67
66
64
62
59
56
53
51
49
48
47
47
48
48
48
48
47
45
43
41
39
36
34
32
30
29
28
26
26
25
24
24
24
23
23
23
23
23
22
22
21
21
20
21
23
28
34
42
51
60
67
72
75
76
75
74
71
69
66
64
61
59
57
55
55
54
54
54
54
53
52
49
47
44
41
39
37
34
32
30
29
28
27
26
25
24
24
23
23
22
21
21
20
19
17
16
15
15
18
23
30
38
46
55
62
67
69
70
70
68
66
64
61
58
55
53
52
51
50
50
50
50
49
48
46
44
42
40
37
34
31
29
27
26
25
24
23
22
22
22
21
21
20
20
20
19
18
17
15
15
14
16
19
25
33
41
50
57
63
66
67
67
65
63
60
57
54
51
49
47
45
45
45
46
47
47
47
46
44
42
40
38
35
33
31
29
28
27
26
26
25
25
25
24
24
24
23
23
22
21
21
20
20
20
26
32
32
47
55
55
67
69
69
69
68
68
63
60
60
54
52
50
50
50
50
51
52
52
51
49
48
45
43
40
39
37
35
33
32
31
30
29
29
28
28
27
27
26
26
25
24
23
22
21
21
23
28
35
43
52
61
69
74
77
78
77
76
74
72
70
67
65
63
62
60
60
59
59
59
58
56
55
53
50
47
44
42
40
38
36
34
33
32
30
30
29
28
27
27
26
25
24
23
22
21
21
23
27
33
40
48
56
63
69
72
73
73
72
70
67
65
62
60
58
56
55
54
54
54
53
52
51
49
47
44
41
39
36
34
31
30
28
27
26
25
25
25
25
25
24
24
23
22
21
20
19
18
20
23
29
36
44
52
60
65
68
69
69
68
66
64
61
59
56
55
53
52
52
52
52
51
50
49
47
44
41
40
37
34
32
31
30
29
28
28
27
27
27
27
27
27
26
25
24
23
22
20
19
19
21
25
31
39
47
56
63
68
68
72
72
72
69
67
67
61
59
59
56
55
55
54
54
54
52
50
50
46
43
41
39
37
35
33
32
31
30
29
28
28
28
27
27
26
25
24
23
22
21
20
20
21
25
31
38
45
53
60
64
67
67
67
65
62
59
56
53
51
49
47
47
46
46
46
46
45
44
41
40
37
35
32
30
28
27
25
24
23
22
21
21
20
19
19
18
17
16
16
15
14
14
15
17
22
28
35
41
48
53
56
58
58
56
55
53
50
48
46
44
43
42
42
42
43
43
43
43
42
40
39
37
35
32
30
28
27
26
25
25
25
25
24
24
24
24
24
23
22
21
20
19
20
22
27
33
40
46
52
57
60
61
61
60
58
56
54
51
49
47
46
45
45
45
45
45
45
44
43
42
40
39
36
34
32
31
29
28
27
26
25
25
24
23
23
22
21
21
20
19
18
17
16
18
21
26
32
39
45
51
56
59
60
61
60
59
58
56
54
52
51
49
48
48
48
48
48
48
46
45
43
41
39
37
35
33
32
31
30
29
28
28
27
27
26
26
25
25
24
23
22
21
20
20
20
21
25
30
37
43
50
56
60
63
63
63
62
61
59
58
56
54
53
53
51
51
51
50
50
50
48
46
46
42
40
40
37
36
36
33
32
32
31
31
30
30
29
28
28
27
26
25
24
23
18
20
24
29
36
42
49
54
58
60
61
61
60
58
57
55
53
51
49
47
46
46
46
46
45
45
45
43
42
40
39
37
36
34
33
32
32
31
31
31
30
29
29
28
27
26
25
24
23
23
22
21
21
20
21
25
30
36
42
49
55
59
61
62
62
61
60
59
57
56
55
54
53
52
52
52
51
50
49
48
46
44
42
40
39
37
36
36
35
35
35
35
34
34
33
33
32
31
29
28
27
26
24
23
22
22
21
21
22
24
29
34
40
48
55
60
63
65
65
65
63
62
60
58
57
55
54
52
51
50
50
49
48
47
45
43
41
39
37
36
34
33
32
32
31
30
30
29
28
28
27
26
25
24
23
21
20
19
18
17
16
16
18
21
26
33
40
48
54
59
62
63
62
61
60
58
56
54
53
51
50
49
49
49
49
49
48
48
48
44
42
42
37
35
35
30
28
28
25
24
24
23
22
21
20
20
19
19
18
18
18
17
16
16
15
17
20
25
32
39
46
53
57
60
61
60
58
57
55
52
50
49
47
46
46
45
45
44
44
44
43
42
41
40
38
36
34
32
29
27
26
24
23
21
20
19
19
18
18
17
17
17
17
16
16
16
16
18
21
26
33
40
46
52
56
59
59
59
57
56
54
52
50
49
48
48
48
48
49
49
50
50
49
48
46
43
40
38
35
32
30
28
27
27
28
29
30
31
33
34
34
33
32
30
28
27
25
24
25
27
32
37
43
50
56
59
61
62
61
60
58
56
53
51
49
47
45
45
45
46
47
48
49
49
49
48
46
44
42
40
38
37
35
34
33
33
32
32
31
30
30
29
29
28
28
27
26
25
24
25
28
32
38
43
50
56
60
63
64
64
64
63
62
61
59
58
57
57
56
55
54
54
53
51
50
48
46
43
41
40
37
36
34
32
31
30
29
28
27
27
26
25
24
24
23
22
21
21
20
21
25
29
35
42
49
55
59
62
63
63
62
61
59
57
55
54
53
52
51
51
51
51
51
51
50
49
49
46
44
44
40
40
40
38
37
37
36
36
36
37
37
37
37
37
37
36
35
34
35
37
40
46
53
60
67
72
76
78
78
78
76
75
73
71
69
66
65
63
62
62
62
61
60
59
58
56
54
52
49
47
46
44
43
41
40
40
39
38
37
37
36
35
34
32
31
29
28
27
27
28
32
38
44
51
58
63
66
67
67
66
65
63
60
58
55
53
52
51
50
50
50
50
50
49
47
45
43
40
39
37
35
34
33
32
31
30
30
29
29
28
28
27
26
25
24
23
23
23
24
27
32
39
46
53
59
63
65
65
64
63
61
59
56
54
52
51
50
50
50
51
51
52
51
50
48
46
44
42
40
39
37
36
35
34
33
32
31
30
30
29
28
28
27
26
25
23
23
24
27
31
37
44
51
58
62
65
66
66
65
63
61
58
56
54
52
51
51
51
51
51
51
50
50
48
46
43
40
39
36
34
33
32
31
30
29
28
28
27
27
26
26
25
24
24
21
20
20
22
25
25
37
44
44
58
62
62
65
64
64
60
58
58
54
53
52
51
51
51
51
51
51
50
49
47
44
42
40
38
36
34
33
32
31
30
29
29
29
28
27
27
26
25
23
22
21
20
21
24
28
34
40
47
54
58
61
62
62
61
59
57
54
52
50
48
47
46
47
47
48
48
48
47
45
43
40
39
36
34
32
30
29
29
28
28
28
28
27
27
26
25
25
24
24
24
25
28
33
39
44
51
58
62
64
65
65
63
61
58
55
53
51
49
48
48
47
48
48
47
45
43
41
39
36
33
30
29
27
26
26
25
24
24
23
22
21
21
20
19
18
18
17
17
19
23
28
35
42
50
57
63
66
68
68
67
66
64
63
61
59
58
57
56
56
55
55
55
54
53
51
48
46
44
42
40
39
37
35
34
32
30
29
29
28
27
26
26
25
24
23
22
22
23
26
31
38
45
53
60
64
68
69
69
68
66
64
62
59
57
55
53
52
50
49
49
48
46
44
41
39
36
33
31
28
26
24
23
22
21
20
20
19
19
19
18
17
16
15
14
13
13
14
18
23
29
37
44
51
56
59
61
60
59
58
55
53
50
48
48
44
44
44
44
44
44
44
43
43
40
37
37
32
29
29
26
24
24
23
23
23
23
22
22
22
21
21
20
19
19
21
25
30
37
44
51
57
61
63
63
63
62
60
58
56
53
51
50
48
48
48
48
47
47
46
44
42
40
38
36
33
31
29
28
27
26
26
25
25
24
24
23
23
22
21
20
19
18
19
21
25
31
39
46
54
60
63
65
66
65
64
63
61
59
57
55
53
52
50
50
49
48
47
46
44
42
40
38
36
33
31
29
27
26
24
23
22
22
21
20
19
19
18
17
16
16
15
14
13
14
17
22
29
36
43
49
53
56
57
56
55
54
52
50
48
46
44
42
41
41
40
40
40
39
38
36
34
32
30
28
25
23
22
20
19
18
17
16
16
15
14
14
13
13
12
12
12
12
12
14
17
21
27
33
40
44
48
51
51
51
49
47
45
42
40
39
38
37
37
37
38
39
39
39
39
38
36
34
33
31
29
27
26
25
25
24
24
24
24
24
25
24
24
23
23
23
22
24
24
33
39
39
52
58
58
64
65
65
64
62
60
58
55
53
52
51
51
51
51
52
52
52
51
49
47
45
42
40
38
36
34
33
31
30
29
29
28
27
27
26
25
25
24
23
22
23
25
30
36
42
50
58
63
67
69
70
69
68
66
64
62
60
57
55
53
52
51
50
50
49
49
47
45
43
41
39
36
34
32
30
28
27
26
25
24
24
23
23
23
22
22
21
20
19
19
21
25
30
37
44
51
58
63
66
67
67
66
64
62
60
58
56
54
53
52
51
51
50
50
49
48
46
45
42
40
39
36
34
33
31
29
28
27
26
25
25
24
24
24
24
23
23
22
21
21
22
25
30
36
43
50
57
62
64
65
64
62
60
57
54
52
49
47
46
46
46
46
46
46
46
45
44
42
40
38
35
33
30
28
26
24
23
22
22
21
21
21
20
20
19
19
18
18
18
19
22
27
32
39
45
51
56
58
59
58
57
55
53
50
47
45
44
43
43
43
44
45
46
46
45
44
42
40
39
37
34
32
31
30
29
29
29
28
28
28
28
27
27
26
25
25
25
26
29
34
40
46
53
59
62
62
65
64
64
60
58
58
52
50
50
47
47
47
47
47
47
47
46
46
43
40
39
37
35
33
31
30
29
28
27
27
26
26
25
25
24
24
23
22
22
23
26
31
37
44
51
57
62
65
67
67
65
64
61
59
56
54
52
50
49
49
49
50
50
49
48
47
45
42
40
38
36
33
32
30
28
27
27
26
25
25
25
24
24
23
22
22
21
21
24
28
34
40
47
53
57
60
61
61
59
57
54
51
49
46
44
42
42
42
43
44
45
46
45
45
43
42
40
38
37
35
33
32
31
30
30
29
29
29
28
28
27
27
27
27
29
33
39
44
51
56
60
63
64
64
63
61
59
56
54
52
50
50
49
50
51
51
51
51
50
49
47
44
42
40
38
35
33
32
31
30
29
29
28
27
27
27
27
27
27
27
30
34
40
47
56
64
70
74
76
76
75
73
72
70
68
66
63
61
59
58
57
57
56
55
54
52
49
47
44
42
40
39
37
35
34
33
33
32
31
31
30
29
29
26
25
25
25
27
27
37
43
43
59
65
65
70
70
68
66
64
61
58
56
54
52
51
51
50
50
50
50
49
47
45
42
40
37
35
33
31
30
28
27
26
25
24
24
22
22
21
21
21
24
28
33
40
45
51
55
56
56
55
53
50
47
44
41
40
37
35
35
35
36
36
37
37
36
34
31
28
25
23
21
19
18
17
16
15
15
14
14
14
14
14
14
14
15
18
22
28
35
41
47
52
56
57
57
57
55
53
51
48
46
44
43
43
43
44
45
46
46
45
44
42
40
38
36
33
31
29
27
26
25
24
24
24
23
23
23
23
24
26
31
37
44
52
59
64
68
70
70
69
68
66
64
62
60
58
56
55
54
54
53
53
52
51
50
41
40
37
35
34
33
32
31
30
29
28
27
26
25
24
24
27
31
37
43
51
58
63
66
67
67
65
64
62
60
57
55
53
52
50
49
48
47
46
45
44
42
40
39
36
34
31
29
27
26
25
24
23
22
22
21
20
19
19
18
17
17
18
22
27
34
41
49
55
60
62
63
63
62
60
58
56
54
51
49
48
47
46
46
46
45
44
43
41
41
38
35
35
31
29
29
25
24
24
21
20
20
19
19
19
18
17
17
15
14
13
13
14
17
22
28
36
43
49
54
56
57
57
55
53
50
47
44
42
40
40
39
39
40
40
40
40
40
38
37
34
32
30
27
25
23
22
21
20
19
18
18
18
17
17
17
16
16
15
15
14
14
15
17
22
28
35
42
49
54
57
58
58
57
55
52
50
47
44
43
41
41
41
42
43
44
44
43
42
41
40
37
35
33
31
29
27
26
25
25
24
24
24
24
24
24
23
23
22
22
21
20
20
21
24
30
37
45
53
60
64
66
66
65
63
61
58
55
53
51
48
47
46
46
46
47
47
47
46
45
43
41
40
37
35
33
31
29
28
27
26
25
24
24
23
22
22
22
21
21
20
19
18
18
17
17
18
21
27
35
42
50
58
63
65
66
65
64
61
59
56
54
51
49
47
46
45
45
45
45
45
44
43
42
40
38
36
34
32
30
28
26
25
25
24
23
23
22
22
22
21
20
20
19
18
18
16
15
15
17
22
22
37
44
52
58
61
63
63
62
60
57
55
52
49
46
44
43
43
44
44
45
46
46
46
44
43
41
39
37
35
33
31
29
28
27
27
26
26
26
25
25
24
24
24
23
23
22
22
21
23
27
33
40
48
57
64
69
72
73
73
72
70
67
65
62
59
58
56
56
56
56
56
56
56
55
54
52
50
47
45
42
40
39
37
36
35
34
34
33
32
32
31
31
30
30
29
28
27
25
24
23
23
25
29
35
43
52
60
67
72
75
76
75
74
71
69
67
64
62
60
58
57
56
56
56
56
55
54
53
51
48
46
44
42
40
39
37
36
34
33
32
31
30
29
29
29
28
27
27
26
25
23
22
22
21
23
26
32
39
46
54
62
67
71
72
72
71
69
66
63
60
57
54
52
50
49
48
49
49
48
48
46
45
42
40
39
36
34
32
31
29
28
26
26
25
24
24
23
22
22
21
20
19
18
17
16
15
14
15
17
22
29
37
45
53
59
63
65
65
63
61
59
56
53
50
47
45
44
43
44
45
46
47
47
46
45
42
40
38
36
34
32
30
29
28
27
27
26
26
26
26
26
26
25
24
24
22
21
21
19
21
21
29
36
36
52
59
64
67
68
67
65
63
60
57
54
52
50
49
48
49
50
51
52
52
52
51
50
47
45
42
40
39
37
35
34
33
33
32
31
31
31
31
30
30
29
28
27
26
25
24
25
28
33
40
47
56
65
71
75
77
77
76
74
71
68
66
63
61
60
58
58
58
58
58
58
57
56
54
52
49
46
43
40
38
36
33
31
30
29
28
27
27
26
26
25
24
23
23
22
21
20
19
19
21
25
31
40
48
57
65
70
74
75
75
74
72
69
67
64
62
60
58
57
56
56
56
56
55
54
53
51
48
46
43
40
39
37
35
33
31
30
29
29
28
27
27
26
25
25
24
23
23
21
20
19
19
19
21
25
31
39
47
56
64
70
73
74
73
72
70
67
65
62
59
57
56
55
55
55
55
55
55
54
52
49
47
44
41
39
36
34
32
30
28
27
26
25
24
24
23
22
22
22
20
19
19
17
15
15
13
13
13
13
17
17
30
40
40
56
62
62
67
67
66
64
61
58
55
52
50
48
47
47
47
48
48
47
47
45
43
41
39
36
34
31
29
27
26
25
24
24
24
24
24
24
24
23
23
22
21
20
19
19
18
17
16
15
17
20
25
33
40
50
58
64
69
70
70
68
66
62
59
55
52
49
47
45
45
46
47
48
48
48
47
46
44
41
40
37
35
33
32
30
29
29
29
29
29
29
29
29
29
29
29
28
28
27
27
26
25
25
25
28
33
40
48
58
67
74
79
82
83
82
80
77
74
71
68
65
62
60
59
58
57
57
56
55
54
52
49
46
43
40
38
35
33
31
29
28
27
27
26
26
25
25
24
24
23
22
21
20
19
18
17
16
16
16
17
22
28
37
46
56
66
73
77
79
80
79
76
74
72
69
66
64
62
60
59
58
57
57
56
55
53
51
48
45
42
40
37
34
32
30
28
27
26
25
24
24
23
23
22
21
20
20
18
17
17
16
15
14
13
12
12
12
14
18
25
34
43
54
63
70
75
77
77
76
74
71
68
65
63
60
58
56
55
55
54
54
53
52
50
48
46
43
40
40
35
33
33
28
27
27
25
24
24
22
22
22
20
19
19
18
17
17
15
14
13
13
12
11
11
10
11
14
19
27
36
46
56
65
71
74
75
74
73
70
67
64
61
58
56
54
52
52
51
52
52
52
51
49
47
44
41
38
35
32
30
28
26
24
23
22
21
21
21
20
20
19
19
18
17
17
16
15
14
13
12
11
10
9
9
11
15
22
31
40
50
59
66
70
71
71
69
66
63
59
56
52
49
47
46
45
45
45
46
46
46
45
43
41
39
36
33
30
28
26
24
23
22
22
22
22
22
22
22
21
21
20
19
19
18
17
16
15
14
14
14
17
22
30
39
48
58
65
70
72
73
71
69
66
63
59
56
52
50
48
47
47
48
49
50
50
50
49
47
45
42
40
37
34
32
30
29
28
27
27
27
26
26
26
26
26
25
25
24
23
22
21
20
19
20
22
28
36
45
55
66
75
81
84
85
85
84
81
78
75
72
70
67
65
64
63
63
62
61
61
58
56
56
50
47
47
41
39
39
35
34
34
33
33
33
33
34
34
33
33
32
31
30
29
27
26
25
24
23
22
23
26
32
40
49
60
70
78
83
86
87
86
84
82
79
77
74
72
69
67
66
64
63
62
62
60
58
56
53
50
47
44
40
38
35
33
32
30
29
28
28
28
27
26
25
25
24
23
22
21
20
19
18
17
17
16
16
16
20
25
33
42
53
63
71
77
80
82
81
79
77
74
71
68
65
62
60
58
56
55
55
55
54
52
50
48
45
41
39
36
34
32
30
28
27
26
25
25
24
24
23
22
22
21
20
19
18
17
16
15
14
14
13
13
14
18
24
32
41
51
61
68
74
76
77
76
74
71
68
64
61
58
56
54
53
52
52
52
52
51
49
47
44
41
39
36
32
29
27
25
24
23
22
22
21
21
20
20
19
18
17
16
15
14
13
12
11
10
10
9
9
10
14
20
28
38
47
57
65
71
73
74
73
70
67
63
60
56
53
50
49
48
47
48
49
49
48
47
45
43
40
38
35
32
29
27
25
24
24
23
23
23
23
23
23
23
22
22
21
20
20
19
17
16
15
15
16
19
24
32
32
51
61
61
73
76
76
75
73
73
66
62
62
55
53
53
51
51
51
53
53
53
52
51
48
45
42
40
37
34
32
30
29
28
27
26
26
25
25
25
24
23
23
22
21
20
19
18
17
16
15
16
19
26
34
43
55
65
73
79
82
83
82
80
78
75
72
69
66
64
62
60
59
59
59
58
57
55
53
50
47
44
40
38
35
32
30
28
27
26
25
25
24
23
23
22
21
20
19
18
17
16
15
14
12
11
11
10
12
16
23
32
41
52
62
69
74
76
76
75
72
69
66
63
59
56
54
52
50
50
50
50
50
49
48
46
43
40
37
34
31
29
27
25
24
23
23
22
22
22
22
22
22
21
20
19
19
18
17
16
15
14
14
15
19
25
34
43
53
62
69
73
74
74
72
69
66
63
59
56
53
51
49
49
49
50
50
51
50
49
47
45
42
40
36
33
31
29
27
26
25
25
25
24
24
23
23
22
22
21
20
19
18
17
17
15
15
15
16
20
20
36
46
46
69
77
77
85
86
86
83
80
80
74
71
71
65
63
62
61
60
60
59
58
57
54
52
48
45
41
39
36
33
31
29
28
27
27
26
26
25
25
24
24
23
22
21
16
16
15
14
16
20
26
36
46
58
68
76
82
84
85
84
82
79
77
73
70
68
65
63
61
60
59
57
56
55
53
50
48
45
41
39
36
33
30
28
26
25
24
23
22
22
21
20
20
19
18
17
16
15
14
13
13
12
11
10
9
9
9
12
18
26
36
47
58
68
75
79
81
81
79
76
73
69
66
62
59
56
54
53
53
53
52
52
50
48
46
42
40
36
32
29
27
24
23
21
20
19
19
19
18
18
18
18
18
17
16
15
14
13
12
11
10
9
7
6
6
8
12
20
29
40
50
60
68
73
75
75
73
71
67
63
59
55
52
49
47
46
46
46
47
48
48
47
46
43
40
38
35
31
28
26
24
22
20
20
19
19
19
19
19
18
18
17
17
16
16
15
14
13
12
12
13
17
23
31
40
51
60
68
72
74
74
72
70
66
62
59
55
51
49
47
46
47
48
49
50
50
50
49
47
44
41
38
35
33
33
29
28
28
25
25
25
24
24
24
23
22
22
21
20
20
18
17
17
15
16
19
26
34
44
55
66
75
80
83
84
84
82
80
77
74
71
69
66
64
62
61
60
60
60
59
58
56
54
51
48
45
42
40
37
35
33
31
30
29
28
27
27
26
26
25
24
23
22
21
20
19
17
16
15
14
15
18
24
32
41
52
62
70
75
78
79
78
76
74
71
68
66
63
60
58
57
56
55
55
54
53
51
49
47
44
42
40
37
35
33
31
29
28
27
26
25
24
24
23
22
22
21
20
19
18
17
16
15
14
13
12
11
11
13
17
23
31
40
49
58
64
68
70
70
69
67
65
62
59
56
54
52
51
50
50
50
50
50
49
48
46
44
41
39
36
33
31
29
27
26
25
24
23
22
22
22
21
21
20
19
19
18
17
16
15
14
14
13
13
14
17
23
30
39
48
57
64
69
71
71
69
67
64
61
58
55
52
49
48
47
47
47
47
47
48
47
47
44
41
41
37
34
34
29
28
28
25
24
24
22
21
21
20
20
19
18
17
16
15
14
13
12
11
10
10
10
12
17
25
34
43
53
60
65
68
68
67
64
61
58
55
52
49
46
45
44
44
44
45
46
46
45
44
42
40
38
35
32
30
27
26
24
24
23
23
23
23
22
22
22
21
21
21
20
19
19
18
17
16
15
15
16
20
27
35
44
53
61
67
70
71
70
68
65
62
59
56
53
51
49
48
48
49
50
52
52
52
51
50
47
45
42
40
37
35
33
32
31
30
29
29
28
28
27
27
26
25
24
24
23
22
21
20
19
18
18
21
26
34
42
52
62
71
77
81
82
82
81
78
76
73
70
68
65
64
63
63
63
63
63
63
62
61
59
56
53
50
47
44
41
39
37
36
34
33
31
30
30
29
28
27
26
25
24
23
21
20
19
19
18
17
16
17
20
26
33
42
53
63
71
77
80
81
80
78
76
73
71
68
66
63
61
59
58
58
58
57
56
55
53
51
48
45
42
40
36
33
31
29
27
27
26
25
25
24
24
23
22
22
21
20
19
18
17
16
15
14
14
13
15
18
24
32
41
51
61
68
68
76
76
76
73
70
70
64
61
61
56
54
54
52
51
51
51
50
50
47
45
45
40
37
34
31
29
27
25
23
22
21
20
20
20
19
18
18
17
16
15
14
14
13
12
11
10
9
9
12
18
26
36
45
55
63
68
71
72
71
69
66
62
59
55
52
49
47
46
46
47
48
49
49
49
48
45
43
40
38
35
32
30
28
26
25
25
24
24
24
24
24
24
23
23
22
21
21
19
18
17
16
17
19
25
32
41
51
60
67
72
74
74
72
70
67
63
60
56
53
51
50
49
49
50
51
52
52
51
50
47
45
42
39
37
34
32
31
29
28
27
27
27
26
26
26
26
25
24
23
23
22
21
20
19
18
19
22
27
36
45
56
67
75
81
84
85
85
83
81
78
75
72
69
66
64
63
63
62
63
62
62
60
58
56
53
49
46
43
40
38
36
35
33
31
30
29
28
28
27
26
26
25
24
23
22
21
20
19
18
17
16
16
18
23
31
40
40
61
71
71
82
84
84
83
80
80
75
71
71
66
63
63
59
58
58
58
57
56
54
52
49
46
43
40
38
35
33
31
29
28
27
26
26
25
25
24
23
23
22
20
19
18
17
16
15
13
12
12
12
14
19
26
36
45
56
65
72
76
78
78
77
74
72
69
66
63
60
58
56
55
54
54
54
53
52
50
47
44
41
38
35
32
30
27
26
24
23
22
22
21
20
20
19
18
17
16
15
14
13
12
11
10
9
8
7
7
9
13
20
29
40
50
60
67
72
74
75
74
71
68
65
61
57
54
52
50
49
49
50
50
50
49
48
46
44
41
38
35
32
29
26
24
23
22
21
21
20
20
20
20
19
18
18
17
16
15
14
13
12
11
10
9
11
15
22
32
41
52
62
69
73
75
74
73
70
67
63
59
56
53
50
49
49
50
51
52
52
51
50
48
46
43
40
37
34
32
30
28
27
26
25
25
25
25
24
24
23
22
22
21
20
19
18
17
17
16
17
20
27
36
45
56
67
75
80
83
83
82
80
77
74
71
68
66
64
62
61
61
61
61
62
61
59
57
54
51
47
44
41
39
36
34
32
31
30
29
28
28
27
26
26
25
24
24
22
21
21
18
17
17
15
15
15
22
30
30
50
62
62
80
85
85
87
86
84
81
78
74
71
68
66
64
62
61
61
60
59
58
56
54
51
47
44
41
38
35
33
31
30
28
27
26
26
25
25
24
24
23
22
21
20
19
18
17
16
15
14
14
13
13
16
22
30
40
50
61
71
77
81
83
83
81
79
75
72
69
66
63
60
59
58
57
57
56
56
54
52
49
46
42
40
36
33
31
29
27
26
25
24
23
23
22
22
22
21
20
19
18
17
16
15
14
13
12
11
10
10
10
12
16
24
33
43
54
64
73
78
80
80
79
76
73
69
65
62
59
56
55
53
53
53
54
53
52
50
47
45
41
39
36
33
30
27
25
24
23
22
22
22
21
21
21
20
19
18
17
16
15
14
13
12
11
10
9
8
8
9
13
20
29
40
51
61
70
76
79
80
79
76
73
69
65
61
57
55
53
51
51
52
53
53
52
51
49
47
43
40
40
34
32
32
27
26
26
25
24
24
24
24
24
23
22
22
21
20
20
18
17
16
14
13
12
12
13
17
23
33
43
55
66
74
80
83
83
82
80
77
74
71
68
64
62
60
58
58
57
57
57
56
54
52
49
46
42
40
37
34
31
28
26
24
23
21
21
20
19
19
18
17
16
15
14
13
12
12
11
10
9
9
8
8
11
16
24
34
44
56
66
74
78
80
80
78
75
72
69
65
62
60
57
56
54
54
54
54
54
53
52
49
46
42
40
36
33
31
29
27
25
24
23
23
22
21
21
20
19
18
17
15
14
13
11
10
8
7
6
5
5
6
10
17
26
37
47
58
66
71
73
73
71
69
65
61
57
54
50
47
45
45
45
47
49
50
51
51
49
47
44
41
39
36
33
31
29
27
26
25
25
25
24
24
23
23
23
22
21
20
19
18
16
16
18
23
30
39
48
57
65
70
73
74
73
70
66
62
58
54
50
48
46
45
46
47
48
49
49
48
47
44
41
39
36
32
30
27
26
24
23
23
23
22
22
22
21
21
21
20
20
19
18
17
17
19
24
31
41
53
64
75
83
88
90
90
89
86
83
79
76
72
69
66
64
63
62
62
61
60
60
57
54
54
47
43
43
37
34
34
29
27
27
26
25
25
24
24
23
23
22
21
20
19
18
16
15
15
18
24
33
42
54
64
73
80
83
84
83
81
78
75
71
68
64
61
59
57
56
56
55
55
54
52
49
45
41
39
35
32
29
26
24
22
21
20
19
19
19
19
18
18
17
17
17
16
16
15
14
14
15
18
25
33
43
54
64
72
77
80
80
78
76
72
69
65
62
59
56
54
53
53
52
52
52
51
49
47
44
41
38
35
32
29
27
25
24
23
22
21
20
19
18
17
16
15
14
13
12
11
10
9
8
8
9
14
20
29
39
47
64
63
60
57
54
50
47
44
42
41
40
40
40
41
41
41
40
38
36
33
30
27
25
23
21
20
19
18
18
18
18
18
17
17
17
16
16
16
15
15
14
13
13
14
17
23
29
37
44
51
55
58
59
58
57
53
51
48
46
44
42
41
41
41
42
43
43
43
42
41
41
38
35
35
31
30
30
27
26
26
26
25
25
25
24
24
23
23
23
21
20
20
19
18
17
17
19
23
29
37
43
51
57
61
63
64
63
61
60
57
56
54
53
52
50
49
48
48
48
47
47
46
44
42
40
38
36
34
33
31
30
29
28
27
26
26
25
25
24
23
22
21
20
20
19
18
17
16
15
15
15
18
22
29
36
43
49
54
57
58
57
56
54
52
51
49
48
47
47
47
47
48
48
49
49
49
48
46
45
42
40
39
37
36
34
33
31
29
28
26
26
26
26
26
26
26
25
24
23
22
20
19
18
17
17
17
19
24
30
37
43
50
55
59
60
61
61
60
58
56
54
52
50
48
47
46
45
45
45
45
45
44
43
42
40
39
37
35
33
32
30
29
29
28
27
27
26
26
25
24
23
22
21
20
20
19
18
18
17
17
18
20
25
31
38
45
51
56
59
60
60
59
57
55
54
52
50
48
47
47
47
47
47
48
48
47
47
46
44
42
40
39
37
35
34
34
33
32
32
31
30
30
30
30
30
29
29
28
27
25
24
23
22
23
25
29
35
41
48
54
59
63
64
65
64
62
61
58
56
54
52
50
49
49
49
49
50
50
49
48
48
44
41
41
37
35
35
32
30
30
29
28
28
27
27
26
26
25
25
25
24
24
23
21
20
20
20
22
27
34
40
48
55
61
64
66
66
65
64
62
59
57
55
53
53
52
52
52
52
53
53
53
52
50
48
46
44
41
40
38
36
35
34
33
32
31
30
30
30
29
28
27
26
25
24
23
22
20
19
19
19
21
25
31
39
47
55
61
65
68
69
68
68
66
65
63
61
59
57
56
55
55
55
56
56
56
55
54
51
48
45
41
40
37
35
34
33
32
31
30
29
28
28
27
26
25
24
23
22
21
21
20
19
18
18
19
21
26
33
40
48
56
62
66
68
68
67
66
64
62
60
58
56
55
53
52
51
51
51
51
51
50
49
47
45
42
40
39
37
35
34
32
31
30
29
28
27
26
25
24
24
23
23
22
22
21
20
19
20
21
25
30
38
45
53
61
66
69
70
70
68
67
65
62
60
57
54
52
51
50
49
49
49
49
49
47
45
45
41
39
39
34
32
32
29
28
28
27
26
26
26
25
25
25
24
23
23
21
20
19
17
16
16
18
22
28
36
44
52
60
65
69
70
70
69
67
64
61
58
56
53
52
51
50
51
50
50
49
48
47
45
42
40
38
35
33
32
30
29
28
28
28
27
27
27
27
27
26
25
25
24
22
21
20
18
18
18
21
26
33
40
49
57
63
67
69
69
69
67
65
63
60
58
55
53
51
50
50
50
50
50
49
48
46
44
41
39
36
34
31
29
27
26
24
23
22
22
22
21
21
21
21
21
20
20
20
20
20
20
19
21
24
29
36
43
52
60
66
71
72
73
71
70
68
65
63
61
59
57
55
54
53
53
53
52
52
50
48
46
43
40
38
35
32
30
28
26
25
24
23
23
23
22
22
22
21
21
20
19
18
17
16
16
15
16
18
23
30
39
47
56
64
68
71
71
70
68
66
63
60
57
55
52
50
49
49
49
49
49
49
48
46
44
41
39
37
34
32
30
29
28
27
26
25
25
25
24
24
23
23
22
21
20
19
18
18
18
21
26
32
40
49
58
65
70
73
74
73
71
68
65
62
59
56
54
54
51
51
51
51
50
50
48
45
45
40
38
38
34
32
32
30
30
30
31
31
31
30
29
28
27
26
25
24
22
21
20
19
18
19
22
28
36
44
54
63
70
74
76
76
75
72
70
67
64
61
58
56
54
53
53
53
53
53
53
52
50
48
46
42
40
37
35
33
31
30
29
28
28
27
26
26
25
24
23
23
21
20
18
17
16
16
17
21
27
36
45
55
65
71
76
78
77
76
73
70
66
62
59
56
54
52
52
51
51
51
51
49
48
45
42
40
37
34
31
29
27
25
24
23
23
22
22
22
22
21
20
19
18
17
16
15
14
14
14
16
21
28
37
46
56
65
71
74
75
74
72
70
67
64
62
59
57
55
53
52
52
51
51
50
48
45
42
40
36
32
29
25
23
20
19
18
18
18
18
19
20
21
22
23
23
23
23
21
20
19
17
16
17
20
26
34
43
52
60
65
67
68
67
65
63
59
56
52
48
46
44
43
43
44
46
47
47
47
46
46
42
40
40
36
34
34
30
29
29
28
27
27
27
27
27
26
25
25
23
22
23
26
31
38
45
55
64
70
75
77
77
75
72
69
65
61
57
55
52
51
50
51
51
52
52
52
50
48
46
43
40
37
34
32
30
28
27
26
25
24
24
23
23
22
22
21
20
20
19
20
22
27
34
42
52
61
69
75
77
78
77
75
73
70
67
64
62
59
58
56
56
55
55
55
53
51
49
46
42
40
37
34
32
30
28
27
26
25
24
24
23
23
23
22
21
20
18
17
16
17
21
27
34
43
52
61
67
71
73
72
71
68
65
62
59
55
52
50
49
48
48
48
49
48
47
45
42
40
37
33
30
28
26
24
23
22
22
21
21
21
21
21
20
20
19
18
17
18
20
25
32
40
49
58
64
69
71
71
69
67
64
60
56
53
50
49
48
48
48
49
50
50
49
48
45
43
40
38
35
33
31
29
28
27
27
26
26
26
26
25
25
24
23
22
22
24
28
35
43
52
62
70
75
78
78
77
75
72
69
65
62
58
56
54
54
54
54
54
53
52
50
48
45
42
39
36
33
30
28
27
26
25
25
24
24
24
23
23
22
21
20
19
18
18
21
26
26
43
53
53
71
76
76
79
78
78
73
70
70
63
60
60
56
55
55
53
52
52
50
48
46
43
41
38
35
32
30
27
26
25
24
23
22
21
20
20
19
18
17
16
14
12
11
11
13
18
25
34
43
52
60
66
69
70
69
66
63
60
56
52
49
46
44
43
43
43
43
43
42
40
39
36
32
29
26
23
21
19
17
16
15
15
14
14
14
14
13
13
12
11
10
9
9
11
15
22
30
40
49
57
63
66
67
66
64
61
58
54
50
47
45
43
42
43
44
45
46
47
46
45
43
40
38
35
32
29
27
26
25
24
24
23
23
23
23
22
22
21
20
19
20
22
28
35
43
53
63
71
76
79
79
78
75
72
69
65
61
58
56
54
53
52
52
52
52
50
48
46
43
40
37
34
31
28
26
24
23
22
22
21
21
21
21
20
19
19
18
17
16
15
17
21
29
38
48
59
68
75
79
81
80
78
75
72
68
65
61
58
56
53
53
51
51
51
49
47
47
42
40
40
34
31
31
25
23
23
20
18
18
17
16
16
15
14
13
12
11
10
9
8
9
13
19
28
39
49
58
65
69
71
70
68
66
62
58
55
51
48
45
44
43
43
43
43
43
42
41
40
37
35
31
29
26
24
23
21
21
20
20
19
19
19
18
18
17
16
15
14
14
17
22
30
38
47
57
64
69
71
71
69
67
63
60
55
51
48
45
44
44
44
45
46
47
47
46
44
41
39
36
33
30
28
26
25
24
23
22
22
21
21
21
21
20
20
19
19
21
25
33
41
52
62
71
77
80
81
80
78
74
70
66
62
59
56
54
53
52
52
53
53
52
51
50
47
44
41
38
35
32
29
27
25
24
22
21
20
20
20
19
18
17
17
16
15
16
20
27
36
45
56
66
73
77
79
79
78
75
72
69
65
61
58
56
54
53
53
53
53
52
51
48
46
42
40
36
33
29
26
24
22
20
18
17
16
16
15
15
14
13
13
11
10
10
12
17
24
33
43
53
61
66
69
70
69
66
63
60
56
51
48
45
43
41
42
42
43
43
42
41
40
36
33
29
26
23
20
17
16
14
13
12
12
12
11
11
11
10
10
9
11
11
20
28
28
47
56
56
66
67
67
52
48
45
42
40
40
41
42
43
44
44
44
42
40
39
36
33
30
28
26
24
23
22
22
22
22
22
21
21
20
20
22
26
33
41
51
62
71
77
77
83
82
82
78
75
75
67
63
63
58
57
57
57
57
57
56
54
52
49
46
43
40
38
35
32
30
29
27
26
25
25
24
24
23
22
22
21
22
26
32
40
49
60
70
77
82
84
84
83
80
77
73
69
66
62
59
57
56
55
55
55
53
52
50
47
44
41
38
35
32
30
27
25
24
22
21
20
20
19
18
17
16
15
14
13
14
17
23
31
40
51
61
68
73
74
74
72
69
65
61
57
54
50
48
46
46
46
46
46
45
44
41
39
36
32
29
26
24
22
21
20
20
19
18
18
18
17
17
16
16
15
14
13
13
16
21
28
38
47
57
65
70
72
72
71
68
64
60
56
52
48
46
44
44
44
46
47
47
47
46
46
40
38
38
32
29
29
25
24
24
23
22
22
23
23
23
22
21
21
18
18
18
21
27
36
45
56
66
74
80
82
82
81
78
75
71
66
62
59
57
55
54
54
54
54
54
53
51
49
46
42
40
36
33
30
28
26
25
24
24
23
22
21
21
20
19
18
17
16
15
15
16
21
28
37
47
58
67
74
78
79
79
77
74
71
67
64
61
58
56
54
53
53
52
51
50
48
46
43
40
37
33
30
27
25
22
21
19
18
17
16
16
15
14
14
13
12
11
10
8
7
6
7
10
15
23
33
43
53
61
66
69
69
67
64
61
57
53
48
45
43
41
40
40
40
41
41
40
39
37
34
31
28
25
22
20
18
17
16
15
15
15
15
15
15
14
14
13
12
11
10
9
9
12
16
23
31
40
48
55
60
62
62
61
59
56
53
49
46
43
41
40
40
41
42
43
44
45
44
42
40
38
36
33
31
29
28
26
25
24
24
23
23
22
22
22
21
21
20
19
18
18
18
21
26
34
41
51
60
67
72
74
74
73
71
68
65
62
59
56
54
52
51
51
51
52
52
51
50
48
45
42
40
37
35
32
31
29
28
27
26
25
24
23
23
22
21
21
20
19
19
17
16
16
17
20
20
34
42
42
60
66
66
72
72
71
69
66
63
60
57
54
52
50
49
48
48
48
47
46
44
42
40
38
36
33
31
29
27
26
25
24
23
23
23
22
22
21
21
20
19
18
17
16
15
14
13
14
18
23
31
40
49
58
64
69
70
70
69
66
63
60
57
54
52
50
48
48
47
48
47
47
46
44
42
40
38
35
33
30
28
26
25
24
23
22
22
22
21
21
21
20
20
19
18
17
16
15
14
15
18
23
30
39
47
55
62
66
68
68
66
64
61
57
54
50
48
46
45
45
46
47
48
49
48
47
45
43
40
38
36
33
31
29
28
27
27
26
26
26
26
26
25
25
25
24
23
23
22
21
23
26
31
39
47
57
66
73
77
79
79
77
74
71
68
64
61
58
56
54
53
53
53
53
53
52
51
49
46
44
41
39
37
35
33
31
30
29
28
27
27
26
26
25
25
24
24
23
22
21
20
20
20
22
22
34
42
42
61
69
69
78
79
79
76
73
73
67
64
64
59
57
56
55
54
54
53
52
50
48
44
41
38
35
33
31
29
27
25
24
23
23
23
23
22
22
21
20
19
18
17
16
15
13
12
12
15
20
28
37
46
56
62
67
69
69
68
65
62
58
54
50
46
44
42
41
40
40
40
39
38
36
34
31
28
24
21
18
16
15
14
14
14
15
16
16
16
17
17
17
18
18
18
18
18
19
21
25
31
38
45
53
61
66
69
70
70
68
66
62
58
54
51
48
46
45
46
47
47
48
48
48
46
44
42
40
37
34
32
30
28
27
26
25
25
24
24
24
24
24
23
23
22
22
24
29
36
44
54
64
73
80
83
85
85
84
82
79
76
73
70
67
64
62
61
60
60
59
58
56
53
50
47
44
40
38
35
33
31
29
28
27
25
25
24
24
23
22
21
20
18
17
16
18
23
30
39
48
57
65
70
73
74
74
73
72
69
67
64
61
59
56
55
53
52
52
51
51
49
48
45
42
40
37
33
30
28
25
23
21
20
19
18
17
17
16
15
14
14
14
17
22
30
39
48
57
64
68
71
71
69
67
65
62
58
58
52
49
49
45
44
44
44
43
43
41
39
39
34
31
31
25
23
23
19
18
17
16
15
15
14
13
13
12
11
12
14
19
25
32
40
46
51
55
55
55
53
51
48
46
43
40
39
37
36
36
36
36
36
36
35
34
32
30
28
26
24
22
20
19
17
16
15
15
14
13
13
12
12
11
11
11
12
14
18
24
30
37
41
45
47
48
47
46
44
42
40
39
37
36
35
34
35
35
35
35
35
34
33
31
29
27
25
24
22
21
19
19
18
17
17
16
16
15
15
15
14
14
13
12
11
12
14
18
23
29
35
40
43
45
45
44
46
42
38
34
30
26
24
23
23
23
24
26
27
26
25
24
21
19
16
14
11
9
6
5
4
3
3
2
2
2
2
2
2
2
1
0
0
0
2
8
17
27
37
46
54
58
59
58
55
51
47
43
40
36
33
31
31
32
33
35
36
38
38
37
36
33
30
27
24
21
19
18
17
16
15
14
14
14
13
13
13
12
11
11
9
9
9
15
23
23
45
57
57
72
74
74
71
67
67
58
53
53
44
42
41
41
42
43
45
46
46
45
43
41
39
36
33
30
27
25
23
21
21
20
19
19
18
18
17
17
16
15
13
12
12
11
13
20
30
40
52
64
72
76
78
76
73
70
66
62
58
55
52
50
49
48
49
50
50
51
51
49
47
44
41
38
34
31
28
26
25
24
23
22
21
20
20
19
18
17
17
16
15
14
12
11
10
12
18
26
36
46
56
65
70
71
70
68
65
62
59
56
53
50
49
49
49
51
53
55
55
55
53
51
49
46
44
41
39
37
34
32
31
30
30
30
29
28
27
26
25
24
23
22
20
19
18
21
27
36
46
58
69
78
83
85
84
82
79
75
71
67
64
61
58
57
58
59
61
63
64
64
63
61
59
55
51
48
44
40
38
36
34
32
31
29
28
27
26
25
24
23
22
21
19
18
17
16
17
21
28
38
49
62
74
83
89
92
92
91
89
85
82
79
76
73
71
70
69
68
68
68
68
67
66
63
59
56
52
48
44
41
39
36
35
33
32
31
31
29
28
26
25
23
22
20
19
17
15
13
11
10
11
17
26
38
52
52
78
86
86
92
92
90
86
82
82
73
68
68
62
61
61
61
61
61
61
60
58
55
52
47
43
39
35
31
28
26
24
22
20
19
17
16
15
14
13
12
10
9
7
5
4
2
0
0
3
10
21
34
48
62
74
82
85
86
83
81
76
71
67
62
58
54
52
51
52
54
57
59
59
58
55
52
48
43
40
36
32
29
26
24
22
21
20
20
20
19
18
18
17
16
15
13
11
9
8
8
13
21
33
46
62
76
87
94
97
97
94
90
63
60
57
55
53
51
50
50
50
51
52
52
52
51
49
47
45
42
40
39
37
36
34
33
32
31
31
30
30
29
29
28
28
27
26
26
25
24
23
22
22
22
25
30
37
44
53
62
68
72
75
75
74
73
71
68
66
64
61
59
58
57
56
56
56
56
55
53
52
50
47
45
42
40
38
36
34
33
32
31
30
29
29
28
27
26
25
24
23
22
22
21
20
19
18
17
17
20
24
31
39
47
55
62
62
69
69
69
67
64
64
59
56
56
52
50
50
49
49
49
50
49
49
46
44
42
40
37
35
32
30
29
28
27
26
26
26
26
25
25
25
24
24
24
23
23
22
22
21
20
21
23
28
35
42
51
59
65
69
70
70
69
67
64
61
58
55
53
52
51
51
52
53
53
53
53
53
51
49
47
44
41
40
38
36
34
33
32
32
31
31
31
30
30
29
28
28
27
26
25
25
24
23
22
23
25
29
36
44
53
63
71
76
79
80
79
78
75
73
70
68
66
63
62
61
60
60
60
59
58
57
55
52
50
47
44
41
39
37
35
34
33
32
31
30
29
28
28
26
26
25
24
23
22
18
17
16
16
18
22
29
37
46
55
64
70
73
75
74
72
70
67
64
60
58
55
53
52
51
51
51
51
51
50
48
45
42
40
37
33
30
28
26
24
23
22
21
20
20
19
19
19
18
18
17
17
16
15
14
13
12
11
11
11
13
17
24
32
41
50
58
63
66
66
65
63
61
58
55
52
49
47
45
45
45
46
47
48
49
49
48
46
43
41
39
36
34
32
30
29
28
28
27
27
27
27
27
27
26
26
25
24
23
22
22
20
20
20
24
29
29
45
54
54
69
73
73
75
73
73
68
65
65
59
56
54
53
53
53
53
53
53
53
52
50
47
45
42
40
37
35
32
31
29
28
27
26
26
25
25
24
24
23
22
21
20
19
18
18
17
16
15
15
18
23
30
39
48
59
68
74
78
80
79
78
75
73
70
67
65
62
60
59
57
57
56
55
55
53
51
49
47
44
41
39
36
34
32
30
28
27
26
26
25
25
24
23
23
22
21
20
19
18
17
17
16
15
14
13
13
14
17
22
30
40
50
60
68
73
76
76
75
73
70
68
65
62
59
57
55
54
54
53
53
53
53
51
49
47
44
41
39
36
33
30
28
27
25
24
23
23
22
22
22
22
21
20
19
18
17
16
16
15
14
13
12
11
11
13
18
25
34
43
54
62
68
72
73
72
70
67
63
59
56
53
50
48
47
47
47
48
49
49
49
48
46
43
40
38
35
31
29
26
25
23
22
22
22
22
21
21
21
21
20
20
19
19
19
17
16
16
14
14
14
21
28
28
46
55
55
68
71
71
70
67
64
61
57
53
50
47
46
45
45
46
48
49
50
50
49
48
45
42
40
37
34
32
30
29
28
27
26
26
25
25
25
25
24
24
23
23
22
21
20
19
19
21
27
34
43
53
63
72
77
80
81
80
78
75
72
69
66
63
60
58
56
56
56
56
57
57
56
55
52
50
47
43
40
38
36
33
32
30
29
28
28
27
27
27
26
26
25
24
23
22
21
20
20
20
22
28
35
44
54
65
73
79
82
83
83
81
79
76
73
70
67
64
62
61
60
60
59
59
58
57
55
52
49
46
42
40
37
35
33
31
29
28
28
27
26
26
25
25
24
23
22
21
20
19
17
16
16
17
21
28
36
45
55
65
72
76
78
78
76
74
71
68
64
61
59
57
55
54
53
54
54
53
52
50
48
45
42
39
35
32
30
28
26
25
24
23
23
22
22
22
21
21
20
19
19
17
16
15
14
13
14
17
22
29
38
47
55
62
65
67
67
65
62
60
57
53
50
48
46
45
44
45
45
46
47
46
46
44
41
40
37
34
32
29
28
26
25
25
25
25
25
25
24
24
24
23
23
21
20
20
18
19
19
26
33
33
49
57
57
68
70
70
69
67
65
62
59
56
54
52
51
50
50
50
51
51
50
49
47
44
41
39
37
34
32
31
29
28
28
27
27
26
26
26
25
25
24
23
22
21
20
19
18
18
18
20
24
30
39
47
56
64
70
73
74
74
73
71
69
66
64
62
60
58
57
56
56
55
55
54
52
50
48
45
42
40
38
36
34
32
30
29
28
28
27
27
26
26
25
24
23
22
21
20
19
18
17
16
15
15
15
16
20
25
33
41
49
57
64
67
69
69
67
65
63
61
59
56
54
52
51
50
50
49
49
49
48
46
44
42
40
37
34
32
30
28
27
26
25
25
24
23
23
22
22
21
20
20
19
18
17
16
15
14
13
13
13
14
17
23
30
38
46
55
61
65
66
66
65
63
60
58
55
52
50
48
47
47
47
48
49
49
48
47
46
44
41
39
36
34
32
31
29
28
28
27
27
27
26
26
26
25
25
25
24
23
23
21
20
20
19
18
18
23
29
29
45
54
63
69
74
76
76
75
73
70
68
65
63
60
58
57
56
55
55
55
54
53
51
49
47
44
41
39
37
34
32
31
29
28
27
27
26
25
25
24
24
23
22
21
20
19
18
17
16
15
14
14
13
14
18
24
32
40
51
60
67
72
74
74
73
71
68
66
63
60
58
55
53
52
51
51
51
50
49
48
46
44
41
39
36
33
31
28
26
25
24
23
22
22
21
21
21
20
20
19
19
18
17
16
15
14
13
12
11
10
11
13
18
25
34
43
53
61
67
70
71
70
68
65
62
59
55
52
50
48
47
46
47
48
49
49
49
48
47
44
41
39
36
34
31
29
28
27
26
25
25
25
24
24
23
23
22
22
21
20
19
18
17
16
16
16
18
23
31
40
49
60
68
74
77
79
78
76
73
70
67
63
60
58
56
55
54
54
54
54
54
54
52
50
47
44
41
38
35
33
31
30
28
27
26
26
26
25
25
25
24
24
23
22
21
20
19
18
17
16
15
15
15
17
21
29
38
48
59
69
76
80
82
82
80
78
75
72
70
67
64
63
61
60
59
59
58
58
57
55
53
53
47
44
44
38
35
35
31
29
29
27
26
26
25
24
24
23
23
22
21
20
19
18
17
16
15
14
13
13
12
13
15
20
28
37
47
58
67
74
77
79
78
76
73
70
67
63
60
57
55
54
53
53
54
54
54
54
53
51
48
45
41
38
35
32
30
28
26
25
24
24
24
23
23
23
23
23
22
22
21
20
20
19
18
17
16
16
16
20
26
34
43
53
62
70
74
76
76
75
72
69
66
62
59
56
53
51
51
51
52
53
54
54
54
52
50
47
44
42
40
37
34
32
31
29
29
28
28
28
27
27
26
26
25
24
23
22
21
20
19
18
17
17
19
23
31
40
50
61
71
78
82
84
83
82
80
77
74
71
68
65
62
61
59
59
59
59
58
57
55
53
50
47
43
40
38
35
33
30
28
27
26
25
24
24
23
21
20
19
17
16
15
15
15
15
15
16
16
16
16
18
22
29
38
46
56
64
70
73
74
73
73
67
64
64
59
56
56
53
52
52
52
53
53
54
54
54
50
47
47
41
39
36
33
31
29
27
26
26
25
25
24
24
23
22
21
20
19
18
17
16
15
14
14
14
16
20
27
35
43
52
60
65
68
69
68
66
63
60
57
53
50
48
47
46
46
48
49
50
51
50
48
46
44
41
39
36
33
31
29
28
27
27
26
26
26
25
25
24
24
23
23
22
21
20
19
18
18
19
22
28
35
44
53
62
68
72
74
73
72
69
66
62
59
56
53
52
50
50
50
50
51
51
50
49
47
44
41
39
36
33
32
30
29
29
29
29
29
29
29
28
27
26
25
23
22
21
20
19
19
18
18
17
18
20
25
32
40
49
58
66
71
74
74
72
70
68
65
62
59
57
55
54
53
53
53
54
54
55
54
53
50
47
44
40
37
33
30
27
26
25
24
24
24
24
24
24
24
24
23
23
23
22
20
19
18
18
17
17
19
23
29
38
47
56
65
71
74
75
74
72
69
67
64
61
58
56
54
53
52
53
54
54
53
52
51
48
45
42
40
37
34
32
30
29
27
26
25
25
24
24
23
23
23
22
21
20
19
18
17
16
16
15
15
18
18
31
40
40
61
70
70
80
81
81
79
77
77
71
68
68
63
60
60
58
57
56
56
55
53
51
49
46
43
40
38
35
33
31
29
27
26
26
25
25
24
24
23
22
22
21
20
19
18
17
15
14
13
13
12
14
17
24
32
42
53
63
71
77
79
80
78
76
74
70
67
64
61
58
56
54
54
54
53
53
51
50
48
45
42
39
36
33
30
27
25
23
22
21
20
19
19
18
18
18
18
17
17
16
15
14
13
12
11
11
10
9
10
13
18
26
35
45
55
64
69
72
73
71
69
66
63
59
56
53
50
48
47
47
48
49
49
50
50
49
46
44
41
39
36
33
31
29
28
27
26
25
25
25
24
24
24
23
22
21
20
19
18
18
16
16
15
17
20
27
36
45
56
66
73
78
80
80
78
76
73
69
66
62
59
57
55
54
54
54
54
54
53
51
49
47
44
41
39
36
33
30
28
26
25
24
24
23
23
23
23
22
22
21
21
19
18
18
16
15
15
13
13
13
15
19
19
37
47
47
69
77
77
84
84
82
79
76
72
69
65
62
60
56
56
55
54
52
49
46
43
40
37
34
31
29
27
26
25
24
24
23
23
23
22
22
21
20
19
18
17
16
15
13
12
11
10
10
10
14
20
28
39
50
61
70
76
79
79
78
75
72
68
64
61
57
55
53
51
51
52
52
52
52
51
48
46
43
40
37
34
30
28
26
24
23
22
21
21
20
20
20
19
19
18
18
17
16
15
14
13
12
11
10
11
13
18
26
36
46
57
67
73
76
77
76
73
70
66
62
58
54
51
49
48
48
49
50
51
52
52
51
49
47
44
41
38
35
33
30
28
27
26
26
25
25
25
25
24
24
23
23
22
21
20
19
18
18
17
18
22
28
37
47
59
69
78
83
86
86
85
82
79
75
71
68
65
62
60
59
59
59
59
59
59
57
55
52
49
45
42
40
37
34
32
30
29
28
28
27
27
26
26
25
24
23
22
21
19
19
17
16
16
15
17
21
28
37
47
58
69
77
83
85
86
84
82
78
75
71
67
64
61
60
58
57
57
57
56
55
53
51
48
44
41
38
35
35
30
28
28
25
25
25
24
23
23
22
22
22
20
20
20
18
17
17
15
15
15
17
23
30
39
49
59
68
74
77
78
77
74
71
67
63
59
55
53
51
50
50
51
52
53
53
52
50
48
45
41
39
36
33
31
29
28
28
27
27
27
26
26
26
26
25
25
24
23
22
20
20
19
21
26
33
41
51
62
71
78
81
83
82
80
77
74
70
66
63
60
58
56
55
55
55
55
54
53
51
48
45
41
39
36
33
31
29
28
26
26
25
25
25
24
24
23
22
21
21
20
19
17
16
15
14
15
19
25
34
44
55
66
74
80
83
83
82
80
77
74
70
67
64
62
60
58
57
57
56
55
54
52
49
46
43
40
37
34
31
29
27
25
24
23
22
22
21
21
20
19
18
17
15
14
12
12
10
10
9
8
8
9
14
21
30
40
52
62
69
74
76
76
74
72
69
66
64
61
58
56
54
53
52
52
52
52
51
50
48
45
42
39
39
33
30
30
25
24
24
23
22
22
22
21
21
20
20
20
18
17
17
15
14
13
12
13
15
21
28
38
48
58
67
72
75
76
74
71
68
64
60
56
53
50
48
47
47
47
48
48
48
47
45
42
40
37
34
31
28
26
24
23
22
22
21
21
21
20
20
20
19
18
17
16
15
14
13
12
11
11
13
17
24
33
43
55
65
73
78
81
81
79
76
73
70
66
63
60
58
57
55
55
55
55
55
54
52
50
47
44
40
37
34
31
29
27
26
24
23
23
22
22
22
21
21
20
20
19
18
17
16
15
14
13
12
11
12
15
21
30
40
51
63
72
79
82
83
82
79
75
71
66
63
59
56
54
53
52
51
51
51
51
50
47
45
42
39
35
32
29
27
24
23
21
20
20
19
19
18
18
17
17
16
15
15
14
13
12
11
10
9
8
9
11
17
25
35
45
56
65
71
74
74
73
70
67
64
60
56
53
51
49
48
48
48
49
50
50
49
47
45
42
39
36
33
30
28
26
24
23
22
22
21
21
21
21
20
19
18
17
16
15
14
13
12
11
12
17
24
34
44
56
67
75
80
82
81
79
76
73
70
66
63
60
57
55
55
53
54
54
54
53
53
50
47
47
40
37
37
30
27
27
23
21
21
20
19
19
19
19
18
18
17
16
16
15
14
13
12
11
11
14
21
30
40
52
64
73
80
83
84
83
81
78
74
71
67
64
61
58
55
54
53
52
52
52
51
49
46
43
40
36
33
30
27
25
23
21
20
19
18
18
17
17
16
15
15
14
13
12
10
9
8
7
7
10
15
23
33
43
55
64
70
74
75
74
72
69
66
62
58
54
50
48
46
45
45
46
47
47
47
46
44
41
39
35
32
29
27
25
23
22
22
21
21
21
21
21
21
21
21
20
19
18
17
17
19
24
32
40
50
61
70
76
80
80
79
77
73
70
66
61
58
55
53
51
51
52
52
53
53
52
50
48
45
42
39
36
33
30
28
26
25
25
24
24
24
24
23
23
22
21
20
19
18
17
18
22
28
37
47
59
70
79
84
87
88
86
84
81
77
74
70
67
64
62
60
59
59
59
58
57
55
55
49
46
46
40
36
36
31
29
29
27
26
26
25
24
24
23
23
23
21
20
18
17
15
14
14
16
20
28
38
48
59
69
76
80
82
81
79
76
73
69
65
62
58
55
53
52
52
52
52
52
51
49
46
42
39
35
31
28
25
23
22
21
20
20
19
19
18
18
17
17
16
15
13
12
10
9
10
12
18
26
35
45
55
62
67
70
70
68
65
62
58
54
51
48
46
45
45
45
46
47
48
48
47
45
43
40
38
35
32
29
27
25
24
23
23
23
23
23
23
23
22
21
20
19
18
19
23
28
37
45
56
66
73
77
79
79
77
74
70
67
63
59
56
54
52
52
52
52
52
52
51
49
47
43
40
37
34
31
28
27
25
25
25
24
25
25
25
24
24
23
22
21
20
18
17
16
17
20
26
35
45
57
68
76
82
85
85
84
82
79
76
72
69
65
62
60
58
57
56
56
54
53
50
48
45
41
39
36
33
30
28
25
24
22
22
21
21
20
20
19
18
17
16
15
14
13
11
10
9
9
11
16
24
34
44
55
65
72
76
78
77
75
72
69
66
62
59
56
54
52
50
50
49
48
47
45
42
40
37
33
29
26
23
23
19
18
18
16
15
15
14
14
14
13
13
13
11
10
10
8
7
7
5
5
7
13
21
30
40
49
57
62
65
65
64
61
58
55
51
47
44
42
40
40
40
40
41
42
42
41
40
38
35
32
29
26
24
22
20
19
19
18
17
17
17
17
16
16
15
15
14
13
12
11
10
11
13
18
25
33
41
50
56
61
63
64
63
61
58
55
52
49
46
44
43
42
41
41
41
41
40
40
39
37
35
32
30
27
25
23
22
20
20
19
19
19
18
18
18
17
16
16
15
14
13
12
12
12
12
14
19
25
33
41
50
56
61
63
64
63
62
59
57
55
53
50
49
48
47
46
46
45
45
44
43
41
40
38
36
34
31
29
28
26
25
23
22
22
21
21
20
19
19
18
17
16
16
14
13
12
12
11
12
14
18
24
31
38
46
52
57
60
61
61
59
57
54
52
49
47
45
43
42
42
42
42
43
43
43
42
40
39
36
34
32
30
28
28
25
24
24
23
23
23
22
22
22
21
21
21
20
19
19
18
17
17
20
25
31
38
45
51
56
59
60
60
58
56
54
51
48
46
44
42
41
41
42
42
43
44
44
43
42
41
40
38
36
34
32
31
30
29
28
28
27
27
27
27
27
26
26
25
25
24
23
23
25
28
34
40
48
57
63
68
71
72
71
70
68
65
63
60
58
56
55
54
54
55
55
56
56
55
53
51
49
46
44
42
40
39
37
36
35
34
33
32
32
31
31
30
30
29
28
27
26
25
24
24
25
29
35
42
51
60
67
73
76
77
76
75
72
69
66
63
61
59
57
56
55
54
54
53
52
51
49
47
45
42
40
38
36
34
32
30
29
28
27
26
25
24
23
23
22
21
20
19
18
17
16
15
14
15
17
23
30
38
46
54
60
63
65
65
63
61
59
57
54
51
49
47
46
45
45
45
45
45
44
43
42
40
39
36
34
32
30
28
27
26
25
25
25
25
24
24
24
23
23
22
21
20
19
19
19
23
28
34
41
48
55
60
62
64
63
61
59
57
54
51
49
47
45
45
45
46
46
47
47
47
46
44
42
40
38
36
34
32
31
30
29
29
28
28
28
28
28
27
27
27
25
24
24
24
26
26
37
43
43
59
66
66
72
73
72
71
69
66
63
61
59
57
56
56
55
55
55
55
54
52
50
48
45
43
40
39
37
36
35
33
33
32
31
30
30
30
29
29
28
27
26
25
25
24
24
24
26
31
37
45
54
63
70
74
77
78
77
76
74
72
70
67
65
63
62
61
60
60
59
58
56
54
52
50
47
45
42
40
38
35
34
33
32
31
30
30
29
28
27
26
25
24
23
22
21
20
18
17
16
15
15
16
20
25
33
41
50
59
69
68
65
63
60
57
55
52
51
50
49
49
49
49
48
46
44
41
39
37
34
31
29
27
26
25
25
24
24
24
23
23
23
22
21
20
20
19
18
16
15
15
13
13
14
16
21
28
36
44
52
59
63
66
66
64
62
59
56
53
51
49
48
47
47
48
48
49
49
48
47
45
43
40
38
35
33
31
30
29
28
27
27
26
26
26
25
25
25
23
22
22
20
19
19
17
17
17
18
22
22
37
45
45
63
68
68
72
71
69
67
64
61
58
55
53
51
49
48
47
47
47
46
45
43
41
39
36
33
30
27
25
24
23
22
22
22
22
23
23
23
24
24
24
24
23
23
22
21
20
20
19
19
21
25
31
39
48
57
65
71
74
75
74
72
69
66
62
59
56
53
51
50
50
50
50
50
49
48
47
44
42
40
38
35
34
32
31
30
29
28
28
27
27
26
26
25
25
24
23
22
21
20
19
18
18
18
19
23
30
40
49
60
69
76
79
81
80
78
76
73
70
67
65
62
60
59
58
57
57
56
56
55
53
51
48
45
41
39
35
32
29
27
25
24
23
23
22
22
22
22
21
21
20
20
18
17
16
15
14
13
13
16
21
29
39
49
60
68
73
76
77
76
74
71
68
65
62
58
56
54
52
51
51
51
51
50
49
47
45
42
39
36
32
29
27
25
23
22
21
20
20
20
19
19
18
18
17
16
15
14
14
15
18
24
32
40
49
58
63
67
68
68
66
63
61
58
55
52
49
47
45
44
44
44
44
44
43
42
40
38
36
33
30
28
25
23
22
20
20
19
18
18
18
17
17
17
16
16
15
14
14
15
18
18
30
39
39
54
60
63
63
62
60
58
55
53
50
47
45
43
42
41
41
41
42
42
41
40
39
37
34
32
29
26
24
22
20
19
18
18
17
17
17
17
16
16
16
15
14
13
13
12
12
14
18
24
32
40
47
53
56
57
57
55
54
51
49
46
43
41
40
40
39
39
40
40
40
41
40
40
38
35
33
30
28
26
24
23
22
21
21
20
20
20
21
21
21
21
21
21
20
20
22
25
30
37
43
50
55
58
59
59
58
56
53
50
48
45
43
42
42
42
43
44
45
46
46
46
44
43
41
39
37
35
33
31
30
29
28
27
26
26
26
25
25
25
25
24
24
23
23
24
27
33
40
47
54
62
67
69
70
70
69
67
64
61
59
56
54
53
52
52
52
52
52
52
51
50
49
47
45
42
40
38
36
34
33
32
31
30
29
28
28
28
27
27
26
25
25
24
23
23
23
26
30
30
44
52
52
66
70
70
71
70
70
65
62
62
57
54
54
51
50
50
50
50
50
49
48
46
44
42
40
37
35
33
31
30
28
27
27
26
25
25
25
24
24
24
23
22
21
20
19
19
20
24
29
37
44
52
60
64
67
68
67
65
63
60
57
54
52
50
48
48
48
48
49
50
50
50
49
47
45
43
40
39
37
34
33
31
30
30
29
29
29
29
29
28
28
27
26
25
24
23
24
27
33
40
47
56
64
69
72
74
73
72
69
67
64
61
58
56
54
53
53
53
53
53
53
53
51
49
47
44
40
39
36
34
32
31
30
29
28
28
27
27
26
26
25
24
24
23
22
21
21
20
19
20
23
29
37
45
55
64
71
75
77
77
75
73
70
67
65
62
60
58
57
56
55
55
55
54
54
52
50
48
45
42
40
38
35
33
31
30
29
28
27
27
26
25
25
24
23
22
21
20
19
19
17
16
15
15
15
18
23
30
38
47
57
65
70
73
74
73
71
68
64
61
58
55
53
51
51
50
50
51
51
50
49
47
45
42
40
37
34
31
29
27
26
25
24
24
23
23
23
22
22
21
21
20
20
19
18
17
16
16
16
18
22
22
36
44
44
60
65
65
68
67
67
62
59
59
52
49
49
45
45
45
45
46
47
47
46
45
43
41
39
36
33
31
29
27
25
24
23
23
22
22
22
22
22
22
21
21
20
19
18
18
17
16
16
16
20
26
34
42
53
62
70
75
77
77
76
74
71
68
65
62
59
57
55
54
54
54
54
54
54
53
51
49
46
43
40
38
36
33
31
29
28
27
26
26
26
25
25
24
24
23
23
22
21
20
20
19
18
17
17
18
21
27
35
43
54
64
72
77
79
80
79
76
73
70
67
64
61
59
57
56
55
54
54
53
53
52
50
47
44
41
39
36
33
31
29
27
25
24
23
23
22
22
22
21
21
20
19
18
17
17
16
15
14
14
13
12
13
16
22
30
39
49
58
66
71
73
74
72
69
66
63
59
55
52
50
48
47
47
48
48
49
49
49
47
45
42
40
38
35
32
30
29
28
27
26
26
25
25
25
24
24
24
23
23
22
22
20
20
20
18
17
17
22
28
28
45
55
55
72
76
76
78
76
76
70
67
63
60
56
54
53
52
53
53
54
54
54
52
50
48
45
42
40
37
34
32
30
29
28
27
27
26
26
25
25
25
24
24
23
22
21
20
19
18
17
17
17
19
25
33
42
53
64
73
79
83
84
83
81
79
75
72
69
66
64
62
60
60
59
59
59
58
57
55
52
49
46
43
40
37
35
33
31
29
28
27
27
27
26
26
25
25
24
23
22
21
20
19
19
18
17
16
15
15
15
18
24
32
41
52
63
72
79
82
83
82
80
78
74
71
67
64
61
59
58
57
57
57
56
56
54
52
49
46
43
40
37
35
32
30
28
27
26
25
25
24
24
23
23
22
21
21
20
19
18
17
16
15
14
13
12
11
11
13
18
25
34
44
55
64
71
75
76
76
74
71
68
64
60
57
54
52
50
50
50
51
52
52
52
50
49
46
43
40
37
34
31
29
28
26
25
25
24
24
24
24
24
24
23
22
22
21
20
19
18
17
16
16
16
20
26
34
43
54
64
71
76
78
78
76
73
70
66
62
59
55
53
51
51
51
52
53
54
53
52
50
47
44
41
41
35
32
32
28
27
27
25
25
25
24
24
24
23
22
22
21
20
20
18
17
16
15
14
15
18
24
33
43
55
66
75
81
85
86
85
83
80
77
74
70
67
65
63
61
61
60
60
60
59
57
55
52
49
46
42
39
36
34
32
30
29
28
28
27
27
27
26
26
25
24
23
22
21
20
19
18
17
16
15
16
19
25
34
43
55
66
75
81
84
85
84
82
79
75
72
68
65
62
59
58
57
56
56
55
54
53
51
48
45
42
39
36
33
31
29
27
26
25
24
23
23
22
22
21
20
20
19
18
16
15
14
13
12
11
10
10
11
15
21
30
40
51
62
70
75
78
78
77
74
71
67
63
59
56
53
51
50
51
51
52
52
53
52
50
47
44
41
38
35
32
30
28
27
26
25
25
24
24
24
24
23
23
22
21
20
20
19
18
16
15
15
15
17
22
30
40
50
61
70
77
81
82
81
79
75
72
68
65
61
59
57
55
55
55
55
56
56
54
52
52
46
42
42
36
33
33
28
27
27
25
25
25
24
24
24
23
22
21
20
19
17
16
15
15
14
13
12
12
12
14
20
28
38
49
62
72
81
86
89
89
87
84
81
78
75
71
68
66
64
62
61
60
59
58
56
54
52
49
45
42
39
36
33
30
28
27
26
25
24
24
24
23
23
22
21
20
19
18
17
16
14
13
12
11
10
10
9
9
9
12
18
26
37
48
59
70
77
81
83
82
80
77
74
70
67
63
60
58
57
55
55
55
55
55
53
51
49
45
42
39
35
31
28
26
24
22
21
21
21
21
20
20
20
20
19
18
17
16
15
14
13
12
11
11
10
11
13
17
24
34
44
55
65
73
77
79
78
76
73
69
65
61
57
54
51
50
50
50
52
53
53
53
52
50
47
44
40
37
34
31
29
27
26
25
24
24
24
24
24
23
23
23
22
21
21
19
18
17
16
15
14
14
16
21
30
40
52
64
75
83
87
89
89
87
84
81
77
73
70
67
64
62
61
60
60
60
59
58
56
53
50
46
43
40
37
33
31
29
27
26
25
24
24
23
23
22
22
21
21
20
19
18
17
16
14
13
12
12
11
13
13
25
36
36
59
71
79
85
82
78
74
70
67
64
61
59
58
57
57
57
56
55
52
49
46
42
39
36
32
29
27
25
23
22
21
20
20
20
19
19
18
18
17
16
15
14
13
11
10
10
8
7
7
9
14
14
31
42
42
64
73
73
81
80
78
74
70
66
62
58
55
52
51
50
51
51
52
52
51
49
46
43
40
36
33
30
27
25
23
22
21
21
21
21
21
21
21
20
20
19
18
17
16
15
14
12
12
11
14
19
27
37
47
59
69
75
79
81
80
77
74
70
66
61
58
55
53
51
51
52
53
54
54
53
51
49
46
42
39
36
33
30
28
26
25
24
23
23
23
22
22
22
21
21
20
19
18
17
16
15
14
13
12
14
19
26
36
47
60
72
81
86
89
89
87
84
81
77
73
70
67
64
62
59
58
58
58
57
56
55
52
49
46
42
39
36
33
31
28
27
25
25
24
24
23
23
22
22
21
20
20
18
17
17
15
14
14
12
11
11
13
18
18
36
47
47
71
80
80
88
88
86
83
80
76
72
69
65
62
60
58
57
56
56
56
55
53
50
47
43
40
37
33
30
28
26
24
22
21
21
20
20
20
19
19
18
18
17
16
15
14
13
12
11
10
9
8
7
8
10
16
24
35
46
59
69
77
81
82
81
79
75
71
67
63
59
56
54
52
52
52
53
54
55
54
53
51
47
44
40
37
34
31
28
26
25
24
24
23
23
23
23
23
23
22
21
20
19
18
17
16
15
14
13
12
14
18
25
35
46
58
70
79
84
87
87
85
82
78
74
69
65
62
59
58
56
57
57
57
57
57
55
53
50
46
42
39
35
32
29
27
26
24
24
23
23
23
23
22
22
21
20
19
18
17
16
15
14
13
12
11
10
10
12
17
26
37
48
62
74
83
88
91
91
90
87
83
80
76
72
69
66
64
62
61
60
59
59
58
56
53
50
46
42
40
36
33
31
28
27
26
25
24
24
23
23
22
21
20
19
18
17
15
14
13
12
11
10
9
8
7
8
11
16
25
36
47
60
71
78
83
84
83
81
78
74
70
66
62
59
56
54
53
53
53
53
53
53
50
48
48
41
38
38
30
27
27
23
21
21
20
20
20
20
20
19
19
18
18
17
16
15
14
13
12
11
10
9
10
14
21
30
40
52
64
72
78
80
80
79
76
72
68
63
58
55
52
50
49
50
51
52
53
53
52
51
48
45
42
39
35
32
30
28
26
25
24
24
23
23
23
22
22
22
21
20
19
18
17
16
15
13
12
11
11
14
20
30
41
54
66
77
85
89
91
90
88
85
81
77
72
68
65
62
60
59
59
59
58
58
57
55
52
49
45
41
38
34
32
29
27
26
25
25
24
24
23
23
22
21
21
20
18
17
16
15
14
13
12
11
10
9
9
10
14
22
32
44
57
69
79
86
89
90
89
86
82
79
75
71
67
64
61
60
58
57
57
57
56
54
52
49
45
41
38
34
31
28
26
24
22
21
20
20
20
20
19
19
18
17
16
15
14
13
12
11
10
9
7
7
6
5
7
10
17
27
39
50
50
73
80
80
84
82
82
75
71
71
62
58
58
52
51
51
50
51
51
52
52
50
47
44
40
37
33
29
26
23
21
20
19
18
18
18
18
18
18
17
16
16
15
14
13
11
10
8
7
6
5
7
12
20
30
41
53
64
73
78
80
80
78
75
71
67
63
59
55
52
50
50
50
51
52
53
53
52
51
48
44
41
38
34
31
28
26
25
24
23
22
22
22
22
22
21
20
20
19
18
17
16
15
14
14
17
22
30
40
53
66
77
85
90
92
91
89
86
82
77
73
69
65
63
60
59
58
58
57
57
56
54
51
48
45
41
38
35
32
30
28
26
25
24
23
22
22
21
21
20
20
19
18
17
16
15
14
12
11
10
10
12
18
26
37
49
62
74
83
89
92
92
90
86
83
79
75
71
67
64
62
59
58
57
56
55
54
52
49
46
43
40
36
33
29
26
24
22
21
20
19
19
19
19
19
19
18
18
17
16
14
13
11
10
9
8
7
9
15
23
34
46
59
70
77
82
83
82
80
76
72
68
63
58
55
51
50
49
49
50
51
52
51
50
48
45
42
39
35
32
29
26
24
23
22
21
21
21
21
21
20
20
20
19
19
17
16
16
13
13
13
16
22
22
41
53
53
74
80
80
84
82
82
76
72
68
63
59
56
54
52
52
53
54
54
54
53
50
48
44
40
37
34
30
28
25
24
23
22
21
21
21
20
20
19
19
18
17
16
15
14
13
12
11
10
11
14
21
31
42
55
68
79
86
91
92
91
89
85
82
78
74
70
67
64
62
60
59
59
58
57
56
54
51
48
44
40
38
35
32
30
28
26
25
24
24
24
23
23
22
21
20
19
18
17
16
15
14
12
11
10
10
9
11
15
22
33
44
57
70
79
86
89
89
88
85
81
77
74
70
66
63
60
58
57
57
56
56
55
53
50
47
44
40
37
34
31
28
26
24
23
22
21
21
20
20
20
19
19
18
17
16
15
13
12
11
10
9
9
8
7
7
7
8
13
21
32
43
56
68
77
82
85
85
83
80
76
71
67
63
59
56
54
53
53
53
54
54
54
53
51
48
44
40
37
34
31
28
28
25
24
24
24
24
24
23
23
23
23
22
22
20
19
19
16
15
15
13
12
12
14
19
28
38
49
62
72
80
85
86
85
83
79
75
70
65
61
58
56
54
54
54
55
56
56
55
53
50
47
43
40
36
33
29
27
25
23
22
21
21
21
20
20
20
19
19
18
17
16
15
14
13
11
11
10
9
9
10
14
22
33
45
59
72
82
89
92
93
91
89
85
81
77
72
69
66
63
61
60
59
59
58
57
55
53
50
46
42
40
36
32
29
27
25
24
23
23
22
22
22
21
21
20
19
18
17
16
15
13
12
11
11
10
9
9
8
7
7
8
12
19
30
41
55
69
80
87
91
93
91
89
85
81
77
72
68
65
62
60
59
58
58
58
57
55
53
50
47
43
40
37
33
30
27
25
24
23
22
22
22
21
21
21
20
19
18
17
16
15
13
12
11
9
8
8
7
6
5
5
5
5
7
12
21
33
45
59
71
81
86
89
88
86
83
78
74
69
64
60
57
55
53
53
53
54
54
54
52
50
46
42
39
35
31
28
25
23
21
20
19
19
19
19
19
19
18
18
17
16
15
14
13
12
11
10
9
8
7
6
6
6
8
8
22
33
33
58
70
70
84
85
85
81
77
73
67
62
62
54
51
51
48
49
50
51
53
53
52
50
47
44
40
37
34
30
27
25
23
21
21
20
20
20
20
20
20
19
19
18
17
16
15
14
13
11
10
9
8
8
9
13
22
33
45
59
73
84
91
94
95
94
91
87
61
59
57
55
53
52
51
50
50
50
50
50
50
49
47
45
43
41
40
38
36
35
34
33
32
32
32
31
31
31
31
31
30
30
29
29
28
28
27
27
26
25
25
24
24
26
28
33
39
45
52
58
62
65
66
66
65
63
61
59
57
55
53
51
50
49
48
48
48
48
48
47
46
44
43
41
40
38
36
34
33
32
31
31
30
30
30
30
30
30
29
29
28
28
27
27
26
26
25
24
23
23
24
26
30
35
40
47
53
58
61
62
62
61
60
58
55
53
51
49
47
46
45
45
45
46
46
47
47
46
45
43
42
40
39
37
35
34
33
33
32
32
32
32
31
31
31
31
31
31
30
29
29
28
28
28
27
28
28
34
39
39
51
57
61
64
65
65
64
62
60
58
55
53
51
50
48
48
48
48
48
49
48
48
47
45
44
42
40
39
37
36
35
34
34
33
33
33
33
32
32
32
32
31
31
30
29
29
28
28
27
27
26
26
27
29
33
38
44
51
57
62
66
68
68
67
66
64
62
60
58
56
54
53
52
51
51
50
50
50
49
47
46
44
42
40
39
37
36
35
34
33
32
32
32
32
32
31
31
31
30
29
29
28
27
27
26
25
25
24
24
23
23
24
27
32
38
44
50
56
60
62
63
63
61
60
58
56
54
52
50
48
47
47
46
46
47
46
46
45
43
41
34
33
32
32
30
30
30
29
29
29
29
29
29
29
28
28
27
27
26
25
25
24
24
23
25
27
32
37
42
49
54
58
60
61
60
59
57
55
53
50
48
46
45
44
44
44
45
45
46
46
45
44
42
40
39
37
35
34
33
32
31
31
31
31
31
31
31
31
30
30
29
29
29
28
27
27
26
26
26
28
32
37
43
49
56
61
64
65
65
64
63
60
58
56
54
52
51
50
49
48
48
48
47
47
47
45
44
44
40
38
38
35
34
34
32
31
31
31
30
30
30
30
30
30
29
28
28
27
27
26
26
25
24
24
24
24
26
30
35
41
48
55
60
64
66
66
66
64
63
61
59
57
55
53
52
51
50
49
49
48
47
47
45
43
42
40
39
37
35
33
32
31
30
30
29
29
29
28
28
28
28
27
27
26
26
25
25
24
24
23
23
22
22
23
25
29
35
40
47
53
58
60
62
62
61
59
57
55
53
50
48
47
45
45
44
44
45
45
44
44
43
42
40
39
37
35
33
32
31
30
30
30
30
29
30
30
30
29
29
29
28
28
27
27
26
25
24
24
25
27
30
35
40
47
53
58
61
63
63
62
60
58
56
53
51
49
47
46
45
44
45
45
46
46
45
44
43
41
40
38
36
34
33
32
31
30
30
30
30
30
30
30
30
29
29
29
28
28
27
26
26
25
24
24
25
27
31
36
42
49
56
61
64
66
66
66
64
62
62
58
56
56
52
51
51
49
49
49
49
48
48
46
45
45
41
40
38
36
35
34
33
32
31
31
31
30
30
30
29
29
29
28
27
27
26
26
25
24
24
23
23
23
24
27
32
38
44
51
57
62
64
65
65
64
62
59
57
55
53
51
49
48
47
46
46
46
46
46
45
43
42
40
39
37
35
33
32
31
30
30
29
29
29
29
29
29
28
28
28
27
27
26
26
25
25
24
23
23
23
24
27
32
38
44
51
56
60
62
63
62
61
59
56
54
51
49
47
46
45
45
45
46
46
47
47
46
45
43
41
40
38
36
35
33
32
32
31
30
30
30
30
30
30
30
29
29
29
28
28
27
27
26
26
25
26
29
34
40
45
52
59
64
67
68
69
68
66
64
61
59
57
55
53
52
50
50
49
49
49
49
48
47
45
43
41
40
38
36
35
34
33
32
31
31
31
31
31
31
30
30
30
29
28
28
27
27
26
25
25
24
24
25
28
33
39
45
52
58
62
65
66
66
65
63
61
59
57
54
53
51
50
49
48
48
48
47
47
46
44
43
41
40
38
36
34
33
32
31
31
30
30
30
30
29
29
29
29
28
28
28
27
26
26
25
24
24
23
23
23
27
31
31
42
49
49
59
61
61
61
60
58
56
54
51
49
47
46
45
44
45
45
46
46
46
45
44
42
41
40
38
36
35
33
32
32
31
31
31
31
31
31
31
30
30
30
29
29
28
28
27
26
26
25
26
28
32
38
43
50
56
61
63
65
64
63
62
59
57
55
53
51
49
48
47
47
47
47
47
47
46
45
43
41
40
38
37
35
34
33
32
32
31
31
31
31
31
31
30
30
29
29
28
28
27
27
26
25
25
25
25
27
31
36
41
47
53
58
61
62
63
62
61
59
57
56
54
53
51
50
49
48
48
48
47
46
46
44
43
41
40
38
37
35
34
33
32
32
31
31
31
30
30
30
30
29
29
29
28
28
27
27
26
26
25
25
25
24
25
28
31
36
41
47
52
56
59
60
60
59
58
56
55
53
51
50
48
47
46
46
46
46
45
45
44
43
41
40
39
37
36
34
33
32
32
31
31
31
30
30
30
30
29
29
29
28
28
27
27
27
26
25
25
24
24
24
25
28
32
37
42
48
52
56
57
58
57
56
54
53
51
49
47
46
44
44
43
44
44
44
44
44
43
42
40
40
38
36
35
33
32
32
31
31
31
31
31
31
30
30
30
30
30
29
29
29
28
27
27
26
26
26
28
32
36
41
46
51
55
58
59
59
58
56
55
53
51
49
47
46
45
45
45
45
46
46
46
45
44
43
41
40
39
37
36
34
34
33
32
32
32
32
32
32
31
31
31
31
30
30
29
29
28
28
27
27
27
27
30
34
39
44
50
56
60
63
64
64
63
62
60
59
57
55
53
52
51
50
49
49
49
48
48
47
46
44
42
40
40
38
37
36
35
34
33
33
33
32
32
32
32
32
31
31
30
30
29
29
28
28
27
27
26
26
26
27
30
34
39
45
51
56
60
62
63
63
62
61
59
57
55
54
52
51
50
49
48
48
48
47
47
46
44
43
41
40
38
37
35
34
33
32
32
31
31
31
31
30
30
30
29
28
28
27
26
26
25
25
24
24
23
23
23
23
25
28
33
38
44
50
55
59
61
62
61
61
58
56
56
52
50
50
47
46
46
45
45
45
45
44
44
42
40
40
37
36
34
33
32
31
30
30
30
30
30
30
30
30
29
29
28
28
27
26
26
25
24
24
23
23
24
26
29
34
40
45
51
55
58
60
60
59
57
55
53
51
48
46
45
44
43
43
44
44
45
45
45
44
43
41
40
39
37
35
34
33
32
31
31
31
31
31
31
31
31
30
30
30
29
29
28
28
27
26
26
26
26
29
33
38
44
50
56
61
64
65
65
64
62
60
58
56
54
53
51
50
49
48
48
48
48
48
47
46
44
43
41
40
38
37
35
34
33
33
32
32
32
31
31
31
31
31
31
30
30
29
29
28
28
27
26
26
26
27
30
34
40
45
52
58
62
64
65
65
64
63
61
59
57
55
53
51
50
49
49
49
49
48
48
47
45
44
42
40
39
37
36
34
33
32
31
31
30
30
30
30
30
29
29
29
28
28
27
26
26
25
25
24
23
23
24
27
27
36
42
42
54
58
58
62
62
62
59
57
57
52
50
50
46
45
45
44
44
45
45
45
44
43
41
40
38
36
34
33
31
30
29
29
29
29
29
29
29
29
29
29
28
28
27
27
27
26
25
25
25
25
27
30
35
40
46
52
57
60
61
61
61
59
57
54
52
50
48
46
45
45
45
45
45
46
46
46
45
44
42
40
39
37
36
34
33
32
32
31
31
31
31
31
31
31
31
31
30
30
29
29
28
27
27
26
27
30
34
40
45
52
58
63
66
67
67
66
64
62
60
58
56
54
52
51
50
50
49
49
49
49
48
47
45
43
41
40
38
36
35
34
33
33
32
32
31
31
31
31
31
30
30
29
29
28
28
27
27
26
26
25
25
27
30
34
40
46
53
59
63
65
66
66
65
63
61
59
57
54
53
51
50
49
49
48
48
48
47
46
45
43
41
40
39
37
35
34
33
32
32
31
31
31
30
30
30
30
29
28
28
27
26
26
25
25
24
23
23
24
26
30
35
41
47
53
58
61
63
63
62
60
58
56
53
51
49
47
46
45
45
45
45
45
45
44
43
41
40
39
37
35
33
32
31
30
30
30
30
30
30
30
30
29
29
29
28
27
27
26
25
25
24
23
23
28
32
32
43
50
55
59
61
61
60
59
57
54
52
49
47
46
44
44
44
44
45
45
46
46
45
43
42
40
39
37
35
33
32
32
31
31
31
30
30
30
30
30
30
30
30
29
28
28
27
26
26
26
27
30
34
40
46
53
58
63
65
66
65
64
62
60
58
56
53
52
50
49
48
48
48
48
48
47
46
45
43
41
40
38
36
35
34
33
32
32
31
31
31
31
31
31
30
30
29
29
28
28
27
26
26
25
25
24
25
26
29
34
40
46
53
59
64
66
67
67
66
64
62
60
58
56
54
53
52
51
50
50
50
49
48
47
46
44
42
40
39
37
36
35
34
33
32
32
32
31
31
31
31
31
30
29
29
28
27
27
26
26
25
25
24
24
24
24
27
30
36
41
48
54
60
63
65
65
64
63
61
59
57
55
53
51
50
49
48
48
48
47
47
46
45
43
41
40
39
37
37
33
32
32
30
30
30
29
29
29
29
29
29
28
27
27
26
26
26
25
24
24
23
23
22
22
22
24
27
32
38
44
51
57
61
63
64
63
62
60
57
55
52
50
48
46
45
46
46
46
44
43
41
40
38
36
35
33
32
32
31
31
31
31
31
31
31
30
30
30
29
29
28
28
27
26
26
25
25
25
27
30
35
40
47
53
59
62
64
64
63
62
59
57
54
52
50
48
47
47
45
46
46
46
46
45
44
42
40
39
37
35
34
33
32
31
31
30
30
30
30
30
30
30
29
29
29
28
28
27
26
26
25
25
25
25
27
30
35
40
48
55
61
65
67
68
67
66
64
62
60
57
55
53
52
51
50
49
49
49
48
48
47
45
44
42
40
39
37
36
34
33
32
32
31
31
31
31
31
30
30
30
29
28
28
27
26
26
25
24
23
23
24
26
30
35
40
47
54
59
63
65
65
64
62
60
57
55
52
50
49
47
46
46
46
46
46
46
45
44
42
40
39
37
35
33
32
31
30
29
29
28
28
28
29
29
28
28
28
27
27
26
26
25
24
24
23
23
24
27
31
37
43
50
56
60
62
62
63
61
61
57
54
54
49
47
47
45
44
44
45
46
46
47
46
46
43
41
40
38
36
35
33
32
32
31
31
31
31
31
31
31
31
30
30
30
29
28
28
27
27
28
31
36
40
47
54
60
64
66
67
66
64
62
60
57
55
53
51
49
48
47
47
47
47
47
46
46
44
42
40
39
37
36
34
33
32
31
31
31
31
30
30
30
30
30
29
29
28
28
27
26
25
25
24
25
28
33
39
45
52
58
63
66
67
67
66
64
61
59
57
55
53
51
50
49
49
48
48
48
47
46
45
43
41
40
38
36
34
33
31
30
30
29
29
29
29
28
28
28
27
27
26
26
25
24
24
23
22
22
23
25
29
35
41
48
54
59
62
63
63
61
59
57
54
52
49
47
46
45
44
44
44
44
44
44
43
42
40
39
37
35
33
31
30
29
29
28
28
28
28
28
28
28
28
28
28
27
27
26
26
25
25
25
26
29
33
39
45
51
57
57
63
64
64
61
59
59
54
51
51
47
45
45
45
45
45
46
46
46
45
44
42
40
39
37
35
34
33
32
31
31
31
31
31
30
30
30
30
29
29
28
28
27
26
26
26
27
31
36
41
48
55
61
65
67
67
67
65
63
61
58
56
54
52
51
50
49
48
48
48
47
47
46
44
42
40
39
37
35
34
33
32
31
30
30
30
30
30
30
29
29
29
28
28
27
26
26
25
25
24
23
24
25
29
34
40
47
54
60
64
66
67
66
65
63
61
58
56
54
52
51
49
48
48
47
47
46
45
44
42
40
39
37
35
33
31
30
29
28
28
27
27
27
27
27
27
26
26
26
25
24
24
24
23
23
22
21
21
20
21
23
27
33
40
46
53
58
61
62
62
61
59
57
54
51
49
47
45
44
43
43
44
44
45
45
44
43
42
40
39
37
35
33
32
31
30
29
29
29
29
29
28
28
28
28
28
28
27
27
26
25
25
24
24
24
27
32
38
44
51
57
62
65
66
65
64
62
59
57
54
51
49
47
46
45
45
45
45
46
45
45
43
41
40
38
36
35
33
31
30
29
29
28
28
28
28
28
28
28
27
27
26
26
25
25
24
24
24
23
22
22
26
31
31
44
51
51
64
67
67
69
68
66
63
61
59
56
54
52
51
50
49
49
48
48
48
47
45
44
42
40
39
37
35
33
32
31
30
29
29
29
28
28
28
28
27
27
26
26
25
25
24
24
23
23
22
21
21
22
25
30
36
43
50
56
61
64
65
64
63
61
59
56
54
52
50
48
46
45
45
45
45
45
45
44
43
41
40
38
36
34
32
30
29
28
27
27
26
26
26
26
26
26
26
26
25
25
25
24
24
23
23
22
23
26
30
35
41
48
55
59
62
64
63
62
60
57
55
52
49
47
45
44
43
44
44
45
46
46
46
45
44
43
41
39
37
36
34
33
32
31
30
30
29
29
29
29
29
29
29
28
28
27
27
26
25
25
25
28
32
38
44
51
58
63
67
68
68
67
66
64
61
59
56
54
52
50
49
49
49
49
49
49
48
47
46
44
41
40
38
36
35
33
32
32
31
31
30
30
30
29
29
29
29
29
28
27
27
26
25
25
24
24
24
29
35
35
47
55
61
65
67
68
67
66
64
62
59
57
54
52
50
49
49
48
48
48
48
48
46
45
43
42
40
38
36
34
32
31
30
29
29
29
29
28
28
28
27
27
27
26
26
25
24
23
23
22
22
23
25
29
34
40
47
53
58
62
63
64
63
61
59
56
54
51
49
47
45
45
44
45
45
46
46
46
45
44
42
40
39
37
36
34
33
32
31
31
31
30
30
30
30
30
30
30
29
28
28
27
26
26
26
27
30
34
40
46
53
58
62
64
65
64
63
61
58
56
53
51
49
47
46
46
46
46
47
47
46
45
44
42
40
39
37
36
34
33
32
31
30
30
29
29
29
29
29
29
29
28
28
28
27
26
26
25
25
25
27
30
36
41
48
55
60
64
66
66
66
64
62
60
57
55
53
51
50
49
48
48
48
47
47
46
45
44
42
40
39
37
36
34
33
32
31
30
30
30
30
30
29
29
29
28
28
27
27
26
25
25
24
23
23
25
28
33
39
44
51
56
60
62
62
62
60
58
55
53
51
49
47
46
45
45
45
45
45
45
45
44
44
40
39
39
35
34
34
31
31
31
30
30
30
30
29
29
29
29
29
28
28
27
27
26
26
26
27
30
34
40
45
51
56
59
61
61
60
58
56
54
51
49
47
45
44
43
44
44
45
46
46
45
44
43
41
40
38
37
35
34
33
32
31
31
31
31
31
31
30
30
30
29
29
28
28
27
26
26
26
28
32
37
42
48
55
60
63
64
64
63
62
60
57
55
52
49
47
44
43
41
41
40
40
40
39
38
36
35
33
31
30
29
28
28
28
28
28
28
29
29
29
29
29
29
29
29
28
28
28
27
27
27
28
31
36
40
46
52
57
60
62
62
61
59
57
55
52
50
48
46
45
44
44
45
45
46
45
45
44
43
41
40
38
36
35
33
32
32
31
31
31
31
31
30
30
30
30
30
29
29
28
28
28
29
32
37
41
48
54
59
63
65
65
64
63
61
59
57
55
54
52
50
49
48
48
47
47
46
45
44
43
41
40
37
37
34
32
32
31
30
30
30
30
30
30
29
29
29
29
29
27
27
27
26
28
31
35
40
46
52
57
60
61
61
60
58
56
54
52
50
48
46
45
44
43
43
44
43
43
42
41
40
39
37
35
33
32
31
30
29
29
28
28
28
28
28
27
27
26
26
25
25
27
29
33
38
42
47
51
54
55
55
55
53
52
50
48
47
45
43
42
41
41
41
40
40
40
39
38
36
35
33
32
30
29
28
27
26
26
26
25
25
25
24
24
23
23
23
22
22
22
24
27
31
35
40
43
47
49
49
49
48
55
52
49
45
42
40
38
36
36
36
36
36
36
35
34
32
29
27
24
21
19
17
16
14
13
13
12
12
12
12
12
12
11
11
10
9
8
9
13
18
25
33
40
47
52
55
56
55
54
51
49
46
43
40
39
38
37
38
38
39
39
39
39
38
37
35
33
30
28
26
24
22
21
20
20
19
19
19
18
18
18
18
17
16
15
15
14
16
20
25
33
41
49
57
62
64
65
65
63
61
59
56
54
51
50
48
47
46
46
45
45
44
43
41
40
38
35
33
30
28
26
25
23
22
21
21
20
20
19
19
19
18
18
17
16
15
15
13
13
13
17
22
22
38
46
46
60
63
63
64
62
62
58
55
52
50
47
46
44
43
43
43
44
44
43
42
40
39
37
34
32
30
28
25
24
22
21
20
19
18
18
17
17
16
16
16
15
14
13
13
12
11
11
14
19
25
34
42
50
57
62
64
64
63
61
58
56
53
49
46
44
42
41
41
42
43
44
44
44
43
41
40
37
35
33
31
29
27
25
24
23
22
21
21
21
20
20
20
19
19
18
17
17
16
17
20
26
33
41
51
59
66
70
71
71
70
67
64
61
58
55
52
50
48
48
48
48
49
49
49
49
47
45
42
40
38
35
33
31
29
28
26
25
24
23
23
22
22
22
21
21
19
22
26
33
42
52
62
71
76
80
80
79
77
74
71
68
65
62
59
57
55
55
54
55
55
55
54
52
50
47
45
42
40
38
36
33
31
29
28
27
26
26
25
24
24
23
23
22
21
20
19
18
17
18
22
28
36
46
46
65
73
73
79
79
79
74
71
71
63
59
59
53
51
51
50
50
51
51
51
50
48
45
42
39
37
34
31
29
27
25
24
23
23
22
22
22
21
21
20
20
19
18
17
17
16
17
20
26
34
42
52
61
68
71
73
72
70
67
63
60
56
52
50
48
47
47
48
49
50
51
51
50
48
46
43
40
38
36
33
31
29
28
27
27
26
26
26
26
26
25
24
24
23
22
22
23
26
32
40
49
59
68
74
78
80
80
78
75
72
68
65
61
58
56
54
54
54
54
55
55
54
53
50
48
45
41
39
36
34
32
30
29
28
27
26
26
25
25
24
24
23
22
22
21
20
19
20
23
29
37
46
57
67
75
80
82
82
81
79
77
74
70
67
64
61
59
58
57
57
57
57
56
54
52
49
46
42
40
36
34
32
30
28
27
26
25
25
24
24
23
22
22
21
20
19
17
16
15
15
16
20
27
36
45
55
65
71
75
76
76
73
70
67
63
59
55
52
49
48
47
48
48
48
48
47
45
43
40
38
35
32
30
27
25
24
23
22
21
21
21
21
20
20
19
19
18
17
16
16
15
15
17
21
27
35
43
43
59
65
65
68
67
67
62
59
59
52
48
48
45
44
44
46
47
47
47
46
44
42
40
37
34
31
29
27
25
24
23
23
22
22
22
22
21
21
20
19
18
18
17
16
15
14
14
16
20
26
35
44
55
64
71
75
77
77
75
72
69
67
64
61
58
56
55
54
53
53
53
52
51
49
46
44
41
39
37
34
31
29
28
27
26
25
25
24
24
23
23
22
21
20
20
19
18
17
16
15
15
14
14
15
18
25
33
42
53
62
69
74
76
76
75
73
70
68
65
62
60
57
56
55
54
54
54
53
52
50
48
45
42
40
37
35
32
30
27
26
25
24
24
23
23
22
21
21
20
19
18
17
16
15
14
14
13
12
11
11
12
15
21
29
39
48
58
65
70
72
72
70
68
65
61
58
55
52
49
48
47
47
47
48
48
48
47
45
43
40
38
36
33
31
29
28
26
25
25
24
24
23
23
23
22
22
21
21
20
19
18
17
16
16
15
16
16
26
35
35
54
63
63
75
77
77
75
72
72
65
62
62
55
53
51
50
50
51
51
51
51
49
48
45
42
39
36
33
31
28
27
26
25
24
23
23
22
22
21
21
21
20
19
18
18
17
16
15
14
13
12
13
16
22
30
40
52
63
73
80
83
84
83
81
78
74
71
67
64
61
58
57
55
55
55
55
54
53
51
48
45
42
39
36
33
30
27
25
24
22
21
21
20
19
19
18
18
17
16
15
14
13
11
10
9
8
8
7
7
7
10
16
25
35
46
58
68
75
79
80
79
76
73
69
65
61
57
53
51
49
48
48
49
49
49
49
48
46
43
40
38
34
31
29
26
25
23
22
21
21
21
21
21
21
21
20
20
19
19
18
17
16
15
14
13
12
14
18
26
36
47
59
69
77
81
83
82
79
75
71
67
63
59
55
52
50
50
49
50
51
52
52
51
49
46
43
40
37
34
31
28
26
25
23
22
22
21
21
21
20
20
19
19
18
17
17
16
15
14
13
12
12
15
21
30
41
53
66
77
85
89
91
90
87
84
80
77
73
69
65
63
60
59
58
58
58
58
57
56
53
50
46
43
40
37
34
31
31
27
25
25
24
23
23
23
23
23
22
21
21
19
18
18
16
15
15
13
13
16
22
32
42
54
67
77
83
87
87
86
83
80
75
71
67
63
60
58
56
55
55
55
55
55
53
51
48
44
40
37
34
30
27
25
23
21
20
20
19
19
19
19
19
19
19
19
19
19
18
18
17
15
15
17
23
31
40
51
62
71
77
79
80
78
75
71
66
62
57
53
50
48
47
47
48
49
51
51
51
49
47
44
40
38
34
31
29
27
25
24
24
23
23
23
22
22
22
21
21
20
19
18
16
15
14
16
21
29
38
49
61
71
79
83
85
85
82
79
75
71
67
63
59
57
55
54
54
54
55
54
54
52
50
47
43
40
36
33
30
28
27
26
25
24
24
24
23
23
22
21
21
20
19
18
17
15
14
14
14
16
21
29
40
51
64
74
82
86
88
88
85
82
78
75
71
68
65
62
60
59
57
57
56
55
54
52
49
46
42
39
35
32
32
27
25
25
23
22
22
21
21
21
21
20
20
18
16
16
14
13
13
11
11
11
13
19
27
38
48
60
69
76
79
80
79
76
73
69
65
61
58
55
52
51
50
51
51
52
52
51
49
46
43
40
36
33
31
28
27
26
25
24
24
24
24
24
23
23
22
21
20
19
18
17
16
15
15
16
20
27
36
46
57
67
75
79
81
80
78
75
71
66
62
58
55
53
51
51
51
52
52
52
52
50
48
45
42
39
36
33
30
28
27
25
25
24
23
23
22
22
22
21
20
19
18
17
16
15
14
13
12
12
14
19
26
37
48
61
72
81
86
88
88
85
82
79
75
72
68
65
62
60
59
57
57
56
55
53
51
49
46
42
39
36
32
29
26
24
23
22
21
20
20
19
19
18
17
17
16
15
14
13
12
11
10
9
8
7
7
8
13
20
30
41
54
66
74
80
82
82
80
77
73
69
65
60
57
53
51
49
48
48
49
49
49
48
45
43
40
36
32
28
25
23
20
19
18
17
17
17
16
16
16
16
16
15
15
14
13
13
12
11
10
10
11
16
23
32
43
55
65
73
78
79
78
76
72
68
63
58
54
50
48
48
46
46
46
48
48
48
47
45
45
40
37
37
30
27
27
22
21
21
19
19
19
18
18
18
18
17
16
15
14
13
12
11
10
9
10
12
19
29
40
53
67
78
85
89
90
89
86
83
79
75
70
66
63
60
58
56
56
55
55
54
53
51
48
45
41
38
35
31
29
26
24
22
21
20
20
19
19
19
18
18
17
16
15
14
13
12
11
10
9
8
8
11
16
25
36
48
61
73
82
87
89
88
86
82
78
73
69
65
61
57
55
53
52
52
52
52
51
49
47
44
40
37
33
29
26
23
21
19
17
16
14
13
12
11
11
10
10
9
9
8
8
8
8
7
7
7
9
14
23
34
46
59
70
77
81
82
80
77
74
70
66
61
57
53
50
48
47
47
49
50
51
51
50
49
46
43
40
38
35
32
30
29
28
27
27
27
27
27
27
26
26
25
24
23
22
20
19
18
18
21
28
37
48
60
72
81
87
90
90
87
84
79
75
75
65
61
61
55
53
53
52
53
53
52
51
50
48
45
45
40
37
37
32
30
28
27
26
25
25
25
24
24
23
23
22
21
20
18
17
16
14
14
15
19
27
38
50
65
78
88
95
97
97
95
91
86
82
77
73
68
65
62
60
58
57
57
56
55
53
50
47
43
40
36
33
30
27
25
23
22
21
21
20
20
20
20
19
19
19
19
18
17
16
14
12
11
11
13
19
28
38
49
61
71
78
82
83
81
79
75
71
67
62
58
54
52
50
48
48
49
49
49
49
47
44
41
38
35
32
29
27
25
23
22
21
21
20
20
20
19
19
18
17
16
15
14
13
12
12
13
17
23
32
41
52
61
68
71
73
72
70
67
64
60
56
53
50
48
46
45
45
45
45
45
44
43
41
39
36
34
31
29
27
25
24
23
23
22
22
22
21
21
20
19
19
18
17
16
14
13
12
12
12
15
21
29
38
46
55
62
66
68
68
67
66
64
62
60
58
56
54
52
51
50
49
48
47
45
44
42
40
38
36
34
31
29
28
26
25
25
24
23
23
22
21
21
20
19
18
17
16
15
14
13
12
11
11
11
12
16
23
30
38
46
53
58
60
60
61
60
60
56
54
54
50
48
48
45
44
44
43
43
43
42
40
40
37
35
33
32
30
28
27
26
25
25
25
25
24
24
24
23
23
22
22
21
20
19
18
17
16
16
16
19
23
29
60
62
63
63
61
59
57
54
52
49
47
46
45
45
45
46
46
46
45
44
42
40
39
37
34
32
31
30
29
28
28
28
28
27
27
27
26
26
26
25
24
23
23
21
20
20
21
24
30
37
44
53
61
66
69
71
70
68
66
64
62
60
58
56
54
53
52
52
52
51
51
50
48
46
44
42
40
38
36
34
33
32
31
30
30
29
28
28
27
27
26
26
25
24
22
22
21
20
19
18
18
18
18
21
27
35
43
53
62
68
72
74
74
73
72
70
68
65
63
61
59
58
56
55
54
54
53
52
50
48
45
43
40
38
35
32
30
28
27
26
25
24
24
23
23
22
22
21
20
19
18
17
16
15
15
14
13
12
11
11
11
11
20
27
27
46
56
56
68
71
71
70
68
68
62
60
60
53
51
51
48
47
47
47
47
47
46
45
43
41
39
36
34
31
29
28
26
25
24
24
23
23
23
22
22
21
20
19
19
18
17
16
15
14
13
14
18
24
32
41
51
60
67
70
72
71
70
67
64
61
58
55
53
50
49
48
48
48
48
49
48
48
46
44
41
39
36
33
31
29
27
26
25
24
23
23
23
22
22
22
21
20
20
19
19
18
17
17
16
16
16
19
25
33
42
53
64
72
77
80
80
79
77
75
72
69
66
63
61
58
57
56
56
56
56
55
54
52
49
46
43
40
38
36
33
31
28
26
25
23
22
22
21
21
20
19
19
18
17
17
16
15
14
13
12
11
10
11
14
20
28
38
49
60
69
75
78
79
78
75
72
69
65
62
58
56
53
51
50
50
50
50
49
48
47
45
42
40
37
33
30
28
25
24
23
22
22
22
21
21
21
21
21
20
20
19
18
17
16
15
14
13
13
15
19
26
36
45
56
66
72
76
77
76
73
70
66
62
59
55
52
50
49
49
49
50
51
52
52
50
48
46
43
40
38
36
33
31
30
29
28
28
28
27
27
27
26
26
26
24
23
23
21
20
20
19
22
22
37
46
46
68
77
82
85
85
84
81
78
75
71
67
64
61
59
58
57
57
57
57
56
55
53
50
47
44
41
38
36
34
32
30
29
28
27
27
26
26
25
25
24
24
23
22
21
20
19
18
17
17
20
26
35
45
57
68
78
85
88
89
88
85
82
79
75
72
68
65
62
60
58
58
57
56
55
54
51
48
45
42
39
36
32
30
28
26
25
24
23
22
22
21
21
20
20
19
18
17
16
15
14
13
12
10
10
10
12
18
27
37
48
60
70
76
80
80
79
77
73
69
65
61
57
54
51
50
49
49
50
51
51
50
48
46
43
40
37
34
32
29
28
27
26
26
25
25
25
25
25
25
25
24
23
21
20
19
17
16
16
19
24
32
42
53
64
73
79
82
83
81
78
74
70
66
62
58
55
53
52
51
52
53
54
53
52
50
47
44
40
38
34
32
29
28
26
25
25
24
24
24
24
24
24
22
22
22
20
19
19
17
16
16
18
22
22
39
50
63
74
82
88
90
90
87
84
80
76
73
69
66
64
62
60
59
59
59
58
57
55
53
50
46
42
39
36
33
31
29
27
26
26
25
25
25
24
24
23
22
21
20
20
19
17
16
15
14
13
13
14
18
25
34
45
57
70
80
86
90
91
89
86
82
78
74
70
66
63
60
58
56
56
55
55
54
52
50
47
44
40
38
35
32
30
28
26
25
24
23
22
22
21
21
20
19
18
17
16
15
14
13
12
11
9
7
6
5
6
9
16
25
36
47
59
69
75
79
80
78
76
72
68
64
60
56
52
50
49
48
48
49
49
49
48
47
44
41
38
35
32
29
26
25
23
22
22
22
22
22
22
21
20
20
19
18
17
16
15
14
12
12
12
15
21
30
40
50
61
70
76
79
80
79
76
72
67
63
58
54
51
49
48
49
49
50
51
51
51
49
47
43
40
37
34
31
29
27
26
25
24
23
23
23
23
22
22
22
21
20
19
18
18
17
16
15
14
15
18
24
33
44
56
69
79
86
89
90
89
86
83
79
76
72
68
65
62
60
59
59
57
56
56
54
51
51
45
42
42
36
33
33
28
26
26
24
23
23
23
22
22
21
21
20
19
18
17
16
15
14
13
12
11
11
11
13
19
27
38
49
61
72
79
83
83
82
79
75
70
66
61
56
52
49
46
45
44
44
45
45
45
44
42
40
37
34
31
28
26
24
22
21
20
20
19
19
19
19
19
19
18
17
16
15
14
13
12
12
11
10
9
8
9
13
20
29
40
52
64
73
79
82
82
80
77
73
68
64
59
55
52
50
49
49
50
51
52
52
51
49
46
43
40
36
33
30
27
25
24
23
22
22
22
22
22
22
22
21
21
20
19
18
17
16
15
14
13
12
14
19
27
37
48
61
72
81
86
88
87
85
81
77
72
68
63
60
57
55
53
53
53
54
54
53
52
50
47
44
40
37
34
31
28
26
25
24
23
23
22
22
22
22
21
21
20
19
18
17
16
15
14
13
11
11
10
12
18
26
37
49
62
73
82
87
89
88
88
83
79
79
71
67
67
61
58
58
56
55
55
54
53
53
49
46
46
40
36
33
30
28
26
24
23
22
21
20
20
20
19
18
18
16
15
14
12
11
10
9
9
8
7
6
6
8
12
19
28
39
50
60
68
73
75
75
73
70
67
63
59
56
53
50
48
47
46
46
46
46
45
44
42
40
38
34
31
28
26
24
22
20
19
19
18
18
17
17
17
16
16
15
14
13
12
12
11
10
9
8
7
8
10
15
22
31
40
49
57
62
65
65
64
62
59
56
53
50
46
44
43
42
42
42
44
45
45
45
44
43
40
38
36
33
31
28
27
25
24
24
23
23
23
23
23
23
23
22
22
21
20
19
19
18
17
16
15
15
17
21
28
37
45
55
64
69
73
74
73
71
69
66
63
60
57
55
53
52
51
51
52
52
52
51
50
48
46
43
40
38
35
33
31
30
28
28
27
27
26
26
25
25
24
23
23
22
21
20
19
18
17
17
16
15
15
15
18
23
30
39
49
59
67
73
76
77
77
75
72
69
66
63
60
58
56
55
54
54
54
54
54
53
52
49
47
44
41
40
37
35
33
31
30
29
28
28
27
27
26
26
25
25
25
23
22
22
19
18
18
17
16
16
14
14
14
16
21
21
37
47
57
66
72
76
77
77
75
73
70
67
64
61
58
56
54
53
52
52
52
52
51
49
47
45
42
40
37
34
32
30
28
27
26
25
25
25
24
24
24
23
22
22
21
20
19
18
17
16
14
13
13
12
13
15
21
28
37
47
57
64
70
73
73
72
70
67
63
60
56
53
51
49
48
48
49
50
50
50
50
48
46
43
40
38
35
32
30
28
27
26
25
25
25
25
25
25
24
24
23
23
21
21
20
19
18
17
16
15
14
16
20
27
36
46
57
67
75
80
82
82
80
78
75
71
68
65
62
59
58
56
56
56
56
56
55
54
52
49
46
43
40
37
34
32
30
29
27
27
26
26
25
25
25
25
24
23
22
21
20
20
19
18
17
17
16
15
15
15
18
24
33
43
54
66
75
82
85
87
86
83
80
77
73
70
66
63
61
58
57
56
55
55
55
55
52
49
49
43
40
40
35
32
32
28
27
27
24
24
24
23
22
22
21
21
20
19
18
17
15
14
13
12
12
11
10
10
12
16
24
34
44
55
65
72
76
78
77
75
72
68
65
61
57
54
52
50
49
50
50
50
50
50
49
47
44
40
38
34
31
28
26
24
23
22
22
21
21
21
21
21
21
20
19
18
17
16
15
14
13
12
11
11
12
15
22
30
40
50
60
67
72
74
73
72
69
65
61
58
54
50
48
47
46
47
48
49
50
50
49
47
45
42
40
37
34
31
29
27
26
25
24
24
24
23
23
23
23
22
21
21
20
19
18
17
15
15
15
16
21
28
38
47
58
67
74
78
79
78
76
73
70
67
64
61
58
56
54
53
53
53
54
54
53
51
49
47
44
41
38
35
33
31
29
28
27
26
26
25
25
24
24
24
23
22
21
20
19
18
17
16
15
15
16
20
27
36
46
57
67
75
79
76
73
70
66
63
60
58
57
56
54
54
54
53
51
49
47
44
41
39
36
33
31
29
27
26
25
25
24
24
23
23
22
22
21
20
19
18
17
16
16
15
14
14
14
17
23
31
40
51
61
69
74
77
77
75
75
68
65
65
57
54
54
50
49
49
50
51
51
50
49
47
44
41
38
35
32
29
28
26
25
24
24
24
24
24
23
23
23
22
22
21
20
18
17
16
15
15
18
24
32
41
51
61
69
74
77
77
75
72
68
65
61
57
54
51
50
50
50
51
52
52
52
51
49
46
43
40
37
34
31
29
28
27
26
26
26
26
25
25
25
24
24
23
22
21
20
19
18
17
16
17
20
26
35
45
56
67
75
81
84
84
82
80
77
74
71
67
65
62
60
59
58
57
57
56
55
53
51
48
45
42
39
36
34
31
30
29
28
27
26
26
25
25
24
24
23
22
20
19
18
17
16
15
14
13
13
13
16
21
28
38
48
58
67
73
77
78
77
75
73
70
67
65
62
60
58
56
55
54
53
52
51
49
47
44
41
39
36
33
30
28
26
24
23
22
22
21
21
20
20
19
18
17
16
16
14
14
13
12
11
10
10
9
9
12
17
17
32
41
41
57
62
62
66
65
65
60
58
58
52
50
50
46
45
45
44
44
44
43
42
40
38
36
33
30
28
26
24
23
22
21
20
20
20
19
19
19
18
18
17
16
16
15
14
13
12
11
11
11
12
16
22
29
38
45
52
57
60
61
61
59
57
54
51
48
46
44
42
42
43
44
45
45
46
45
44
42
40
38
35
33
31
29
28
27
26
25
25
25
25
25
25
24
24
23
22
21
20
19
18
18
17
19
23
28
36
43
52
60
66
70
71
71
70
68
66
63
60
58
56
54
52
51
51
50
50
49
49
47
45
43
40
39
36
34
32
31
30
29
28
27
27
26
26
25
25
24
23
23
22
21
20
19
18
17
16
15
15
17
20
27
35
43
53
62
69
73
75
75
74
72
70
68
65
63
60
58
57
55
54
54
53
52
51
49
47
44
42
40
37
34
32
30
29
27
26
25
24
24
23
22
22
21
20
19
18
17
16
16
15
14
14
13
12
12
11
11
13
17
23
31
40
49
58
64
68
70
69
68
65
63
60
57
55
52
50
49
48
47
47
48
47
47
45
43
41
39
36
33
30
28
26
25
24
24
23
22
22
22
21
21
20
19
19
18
17
17
15
14
14
13
12
12
13
16
22
30
38
47
55
61
65
67
67
65
63
60
57
54
51
48
46
45
44
45
45
46
47
47
46
45
42
40
38
35
32
30
28
27
26
25
24
24
24
24
24
23
23
22
22
21
20
19
18
18
17
16
16
18
23
30
39
48
58
67
73
76
77
76
75
72
69
66
63
61
58
57
55
54
54
54
54
53
52
51
48
46
43
40
38
35
32
30
29
28
27
26
25
25
25
24
23
23
22
21
21
20
19
18
17
16
15
15
16
19
26
35
44
55
64
72
77
79
79
78
76
73
70
67
64
62
59
58
56
55
55
55
54
53
51
49
47
44
41
38
35
32
30
28
27
26
25
24
24
23
23
22
22
21
20
20
19
18
17
16
15
14
13
13
14
19
26
35
45
55
65
71
75
76
76
74
71
68
64
61
57
55
52
51
50
51
51
52
52
52
51
49
46
46
40
38
38
32
30
30
27
26
26
25
25
25
24
24
24
23
22
22
21
19
18
17
17
16
18
22
29
38
48
58
67
73
77
78
77
75
72
68
65
61
57
54
52
51
51
51
52
53
53
53
51
49
46
43
40
37
34
32
30
28
27
26
26
25
25
25
25
25
24
23
23
22
21
20
19
17
17
17
20
26
35
45
56
68
76
82
85
86
84
82
79
75
72
69
66
63
62
60
59
59
59
58
57
56
54
51
47
44
40
38
35
32
30
29
27
27
26
26
25
25
25
24
23
23
22
21
20
19
18
17
16
15
16
19
25
34
44
56
68
77
83
87
87
86
83
80
77
73
69
66
63
61
59
58
58
57
57
56
54
52
49
46
42
40
36
33
30
28
27
26
25
24
24
23
23
22
22
22
21
20
19
18
16
15
14
13
12
11
13
17
24
34
44
56
66
74
78
79
79
77
73
69
65
61
57
54
52
50
50
50
51
52
53
52
51
49
46
42
40
36
33
31
29
27
26
25
24
24
24
24
24
23
23
22
22
21
20
19
18
16
15
15
17
22
30
39
50
62
72
79
83
84
83
81
78
74
70
65
61
58
58
54
54
54
54
55
55
53
52
52
46
42
42
36
33
30
27
26
26
24
24
24
24
24
23
23
22
21
20
19
18
16
15
14
13
12
11
11
13
18
26
37
48
61
73
82
87
89
89
87
84
81
77
73
70
67
64
62
60
59
59
58
57
55
53
51
48
44
40
38
35
32
29
27
25
25
24
23
23
23
22
22
21
20
19
18
17
16
15
14
13
12
11
10
9
9
9
11
16
24
35
46
59
71
80
86
88
87
85
82
78
74
70
66
62
59
57
56
55
55
55
55
54
52
49
46
42
40
36
33
30
27
25
23
22
21
21
20
20
20
19
19
18
18
17
16
14
13
12
11
10
9
8
7
6
7
12
19
30
41
53
66
75
81
83
83
81
78
74
69
64
60
56
53
50
49
49
50
51
52
52
51
49
46
42
39
35
31
28
25
23
22
21
20
20
20
20
20
20
19
19
19
18
18
16
15
14
13
12
11
10
12
17
25
25
46
59
59
78
83
83
83
80
80
72
67
67
58
54
54
49
49
49
51
53
53
53
52
49
46
43
40
36
33
30
27
25
24
23
23
22
22
22
22
22
22
21
21
20
19
18
16
15
14
14
14
19
26
37
48
62
74
84
90
93
93
91
88
84
80
75
71
67
64
62
60
59
59
59
59
59
57
55
52
48
45
41
38
35
32
30
28
27
26
26
25
25
25
24
24
23
22
21
20
18
17
16
14
13
13
15
20
29
39
51
64
75
83
88
90
89
86
83
79
75
71
68
64
62
59
58
58
57
57
56
55
52
49
46
42
39
35
31
28
26
24
23
22
21
21
21
20
20
19
19
18
18
17
16
15
14
12
11
10
9
9
11
16
24
35
46
59
69
78
82
84
83
80
76
72
68
64
59
56
53
51
50
50
50
51
51
50
49
46
43
40
37
33
30
27
25
23
22
21
21
21
21
21
21
20
20
20
19
18
17
16
15
14
13
13
14
17
24
33
43
54
64
71
75
76
75
73
69
66
61
57
53
50
49
47
47
48
49
50
51
50
49
46
43
40
37
34
31
29
27
26
25
24
24
24
23
23
23
22
21
20
20
19
19
17
16
16
14
14
14
21
29
29
50
61
61
79
83
83
84
82
82
77
74
70
66
63
60
58
56
55
55
55
55
53
51
48
44
41
38
35
32
30
28
26
25
24
23
23
22
22
22
21
21
20
19
18
17
16
15
14
13
13
12
13
15
21
29
39
50
61
71
77
80
81
80
78
75
72
69
65
62
59
56
54
53
53
53
52
51
49
47
45
41
39
35
32
29
27
25
24
23
22
22
22
21
21
20
20
19
18
17
16
15
15
14
13
12
11
10
10
12
16
24
33
43
54
64
71
75
77
76
74
71
67
63
60
56
53
51
50
49
49
50
51
51
50
48
46
43
40
37
33
31
28
27
26
25
24
24
24
24
24
23
23
22
22
21
20
19
17
16
15
13
12
12
14
19
27
37
48
59
69
76
79
81
80
77
74
71
67
64
60
57
55
53
52
52
53
53
53
51
50
47
44
41
38
35
32
29
27
26
25
24
24
24
24
24
23
22
22
20
19
19
16
15
15
14
13
13
12
11
11
11
14
14
28
39
51
64
75
83
87
89
88
86
83
79
76
72
69
66
63
61
59
58
58
57
56
54
52
49
46
42
39
36
33
30
28
26
25
24
23
23
22
22
22
21
20
19
18
17
16
15
14
13
12
11
10
9
9
9
13
19
28
39
50
62
72
78
81
82
80
77
74
70
66
62
58
55
53
51
50
50
51
51
50
49
47
44
41
27
27
23
21
21
19
19
19
19
18
18
18
17
17
16
15
13
12
11
10
9
8
8
10
15
22
32
42
54
64
71
76
77
77
75
71
67
63
58
54
51
48
47
46
47
48
49
50
50
49
46
44
40
38
34
29
26
24
22
21
21
20
20
21
21
21
21
21
20
19
18
17
16
14
13
13
15
21
29
40
52
65
75
82
86
87
86
83
79
74
70
65
62
59
56
55
55
55
55
56
55
54
52
49
46
42
39
35
32
29
27
25
24
23
22
21
21
21
21
20
20
19
18
18
17
16
15
13
13
13
16
23
32
43
56
69
80
87
90
91
90
87
83
79
75
71
67
64
61
59
58
58
57
57
57
55
55
50
46
46
40
36
36
30
27
27
24
23
23
22
21
21
21
20
20
19
18
17
16
14
13
11
10
9
11
15
23
34
45
58
69
78
83
84
84
81
78
74
70
65
61
58
55
53
52
52
53
54
53
53
51
49
45
41
38
34
31
27
25
23
22
22
21
21
21
21
20
20
20
19
18
18
16
15
14
13
14
17
23
31
41
52
63
72
78
81
81
79
75
71
66
61
56
52
49
47
46
47
49
50
51
52
51
49
46
42
39
36
32
29
27
25
24
23
23
23
22
22
22
22
22
21
20
19
18
16
15
14
14
17
23
32
43
55
68
79
86
90
91
90
87
83
79
74
70
66
63
61
58
57
56
56
55
54
52
50
47
43
40
36
33
30
28
25
24
23
23
22
22
22
22
22
22
21
20
19
18
17
16
15
14
12
12
13
17
25
36
47
61
73
83
89
92
93
91
88
84
80
76
71
68
65
62
60
59
58
57
56
55
53
53
47
43
43
37
33
33
28
26
26
23
22
22
21
20
20
20
19
19
17
16
15
14
12
11
10
9
8
8
9
14
22
32
43
56
68
77
82
84
84
82
79
74
70
65
61
57
54
53
52
52
52
52
52
52
50
47
44
40
37
33
30
27
24
23
22
21
20
20
20
20
20
20
19
19
18
17
16
15
14
12
11
10
10
12
18
26
37
48
60
70
77
81
82
80
77
73
68
63
58
54
50
48
47
47
48
49
50
51
50
48
45
41
38
34
31
28
25
23
22
21
21
20
20
20
20
20
20
19
19
18
17
16
15
13
12
11
11
13
18
26
37
49
63
74
83
89
91
91
88
85
81
76
72
68
64
62
60
59
59
59
59
59
58
56
53
48
45
41
38
35
32
30
28
27
27
26
26
26
25
25
24
24
23
22
21
20
18
17
16
15
14
13
13
15
20
28
39
51
63
74
82
87
89
88
85
82
79
75
71
68
65
63
60
59
58
57
56
55
53
50
47
44
40
38
35
32
29
27
25
24
23
22
22
21
21
20
20
19
18
16
15
14
13
12
11
10
9
8
7
7
9
12
19
27
36
46
55
