Wave
52
52
51
51
50
49
48
47
45
43
41
40
38
36
35
34
33
33
32
32
31
30
29
28
27
26
25
25
24
24
24
24
24
23
23
23
23
22
24
28
35
43
54
64
72
78
76
74
71
68
66
64
62
60
57
55
52
51
50
50
49
49
48
46
45
43
41
40
39
37
36
35
34
33
32
31
31
30
29
28
27
26
26
25
24
23
23
22
21
20
19
19
18
17
18
21
27
36
45
55
64
69
71
70
68
65
61
58
56
54
51
50
48
46
46
45
44
44
43
42
41
40
38
36
34
32
30
29
27
26
26
26
25
25
25
25
24
24
23
22
22
22
22
22
21
20
20
19
19
20
23
30
39
48
57
65
69
71
69
67
64
61
59
57
55
53
50
48
47
46
46
46
47
46
45
44
43
41
40
39
37
36
35
35
34
33
32
32
31
30
29
28
28
27
26
26
25
24
24
23
22
22
22
21
21
20
19
19
21
25
31
31
49
60
60
74
76
76
73
70
70
65
63
63
59
57
57
53
52
52
50
50
49
48
46
45
43
41
40
38
37
35
34
34
33
31
31
30
29
29
29
28
27
26
25
25
24
23
23
22
20
20
19
18
18
17
17
16
16
16
18
22
30
39
49
59
67
72
73
71
68
65
61
59
57
55
52
50
48
46
45
45
45
44
44
42
41
40
38
37
35
33
31
29
28
27
26
25
24
24
23
23
22
21
20
19
19
18
17
17
16
15
15
14
14
13
13
15
19
25
35
44
54
62
67
69
68
65
61
57
54
52
49
47
45
44
43
43
43
44
43
43
42
41
40
38
35
34
32
31
29
29
28
27
27
26
25
25
25
25
24
24
23
23
22
21
21
20
20
20
19
19
19
20
23
30
39
49
60
70
77
79
78
76
72
69
67
65
63
60
58
56
54
53
52
51
50
49
48
47
46
44
43
41
40
38
37
36
34
33
32
31
31
30
29
28
28
27
27
27
26
25
25
24
23
22
22
22
22
21
21
20
20
21
24
31
40
50
61
72
78
81
81
79
76
72
70
67
65
62
60
59
57
55
54
53
52
52
51
51
47
45
45
41
39
39
36
34
34
31
29
29
27
26
26
24
24
24
23
22
21
20
19
19
18
17
17
16
16
15
15
14
15
18
25
34
44
55
65
71
73
72
69
65
61
57
54
51
49
47
45
44
43
43
43
43
42
42
41
40
38
36
34
32
31
29
28
27
27
26
26
25
25
24
24
23
22
22
21
21
21
20
19
19
18
20
24
31
40
49
59
67
72
73
72
69
65
62
59
56
54
52
50
48
47
46
46
46
46
45
44
42
40
39
36
34
31
30
28
27
27
25
25
24
24
24
23
23
23
22
23
23
22
22
21
22
25
30
39
48
60
71
78
82
82
81
78
75
73
72
70
68
66
64
62
60
59
59
59
58
57
56
55
53
51
49
47
46
45
44
43
42
42
41
40
40
39
38
37
37
36
34
33
32
32
31
30
29
29
28
29
33
40
49
58
68
76
81
82
81
79
76
73
71
69
67
67
63
61
61
58
57
57
56
55
55
51
50
50
46
44
44
41
40
40
39
38
37
36
35
34
33
32
32
31
30
29
28
27
27
26
25
24
25
28
34
41
50
59
68
72
75
74
72
69
67
64
62
60
58
56
54
53
53
53
53
52
52
51
50
47
45
43
41
40
39
38
36
35
35
34
33
32
32
31
30
29
28
27
26
25
25
24
23
23
26
31
38
46
55
63
69
72
72
70
68
67
65
63
61
59
57
55
53
51
50
49
49
48
47
45
44
41
40
39
37
37
36
35
34
33
32
31
30
29
28
27
27
26
26
25
24
23
23
22
21
21
21
20
20
19
19
21
26
34
43
53
63
70
74
74
73
71
69
67
66
65
63
61
58
56
54
53
52
51
50
49
48
46
44
42
40
40
38
36
35
34
33
32
31
30
29
29
28
28
28
27
27
26
25
24
24
23
22
21
21
20
19
19
18
18
17
18
22
29
38
47
57
64
69
70
68
66
63
61
59
57
56
54
52
50
48
47
46
45
45
44
43
42
40
39
37
35
33
32
30
29
28
27
26
26
25
24
24
23
22
21
20
20
19
18
17
17
16
16
15
14
14
13
15
15
25
34
34
52
60
60
66
65
65
59
56
56
52
50
47
45
43
42
41
41
41
41
40
40
38
36
34
32
30
28
27
27
26
25
25
24
23
23
23
23
22
21
21
20
20
20
19
18
18
18
17
16
16
16
19
25
34
44
54
64
70
72
71
69
66
63
61
59
57
55
52
51
49
48
47
46
46
45
44
43
41
40
39
37
35
33
32
31
30
29
29
28
28
27
27
27
26
25
24
23
22
22
21
21
20
20
19
19
18
18
17
17
17
17
20
27
36
46
56
67
74
77
76
74
71
67
64
62
60
58
55
53
50
48
47
46
46
45
45
44
42
40
39
37
35
33
31
29
28
27
26
25
24
23
23
21
20
20
19
19
17
17
16
14
14
13
12
11
10
10
9
9
9
12
18
26
37
47
57
64
68
69
66
63
59
56
53
50
47
45
43
41
40
40
40
40
40
39
38
37
35
33
31
29
29
26
25
25
24
23
23
22
22
22
21
20
20
19
18
18
18
17
17
16
16
15
14
15
19
25
35
45
56
66
72
74
72
70
66
63
59
57
55
52
51
49
47
46
46
46
46
45
44
43
41
40
38
36
34
32
31
30
28
27
27
26
26
26
25
25
24
23
22
21
21
21
21
20
20
19
19
19
18
19
23
31
40
51
63
72
78
80
79
77
74
71
69
67
65
62
60
58
56
54
53
52
51
51
49
48
47
45
43
42
40
39
38
37
35
34
33
32
31
31
30
29
29
28
28
27
27
26
25
24
23
22
21
21
20
19
18
17
17
19
24
33
42
53
64
73
77
77
76
73
70
66
64
62
60
57
55
53
52
51
50
50
50
50
49
47
46
43
41
40
38
36
34
33
32
31
30
29
29
29
28
27
26
25
25
24
23
22
22
21
19
18
18
19
23
29
38
47
57
65
70
71
70
68
65
62
59
55
52
50
48
47
46
46
47
47
47
46
45
43
41
39
38
35
34
33
32
31
30
29
29
28
28
27
27
26
26
25
25
25
24
24
23
22
21
21
24
30
39
49
59
68
75
77
77
75
72
69
69
65
62
62
58
57
57
54
53
53
52
50
50
48
46
46
43
41
40
38
37
36
35
34
33
32
32
31
31
30
29
28
28
27
27
26
26
25
24
24
23
22
22
23
25
31
40
49
59
69
77
80
80
77
74
71
69
67
66
64
62
61
59
57
56
55
54
53
52
51
49
47
45
43
41
39
38
36
35
33
31
30
29
27
26
26
25
24
23
23
22
21
20
20
19
19
18
17
16
16
16
18
24
32
42
52
62
69
73
73
70
67
64
61
58
55
52
50
49
47
46
45
45
45
44
43
42
40
39
37
35
33
31
30
29
29
28
27
26
25
25
24
23
23
23
22
22
21
20
19
18
17
16
17
22
29
38
47
57
65
70
71
70
68
65
61
58
55
53
51
48
47
46
46
46
46
46
45
44
42
40
39
37
35
33
32
30
29
28
28
27
27
26
25
25
24
24
23
23
23
23
23
22
22
21
20
21
24
29
38
48
48
69
76
76
79
77
77
71
69
69
66
64
64
61
60
60
57
56
56
55
54
53
52
51
49
47
45
43
42
40
40
39
38
37
37
36
36
35
34
33
33
32
31
30
29
28
27
27
25
24
24
27
33
40
50
60
70
76
79
79
77
74
72
69
67
65
62
61
59
57
56
55
54
53
53
52
51
49
48
45
43
41
40
39
37
37
36
35
34
33
33
32
31
30
29
28
27
26
25
24
23
22
20
20
20
24
31
40
49
59
66
71
72
71
69
66
63
61
59
57
55
53
51
50
51
51
51
51
50
48
46
43
41
40
38
36
36
34
34
33
32
31
31
31
30
29
28
27
27
26
26
25
24
23
24
27
33
40
49
58
66
71
74
74
72
69
67
66
64
62
60
58
56
55
54
53
53
52
51
50
48
46
44
42
40
39
38
37
36
36
35
33
32
32
30
29
29
28
27
26
25
25
24
24
23
23
22
21
21
24
29
36
45
55
66
73
77
78
77
75
72
70
68
67
65
62
60
58
57
55
54
54
53
52
51
49
47
45
43
41
40
38
37
36
35
34
33
32
31
30
28
27
26
25
24
22
22
21
21
19
18
18
16
15
15
13
13
13
22
31
31
50
59
59
68
68
68
63
61
59
58
56
54
52
50
48
46
46
45
45
44
43
42
40
39
36
33
31
29
27
26
26
25
25
24
23
23
22
21
20
20
19
19
18
18
17
17
16
15
14
13
15
19
26
35
44
54
62
66
67
66
64
61
58
56
54
52
50
48
46
45
45
45
45
45
45
43
42
40
38
36
33
31
29
28
27
26
26
25
25
24
24
23
22
22
21
20
19
18
18
17
17
17
16
16
15
14
14
14
17
23
32
42
54
64
72
76
76
74
71
69
67
65
63
62
60
58
56
54
53
51
50
49
48
47
46
44
42
40
39
38
36
35
34
32
31
30
29
27
27
26
26
25
24
24
23
21
20
19
18
18
16
16
15
14
14
13
13
15
22
32
42
53
63
70
73
73
71
67
65
62
60
58
56
53
51
50
48
47
47
47
46
45
44
43
41
39
37
34
34
30
28
28
26
25
25
23
23
23
21
20
20
19
18
18
17
16
16
14
14
12
12
12
13
18
25
35
45
55
64
69
71
70
67
63
60
56
53
50
48
46
44
43
43
44
45
45
45
45
44
42
40
38
36
33
32
30
29
28
27
26
25
25
25
24
23
23
22
21
21
20
20
19
18
17
17
17
21
28
38
49
61
71
78
81
80
78
75
71
69
67
65
63
60
59
57
56
55
55
54
54
53
52
50
47
45
43
41
39
38
37
37
36
35
34
33
32
31
30
30
29
28
27
27
26
25
24
24
23
22
21
21
25
32
41
52
63
73
78
80
80
77
75
72
71
69
67
65
64
62
60
58
57
56
55
54
53
51
49
47
45
43
41
39
38
36
34
33
32
31
30
29
28
27
26
25
24
23
23
22
21
19
19
18
17
18
23
30
39
48
58
66
71
72
72
69
67
64
61
58
56
54
52
51
50
50
50
51
50
50
48
46
43
41
39
37
35
33
32
31
30
29
28
27
26
25
24
24
23
23
22
22
21
19
18
17
18
21
27
36
45
55
64
70
72
72
70
68
65
63
60
58
57
55
54
52
51
51
50
49
49
48
46
46
43
40
40
37
35
35
32
31
31
30
29
29
27
26
26
25
24
24
23
22
21
21
20
19
18
18
20
25
33
42
53
63
71
75
71
70
68
64
62
60
57
55
54
54
53
53
53
52
52
49
46
46
42
41
41
38
37
37
35
34
34
33
32
32
30
29
28
27
26
25
24
22
21
20
19
18
18
17
17
16
16
17
21
28
37
46
57
67
73
76
75
73
70
68
66
64
62
60
58
56
55
54
53
52
51
50
48
46
44
42
40
38
36
34
32
31
30
28
27
26
26
25
24
24
24
23
22
21
20
19
19
17
16
15
14
14
13
15
20
28
38
47
57
65
69
70
69
67
64
61
58
55
53
50
48
47
46
46
46
46
45
44
42
40
38
36
34
32
30
29
28
27
26
25
25
24
24
23
22
22
21
20
19
18
18
17
16
16
15
14
13
15
20
28
38
48
59
67
72
73
73
70
67
67
63
60
60
56
55
53
51
50
50
49
48
48
46
44
44
40
38
36
33
32
30
29
28
27
26
25
25
24
24
23
22
21
20
20
19
18
17
16
16
15
15
14
13
13
13
13
15
20
28
38
49
60
68
72
73
71
69
65
62
60
59
57
54
52
50
48
47
46
46
45
44
43
41
40
38
36
33
31
29
27
26
25
24
23
23
23
22
21
20
20
19
18
17
17
16
15
14
14
12
11
11
10
9
8
8
9
14
21
31
41
52
61
66
68
67
65
61
57
54
51
48
46
44
43
42
42
42
43
43
43
42
40
39
37
35
33
31
29
27
26
25
24
23
23
22
22
21
20
20
19
19
18
18
17
16
16
15
14
14
16
21
29
39
50
61
69
74
74
73
70
66
63
61
58
56
54
51
49
48
47
47
47
47
46
46
44
42
41
39
37
35
33
32
31
30
29
28
27
27
27
26
26
25
24
24
23
22
21
21
21
20
19
18
18
17
19
24
32
42
53
64
73
78
79
78
75
72
69
67
65
63
61
59
57
56
55
55
54
53
52
51
49
47
45
43
41
39
38
36
35
33
32
32
31
31
28
27
27
25
25
25
23
22
22
20
19
19
18
17
17
15
15
15
14
17
23
33
43
54
65
73
76
77
75
72
69
66
63
60
57
55
53
52
51
51
51
51
51
50
49
47
45
42
40
39
37
35
34
33
32
31
30
29
29
28
28
27
26
25
24
24
23
23
22
22
21
19
19
21
26
34
43
54
64
72
76
77
76
74
72
69
67
64
62
59
57
55
54
54
53
53
52
52
50
49
47
45
43
41
40
39
38
37
36
35
34
33
32
31
30
29
28
27
26
26
25
24
24
23
22
21
20
20
19
19
20
24
31
41
52
63
73
80
83
82
81
78
75
73
71
69
67
65
63
61
60
59
59
59
58
57
55
53
51
48
47
45
43
42
40
40
39
38
36
35
33
32
30
29
28
27
26
26
25
24
23
23
22
20
20
19
18
17
17
20
25
34
44
55
66
74
79
80
78
75
73
70
68
65
63
61
59
57
55
55
55
54
53
53
50
48
48
43
41
41
37
36
36
32
32
32
30
29
29
27
26
25
24
24
23
22
21
20
20
19
18
17
16
15
15
17
22
30
40
50
60
68
73
74
73
70
67
64
61
58
56
54
52
51
51
51
51
51
51
50
48
46
44
42
40
38
36
34
33
32
31
29
28
27
26
26
25
24
24
23
22
21
20
19
19
18
18
17
16
15
15
15
18
24
34
45
57
68
77
81
83
81
78
75
73
70
68
66
64
62
61
60
59
59
59
58
56
55
53
51
49
47
44
42
41
40
39
38
36
36
35
34
33
32
31
30
29
28
26
25
24
23
22
22
21
20
19
18
17
17
17
19
25
34
44
57
68
78
83
85
84
82
80
77
75
73
71
69
67
64
62
61
60
59
58
57
56
53
51
48
45
42
40
39
37
35
33
32
31
30
28
27
27
26
25
24
24
22
21
20
19
18
17
16
15
14
13
13
11
11
12
16
24
34
44
56
66
73
76
76
74
71
67
64
62
59
57
55
53
51
50
50
51
51
50
50
48
46
43
41
39
37
35
33
32
31
30
28
27
26
25
24
23
23
22
21
20
19
19
18
17
17
15
13
13
12
12
12
22
31
31
54
65
65
77
78
78
73
70
68
65
63
61
59
57
55
54
54
54
53
53
52
51
49
46
44
41
40
38
36
35
33
32
31
30
29
28
27
26
26
25
24
23
22
21
20
19
18
17
16
15
15
14
14
13
12
13
17
24
33
44
56
68
75
79
79
78
75
71
69
67
65
63
61
59
57
55
54
53
52
50
49
47
46
43
41
40
38
36
34
32
31
30
29
28
27
26
25
24
24
23
22
21
20
19
18
17
16
15
14
13
13
12
11
10
9
8
8
9
14
22
32
43
56
66
72
75
74
71
68
65
62
59
56
54
52
50
49
48
47
47
47
46
45
43
41
39
36
34
32
29
27
26
25
24
23
22
22
21
20
19
19
18
17
16
15
14
14
13
12
11
10
9
9
8
11
16
25
35
45
56
64
69
70
68
65
61
58
54
51
48
45
43
42
41
41
41
42
43
43
41
40
40
37
34
34
30
28
28
25
25
25
23
23
23
22
21
21
20
19
19
18
18
17
16
16
15
14
14
17
23
33
43
55
65
73
77
77
75
72
69
66
63
61
58
56
54
53
52
52
52
52
52
52
51
49
47
45
42
40
38
36
35
34
33
32
32
31
30
30
29
29
28
27
26
25
24
23
22
22
21
20
19
18
18
21
26
34
44
55
66
75
80
80
79
76
73
70
67
65
63
61
60
58
56
55
55
54
53
52
51
50
48
45
43
41
39
38
36
35
34
33
32
31
30
29
27
26
26
25
24
23
23
22
21
20
19
18
18
18
20
26
34
43
54
62
68
71
71
68
65
62
59
57
55
52
50
49
47
47
47
47
46
46
44
43
41
40
38
36
35
34
33
32
31
31
30
29
28
27
26
25
25
24
24
23
22
21
20
20
21
25
31
39
47
56
64
68
70
69
66
64
61
59
56
54
53
51
50
49
49
49
49
49
48
47
45
43
41
39
37
35
34
33
32
31
30
30
29
29
28
27
27
25
24
23
23
22
22
21
21
20
19
18
19
22
28
36
45
56
65
72
75
75
74
71
69
69
66
64
64
61
59
59
56
55
55
53
52
52
48
46
46
43
41
41
39
38
36
35
33
32
32
31
30
29
28
27
27
26
25
24
23
22
21
20
19
18
17
16
15
15
18
24
32
41
51
61
68
71
71
69
67
64
62
60
58
56
54
52
51
50
49
49
48
48
46
45
42
40
39
37
34
33
31
30
29
27
27
26
25
24
24
23
22
22
21
20
19
18
17
15
14
14
13
11
11
12
15
21
29
39
48
57
63
65
66
64
61
57
55
52
50
48
46
45
44
43
43
43
43
42
41
40
39
37
34
32
31
29
28
27
26
26
25
25
24
23
23
22
21
21
20
19
19
18
17
17
16
15
14
13
13
14
16
22
31
41
52
62
69
73
73
72
70
67
65
63
61
59
56
55
53
52
52
51
51
50
49
47
46
44
42
40
39
37
36
34
33
32
31
30
29
28
27
26
25
25
24
23
22
21
20
20
20
19
18
17
17
16
15
15
20
26
26
45
57
57
72
76
76
73
70
70
65
63
63
59
57
55
54
52
51
50
49
49
48
46
45
42
40
39
37
35
33
32
30
29
28
27
26
25
25
24
23
22
21
20
19
18
17
17
16
15
14
13
12
11
12
14
20
29
39
49
59
66
69
70
68
65
61
59
56
52
50
48
46
45
44
44
45
46
46
46
45
44
41
40
37
35
32
31
29
28
27
26
26
25
25
24
24
23
22
21
21
20
20
19
18
17
16
15
14
14
16
22
31
42
53
65
73
77
78
76
74
70
67
65
62
59
57
55
54
53
53
54
53
53
52
50
48
46
44
41
40
37
35
33
32
31
30
29
28
27
27
27
26
26
25
24
23
22
21
21
21
20
19
19
18
17
17
16
17
20
26
36
46
59
70
78
82
83
81
78
75
72
70
68
66
64
62
61
60
60
60
59
59
58
57
55
53
51
48
46
43
41
40
38
36
35
33
32
31
30
29
27
26
25
24
22
20
18
17
15
14
13
12
14
20
29
39
51
62
71
76
78
76
73
70
66
64
61
58
56
54
53
52
52
52
52
51
50
49
47
45
43
40
39
37
34
33
31
29
28
26
25
24
23
22
21
20
19
18
18
17
17
15
15
14
15
18
24
32
42
52
62
69
73
74
73
70
67
64
60
57
54
52
51
50
51
51
52
53
52
51
49
47
45
43
40
39
37
35
34
32
31
30
29
28
27
26
25
25
24
24
23
22
21
20
20
19
19
22
28
37
47
59
70
78
83
84
84
82
80
78
76
73
71
69
67
65
64
64
64
63
63
62
61
60
58
56
53
50
48
46
45
44
42
41
40
40
39
37
36
35
33
32
31
30
29
28
27
26
25
23
23
22
23
27
34
44
56
68
78
85
89
89
88
86
84
82
80
78
76
74
72
70
68
67
66
66
65
63
61
58
56
53
50
48
45
42
40
39
37
35
34
33
31
30
29
28
28
26
25
23
22
21
20
19
18
16
15
14
15
20
27
37
47
58
68
74
76
76
74
72
69
66
63
61
58
57
55
55
55
54
54
54
52
50
50
46
43
43
38
36
36
32
31
31
28
27
27
24
23
22
20
19
18
17
17
16
15
14
13
12
12
15
21
29
40
50
61
68
72
74
73
71
68
66
64
62
59
57
55
53
52
52
51
51
50
49
47
44
42
40
37
35
33
31
30
28
27
27
26
25
24
24
23
22
21
20
19
18
17
16
15
15
14
14
13
12
12
11
12
15
22
32
43
56
67
74
79
80
79
77
75
73
72
70
68
66
64
62
60
59
58
57
57
55
54
51
48
46
44
42
40
38
36
34
32
31
29
28
26
25
24
22
21
20
18
17
16
15
14
13
12
11
10
10
9
8
7
7
6
6
9
16
26
38
49
60
69
73
74
73
70
67
65
63
61
59
57
54
52
50
49
48
48
47
46
45
43
41
39
36
34
32
30
28
26
25
24
23
22
21
20
19
18
16
15
15
14
13
12
12
11
10
8
8
8
11
17
26
37
48
59
68
72
73
72
69
66
63
60
58
55
52
51
49
48
48
48
48
48
47
46
44
41
39
37
34
31
29
28
26
25
25
24
23
22
22
21
20
19
18
17
16
15
14
14
13
12
11
10
10
10
12
12
27
39
39
65
75
75
84
83
83
78
75
75
71
69
69
64
62
61
59
59
58
57
56
55
53
51
49
47
44
41
40
38
36
34
33
32
31
30
29
28
26
25
24
22
21
20
19
18
17
16
15
14
13
12
11
10
9
11
16
25
37
50
64
75
82
85
85
83
80
78
75
73
70
67
65
62
60
58
57
57
57
56
55
53
51
48
45
42
40
37
35
33
31
30
28
27
26
25
24
23
22
20
19
18
17
16
15
14
13
11
10
9
8
10
16
25
36
48
60
69
75
76
75
72
68
64
60
57
53
50
48
46
44
43
43
43
43
42
41
40
38
35
32
29
26
23
21
19
18
16
15
13
13
12
11
10
9
9
9
8
8
8
8
9
12
19
29
39
50
60
67
70
69
66
62
58
54
49
44
42
41
40
40
42
45
47
47
48
47
46
44
41
39
36
33
30
28
27
25
25
24
22
21
20
19
19
18
18
18
17
17
18
22
22
37
47
47
69
78
78
84
85
85
81
79
79
72
68
64
61
60
59
59
59
59
58
57
54
52
50
47
44
42
40
39
37
36
35
35
34
33
32
31
30
28
26
25
23
23
26
32
40
51
62
73
80
84
85
83
81
79
76
74
71
68
64
61
59
58
57
56
56
55
53
51
50
47
44
42
40
38
37
35
33
32
30
29
27
26
25
24
23
23
22
21
20
19
19
18
17
17
16
15
14
15
18
26
36
48
61
73
81
86
87
86
84
81
79
78
76
74
71
68
65
63
61
60
59
58
57
55
54
51
49
47
45
42
40
40
38
37
36
34
33
32
31
30
28
28
27
27
26
25
24
23
22
21
21
20
20
19
18
17
16
17
21
29
40
51
63
74
81
82
81
77
73
69
65
63
61
58
55
53
51
50
49
48
48
47
47
46
44
42
40
37
34
31
28
27
25
24
24
23
22
20
20
19
18
17
16
15
14
14
13
12
11
10
9
9
8
8
7
6
6
9
15
23
33
43
53
60
63
63
61
59
56
53
50
46
43
40
38
35
33
32
32
31
30
30
28
27
25
24
22
21
21
18
17
17
15
14
14
12
11
11
9
8
8
6
5
5
5
4
4
3
2
2
2
1
1
0
0
0
0
4
11
20
30
40
48
54
55
55
53
50
47
45
43
41
40
38
36
34
33
32
32
32
31
30
28
27
25
23
22
21
19
18
17
15
15
14
12
12
12
11
11
10
9
9
9
8
7
7
6
5
5
4
4
3
3
2
2
2
4
9
17
26
36
45
52
56
56
54
51
48
44
41
39
37
35
33
33
32
32
32
33
33
33
32
31
29
26
25
22
21
20
19
18
17
16
16
15
15
15
14
14
13
12
12
11
11
10
10
9
9
9
8
7
7
9
13
20
29
39
48
56
61
62
61
58
55
51
48
45
42
40
39
37
37
37
38
39
40
40
39
38
36
33
32
30
28
27
25
24
23
22
22
20
20
19
19
18
18
18
17
17
16
16
16
15
15
14
14
13
13
13
17
24
33
43
55
64
70
73
72
70
70
63
60
60
54
52
52
49
48
48
47
47
47
47
47
47
43
41
41
37
35
33
32
31
30
28
27
27
27
26
26
26
26
25
25
24
24
23
23
22
22
21
20
20
19
19
20
24
31
40
50
61
70
76
78
77
75
72
69
66
63
60
58
56
54
53
52
53
53
54
53
52
51
50
48
46
43
41
40
38
37
35
34
33
33
32
31
30
29
28
28
28
27
26
25
25
24
23
22
22
21
21
23
27
35
43
54
64
72
77
78
77
75
72
68
65
62
60
58
56
55
54
54
55
55
55
54
53
51
49
46
44
42
40
40
38
37
36
35
34
33
32
31
31
30
29
29
28
28
28
27
26
25
26
28
33
40
49
58
66
72
75
75
74
71
68
65
62
59
57
56
54
54
54
55
55
56
55
54
53
51
48
46
45
43
42
41
40
39
38
37
36
35
34
33
32
32
32
31
31
31
29
28
27
27
30
34
41
51
61
71
79
84
86
85
84
82
79
77
75
73
72
70
69
68
67
67
67
66
65
64
62
60
57
55
53
51
49
48
47
46
45
44
43
42
41
40
40
39
37
36
35
34
33
32
31
29
28
28
28
32
32
47
58
58
77
84
84
87
86
86
82
80
80
76
75
75
72
71
70
69
69
69
68
66
64
61
59
57
54
52
50
48
47
45
44
43
42
41
40
39
38
37
35
33
32
31
29
28
27
26
25
25
23
23
23
24
29
37
46
56
66
75
80
82
82
81
79
78
76
74
72
71
69
68
66
65
64
63
62
61
59
57
54
52
50
48
45
43
42
40
39
37
36
35
34
33
32
31
30
29
27
26
25
24
22
21
20
19
18
19
22
28
35
44
55
64
71
75
76
75
74
71
69
66
64
61
59
57
56
56
56
56
56
56
54
52
50
48
45
43
41
40
38
37
36
34
33
31
30
29
27
27
26
25
24
23
23
21
20
19
18
17
16
15
16
20
27
37
47
60
70
78
81
83
82
80
78
76
74
72
70
68
66
64
63
62
61
60
60
59
57
54
51
49
46
43
41
40
38
36
35
33
32
31
29
28
27
26
26
25
24
24
22
20
20
18
18
18
16
15
15
14
14
14
19
27
27
49
61
72
80
85
86
85
83
82
80
78
76
74
72
70
67
66
65
64
63
62
61
59
57
54
51
49
47
44
42
40
39
37
36
34
33
32
30
29
28
27
26
24
23
21
20
19
18
17
16
15
14
13
12
11
11
11
15
21
31
42
55
67
76
81
83
83
81
78
76
74
72
69
67
65
63
61
60
59
59
58
57
55
53
50
47
44
41
39
36
34
32
30
28
27
26
25
24
23
22
21
19
18
17
16
15
14
12
11
10
9
8
7
6
5
5
8
14
23
35
47
59
69
75
78
69
66
63
60
57
55
53
52
53
53
54
53
52
50
47
44
42
40
37
34
32
30
28
27
26
25
24
23
22
21
20
19
18
17
15
15
14
13
12
11
10
9
9
11
17
26
38
51
64
74
81
84
84
82
80
75
72
69
66
64
62
60
59
59
59
59
58
56
55
53
50
47
45
42
40
38
36
34
32
31
30
28
27
26
25
24
22
22
21
19
18
17
16
15
14
13
12
11
11
11
15
24
35
48
62
75
85
90
92
91
90
87
84
84
78
75
75
71
69
69
67
66
66
64
63
63
58
55
55
50
47
45
43
41
39
38
36
35
34
32
31
29
28
27
26
25
24
22
21
20
19
18
17
16
15
14
13
14
18
26
37
49
63
76
85
90
92
91
90
87
85
82
79
77
74
72
70
68
68
67
67
65
63
61
59
56
53
49
46
44
41
40
37
36
34
32
31
29
28
26
25
24
22
21
20
18
17
15
14
14
12
11
10
9
10
13
20
30
41
55
67
77
82
84
83
81
78
75
71
68
65
63
60
59
58
58
58
58
57
56
54
52
49
46
44
41
39
37
35
34
32
31
29
28
26
25
23
22
21
20
18
17
16
15
14
13
11
11
12
16
23
33
45
57
69
77
82
83
82
80
77
75
72
69
65
63
61
59
58
58
58
58
58
56
54
51
48
45
42
40
38
35
33
31
30
28
27
26
25
23
22
22
21
20
19
18
18
17
16
14
13
12
11
11
11
21
31
31
58
72
72
89
92
92
91
89
89
84
81
81
76
73
73
69
68
67
66
66
65
63
61
58
55
52
49
46
43
41
39
37
36
34
33
31
30
29
28
26
25
23
22
21
20
18
17
16
14
13
12
12
17
25
36
49
63
75
83
88
90
89
87
85
83
81
78
76
73
71
69
68
67
67
65
64
62
59
57
53
50
46
43
40
37
34
32
30
28
27
26
25
24
24
24
23
22
20
20
19
18
17
15
13
12
11
11
14
21
32
44
58
71
80
86
88
88
86
83
80
77
73
70
67
64
62
61
60
59
59
58
57
55
52
49
46
43
40
39
36
34
32
30
29
28
26
25
24
23
22
21
19
17
15
13
13
16
22
30
41
53
63
71
76
78
77
75
73
69
66
62
60
57
53
51
49
47
46
45
43
42
40
38
35
31
29
26
24
21
19
18
16
14
13
12
10
9
8
7
6
5
4
4
3
1
0
0
2
7
16
27
40
51
62
69
71
71
69
66
63
59
56
53
50
47
46
46
46
46
47
47
46
44
42
40
37
34
31
29
26
25
23
22
21
20
18
17
16
15
14
13
12
11
10
10
8
7
7
12
19
19
40
51
51
67
71
71
69
66
66
59
56
56
49
47
46
45
45
46
47
47
47
46
44
41
39
36
33
31
29
27
25
23
22
21
19
18
17
16
15
14
13
12
11
10
9
7
7
8
12
19
29
41
52
62
69
72
73
72
70
68
66
64
61
59
57
54
53
51
51
50
49
48
47
45
43
40
39
36
33
31
29
27
25
23
21
20
18
17
16
14
13
12
10
9
8
8
7
5
4
3
4
7
14
24
35
45
55
62
65
66
65
63
62
60
58
56
53
50
48
47
45
44
44
43
42
41
40
38
36
33
31
28
26
24
22
20
19
17
16
15
14
13
13
11
10
9
8
7
5
5
4
3
2
1
0
0
0
3
10
19
30
40
50
57
60
60
58
56
54
51
49
47
45
43
42
41
40
40
40
40
39
38
37
35
32
30
27
25
23
21
20
19
17
16
15
14
13
12
11
10
9
8
7
6
6
4
3
3
2
1
1
0
1
1
11
20
20
40
49
49
58
58
58
53
50
47
43
41
39
38
36
36
36
36
36
36
36
34
33
31
29
27
25
23
22
21
19
18
17
16
16
15
14
13
13
12
11
11
10
10
9
8
7
7
7
10
16
25
34
44
54
61
64
65
63
61
58
55
53
50
48
46
44
43
42
42
42
42
42
40
40
38
36
33
31
29
27
26
25
24
23
22
22
21
20
19
19
19
18
17
17
16
15
14
14
13
12
11
11
10
9
9
11
16
24
36
47
59
69
76
78
78
75
73
70
67
64
61
60
58
56
55
54
54
54
54
54
53
51
49
47
44
42
40
39
37
35
33
32
31
30
29
28
27
27
26
25
24
23
21
20
20
19
18
17
16
15
14
13
13
15
22
31
41
53
64
72
76
76
75
72
69
65
62
60
57
55
53
51
50
49
49
49
48
47
46
44
42
40
38
36
34
32
30
29
29
27
26
25
24
23
22
22
21
20
19
19
18
17
17
16
15
14
13
12
12
13
18
25
35
45
56
64
70
71
70
67
64
60
57
53
50
47
46
45
45
45
46
47
47
47
45
45
42
40
40
36
34
34
30
29
29
26
25
25
23
22
22
21
20
20
19
18
18
17
17
16
15
14
14
14
18
25
35
45
56
66
73
76
76
74
71
68
65
62
59
57
55
53
52
51
51
51
51
50
49
48
46
44
42
40
39
37
35
34
33
32
32
31
30
30
29
28
26
26
25
24
23
22
22
21
20
19
18
17
17
19
24
32
41
52
63
72
78
80
79
77
74
71
69
67
64
62
60
58
57
56
56
55
54
53
52
50
48
46
44
42
41
39
38
37
36
34
33
32
31
30
29
28
27
26
25
24
23
22
22
20
20
19
18
17
16
15
17
22
30
40
51
62
72
77
79
78
75
72
69
65
62
60
57
55
55
54
54
53
53
52
51
49
47
45
42
40
38
36
34
33
32
31
30
29
28
27
27
26
25
24
24
23
22
21
20
19
18
17
17
17
21
27
35
44
55
65
72
75
76
74
70
67
63
60
58
55
55
52
51
51
51
52
52
52
51
51
47
44
44
40
38
38
35
34
34
32
32
31
30
29
28
27
26
25
24
23
23
22
21
20
19
18
17
18
22
29
38
49
61
71
78
81
81
80
77
74
71
69
66
64
62
60
58
57
57
56
56
55
53
52
50
47
45
42
40
39
37
36
35
34
33
32
31
30
29
29
28
27
26
25
24
23
22
22
21
21
20
19
18
17
18
21
27
37
47
59
70
78
81
82
81
78
75
73
70
67
65
62
60
58
57
56
55
55
54
53
52
50
47
44
42
40
38
37
35
34
33
32
31
31
30
29
28
27
25
24
23
22
21
20
19
18
17
16
15
14
13
13
16
21
30
40
52
63
71
76
76
75
72
68
65
62
60
58
56
54
53
52
51
52
52
52
51
49
46
44
41
39
37
36
34
33
32
32
30
29
28
28
27
26
25
25
24
23
22
22
20
20
19
18
17
16
18
24
32
42
53
65
73
79
80
79
77
74
71
68
65
63
61
59
57
56
55
55
55
55
54
52
51
49
46
43
41
40
38
37
35
34
33
32
31
30
29
28
28
27
26
25
24
23
21
20
19
19
18
17
17
17
16
16
16
18
24
24
44
56
56
77
82
82
83
80
80
75
72
72
67
65
63
61
60
59
58
58
58
57
55
54
52
49
47
45
44
42
40
40
38
37
36
35
34
33
31
30
29
28
27
26
24
23
22
21
20
19
18
17
16
15
14
16
22
31
42
54
66
75
79
80
79
76
73
70
67
64
62
60
58
56
55
54
53
53
52
51
50
48
46
43
41
39
37
35
33
31
30
28
26
25
24
23
23
22
21
20
19
18
17
16
15
14
13
12
12
12
15
22
31
42
53
64
71
74
74
72
68
64
61
58
55
52
50
48
47
47
48
48
48
48
47
45
43
41
39
37
36
34
33
31
30
29
28
27
26
25
24
23
23
22
21
20
19
18
17
16
15
16
21
28
39
50
62
72
78
81
81
79
76
74
71
68
65
63
60
59
58
57
57
57
57
56
54
52
50
47
44
42
40
39
37
35
34
32
31
30
29
28
27
27
27
26
25
25
23
22
22
20
20
20
18
17
17
17
20
20
37
48
48
73
82
87
89
88
86
84
81
79
76
74
71
69
67
65
64
63
63
62
60
58
56
54
51
49
46
44
42
40
38
37
35
34
33
32
31
30
29
28
26
25
24
23
20
19
18
16
15
13
12
12
15
22
32
43
55
67
76
81
82
81
78
75
72
69
67
64
62
60
58
57
56
56
55
55
54
53
50
48
44
42
40
37
35
33
32
31
30
28
27
26
24
23
22
21
21
20
19
17
16
15
14
13
11
11
9
10
13
20
30
41
53
64
72
75
75
73
70
67
63
60
57
54
52
50
49
48
49
49
48
47
47
45
43
41
39
37
35
33
31
29
28
27
26
25
25
24
23
23
22
21
20
19
18
17
16
16
15
15
14
13
12
11
11
11
14
21
31
42
54
66
74
78
79
78
74
71
68
66
63
61
59
58
56
54
53
53
52
52
51
50
48
45
43
41
40
38
36
34
33
32
31
30
29
27
26
25
24
23
22
21
20
18
17
16
15
14
13
12
12
11
10
9
9
8
7
8
12
20
29
40
52
62
69
72
72
70
67
67
61
58
58
54
51
51
48
46
46
45
44
44
43
41
41
38
36
33
31
29
28
27
26
25
24
23
22
21
20
20
19
18
17
16
15
15
14
13
12
11
10
9
9
9
10
14
22
32
42
52
60
65
67
66
63
60
57
54
50
47
46
44
43
43
44
45
46
46
46
45
44
42
40
38
35
33
31
30
29
27
27
26
26
25
24
24
23
23
22
21
20
20
19
18
17
17
16
16
15
14
14
17
24
33
43
55
66
74
78
78
76
73
70
68
65
62
60
57
55
54
53
53
53
52
52
51
49
47
45
43
41
40
37
35
34
32
31
30
29
28
27
27
26
25
24
24
23
22
21
21
20
19
18
18
17
16
15
14
13
13
13
16
22
31
41
52
63
71
75
76
74
70
67
63
60
58
55
53
51
49
48
48
48
49
48
47
46
44
42
40
39
37
35
33
31
29
28
27
27
26
26
25
24
24
23
21
20
20
19
19
19
16
15
15
14
13
13
15
22
30
41
52
52
69
73
73
70
67
63
59
55
52
49
47
45
45
45
46
47
48
48
47
45
43
40
39
36
34
32
31
30
29
29
28
28
28
28
27
26
25
24
23
23
23
22
22
21
20
19
19
21
27
36
46
57
69
77
81
83
81
78
75
72
70
67
64
62
60
59
58
57
57
57
57
56
55
53
50
47
45
44
42
41
40
39
38
37
36
35
33
32
32
31
30
29
28
27
27
26
25
24
24
22
22
22
26
33
42
53
64
74
80
82
82
79
76
73
70
67
65
62
60
58
56
55
55
54
54
53
51
49
46
44
42
40
39
37
36
34
33
32
31
30
28
27
27
26
25
24
24
23
21
20
19
18
17
17
20
25
34
43
53
63
70
73
73
71
68
65
61
58
55
53
50
48
48
48
49
49
50
49
48
46
43
41
39
37
35
33
32
31
30
29
29
28
27
26
25
25
24
23
23
22
20
19
19
19
22
28
36
45
56
66
73
76
77
75
73
70
67
64
61
58
56
54
53
53
54
54
53
52
51
49
46
44
41
39
38
36
34
33
32
31
30
30
30
28
27
27
25
25
25
23
22
22
20
19
19
16
17
17
27
37
37
59
68
68
78
78
76
73
71
69
67
65
63
61
59
57
56
55
55
54
53
52
50
48
45
43
41
40
38
36
35
34
33
32
31
30
29
28
26
25
24
23
22
22
21
20
19
18
17
16
15
14
16
21
29
39
50
60
68
71
72
70
68
66
63
61
58
56
54
52
51
50
49
49
48
47
45
43
41
39
37
34
33
31
29
28
27
26
25
24
24
23
22
21
20
19
19
17
16
15
14
13
12
11
11
12
15
21
29
39
48
57
63
66
66
64
61
57
55
52
50
47
45
44
43
43
43
44
43
42
41
40
37
35
33
31
29
28
27
26
25
24
23
23
22
22
21
21
20
19
18
18
17
16
15
14
14
13
12
13
17
24
33
44
56
66
72
75
75
73
70
67
65
63
60
58
55
53
52
51
50
50
50
50
49
47
44
42
40
38
36
35
33
32
31
30
30
29
28
28
26
25
25
24
22
22
21
20
20
18
17
17
15
15
15
13
13
15
19
27
37
48
59
69
74
76
74
71
69
66
63
60
57
55
53
51
49
48
47
47
46
45
44
42
40
38
35
33
31
29
28
27
26
25
25
24
23
22
21
21
20
20
18
18
17
16
15
14
13
12
11
9
8
9
13
20
29
40
50
60
66
69
68
65
61
58
55
51
48
46
43
41
40
40
40
41
41
41
40
39
37
34
32
29
27
25
24
23
23
22
21
21
21
20
20
18
18
17
17
16
16
15
14
14
13
15
19
27
37
47
58
66
71
72
71
68
64
61
58
55
52
49
47
45
44
43
43
44
44
43
42
41
40
38
35
33
31
30
28
27
26
25
24
23
23
22
22
21
20
19
19
19
18
17
16
16
15
14
14
17
24
33
43
56
67
75
79
79
78
75
71
68
66
63
60
58
56
54
53
52
51
51
50
49
48
46
44
42
40
39
37
36
35
33
32
31
30
29
28
27
26
26
25
24
23
23
22
21
20
19
19
17
16
15
17
22
30
40
50
62
71
76
77
76
74
71
67
64
61
59
56
54
52
50
50
50
50
50
50
48
48
44
42
42
37
35
35
32
30
30
29
29
29
26
26
25
24
24
23
23
22
21
20
19
18
18
19
24
31
40
50
60
67
72
73
72
69
66
63
59
56
53
51
50
48
48
49
49
50
50
49
48
46
44
41
40
38
36
34
33
32
30
29
28
28
27
27
26
25
25
24
24
24
23
23
21
20
19
20
24
31
40
51
62
71
77
80
79
76
73
70
67
64
61
59
57
54
53
51
51
50
50
49
49
47
46
44
42
40
39
38
36
35
34
33
31
30
30
28
27
27
26
25
24
24
23
22
21
20
19
19
17
16
15
15
17
23
31
41
52
63
72
77
78
77
74
71
68
65
63
60
57
55
53
52
51
51
51
50
50
48
46
44
42
40
37
35
34
32
31
30
30
29
29
28
27
26
26
25
24
23
22
21
20
19
18
18
17
16
15
14
13
14
17
24
33
43
54
64
71
73
73
71
68
64
64
58
55
55
50
49
49
48
48
48
49
49
49
46
43
43
39
36
36
32
30
29
29
28
28
27
26
25
25
24
23
22
22
21
20
20
19
18
18
16
16
15
17
23
32
41
53
64
72
77
78
76
74
71
67
65
62
59
57
55
53
51
51
51
52
52
51
50
48
46
43
41
39
37
35
34
33
31
30
30
29
29
27
26
26
25
24
24
23
22
21
20
19
19
18
17
17
16
17
22
31
41
54
67
77
84
86
86
83
80
77
74
71
68
66
63
61
60
59
59
59
58
57
55
53
51
49
46
44
42
40
38
37
35
34
33
32
31
30
29
28
27
26
25
23
22
22
21
19
18
17
16
15
14
12
12
12
16
23
33
44
57
69
78
82
82
81
77
74
70
67
64
61
58
56
54
53
53
53
53
52
51
50
48
45
43
40
39
37
35
33
32
30
29
28
27
26
26
25
24
23
22
20
19
18
17
16
16
15
13
12
12
14
20
29
40
51
63
73
78
79
78
75
71
67
64
60
57
55
53
52
51
52
52
52
52
51
49
47
45
43
40
39
37
35
33
32
31
29
28
27
26
26
25
24
24
23
22
22
20
19
19
18
17
17
15
14
14
16
21
21
41
53
53
76
82
82
83
81
78
75
72
69
66
63
61
59
58
57
57
57
57
56
55
53
51
48
46
43
41
40
38
37
36
35
34
33
32
31
30
29
28
27
26
25
24
23
22
21
20
19
18
17
16
15
15
16
20
28
39
51
63
74
82
85
85
83
79
76
72
69
67
64
62
59
58
57
57
56
56
55
54
52
49
47
44
42
40
39
37
35
33
32
31
29
28
27
26
25
24
23
23
22
20
19
18
17
16
15
14
14
13
13
12
11
11
14
20
30
40
53
65
74
79
81
79
76
72
68
65
62
59
57
55
53
53
53
54
54
53
52
50
49
47
44
41
40
38
35
34
32
31
30
28
28
27
26
25
24
23
22
21
20
20
19
18
17
15
14
14
13
14
19
27
37
49
61
71
78
81
80
78
63
60
57
55
53
52
52
52
52
53
52
51
49
47
44
41
39
37
35
33
32
31
30
28
27
26
25
25
25
24
23
23
22
20
19
19
18
18
17
16
15
14
13
15
20
29
40
54
67
78
86
89
89
87
84
80
77
74
72
70
68
65
64
64
64
63
63
62
61
59
56
53
50
47
44
42
40
38
37
35
33
32
31
30
28
27
26
25
24
23
22
20
19
18
17
16
15
14
13
12
11
13
18
26
38
50
64
76
83
87
87
85
82
79
76
73
71
68
66
64
62
61
60
60
60
59
58
56
53
50
47
45
43
41
40
38
35
34
32
31
30
28
27
26
25
23
22
21
20
19
18
17
15
15
13
12
13
17
25
35
46
59
69
77
80
80
78
75
72
68
65
62
59
57
55
55
55
56
57
57
56
55
53
51
48
45
43
41
40
38
37
36
35
34
33
31
31
29
28
27
26
25
24
24
23
22
20
19
18
17
18
23
31
41
53
65
76
83
86
86
85
82
80
78
76
73
71
68
66
64
63
62
62
61
60
59
57
55
52
49
47
44
42
40
39
37
35
34
32
31
30
28
27
26
25
24
23
22
21
20
19
18
17
16
15
14
14
18
25
35
46
59
69
77
77
81
79
79
74
72
72
66
64
64
58
56
56
54
52
52
51
50
50
45
43
41
38
36
34
33
31
30
29
28
27
26
25
25
25
24
23
22
20
19
18
17
16
15
13
12
12
13
17
24
33
44
55
64
70
72
72
69
66
62
60
57
54
51
49
48
47
47
48
48
48
47
46
44
42
40
38
36
34
32
31
30
28
27
26
25
25
24
23
22
21
20
19
18
18
17
16
15
13
14
16
21
29
39
50
60
68
73
75
74
71
68
66
63
61
59
56
54
53
51
51
50
50
50
49
47
45
43
41
39
37
36
34
33
32
31
30
28
27
27
26
25
25
24
23
22
20
20
19
18
17
16
15
14
13
13
13
16
22
32
42
55
66
74
79
81
80
78
75
73
71
69
66
64
62
60
58
57
56
56
55
54
52
49
47
44
42
40
38
36
34
32
31
30
28
27
26
25
24
23
22
21
20
19
18
17
16
14
14
13
13
13
11
10
10
8
9
9
19
29
29
53
65
65
77
77
77
73
70
70
64
61
58
56
54
53
52
52
51
51
51
50
48
46
43
40
38
36
33
32
30
29
27
26
25
24
23
21
20
20
19
18
17
17
16
15
15
14
13
12
11
10
10
12
18
27
38
48
59
68
72
73
71
69
65
62
58
55
52
50
48
47
46
46
47
47
47
46
45
42
40
38
35
33
31
29
28
26
25
24
23
22
21
20
19
19
18
17
16
16
15
14
13
12
12
11
10
10
9
8
7
7
9
15
24
36
48
60
71
77
80
79
77
74
70
68
66
63
61
58
56
55
54
53
53
53
52
51
49
47
45
43
40
39
37
35
33
32
30
29
27
26
26
25
24
23
22
21
19
18
17
16
15
14
12
11
11
10
9
8
8
7
9
14
22
33
44
57
67
74
76
76
74
71
68
65
62
60
57
55
53
51
50
49
49
49
49
48
46
44
42
40
37
35
33
31
30
28
27
26
24
23
22
21
20
19
18
17
16
15
14
13
12
11
10
9
8
7
6
5
6
9
17
26
38
48
59
67
70
71
69
66
63
59
56
53
50
47
46
45
46
46
46
48
48
48
46
44
44
40
38
38
33
31
31
28
27
27
25
24
24
22
22
21
20
19
18
18
17
17
16
15
14
13
13
15
21
30
41
53
65
74
79
81
80
78
75
72
69
66
64
61
59
57
56
56
56
56
56
55
54
52
49
47
44
42
40
39
38
36
34
32
31
30
29
28
27
26
25
25
24
23
22
21
20
20
19
18
17
16
16
16
20
28
38
48
61
73
82
86
88
87
85
83
80
76
72
69
65
62
60
59
59
59
59
58
57
55
53
51
48
46
43
41
40
39
37
36
35
34
33
31
30
30
29
27
26
24
23
21
20
19
18
17
16
14
14
13
15
20
29
39
51
63
72
78
80
80
78
76
73
70
67
65
63
60
58
57
57
57
57
56
55
53
51
48
46
43
41
40
38
36
34
32
31
30
29
27
27
26
25
23
22
21
20
19
18
17
16
14
13
12
15
20
28
39
49
60
68
73
75
74
72
72
66
63
63
57
54
54
50
50
50
51
52
52
51
50
50
45
42
42
38
36
35
33
32
31
30
28
27
26
25
24
23
22
21
21
20
19
18
16
15
14
16
21
29
39
51
63
73
80
83
83
81
79
76
73
70
68
66
64
62
61
61
61
61
60
59
57
55
53
50
47
45
42
40
39
37
35
34
32
30
29
28
27
26
25
23
22
21
20
19
18
17
16
15
14
13
12
11
12
17
24
34
46
59
71
80
84
86
85
82
80
78
75
73
70
67
65
62
61
60
59
58
57
56
54
51
49
46
42
40
38
35
33
31
30
29
28
27
26
25
24
22
21
21
20
18
17
16
15
14
12
11
9
8
7
8
11
18
29
40
53
65
74
79
80
79
77
73
70
67
64
61
59
57
56
55
55
55
54
54
53
51
49
46
43
41
39
36
34
32
30
28
26
25
24
23
21
21
19
18
17
16
15
14
12
11
10
8
8
10
15
24
35
47
60
71
78
81
81
80
77
74
71
67
64
61
59
57
56
55
55
55
54
54
53
51
48
45
42
40
37
35
33
32
31
29
27
25
24
23
22
21
20
19
18
16
15
14
14
12
11
11
9
8
8
7
7
7
13
21
21
45
59
59
80
85
85
85
83
80
78
75
73
71
68
65
63
62
61
60
59
59
57
55
53
50
47
44
41
39
37
35
33
31
29
28
26
25
24
23
21
20
18
17
16
15
14
12
11
10
9
8
7
6
5
4
4
6
12
22
34
47
61
72
79
82
82
80
77
74
71
68
65
62
59
57
56
55
55
54
54
54
52
50
48
45
42
39
37
34
32
30
29
27
26
24
23
21
20
19
18
17
16
15
14
13
12
11
9
8
9
11
18
27
39
51
62
71
77
78
77
74
70
67
64
60
57
54
51
50
49
50
50
51
51
50
48
46
43
40
38
35
33
31
29
27
26
25
24
23
22
21
20
19
19
17
17
16
14
14
13
11
11
12
16
23
34
46
60
71
81
85
86
85
82
79
76
73
71
68
66
64
63
62
61
61
61
59
58
56
54
52
49
46
44
41
40
38
37
36
35
33
33
31
30
30
27
26
25
24
23
23
21
19
19
17
17
17
27
36
46
58
70
78
83
85
84
82
79
77
74
71
68
66
63
61
60
59
58
57
56
55
53
50
47
45
43
41
39
38
36
33
32
30
29
28
27
26
25
24
23
23
22
21
19
18
17
16
14
13
14
17
23
32
42
53
64
71
75
75
73
71
68
65
62
60
57
55
53
52
51
51
51
51
51
49
47
45
42
40
38
36
34
33
31
30
29
27
26
25
23
23
22
21
20
19
18
17
16
15
15
18
23
31
41
52
62
70
74
75
74
72
69
66
63
60
57
55
53
52
52
52
52
52
52
50
48
46
43
40
38
36
35
33
32
31
29
29
28
27
26
25
24
23
22
21
20
20
19
18
17
15
15
14
15
19
26
37
48
60
71
78
81
82
80
78
76
73
71
69
67
64
62
60
59
59
59
58
57
56
54
51
48
46
44
41
40
38
37
35
33
32
30
29
28
26
25
24
22
22
21
19
18
17
16
15
14
13
13
12
12
11
10
11
15
22
33
44
56
68
76
80
80
79
77
74
72
70
67
65
62
60
58
57
56
56
55
54
53
52
52
46
44
44
39
37
37
34
32
32
30
28
28
25
23
23
21
21
21
18
17
16
15
14
13
12
11
10
9
8
7
7
9
15
23
35
46
59
69
76
78
78
75
72
69
66
63
60
57
55
53
52
52
52
52
52
51
50
47
45
42
40
37
35
32
31
29
28
26
25
24
23
22
22
20
19
18
16
15
15
14
12
12
11
10
9
8
7
9
14
22
33
46
58
69
76
79
78
76
72
69
66
63
60
57
54
53
52
51
51
48
46
44
40
38
35
33
30
28
26
25
24
23
21
21
19
18
17
15
15
14
13
12
11
11
10
9
8
8
6
5
5
5
8
14
24
37
51
64
75
82
84
84
81
78
74
72
69
66
64
61
58
56
55
54
54
54
53
51
49
47
45
42
40
37
35
33
31
29
27
26
25
23
22
21
20
19
17
16
15
14
13
12
11
10
9
8
6
6
5
4
4
3
3
4
8
16
16
41
56
56
79
84
84
84
81
81
74
71
71
65
62
62
58
56
56
55
54
54
53
52
50
47
45
42
40
37
35
33
31
29
28
26
25
24
22
21
20
19
18
16
15
14
13
12
10
9
8
7
6
6
5
3
2
2
2
6
14
25
38
50
62
71
76
76
74
70
66
63
59
56
53
50
48
46
45
45
44
44
44
43
41
40
38
35
32
29
27
25
23
21
20
19
17
16
16
15
14
13
12
12
11
10
10
9
8
7
6
5
4
2
2
2
5
11
20
31
42
53
61
65
65
63
60
56
53
49
46
44
41
40
39
38
38
39
39
40
39
38
36
33
31
29
26
25
23
22
21
20
19
18
17
17
16
16
15
14
13
13
12
11
11
10
10
9
8
8
7
6
6
9
15
24
35
46
57
66
71
73
72
69
67
64
61
58
56
54
53
51
50
50
50
50
50
49
48
46
44
42
40
38
36
34
33
32
31
30
29
28
28
27
27
26
25
25
24
23
22
21
20
19
18
17
16
15
15
14
12
12
13
16
22
32
42
54
64
71
76
76
74
72
70
67
64
62
60
59
57
55
54
53
53
52
52
51
51
48
46
46
41
40
40
36
34
34
31
30
30
28
27
27
25
25
25
23
23
22
21
19
19
18
17
16
15
14
13
13
13
15
19
27
37
47
58
67
72
74
73
71
67
64
62
59
57
55
53
51
50
51
51
52
52
51
50
49
46
44
41
40
38
36
35
34
33
32
31
30
29
28
28
26
25
24
24
23
22
22
22
21
20
19
18
19
23
30
38
48
58
67
73
75
75
73
70
67
64
61
59
57
55
53
52
52
52
52
53
52
52
50
48
46
44
42
40
38
36
35
34
33
32
31
30
30
29
28
27
26
25
24
23
22
22
21
19
19
18
17
17
17
20
26
35
45
57
68
77
81
82
81
79
77
74
72
70
67
65
63
61
60
59
58
58
57
56
54
52
50
47
45
43
40
39
37
36
34
33
32
31
31
30
29
28
27
27
26
25
24
23
21
20
20
19
18
17
17
16
15
15
16
21
29
40
51
63
73
79
82
82
80
80
75
72
72
67
65
65
61
59
59
58
57
57
55
54
54
50
48
48
42
40
38
36
35
34
32
31
30
30
29
28
26
25
24
23
22
21
20
18
17
16
15
15
14
13
13
17
23
32
43
54
66
74
78
79
77
74
71
68
65
62
59
57
55
54
53
54
54
53
53
52
50
47
45
42
40
38
36
34
32
30
29
27
26
25
23
22
22
21
19
18
17
16
16
14
13
12
11
10
11
15
22
32
43
54
63
70
72
72
70
66
63
59
56
53
50
48
46
45
45
45
46
46
45
44
43
40
38
35
32
30
27
25
24
23
21
20
19
18
17
16
15
15
14
14
13
12
11
9
8
7
9
13
21
31
42
54
63
70
72
72
69
65
62
59
56
52
50
48
45
44
44
44
44
44
44
43
42
40
38
35
33
30
28
26
25
24
23
22
22
21
20
19
18
17
17
16
16
15
14
14
13
12
13
16
24
34
45
58
69
77
81
82
80
78
75
73
70
68
65
63
60
58
57
56
55
55
54
53
52
50
48
45
43
40
39
36
35
33
32
31
30
29
28
27
26
25
24
23
23
22
21
20
19
18
17
16
16
16
13
14
14
26
37
37
62
74
74
86
86
86
81
78
78
73
70
70
65
63
61
60
59
59
58
57
56
54
52
50
48
45
43
41
40
38
37
36
34
33
32
31
30
29
28
27
26
25
23
23
21
20
19
18
17
16
16
15
14
16
21
29
40
52
64
74
80
82
81
79
75
72
69
66
63
60
58
56
54
53
52
51
50
50
49
46
44
41
39
37
35
33
32
30
28
27
26
25
24
23
22
22
20
19
18
17
16
15
14
13
13
12
10
9
9
10
15
23
33
44
55
65
70
72
71
68
64
60
57
53
50
47
44
42
41
41
41
42
42
42
41
40
37
34
32
29
26
25
23
22
21
21
20
19
18
18
17
17
16
16
15
14
14
13
12
11
10
11
15
21
31
42
54
65
72
75
75
73
69
65
61
57
54
51
48
46
45
44
45
46
46
46
45
44
42
40
38
36
33
31
29
28
26
25
25
24
23
23
22
21
21
20
19
19
18
17
17
16
15
15
14
13
13
12
14
14
28
39
39
65
76
83
86
85
83
80
76
72
69
66
63
61
60
58
57
57
57
57
56
55
53
51
49
46
43
41
40
38
36
35
34
33
32
31
30
30
30
29
28
26
25
24
23
22
22
21
19
19
18
17
16
16
18
24
34
45
58
70
78
83
84
82
78
74
71
67
64
61
58
56
55
54
54
54
54
54
53
51
49
47
44
41
39
37
35
33
32
30
29
28
27
27
26
25
25
24
24
23
22
21
20
19
17
16
15
15
18
24
33
42
54
64
72
77
77
75
72
68
64
60
56
53
51
49
49
49
50
51
51
51
50
49
47
45
42
40
38
37
35
34
33
32
32
31
30
29
28
27
27
26
25
25
24
23
22
21
20
21
26
34
43
55
67
77
83
86
85
83
79
76
72
69
66
64
62
60
59
60
61
61
60
59
57
56
53
51
49
46
44
42
40
40
38
37
36
35
35
33
32
31
31
30
28
27
26
25
24
24
23
22
21
21
23
28
37
48
60
73
83
90
93
93
90
87
84
81
78
75
72
70
68
67
66
65
65
65
64
62
62
57
55
55
50
48
48
43
42
42
40
38
38
35
33
33
31
30
29
28
26
25
24
23
22
21
20
19
18
17
16
18
23
31
41
53
66
77
84
87
87
85
82
79
76
72
69
66
64
62
61
60
60
60
59
58
56
54
52
49
46
43
41
40
37
36
34
33
32
30
30
29
27
26
25
24
22
21
21
19
17
16
14
13
14
17
24
33
44
56
67
75
79
80
78
75
71
66
62
58
55
53
52
51
52
52
53
53
53
53
51
49
46
43
40
38
36
34
32
31
29
27
26
25
24
23
22
22
22
20
19
18
17
16
14
14
16
22
31
41
54
66
77
83
86
86
84
81
78
74
70
67
65
62
61
61
61
61
62
61
61
59
57
54
51
48
45
42
40
39
37
35
34
33
31
30
30
29
28
28
26
25
24
23
22
21
21
20
18
17
17
20
26
35
47
60
74
84
91
94
94
92
90
87
85
82
79
77
74
72
71
70
70
69
69
67
65
65
50
48
48
45
44
44
41
40
40
39
38
38
36
36
36
34
34
33
32
32
31
30
30
29
28
27
27
26
25
25
27
31
36
41
47
54
58
61
61
61
60
58
57
55
54
53
51
50
49
49
48
48
48
48
47
46
45
43
42
40
40
39
37
36
36
35
34
33
32
32
31
31
30
29
29
29
28
28
27
26
25
25
25
26
29
33
39
44
49
54
56
57
56
55
53
51
50
48
47
45
45
44
44
44
44
44
44
43
42
40
40
39
37
36
35
33
32
32
31
31
30
30
29
29
29
28
28
27
27
26
26
26
25
25
24
24
24
25
28
33
38
43
49
54
56
57
56
55
54
53
51
50
49
48
47
46
45
45
45
44
44
44
43
42
41
40
39
38
37
36
36
35
34
33
33
32
31
31
31
30
30
29
28
28
27
26
26
25
25
25
24
24
23
23
23
25
28
33
38
43
48
52
54
55
54
53
52
51
50
48
47
47
46
45
44
44
43
43
43
42
41
40
40
38
37
36
35
34
34
33
32
32
31
30
30
30
29
29
28
28
28
27
27
26
26
25
25
24
23
23
23
23
25
29
29
39
43
43
51
52
52
51
59
59
53
50
50
45
43
43
40
41
41
42
42
42
41
40
37
35
32
25
24
23
22
21
20
18
17
16
16
15
15
14
13
12
11
9
8
8
10
15
23
32
42
52
60
64
66
65
62
59
55
53
50
47
45
44
43
43
43
44
45
44
44
42
40
38
36
34
32
30
29
26
25
24
23
22
22
21
20
19
18
17
16
16
15
14
13
12
11
10
9
8
8
11
17
27
38
50
61
69
73
73
72
69
66
63
60
58
55
53
51
50
49
48
48
48
47
46
45
43
41
40
37
35
32
31
29
27
26
25
25
24
23
23
21
20
20
19
18
17
16
15
14
13
13
12
12
11
11
10
10
11
16
23
32
42
54
64
70
73
73
71
68
66
63
61
59
56
54
52
50
50
49
49
49
48
47
45
43
42
40
39
36
34
33
31
30
29
27
27
26
25
24
23
23
22
21
20
19
18
17
17
17
15
14
14
13
12
12
13
18
18
35
45
45
65
70
70
72
70
70
64
61
58
56
53
52
51
50
50
50
50
50
49
48
46
44
41
40
37
35
33
32
31
30
29
28
28
27
26
26
25
24
23
22
21
21
19
18
17
16
16
17
22
29
38
48
58
65
70
71
69
67
63
60
56
53
50
47
45
44
44
44
45
45
45
45
44
42
40
38
36
33
32
30
29
28
27
27
26
26
25
24
24
22
21
21
20
20
19
18
18
16
15
15
17
22
31
41
52
63
71
76
78
77
74
72
69
66
63
60
58
57
55
54
54
55
55
54
53
51
49
47
44
42
40
38
36
35
34
33
32
31
31
30
29
28
28
27
25
24
24
23
22
21
21
19
18
17
16
16
19
24
33
42
53
64
72
76
77
76
74
71
69
66
64
62
59
57
55
54
54
53
53
52
50
49
47
44
41
40
38
36
34
33
31
30
29
28
27
26
25
24
23
22
21
20
19
17
16
16
15
14
14
14
13
12
11
10
10
13
20
29
39
49
59
65
68
68
66
64
61
58
56
54
51
49
47
46
45
44
44
43
42
41
40
38
36
34
32
32
29
28
28
26
25
25
24
23
23
21
20
20
18
17
17
15
15
15
13
12
11
11
11
14
20
28
38
47
56
62
64
64
61
58
55
51
48
45
43
41
40
40
40
40
41
41
40
40
38
35
33
31
29
28
27
26
25
24
23
22
21
21
21
20
19
19
19
19
18
18
17
16
15
14
14
16
22
30
40
50
59
67
70
70
69
66
63
60
57
54
52
50
48
47
46
46
45
45
45
44
42
40
38
36
33
32
30
29
28
27
27
27
27
26
25
25
24
23
23
22
22
21
20
19
19
18
17
16
15
15
15
19
25
34
44
56
67
74
78
77
76
73
71
68
66
64
62
59
56
54
53
53
52
52
52
51
50
48
45
43
40
39
37
35
34
33
31
30
29
28
28
28
28
26
25
25
24
23
22
22
21
20
19
19
18
17
17
16
15
16
19
26
35
45
57
67
74
77
77
75
72
69
66
65
62
60
58
55
53
52
52
50
50
48
47
45
45
41
39
39
35
34
34
31
30
30
29
28
28
26
25
25
24
24
23
23
22
21
20
19
19
18
17
16
15
14
14
16
20
28
38
48
58
66
70
71
69
65
62
58
55
52
49
47
44
43
42
42
42
42
42
41
40
39
36
34
32
30
28
27
26
25
24
23
23
22
22
21
21
20
19
19
18
18
17
17
16
15
14
13
13
14
19
28
38
48
59
67
71
72
70
67
63
59
56
53
50
47
45
44
43
43
43
44
44
43
42
40
39
37
34
32
30
29
27
26
26
25
24
24
24
24
23
22
22
22
21
21
20
19
18
18
18
17
16
16
15
15
17
20
27
37
48
59
69
76
78
77
74
71
67
64
61
59
57
55
52
50
49
48
47
47
47
46
45
43
41
40
38
37
35
34
33
32
31
30
29
28
27
27
26
25
24
24
23
22
21
20
20
19
18
18
17
17
16
15
15
17
23
31
41
53
64
72
77
77
75
72
68
65
62
59
56
54
52
50
49
49
49
49
48
48
46
44
42
40
39
37
35
34
33
32
31
30
30
29
28
27
26
26
25
25
24
24
23
22
21
20
19
19
20
20
28
36
36
55
64
64
72
71
71
65
61
61
53
50
50
45
44
44
45
46
47
48
47
46
45
43
41
39
38
36
35
34
33
32
31
30
30
29
28
27
27
26
25
25
25
24
24
23
22
21
21
21
25
32
40
51
62
71
77
80
79
77
74
71
67
65
62
60
57
56
54
54
54
54
53
53
51
50
48
45
43
41
40
38
37
36
35
33
32
32
31
31
30
29
29
28
27
27
26
25
25
24
23
22
21
21
21
23
29
38
47
58
68
76
80
81
79
77
74
72
69
67
65
63
61
59
57
56
56
56
55
54
53
51
48
46
44
42
40
39
38
37
35
34
33
33
32
31
31
30
30
29
28
27
27
26
25
24
23
22
21
20
19
20
23
30
39
48
59
68
74
76
76
74
71
68
65
62
60
58
56
55
54
53
53
54
54
54
53
51
49
47
45
43
41
40
39
38
36
36
35
34
34
33
32
31
31
30
29
27
27
25
23
23
22
24
24
34
41
41
60
67
67
72
71
71
66
63
63
58
55
53
51
50
50
51
51
51
51
50
49
46
45
43
41
40
38
37
36
35
34
33
32
31
30
29
28
27
26
26
25
24
23
22
21
20
19
19
20
24
31
40
51
62
71
77
79
79
77
74
72
69
67
65
63
62
60
59
58
57
57
56
56
55
53
51
49
46
44
42
41
40
39
38
37
36
35
34
33
32
31
30
29
27
26
26
25
24
24
24
23
22
21
20
20
20
24
30
39
49
60
70
77
80
80
79
76
74
72
70
67
65
63
62
60
58
57
56
55
54
53
51
49
47
45
43
41
40
38
36
35
34
32
31
31
30
29
28
27
26
25
24
24
23
22
21
20
19
18
17
16
18
23
31
40
51
61
69
74
75
75
73
70
67
65
62
59
57
55
55
54
54
55
55
54
52
50
48
46
44
42
40
39
37
36
34
33
31
30
29
28
27
27
26
25
24
24
22
21
20
19
18
17
16
16
19
25
34
44
55
66
74
78
79
78
75
72
70
67
64
62
60
58
57
56
56
56
55
55
54
53
51
48
45
43
41
40
38
36
35
34
34
32
30
30
28
27
27
25
24
24
22
21
21
18
16
16
15
14
14
13
13
12
11
12
16
24
34
46
58
70
78
83
84
83
80
77
75
72
70
68
66
64
61
60
60
59
59
58
57
55
53
50
47
45
43
41
40
38
37
35
34
32
31
29
28
26
25
24
22
21
20
19
18
17
16
15
14
13
11
11
12
16
23
34
45
57
68
75
78
78
76
73
70
67
64
61
58
56
54
53
52
52
52
52
52
51
49
47
44
42
40
37
35
33
31
30
28
26
25
24
22
21
21
20
19
18
17
16
15
13
12
10
9
8
8
10
15
24
34
45
56
66
71
73
72
70
67
63
59
55
52
50
47
46
47
48
49
50
50
50
48
46
43
40
37
34
31
29
27
26
24
23
22
22
21
20
19
19
18
17
16
15
14
14
17
23
31
40
51
62
70
75
76
75
73
70
67
63
60
57
55
53
52
52
53
54
54
54
53
51
49
49
43
41
41
36
34
34
31
30
30
28
28
28
26
25
25
23
21
21
22
26
33
41
52
64
74
81
85
86
85
82
80
78
75
72
69
66
63
62
61
61
61
60
59
57
55
52
49
46
43
41
39
37
35
33
31
29
28
27
26
24
24
22
21
20
19
18
17
16
14
14
17
23
33
44
57
69
78
83
85
85
83
81
79
76
74
72
69
66
63
62
60
59
58
57
56
53
51
48
45
42
40
37
35
33
31
30
28
27
26
25
23
22
21
19
18
17
16
15
14
13
12
10
9
8
7
7
10
16
26
38
50
62
72
78
79
79
77
75
72
70
68
66
64
61
59
57
55
54
53
52
51
49
47
45
42
40
38
36
33
32
30
29
27
26
25
23
22
21
21
19
18
17
15
14
13
12
11
10
9
8
7
6
5
6
9
17
28
39
51
62
69
72
72
70
68
65
63
60
57
49
48
47
46
45
43
41
40
37
34
32
30
27
25
24
23
22
21
20
19
18
17
17
16
15
14
14
13
12
11
10
9
8
7
6
5
4
4
6
10
18
28
40
51
61
67
68
68
65
61
57
53
50
47
45
42
41
41
40
41
41
41
40
40
37
35
35
28
25
25
21
19
19
18
17
17
16
15
15
14
14
13
12
12
11
10
10
9
8
7
6
8
12
20
30
41
52
62
68
69
69
66
62
58
54
50
47
45
43
42
42
42
43
44
44
44
42
41
39
37
34
32
30
28
26
25
24
23
22
22
21
20
19
19
18
18
17
16
15
14
14
13
12
11
10
9
9
8
9
14
21
32
44
57
69
77
81
81
79
76
73
69
67
64
61
58
55
54
53
53
52
52
52
51
50
48
45
42
40
38
36
34
32
31
29
28
28
27
26
25
25
24
23
22
21
21
20
19
18
17
16
16
15
14
13
13
12
11
11
12
16
24
35
47
60
72
80
84
84
82
78
74
70
67
64
61
59
57
55
54
53
53
52
52
51
50
48
46
44
41
40
38
36
34
33
32
31
29
28
27
26
25
24
23
22
21
19
18
18
17
16
15
14
13
13
12
11
10
9
10
14
14
32
44
44
69
76
76
80
77
77
69
65
65
58
55
55
50
49
49
48
49
50
49
48
47
46
43
41
39
36
33
31
29
27
26
25
24
23
22
22
21
20
20
19
19
18
18
17
16
14
13
12
11
10
13
18
27
37
49
60
69
74
75
73
69
65
60
56
51
47
45
43
42
42
43
45
46
47
47
46
44
42
40
38
35
33
31
29
27
26
25
25
24
24
24
23
23
22
22
21
21
20
18
17
16
17
22
29
39
50
62
72
79
81
81
79
75
72
68
65
61
58
56
54
53
53
54
54
55
55
55
53
51
48
46
43
41
40
39
37
36
35
34
34
33
32
31
30
29
28
28
27
26
25
24
23
21
21
23
29
39
49
62
73
82
87
88
87
85
82
79
77
74
72
69
67
64
63
63
62
62
62
61
60
58
56
54
51
48
46
44
42
41
40
39
38
36
35
34
32
31
30
29
28
27
25
25
24
23
22
21
20
19
20
23
30
39
50
63
75
84
88
90
89
87
84
81
79
76
74
72
70
68
66
66
65
65
64
63
62
59
57
54
51
49
47
45
42
40
40
38
37
35
34
33
31
30
29
27
26
25
25
22
22
20
19
18
18
16
16
16
24
32
32
54
65
65
80
82
82
79
76
76
70
67
65
62
60
58
58
58
58
58
57
56
54
52
50
47
45
42
40
39
37
36
34
33
32
31
29
28
27
25
24
23
22
21
19
18
16
15
14
13
13
16
22
31
41
52
63
71
75
76
75
72
69
65
61
58
54
51
49
48
48
49
50
51
51
50
48
45
42
40
37
35
33
31
29
28
27
26
25
24
23
22
21
21
20
19
19
18
17
16
14
13
13
16
24
33
44
56
67
75
79
79
77
74
71
68
64
61
58
55
53
52
52
53
53
53
52
50
49
46
43
40
38
36
33
32
30
28
27
26
25
24
23
22
21
20
19
18
17
16
15
14
13
13
12
11
10
9
11
17
26
38
50
64
75
82
85
85
84
81
79
77
74
72
69
67
64
62
61
60
60
59
59
58
55
53
50
47
44
42
40
38
36
34
32
30
29
27
27
26
25
24
23
22
21
21
18
17
17
15
13
13
12
11
11
9
12
12
29
40
40
66
76
76
85
84
84
79
76
73
70
67
65
63
61
59
59
59
59
58
57
55
53
50
47
45
42
40
39
37
35
33
32
30
29
27
26
25
24
23
22
21
19
18
17
15
14
13
11
11
13
17
25
36
48
60
70
77
81
80
78
75
71
67
63
59
56
54
52
51
52
53
54
54
53
52
49
46
43
40
38
35
33
31
30
28
27
26
24
23
22
21
20
19
19
18
17
16
15
13
12
13
15
22
32
43
56
68
77
82
84
83
81
78
75
71
68
65
63
61
60
60
60
60
59
58
57
55
52
49
46
44
41
39
37
35
34
32
31
30
29
28
27
26
24
23
22
21
20
19
18
16
15
15
17
24
33
45
58
71
80
87
90
90
89
87
85
82
80
77
74
72
70
68
68
67
67
66
64
62
60
57
54
51
48
45
42
40
39
38
36
34
33
31
29
28
26
25
24
23
22
21
19
18
16
16
19
25
34
45
57
69
79
85
87
87
86
84
81
79
76
73
70
67
65
64
63
62
61
60
58
55
52
49
46
43
40
38
35
33
31
29
28
27
25
24
23
21
20
20
17
16
16
13
11
11
9
11
11
24
35
35
58
68
68
77
77
77
73
70
70
63
60
56
54
53
52
52
53
52
51
50
48
45
41
39
36
33
31
29
27
25
24
22
21
20
18
18
17
16
15
14
12
11
11
12
17
25
35
46
57
66
72
75
75
74
71
68
65
61
57
54
52
51
50
51
51
51
50
49
46
44
40
38
35
32
30
27
26
24
23
21
20
19
18
17
16
15
15
13
12
11
10
8
9
12
19
29
40
53
65
74
80
81
81
80
78
76
74
71
67
65
62
59
58
56
56
55
53
52
49
47
44
41
39
36
34
32
30
28
26
25
24
23
22
21
20
19
18
16
15
13
12
10
9
8
10
15
24
34
46
57
68
74
77
77
76
73
70
67
64
61
58
55
53
51
49
49
48
47
45
44
41
39
37
34
31
29
26
24
23
21
19
18
17
16
15
13
13
12
11
10
9
7
6
4
3
4
7
14
24
36
48
59
67
72
73
71
68
68
61
57
57
51
48
48
45
45
45
45
44
44
41
39
39
33
31
31
26
24
22
21
19
17
16
14
13
12
11
10
10
9
8
7
6
5
4
6
11
19
29
41
53
64
70
73
74
72
69
65
61
58
54
51
48
47
46
46
47
47
47
46
44
42
40
37
33
31
28
26
24
22
21
20
18
17
16
15
14
14
13
12
11
10
9
8
7
6
6
9
17
27
40
53
66
76
81
82
81
79
76
73
70
67
63
60
58
56
54
53
53
52
51
50
48
46
43
40
38
35
33
31
29
27
25
23
22
20
19
18
17
15
14
13
12
10
9
8
7
5
3
2
3
8
17
28
41
54
66
73
77
77
75
72
69
65
62
58
55
52
50
48
47
47
47
46
46
44
43
40
38
35
33
30
28
26
25
23
22
20
19
18
17
16
15
14
13
12
11
10
9
7
6
5
7
13
22
33
45
57
66
72
75
73
70
67
62
58
54
50
47
45
45
45
46
47
48
47
46
45
43
40
38
35
32
30
28
26
24
23
22
21
20
19
18
17
16
15
15
14
13
11
10
10
12
18
28
40
52
65
75
82
84
84
82
79
75
71
67
64
61
58
56
56
56
56
56
55
54
54
50
47
47
41
39
39
35
32
32
29
27
27
25
24
24
23
22
21
20
19
19
18
17
16
15
14
13
15
20
29
41
55
69
81
89
93
93
92
89
86
83
80
77
74
70
68
66
65
64
64
63
62
60
58
55
52
49
45
42
40
38
36
34
32
31
29
27
26
25
23
22
20
19
17
16
15
14
13
12
11
9
9
9
12
18
29
41
55
69
79
86
88
87
85
81
77
73
70
66
63
61
59
59
58
58
58
57
55
54
52
49
46
43
40
38
36
34
32
30
28
26
24
23
21
20
19
19
18
17
16
15
14
13
11
10
11
14
21
31
42
56
68
77
82
84
83
80
76
71
67
63
59
56
54
53
53
54
54
55
54
53
50
47
44
41
39
36
33
30
28
25
24
22
21
20
19
18
17
16
15
14
14
13
12
12
11
10
8
7
8
11
18
29
42
57
72
85
92
96
96
94
91
88
62
60
59
57
55
54
54
53
53
53
53
52
52
52
49
47
47
44
42
42
40
39
39
37
36
36
35
34
34
33
32
32
31
30
29
29
28
27
27
26
25
25
25
27
31
36
42
50
57
63
66
67
67
66
64
63
61
59
57
55
54
52
52
51
51
50
50
49
48
46
45
43
42
40
39
38
37
35
34
33
33
32
31
31
30
30
29
28
27
25
25
24
23
22
23
25
29
35
41
48
55
60
63
63
63
61
59
57
55
53
51
49
49
48
47
47
48
48
48
47
46
46
43
42
42
39
38
38
36
35
35
33
32
32
31
30
30
29
29
28
28
27
26
26
25
27
31
36
42
49
55
61
64
66
65
64
62
60
58
56
54
52
51
50
50
50
50
50
49
49
48
46
45
43
41
40
39
38
37
36
35
34
34
33
32
32
31
30
30
29
29
28
28
27
27
26
26
26
28
32
38
44
52
60
66
69
71
71
71
69
68
66
65
63
61
60
58
57
57
57
56
55
54
53
51
49
48
46
44
42
41
40
39
38
37
36
35
34
33
32
31
31
30
29
28
28
27
26
25
24
24
23
23
24
28
33
40
47
55
61
66
68
69
68
67
66
64
62
60
58
57
56
55
54
54
54
54
52
51
51
48
46
46
42
40
40
38
37
37
34
34
34
32
32
32
30
30
29
28
27
26
25
25
25
26
29
34
40
47
53
59
63
65
65
64
62
60
58
55
53
51
50
49
49
49
49
49
49
48
47
45
43
41
40
39
37
36
34
33
32
31
31
30
29
28
28
27
27
26
25
24
23
22
22
24
28
34
40
48
56
62
67
69
69
69
68
66
65
63
61
58
57
55
54
54
53
53
52
51
50
48
46
44
42
40
39
38
36
35
34
33
33
32
31
31
30
29
29
28
27
27
26
25
24
24
25
27
32
38
45
54
61
67
71
72
73
73
72
71
69
67
65
63
61
60
59
58
57
56
55
54
52
50
48
46
44
42
41
40
39
38
36
35
35
33
32
31
30
29
28
27
27
26
25
24
23
22
22
24
27
33
40
47
55
62
66
69
69
69
68
66
64
62
60
58
56
54
53
53
52
51
51
49
48
46
44
42
40
39
37
36
35
33
32
31
30
30
28
28
28
26
26
26
24
23
23
21
21
21
26
31
31
45
52
52
62
64
65
64
63
61
58
55
53
50
48
47
47
47
47
47
46
45
44
42
40
39
37
35
34
33
31
30
29
28
27
27
26
25
25
24
23
23
22
21
21
22
25
30
37
44
52
60
65
68
69
69
67
66
63
61
59
57
55
53
52
51
51
51
50
49
48
46
44
41
40
38
36
35
33
32
31
30
29
28
27
26
26
25
25
24
24
23
22
21
21
20
19
20
23
27
35
43
52
60
67
70
72
72
71
70
68
67
65
62
60
58
55
54
53
52
51
50
48
47
45
43
40
39
37
35
33
32
30
29
28
27
26
25
24
23
22
21
20
20
19
18
18
17
16
15
14
15
17
22
28
36
45
53
60
63
65
65
64
62
60
58
55
53
50
48
47
46
45
45
45
44
43
42
40
39
37
34
33
31
29
28
27
26
25
25
24
23
23
22
21
21
20
19
19
18
17
16
16
16
18
22
29
37
44
52
57
61
62
61
59
57
55
52
49
47
45
43
42
42
42
42
42
42
41
40
39
37
35
33
31
30
28
27
26
25
24
23
23
22
21
21
20
20
19
18
18
17
17
16
17
17
26
33
33
49
57
57
64
64
64
62
59
59
55
52
52
48
46
46
44
44
44
43
43
42
40
40
38
36
34
32
31
29
28
27
26
25
24
24
23
23
22
22
21
21
20
20
19
19
18
18
17
17
19
23
30
38
46
55
62
67
69
69
68
66
64
62
60
58
55
53
52
50
49
48
48
48
47
46
44
42
40
39
37
35
34
33
31
30
29
28
27
26
26
25
24
24
23
22
22
21
21
20
19
19
18
17
17
19
23
29
37
45
53
61
65
67
67
66
64
62
59
57
55
52
50
49
48
47
47
47
46
46
45
44
42
40
39
38
36
34
33
31
30
29
29
28
27
26
25
25
24
23
23
22
22
21
20
20
19
19
21
25
30
38
45
52
58
62
63
62
60
58
55
52
49
46
44
43
42
42
42
42
42
42
42
41
40
38
36
34
32
31
29
28
27
26
24
23
23
22
21
21
20
20
19
18
17
16
16
17
20
25
32
39
46
52
55
57
56
56
52
50
50
45
42
42
40
39
39
39
40
40
40
40
40
38
37
37
33
31
30
29
27
27
26
25
24
24
24
23
23
23
22
22
21
21
20
21
23
27
33
39
46
53
57
59
60
58
57
55
53
50
48
46
44
43
42
42
42
42
42
42
41
40
40
39
37
35
34
33
31
30
30
29
28
27
27
26
26
25
25
25
24
24
23
22
22
22
25
29
35
41
47
53
57
58
58
57
55
53
52
50
48
47
45
44
43
43
42
42
42
41
41
40
40
38
37
35
34
33
32
31
30
30
29
29
28
28
27
27
26
26
26
25
25
24
24
23
22
22
24
27
31
37
43
49
54
56
57
57
55
54
52
50
49
47
46
45
44
43
42
42
42
42
41
41
40
39
38
37
35
34
33
32
31
31
30
29
29
28
28
27
27
26
26
26
25
25
24
24
23
22
22
23
25
29
35
40
45
50
53
54
54
52
51
49
47
45
43
42
41
40
40
40
40
40
40
40
40
39
38
36
35
34
33
32
31
30
30
29
29
28
28
28
28
27
26
26
26
25
25
25
24
24
23
24
25
29
34
39
44
49
52
54
54
52
62
58
54
50
47
44
42
41
40
40
41
41
42
42
40
39
39
35
32
32
28
26
26
22
21
21
19
18
18
16
15
15
14
13
12
12
12
10
10
9
8
6
5
6
8
14
23
35
46
59
68
73
74
73
70
66
63
59
56
53
50
48
46
45
46
46
47
47
47
46
44
42
40
38
36
33
31
29
27
26
25
24
23
23
22
21
20
19
18
17
16
16
15
14
13
12
11
10
9
10
13
20
30
42
55
66
74
78
78
76
72
68
65
61
57
54
52
50
49
49
49
49
49
49
48
47
44
41
39
37
34
32
30
28
26
25
24
23
22
21
21
19
18
18
17
16
16
15
14
13
13
11
10
10
13
19
28
40
51
63
71
76
77
75
71
67
63
58
54
50
48
46
45
45
46
47
48
48
47
46
43
41
39
36
34
32
30
29
27
26
25
24
23
22
21
20
20
19
19
18
17
16
14
14
14
18
25
34
45
58
69
78
82
83
81
78
74
70
66
62
59
57
55
54
54
55
56
56
56
55
53
51
48
48
43
41
41
38
36
36
32
31
31
27
26
26
25
24
24
23
22
22
20
19
18
17
18
22
29
40
52
66
78
88
93
94
93
91
88
85
81
78
75
72
69
67
66
66
66
66
65
64
62
60
58
55
51
48
45
43
41
40
38
36
35
33
32
31
30
29
28
27
26
25
24
23
22
20
19
17
18
21
29
39
51
65
78
87
93
95
94
92
88
85
82
79
76
73
70
67
66
65
65
65
64
63
61
59
56
52
49
46
43
40
39
36
34
33
31
29
28
27
26
25
24
23
22
20
19
18
16
15
13
14
18
26
37
48
62
74
82
86
87
85
82
78
74
70
66
62
59
57
56
56
57
57
57
57
55
52
49
46
43
40
39
36
33
31
29
27
26
24
23
22
21
20
19
18
17
16
15
13
11
12
15
22
32
43
57
70
80
86
88
87
85
82
79
75
71
67
64
62
60
59
59
60
60
58
56
54
52
48
45
42
40
37
35
33
31
30
28
27
25
24
23
22
21
19
18
17
16
15
14
13
11
10
11
15
23
35
48
64
78
89
95
98
97
95
92
89
86
61
59
58
56
55
54
54
53
52
52
51
50
48
46
45
43
42
40
40
39
38
36
36
35
34
34
32
31
31
30
29
29
28
27
27
26
25
25
23
23
25
28
34
40
47
54
60
64
66
66
65
64
62
61
59
57
55
54
52
51
51
51
50
50
49
48
46
45
43
41
40
39
38
37
36
35
33
33
32
31
30
30
29
29
28
27
27
26
25
24
24
24
26
30
36
41
48
55
59
62
63
62
61
59
56
54
52
50
48
47
47
47
47
47
47
47
45
44
42
40
40
38
36
35
34
33
32
31
30
30
29
28
28
27
27
26
26
25
24
24
23
22
23
26
30
36
43
50
57
62
65
66
66
64
63
61
59
57
55
54
52
51
51
50
49
47
45
43
41
40
39
37
36
35
34
33
32
32
31
30
30
29
28
27
27
26
26
26
24
24
24
23
24
24
32
39
39
55
62
62
70
70
70
69
67
65
64
62
60
58
57
55
55
54
54
53
51
50
48
46
45
43
41
40
39
38
36
35
34
33
32
32
31
30
29
29
28
27
27
26
25
25
23
22
22
21
22
22
29
36
36
51
58
58
67
68
68
66
65
65
61
59
57
55
53
52
51
51
50
50
49
48
47
45
44
42
40
39
37
36
35
34
33
31
30
29
29
28
27
27
26
26
25
24
23
22
21
21
22
25
29
36
42
49
56
60
63
63
62
60
58
56
53
50
48
47
45
45
45
46
46
45
45
44
42
40
40
38
36
34
33
32
30
29
29
28
27
26
26
25
25
24
24
23
23
22
21
20
20
22
26
32
39
46
54
61
66
68
68
67
65
63
61
59
56
54
53
52
51
50
50
50
50
49
48
46
44
42
40
39
37
36
34
33
32
31
30
30
29
28
27
26
26
25
25
24
24
23
23
22
22
22
25
30
37
44
53
61
66
70
71
71
69
67
65
63
61
59
57
55
54
53
52
52
52
51
50
48
47
45
43
41
40
39
37
36
34
33
32
31
30
30
29
28
27
26
26
25
24
23
23
22
21
20
20
21
24
30
37
44
52
60
64
67
68
67
65
63
61
59
56
54
52
51
50
49
49
49
48
48
47
45
43
41
40
38
36
35
33
32
31
30
29
28
27
27
26
26
25
25
24
24
23
22
21
21
22
25
31
37
44
44
57
61
61
62
61
61
56
54
54
48
46
46
44
43
43
44
44
44
44
42
42
40
38
37
35
34
32
31
30
29
28
28
27
26
26
25
25
25
24
24
23
22
22
23
26
32
39
46
54
61
65
67
68
67
65
63
61
59
56
54
52
51
50
50
50
50
50
49
48
46
44
42
40
39
37
36
34
33
32
31
30
30
29
28
28
27
26
26
26
25
24
24
23
23
23
25
29
35
42
51
59
65
69
71
71
70
69
67
65
63
60
58
56
55
54
53
53
52
51
50
49
47
45
43
41
40
38
37
36
34
33
32
31
31
30
29
29
28
27
27
26
25
25
24
23
22
22
22
24
28
35
42
50
58
63
67
68
68
67
65
63
61
58
56
54
52
51
50
49
49
48
47
46
45
43
41
40
39
37
36
34
33
32
31
30
29
28
28
27
26
26
25
25
24
23
23
22
21
20
20
22
25
31
37
44
51
57
60
62
61
60
58
56
54
51
49
47
45
44
44
44
45
45
44
43
43
40
39
39
35
34
34
31
30
30
27
26
26
25
24
24
23
23
22
22
21
20
19
19
21
24
30
36
43
50
56
60
61
61
60
59
57
54
52
50
48
46
46
45
45
45
45
45
44
42
41
40
38
36
34
33
32
30
29
28
27
26
26
25
24
23
23
22
22
21
21
20
20
19
18
18
18
20
24
30
37
45
53
60
64
66
67
66
65
63
62
60
58
56
54
53
51
50
50
49
49
48
47
45
43
41
40
38
36
34
33
32
31
30
29
28
27
26
26
25
25
24
23
22
22
21
20
20
19
18
17
18
21
26
32
40
48
55
60
63
64
64
62
61
59
57
55
52
51
49
48
47
47
46
46
45
44
43
41
40
39
36
35
33
31
30
29
28
27
26
25
24
24
23
23
22
21
21
20
20
19
18
18
18
20
24
29
37
44
51
57
61
62
62
60
58
56
53
50
48
46
45
44
44
44
44
44
44
43
42
40
39
37
36
34
32
31
30
29
28
27
26
25
24
24
23
23
22
22
21
20
19
19
20
22
27
33
40
48
55
60
63
65
64
62
60
58
55
53
51
49
48
47
47
47
47
47
47
46
44
43
41
40
38
37
35
33
33
31
30
30
28
27
27
26
25
25
24
23
23
22
21
21
21
23
23
33
40
49
58
65
69
72
72
71
70
68
66
64
62
60
58
56
55
54
54
53
52
52
50
48
46
44
42
40
40
38
37
35
34
33
32
31
30
30
29
28
28
27
27
26
25
25
24
23
22
22
23
25
30
37
45
54
62
68
72
74
74
73
71
70
68
65
63
61
59
57
56
55
54
53
52
51
49
47
45
43
41
39
37
36
34
33
31
30
29
28
28
27
26
25
25
24
23
23
22
21
20
20
19
18
18
20
24
31
38
45
54
60
64
66
66
65
63
60
58
55
53
50
49
47
47
47
47
46
46
45
43
41
40
39
36
35
33
31
30
29
28
27
26
25
24
24
23
22
22
21
20
19
19
18
18
20
23
29
36
43
51
57
60
62
61
60
58
55
53
50
48
46
44
44
43
43
44
44
43
42
41
40
38
36
35
33
31
30
29
27
27
26
25
24
23
23
22
22
21
21
21
20
20
20
18
18
18
19
23
23
36
43
52
58
63
63
65
64
64
60
57
57
52
50
48
47
46
45
45
45
45
44
44
42
41
40
39
37
36
34
33
32
31
31
30
29
29
28
27
27
26
26
25
25
24
23
23
22
22
21
20
20
21
24
29
36
43
51
59
64
67
68
67
66
64
62
60
58
56
54
53
52
51
51
50
50
49
48
46
45
43
41
40
39
37
36
34
33
32
31
30
29
29
28
27
26
26
25
24
23
23
22
22
21
21
20
19
19
19
20
23
28
35
42
50
57
62
65
65
65
63
61
59
57
55
53
51
50
49
48
48
48
48
48
47
45
44
42
40
39
37
35
34
33
32
31
30
29
29
28
27
27
26
26
25
25
24
24
23
22
21
21
21
22
26
32
39
45
53
58
62
63
63
61
59
57
54
51
49
47
46
45
45
45
46
46
46
45
44
43
41
40
38
36
35
33
32
31
30
30
29
28
28
27
27
26
26
26
25
25
24
24
23
22
22
22
25
29
36
43
52
60
66
69
70
70
69
67
65
62
60
58
56
54
52
52
51
51
51
51
50
49
47
45
43
41
40
38
37
36
35
34
33
32
31
30
30
29
29
28
27
27
26
26
25
24
24
23
22
22
21
22
22
30
37
37
53
61
61
71
72
72
70
68
66
64
62
60
58
56
54
53
53
52
52
51
50
49
47
45
43
40
39
37
36
34
33
31
30
30
29
28
27
26
26
25
24
24
23
23
22
22
21
20
20
19
18
19
21
25
32
40
48
56
62
66
67
66
64
62
59
56
54
51
49
48
47
46
46
46
47
47
47
46
44
42
40
39
38
36
34
33
32
30
29
28
28
27
26
26
25
25
24
24
23
22
21
21
20
21
24
30
36
43
51
58
62
64
64
63
60
57
55
52
49
47
45
44
44
44
45
45
45
45
44
42
41
40
38
36
35
33
32
31
30
29
29
28
28
27
27
26
26
25
25
24
24
23
22
23
25
29
35
42
50
58
64
68
69
69
68
66
64
61
59
57
55
53
52
51
51
51
51
51
50
49
48
46
44
42
40
39
38
36
35
34
33
32
32
31
30
30
29
29
28
28
27
26
26
25
24
24
26
30
37
43
43
60
66
66
71
71
71
67
65
65
61
58
58
55
54
54
52
52
52
51
50
49
48
46
44
42
41
40
38
37
36
35
34
34
33
32
31
31
30
29
29
28
28
27
26
25
25
24
24
25
28
34
40
48
57
63
67
69
69
68
66
64
61
59
57
55
53
52
51
51
51
51
51
50
49
47
46
44
42
40
39
38
36
35
34
33
32
31
31
30
29
28
28
27
27
26
25
25
24
23
22
23
25
29
35
41
49
57
63
66
67
67
65
63
61
58
55
53
51
49
48
47
47
47
47
47
46
44
43
41
40
38
36
34
33
32
30
30
29
28
28
27
27
26
26
25
25
25
24
23
23
22
21
20
20
22
25
31
39
46
54
60
64
65
65
63
60
57
54
52
49
47
46
45
45
45
46
47
47
46
45
43
41
40
38
36
35
33
32
31
30
29
28
27
26
26
25
24
24
23
23
22
21
21
21
22
26
32
39
45
53
59
62
63
63
61
59
56
53
50
47
46
44
43
44
44
45
45
45
45
44
42
40
39
37
36
34
30
29
28
27
26
26
25
24
24
23
23
23
24
27
33
40
47
55
62
66
68
68
67
65
63
60
58
56
54
52
50
50
49
49
50
50
49
48
47
45
43
41
39
38
36
34
33
32
31
30
29
29
28
28
27
26
26
25
24
24
25
28
33
40
47
56
63
68
70
71
70
69
67
65
63
60
58
56
55
53
53
52
52
52
51
50
48
46
44
42
40
39
37
36
34
33
32
31
30
29
29
28
27
26
26
25
25
24
23
23
22
21
20
21
23
28
34
42
51
59
65
68
69
69
68
67
65
63
61
59
57
55
53
52
51
50
50
49
48
47
45
43
41
40
38
36
34
33
31
30
29
28
27
26
25
24
23
23
22
21
20
19
18
18
17
16
15
16
19
24
30
37
43
50
54
56
57
56
55
53
51
49
47
45
44
43
42
41
41
41
41
40
40
39
37
35
33
32
30
28
27
26
25
24
23
22
21
21
20
19
18
18
17
17
16
15
15
14
14
15
18
22
28
34
40
44
46
47
47
46
50
46
42
39
35
32
30
29
29
29
30
30
29
28
27
24
22
19
16
14
11
9
9
5
4
4
2
1
1
0
0
0
0
0
0
0
0
0
0
0
0
7
18
30
42
52
59
62
61
59
56
53
50
47
44
42
40
39
38
39
39
39
39
38
37
34
32
29
26
24
21
19
17
16
14
13
12
11
10
9
8
7
6
5
5
4
2
1
0
0
0
0
5
13
24
37
49
60
67
70
70
68
65
62
59
56
53
51
49
47
46
45
45
45
44
44
42
40
38
35
33
30
27
25
23
22
21
20
19
18
17
16
15
15
14
13
12
12
11
10
10
9
8
6
6
9
15
24
35
47
59
69
75
77
76
74
71
68
64
61
58
55
52
50
49
49
49
49
48
48
46
44
41
40
36
33
30
28
26
24
22
21
20
19
18
17
16
15
14
13
12
11
11
10
9
8
7
6
6
8
15
24
35
47
58
68
73
75
73
71
67
63
58
55
51
49
46
45
45
45
45
45
45
44
42
40
38
35
33
30
28
26
24
23
22
21
19
19
18
17
17
16
14
13
12
11
9
8
9
13
20
30
40
52
63
70
74
74
72
69
65
60
56
53
49
47
45
45
46
47
48
48
48
47
45
42
40
38
35
33
31
29
27
26
25
24
22
22
21
20
19
18
17
16
15
15
14
16
16
31
42
42
67
77
77
87
86
86
81
77
77
70
67
67
61
59
59
59
59
59
59
57
55
53
50
47
44
42
40
38
36
34
33
31
30
29
28
27
27
25
24
23
22
21
20
19
18
17
16
15
16
21
30
41
55
69
81
90
95
96
95
93
90
87
84
81
78
75
73
72
71
70
70
69
67
65
63
60
57
53
50
47
44
41
40
38
36
34
32
31
29
27
26
25
24
23
22
21
20
18
17
16
15
13
12
12
14
20
30
41
56
70
83
91
96
97
95
92
89
85
81
78
74
71
69
67
66
66
65
64
63
61
58
55
52
48
44
41
39
36
34
32
30
29
27
26
24
23
22
21
20
19
18
17
16
15
13
12
10
8
7
8
11
19
29
42
57
71
82
88
91
90
88
84
80
76
72
69
66
64
63
63
63
64
64
63
62
59
56
52
49
45
42
39
36
34
32
30
29
27
25
24
23
21
20
19
18
16
14
13
12
11
12
17
25
25
48
61
61
81
85
85
84
80
80
70
64
64
56
53
53
52
53
53
55
56
55
53
50
47
43
40
37
33
30
28
26
24
23
21
20
19
18
17
16
15
14
13
11
11
13
18
27
39
52
67
80
90
95
96
95
92
88
83
79
74
70
66
64
62
62
62
62
62
60
58
55
51
47
43
40
37
34
31
29
26
25
23
21
20
19
18
16
15
14
13
12
10
9
7
6
4
5
10
18
31
47
64
81
93
101
105
105
103
100
97
93
65
63
60
59
57
56
55
55
54
53
52
51
49
47
45
43
41
40
38
37
35
34
33
32
32
31
30
30
29
28
28
27
26
26
25
24
24
23
22
22
22
25
30
36
44
53
61
67
70
71
71
70
69
67
65
63
61
59
57
56
55
54
54
53
52
51
49
47
45
43
41
40
39
37
36
34
33
32
31
31
30
29
28
27
27
26
26
25
24
24
23
22
21
20
20
21
24
29
36
43
51
59
64
67
67
67
66
64
61
59
56
54
52
51
50
50
50
49
49
48
47
45
44
41
40
38
37
35
34
33
32
30
29
29
28
27
27
26
26
25
24
24
23
22
21
21
20
22
25
30
37
44
52
58
62
64
64
62
60
57
54
54
49
47
47
46
46
46
47
46
46
45
44
44
40
39
39
35
34
34
31
30
30
29
28
27
27
26
26
25
25
24
24
24
23
23
22
21
22
24
29
36
44
52
60
66
69
69
69
67
65
63
61
59
57
55
53
52
52
51
51
51
50
49
48
46
44
42
40
39
37
35
34
33
32
31
31
30
30
29
28
28
27
27
26
26
25
25
24
23
22
22
21
22
25
30
37
44
53
61
67
70
71
71
69
67
65
63
61
59
57
56
55
54
53
53
53
52
51
49
47
46
44
42
40
39
38
37
35
35
33
33
32
31
30
30
29
28
27
27
26
25
24
24
23
23
22
22
21
20
21
24
29
36
44
52
60
65
68
69
69
67
65
63
61
59
57
55
53
52
51
51
51
50
50
48
47
45
43
41
40
39
37
36
35
34
33
32
31
30
30
29
29
28
27
27
26
26
25
24
24
23
22
21
22
24
29
35
42
50
56
61
64
64
63
61
59
56
54
51
49
49
46
46
46
46
47
47
46
44
44
41
40
40
36
34
34
32
31
31
29
28
28
27
27
26
25
25
25
24
24
23
22
21
21
22
26
31
38
45
53
59
64
65
65
64
62
60
58
55
53
51
49
48
47
47
47
47
47
46
45
43
41
40
39
37
35
34
33
32
31
30
30
29
29
28
27
27
26
25
25
25
24
24
23
22
22
21
22
25
30
36
44
53
60
66
70
71
71
70
68
66
64
62
60
58
57
55
54
54
53
53
52
51
50
48
46
44
42
40
40
38
37
36
35
34
33
32
31
30
29
29
28
27
26
26
25
24
23
22
21
21
22
24
29
36
43
51
58
64
66
67
66
64
62
60
58
56
54
52
51
50
49
49
49
49
48
47
45
44
42
40
39
38
36
34
33
32
31
30
29
28
28
27
26
26
25
24
24
23
22
21
21
21
24
29
35
41
48
54
57
59
59
57
55
53
50
48
45
43
42
41
41
41
41
42
42
41
40
40
38
36
34
32
31
30
29
28
27
26
26
25
25
24
23
23
23
22
22
21
21
22
24
29
34
40
47
53
57
59
60
59
57
55
53
51
49
47
45
44
44
44
44
44
44
43
42
40
39
37
36
34
33
31
31
29
28
28
27
26
26
25
25
25
24
23
23
21
21
21
22
25
25
36
42
49
54
58
59
59
58
57
56
54
52
50
49
47
46
46
45
45
45
45
44
43
42
40
39
38
36
35
34
33
31
30
30
29
28
27
27
26
26
25
24
24
23
22
22
22
25
28
34
40
45
51
54
57
57
56
55
54
52
50
49
47
46
45
45
45
45
45
44
43
42
41
40
39
37
36
35
33
32
31
30
29
28
28
27
27
26
25
25
24
23
22
22
23
25
28
33
39
44
49
53
54
55
54
52
50
48
46
44
42
41
40
40
41
41
41
41
40
40
38
37
35
34
32
31
30
29
28
28
27
26
26
26
25
24
23
23
22
23
24
28
32
38
43
48
52
54
55
54
53
51
49
47
45
43
42
41
41
41
41
41
41
41
40
39
38
36
35
33
32
31
30
29
28
28
27
26
26
25
25
24
24
24
24
27
30
36
41
47
52
56
59
59
59
57
56
54
52
50
49
47
46
46
46
46
46
46
44
43
43
40
39
39
36
35
35
33
32
32
30
29
29
28
27
27
26
25
25
24
24
23
25
27
32
38
43
50
55
59
61
61
60
59
58
56
54
52
51
49
48
47
46
46
45
45
44
42
41
40
39
37
36
34
33
32
29
28
27
27
26
25
25
24
24
23
22
22
22
24
28
33
40
46
53
57
60
61
61
60
58
57
55
53
51
50
48
47
47
46
46
46
45
44
43
42
42
39
38
38
35
34
34
32
31
31
30
29
29
28
27
26
26
25
24
24
23
23
24
26
31
37
43
49
55
59
61
61
60
58
56
54
52
50
48
46
45
45
44
44
44
44
43
42
40
39
38
36
35
33
32
31
30
29
28
27
27
26
26
25
25
25
24
24
23
22
22
21
22
25
29
35
41
48
54
58
60
60
59
57
54
52
50
47
45
44
43
43
44
44
44
44
43
42
41
40
38
37
35
34
33
32
31
30
29
28
28
27
27
26
26
25
24
24
23
24
27
31
36
41
48
54
58
60
60
59
58
55
53
50
48
46
44
44
44
44
44
45
44
43
43
41
40
39
37
36
34
33
32
31
30
29
28
28
27
27
26
26
25
25
25
25
28
28
38
45
45
58
63
63
66
65
65
61
59
59
54
52
52
49
49
49
49
49
48
48
47
45
43
41
40
39
38
36
35
34
33
32
31
30
30
29
29
28
27
27
26
26
26
28
33
39
45
53
60
65
68
70
70
68
67
65
63
61
58
57
55
54
54
53
52
52
51
50
49
47
45
43
41
40
39
38
36
35
34
33
32
31
30
30
29
28
27
27
26
25
24
25
28
33
39
46
54
61
61
68
68
67
66
64
61
59
57
55
53
52
51
50
50
50
50
49
48
46
44
42
40
39
37
35
34
33
31
30
30
29
28
28
27
26
26
25
24
23
24
26
30
35
41
49
55
60
62
63
62
61
58
55
53
50
48
46
45
44
44
45
45
45
44
43
42
40
39
37
35
34
32
31
30
29
28
27
27
26
25
25
24
24
23
25
28
33
40
46
53
59
62
64
64
63
61
58
56
53
51
49
47
47
46
46
47
46
46
45
44
42
40
39
38
36
35
33
32
32
30
29
29
28
28
28
27
26
26
25
24
24
25
28
28
40
47
47
63
68
70
71
70
69
67
65
63
60
58
56
55
54
54
54
53
52
51
50
48
46
44
42
40
39
37
36
35
34
33
33
32
31
30
30
29
28
28
27
26
25
25
24
25
29
34
40
48
56
63
67
70
71
70
68
66
64
62
59
57
55
53
52
52
51
51
50
49
47
45
43
41
40
38
36
35
33
32
31
30
29
28
27
26
25
25
24
23
23
22
21
20
21
23
26
32
40
47
54
60
64
66
65
64
62
59
56
53
51
49
47
46
46
46
47
47
46
45
44
42
40
39
37
35
34
32
31
30
28
27
27
26
25
25
25
24
23
23
22
23
26
30
37
43
51
58
63
66
66
66
64
62
59
56
53
51
49
48
47
47
47
47
47
46
44
43
41
40
38
36
34
33
31
30
29
28
27
27
26
26
25
24
24
23
23
22
22
24
27
33
40
49
57
64
69
72
72
71
69
67
64
62
59
57
55
54
53
53
52
52
51
50
49
47
45
43
40
39
37
36
34
33
32
31
30
29
29
28
27
27
26
25
25
24
23
22
22
23
27
33
40
49
57
65
71
74
74
74
72
70
70
64
62
62
57
55
55
52
52
52
50
49
49
45
43
43
39
37
35
33
32
32
29
29
28
27
26
26
25
25
24
23
23
22
21
20
20
22
27
34
41
50
58
64
68
70
69
67
65
62
59
55
53
50
49
48
48
48
48
48
47
46
44
42
40
38
36
34
33
31
30
29
27
26
26
25
25
24
24
23
22
21
21
21
24
29
35
42
51
58
64
67
68
67
65
62
59
56
53
50
48
46
46
46
46
46
47
46
45
43
41
40
38
36
34
32
31
29
28
27
26
25
25
24
24
23
23
22
21
21
23
27
33
40
49
58
66
71
74
75
74
72
69
66
63
61
58
56
54
53
53
52
52
51
50
48
46
44
42
40
38
36
35
33
32
31
30
29
28
27
27
26
25
25
24
23
22
22
24
29
35
43
52
61
69
73
76
76
75
73
70
67
64
61
58
56
54
53
52
51
50
49
48
46
44
42
40
39
36
34
33
30
29
28
27
26
25
25
25
24
23
23
22
22
20
20
20
27
34
34
51
59
59
70
72
72
70
67
67
61
58
58
52
50
48
48
47
47
47
46
44
42
40
39
37
34
32
30
28
27
25
24
23
22
22
21
20
20
19
18
17
18
20
24
30
38
46
54
61
65
66
66
64
61
58
54
50
47
45
44
43
43
43
44
44
43
42
40
39
37
35
33
31
29
28
26
25
24
23
22
21
20
19
19
20
23
28
35
42
51
59
64
67
68
67
64
61
57
53
49
46
44
43
43
43
44
44
44
43
42
40
39
37
34
32
30
28
27
26
24
23
22
22
21
20
20
21
25
32
40
48
58
65
70
72
72
71
68
65
62
58
55
52
50
48
48
47
48
48
47
46
44
42
40
38
36
34
32
30
28
27
26
25
24
23
22
21
20
20
22
26
33
41
51
60
68
74
76
77
75
73
70
67
64
61
58
55
53
52
51
51
51
50
49
47
45
42
40
38
35
33
32
30
29
27
26
25
24
24
23
22
21
20
20
20
22
28
36
44
54
64
72
77
79
79
77
75
72
69
66
63
61
58
55
54
53
52
51
51
49
48
45
43
40
38
36
34
32
31
29
28
26
25
24
23
23
22
22
21
20
19
19
19
21
26
33
33
51
61
61
74
77
77
75
73
73
67
63
63
56
54
54
50
49
49
47
46
45
44
42
40
38
36
34
32
30
28
27
25
24
23
22
21
20
19
19
18
17
17
16
16
18
22
29
38
46
55
63
67
69
69
67
64
60
57
53
49
46
44
43
43
43
43
43
42
40
39
37
35
33
31
29
27
25
24
22
21
20
19
18
17
17
16
15
14
14
15
18
24
32
40
48
55
60
63
63
61
58
55
51
47
44
41
40
39
39
39
39
40
39
38
37
35
33
31
29
27
26
24
23
22
20
20
19
18
17
16
16
15
15
17
20
27
35
43
52
59
64
66
65
64
61
58
55
51
48
45
43
42
41
41
41
41
41
40
40
38
36
33
31
29
28
26
25
23
22
21
21
20
19
18
18
17
16
16
16
19
24
31
40
48
57
63
67
68
67
65
62
59
56
53
50
47
45
44
43
43
43
43
42
41
40
39
37
35
33
31
29
27
26
24
23
22
21
21
20
20
18
18
18
16
16
16
16
19
19
32
40
40
56
61
61
64
62
62
56
53
53
47
44
42
41
40
41
41
42
42
41
40
40
38
36
34
32
30
29
27
26
25
23
22
22
21
20
20
19
19
18
19
22
27
33
40
47
54
59
62
62
61
58
55
51
48
44
42
40
40
40
40
41
41
41
41
40
39
37
36
34
32
31
29
28
27
26
25
24
23
23
22
21
21
21
23
27
33
40
49
57
63
67
68
67
65
63
60
57
54
51
48
46
45
45
46
46
46
46
45
43
41
40
38
36
34
33
31
30
29
28
27
26
25
25
24
24
23
23
22
22
23
27
33
40
49
58
65
70
73
73
71
69
66
63
61
58
55
53
52
51
50
50
49
49
48
47
45
43
41
40
38
36
34
33
31
30
29
28
27
26
25
25
24
23
22
21
20
19
18
19
22
27
35
42
51
59
65
69
69
69
66
64
61
58
55
52
50
48
47
47
47
47
47
46
44
43
41
40
38
36
34
32
30
29
27
26
25
24
23
23
22
21
20
20
19
19
20
23
28
35
41
49
55
59
61
61
59
57
54
50
47
44
41
40
40
40
40
40
40
40
39
38
36
34
32
30
29
27
26
25
23
23
22
21
21
20
19
19
17
17
17
18
22
22
34
41
41
56
61
61
64
63
61
58
55
52
49
47
45
45
44
45
45
45
45
45
43
42
40
38
37
35
33
31
30
28
27
26
25
24
24
23
23
22
22
21
20
19
19
22
26
32
40
49
57
64
69
71
72
71
69
67
64
61
58
56
54
52
52
51
51
50
49
48
47
45
43
41
40
38
36
34
33
31
30
29
28
27
26
25
25
24
23
22
22
21
21
23
27
33
40
70
71
70
68
66
63
59
56
54
51
50
49
48
48
48
48
47
45
44
42
40
38
36
34
33
31
30
28
27
26
25
25
24
23
22
22
21
20
20
21
25
30
38
45
53
59
64
66
67
65
63
60
57
54
51
48
46
46
45
45
45
45
43
42
41
39
37
36
34
32
30
29
27
26
25
24
23
23
22
21
20
21
23
27
33
40
48
55
62
66
68
69
67
65
62
59
56
53
50
49
48
47
47
47
47
46
45
43
42
42
39
37
37
33
31
30
29
28
28
25
25
25
23
22
22
22
24
24
34
41
50
59
67
72
74
75
74
72
70
67
64
61
58
55
54
52
52
51
51
50
48
47
44
42
40
38
36
34
32
30
29
28
27
26
25
24
24
23
22
22
21
20
20
19
18
19
22
28
36
44
54
64
71
75
77
77
76
74
72
69
66
63
60
57
55
54
53
52
51
49
48
46
44
41
40
38
35
33
32
30
29
27
26
25
24
23
22
22
21
20
19
19
18
17
16
15
16
19
25
32
41
51
60
67
71
73
72
71
68
65
63
59
57
54
52
50
50
49
48
48
46
45
43
41
40
37
35
33
31
29
28
27
25
24
23
23
22
21
21
20
19
19
18
17
16
17
19
24
31
39
48
56
63
67
68
68
66
63
59
55
52
49
46
44
43
43
43
43
43
43
42
40
39
36
34
32
30
28
27
25
24
23
22
21
20
20
19
19
18
18
17
16
17
19
23
30
38
47
56
64
70
72
72
71
69
66
62
59
55
52
50
48
47
47
47
46
46
45
43
41
39
37
35
32
30
29
27
26
25
24
23
22
21
21
20
20
19
19
18
17
17
17
19
23
30
40
49
59
68
68
77
77
77
74
71
71
65
61
61
55
53
53
50
49
49
48
47
47
43
41
41
37
34
32
30
28
27
25
24
23
22
21
20
19
19
18
17
17
16
15
15
14
16
19
26
34
43
54
63
70
74
75
74
71
69
65
62
58
55
52
49
48
47
46
45
44
43
42
40
39
37
35
32
30
28
26
25
23
22
21
20
19
18
17
17
16
16
15
14
13
13
13
16
21
29
38
47
57
64
68
70
69
67
64
60
56
52
48
45
43
42
42
42
42
42
42
41
40
38
36
33
31
29
27
26
24
23
21
21
20
19
18
17
16
16
15
16
18
23
30
40
48
58
65
69
71
71
69
65
62
58
54
50
47
45
44
44
44
44
44
44
43
41
40
38
36
33
31
30
28
27
25
24
23
22
21
20
20
19
18
18
18
19
24
30
39
48
59
68
74
77
77
76
74
71
68
64
61
58
55
53
52
51
51
50
49
49
47
45
43
41
39
37
35
34
32
30
29
28
26
25
25
25
23
23
23
21
21
21
20
22
22
34
41
41
61
69
69
77
77
77
73
70
66
63
59
56
53
51
50
50
50
49
48
47
45
43
41
40
38
35
33
31
29
28
28
27
26
26
25
24
23
22
21
21
20
19
20
23
29
36
45
54
62
68
71
71
70
67
64
60
57
53
50
48
46
46
47
47
47
47
45
44
41
40
38
35
33
31
30
28
27
26
25
24
23
22
21
21
20
20
23
27
34
41
49
58
64
68
70
69
67
64
60
56
52
49
46
45
44
44
44
44
44
43
42
40
39
37
35
33
32
30
29
27
26
25
24
23
23
22
21
20
20
20
22
27
34
42
51
61
68
73
75
75
73
70
67
64
61
57
55
52
51
49
49
48
48
47
46
44
42
40
38
36
34
32
31
30
29
28
26
25
24
24
23
23
22
21
20
20
20
23
29
37
45
55
64
71
75
76
75
73
71
68
64
61
58
55
53
51
50
49
48
47
46
45
43
41
40
37
35
33
31
29
28
27
26
25
24
23
22
22
21
20
19
18
17
17
18
22
28
35
44
53
61
67
70
70
69
67
64
60
57
54
51
49
47
47
47
46
46
45
44
43
41
39
37
35
33
31
29
28
27
26
26
24
24
24
22
21
21
19
19
19
20
24
24
38
46
46
62
67
67
69
67
65
62
58
55
51
49
46
45
45
45
45
45
45
44
42
40
38
36
34
32
30
29
27
26
25
24
23
22
22
21
21
20
20
19
18
17
18
21
26
34
42
53
62
70
74
76
76
74
72
69
66
63
59
57
54
52
51
50
50
49
48
47
45
43
41
39
37
34
32
30
29
28
26
25
25
24
23
22
21
20
20
19
19
18
17
16
16
15
17
22
29
38
48
59
67
73
76
76
74
72
69
66
63
60
57
54
51
50
49
48
47
46
44
43
40
39
36
34
31
29
27
25
24
23
22
21
20
19
19
18
18
18
17
16
15
14
13
13
15
18
25
33
42
52
60
66
68
68
67
64
61
57
54
50
47
45
43
42
42
42
43
43
42
41
40
38
36
33
31
29
28
26
25
23
22
21
20
20
19
18
18
17
16
15
16
19
24
32
40
50
58
65
68
69
68
66
63
60
56
56
49
47
47
44
44
44
44
44
44
42
40
40
37
35
35
31
29
29
26
25
25
23
22
21
20
20
19
19
18
17
17
16
16
18
23
30
39
49
59
67
73
75
75
74
72
69
66
63
59
57
54
51
50
50
49
49
49
48
46
44
42
40
38
36
34
32
30
28
27
26
25
24
23
22
21
21
20
19
19
18
17
16
15
15
17
22
29
38
47
57
64
69
71
71
69
67
64
61
58
55
52
50
48
46
46
45
44
44
43
41
40
38
36
34
32
30
28
26
25
24
23
22
21
20
20
19
18
18
17
16
15
14
14
15
18
23
31
39
48
56
61
64
65
64
62
59
55
52
49
46
44
42
42
42
43
43
43
42
41
40
38
36
34
32
30
28
27
25
24
23
22
21
21
20
19
19
18
17
16
16
18
22
28
36
44
53
60
65
67
67
66
63
60
57
54
51
48
46
44
44
44
44
44
44
43
41
40
38
36
34
32
31
29
28
26
25
24
23
22
21
20
20
19
19
18
17
17
16
16
18
22
29
37
46
56
64
70
73
73
73
71
68
66
63
60
57
55
53
51
50
50
49
49
48
46
44
42
40
39
37
35
33
31
30
29
27
26
25
24
23
23
22
22
21
20
20
19
18
18
18
21
21
33
41
41
60
66
66
71
70
70
66
64
60
57
55
52
50
48
47
47
46
46
45
44
42
41
39
37
35
33
31
29
28
27
25
24
23
22
22
21
20
20
19
18
17
16
16
15
17
21
27
34
42
52
59
65
67
68
66
64
61
57
53
50
47
45
43
43
43
43
43
42
41
40
39
36
34
32
29
28
26
24
23
22
21
20
19
19
18
17
17
16
16
16
17
21
27
35
44
53
61
67
70
70
68
65
62
58
55
52
49
47
46
46
46
47
47
46
45
44
42
40
38
36
34
32
30
29
28
26
25
24
24
23
22
21
20
20
19
19
21
26
32
40
50
60
68
74
77
77
76
74
71
68
65
62
59
56
54
53
52
52
52
51
50
49
47
45
42
40
39
37
35
33
32
30
29
28
27
26
25
25
24
23
23
22
21
20
21
23
28
36
44
54
64
72
77
79
80
79
77
74
71
67
64
61
58
55
54
53
52
51
50
49
49
45
42
42
38
36
36
32
31
31
28
27
27
25
24
24
23
22
22
21
20
19
18
18
21
25
32
40
50
59
66
71
73
73
71
68
65
61
58
54
52
49
48
47
47
47
46
46
44
42
40
39
37
35
33
31
29
28
26
25
24
23
22
21
21
20
19
18
18
17
17
19
23
30
38
46
55
62
66
68
68
66
63
60
57
53
50
48
46
44
44
44
44
43
43
41
40
38
36
34
32
30
28
27
26
24
23
22
21
21
20
19
19
18
18
17
16
15
15
14
15
19
24
32
41
51
60
67
71
72
71
70
67
65
62
59
56
53
51
49
47
47
47
46
46
44
42
40
39
37
35
33
31
29
28
27
26
25
24
23
23
22
21
21
20
19
19
18
17
17
16
15
15
14
16
20
26
35
44
54
63
69
72
73
72
70
68
66
63
60
57
55
52
50
49
48
47
47
45
44
42
40
38
36
34
27
25
24
24
22
22
21
20
20
19
18
18
17
17
16
15
14
14
14
16
20
27
35
44
53
61
65
68
67
66
63
61
58
54
52
49
47
45
44
44
43
43
43
42
41
40
38
35
33
31
29
28
27
25
24
23
22
21
21
20
20
20
19
18
18
17
16
16
14
15
15
23
30
30
48
56
56
67
68
68
65
62
59
56
52
50
47
45
44
44
44
44
44
43
42
41
40
37
35
33
31
30
28
27
26
25
24
23
22
21
21
20
20
19
19
18
18
17
16
16
17
20
26
34
43
53
63
70
74
76
76
74
71
69
66
63
60
57
54
52
51
50
50
50
49
48
46
44
42
40
39
37
35
33
31
30
28
27
27
25
25
24
23
22
22
21
21
20
20
19
18
17
17
16
18
22
29
38
48
59
68
75
78
78
78
76
73
70
68
64
62
59
56
54
53
52
52
51
50
49
47
45
43
41
39
37
35
33
32
30
29
27
27
26
25
24
23
22
21
21
20
20
19
19
18
17
16
16
19
24
32
40
50
60
67
71
72
71
69
66
63
60
57
54
51
49
47
46
46
46
46
46
45
43
42
40
39
36
35
33
31
30
28
27
26
25
24
23
23
22
21
21
20
19
18
17
17
17
20
26
33
41
50
58
58
66
67
67
63
60
60
53
50
50
45
43
43
42
43
43
43
43
43
41
40
38
36
34
32
30
29
28
27
26
25
25
24
23
23
22
22
21
21
20
19
19
21
25
32
40
48
57
64
68
69
69
67
65
62
59
57
54
52
50
48
47
47
47
47
47
46
45
43
41
40
38
37
35
33
32
31
30
29
28
27
27
26
25
25
24
24
23
23
22
22
21
20
22
26
32
40
48
58
65
70
73
72
71
69
67
64
62
59
57
55
54
52
52
51
51
51
50
49
47
45
43
41
40
38
37
35
34
33
32
31
30
30
29
28
27
27
26
26
25
24
23
23
22
23
26
32
39
47
56
63
68
71
71
70
68
66
63
61
58
56
53
51
50
49
48
48
48
47
46
44
43
41
40
38
36
35
33
32
30
29
28
28
27
26
25
25
24
23
23
22
22
21
20
19
19
18
20
24
30
38
45
54
60
64
65
64
62
60
57
54
52
49
47
45
44
43
43
43
43
43
42
41
40
39
37
35
33
31
30
29
28
27
26
25
24
24
24
23
23
22
21
20
19
19
19
22
26
32
39
45
52
56
59
59
57
55
52
50
47
44
42
40
40
39
39
39
40
40
39
38
37
35
35
32
31
31
28
27
27
25
24
24
23
22
22
22
21
21
20
20
20
19
19
21
25
31
38
45
52
57
60
60
59
58
56
54
51
49
47
45
44
43
42
43
43
43
42
42
41
40
39
38
36
35
33
32
31
30
29
28
28
27
26
26
25
25
24
24
23
23
22
21
21
21
22
26
31
38
45
52
58
62
63
63
61
59
58
56
54
52
50
49
47
46
45
45
44
44
43
43
41
40
39
38
36
34
33
32
30
30
29
28
27
27
26
26
25
24
24
23
23
22
21
21
20
19
19
19
22
27
34
40
47
54
58
60
60
59
57
55
53
51
48
47
45
43
43
43
43
43
43
43
43
41
40
39
37
36
34
33
31
30
29
28
27
26
26
25
25
24
23
22
21
21
20
19
19
21
25
31
38
44
51
55
58
58
56
54
52
49
47
44
42
40
40
40
40
40
40
40
40
40
39
38
36
35
33
32
31
30
29
28
27
26
26
25
25
25
24
24
24
23
23
23
25
25
35
41
41
55
60
60
64
63
63
59
57
57
53
51
51
47
46
46
46
46
46
46
45
44
43
41
40
39
37
36
35
34
33
32
31
30
30
29
29
28
27
27
26
26
25
25
24
23
23
25
29
34
41
50
58
64
68
70
70
68
66
64
62
60
58
55
54
52
51
50
50
50
49
49
47
46
44
42
40
39
37
36
34
33
32
31
30
30
29
28
27
27
26
26
25
25
24
23
22
22
21
22
25
31
38
45
53
61
65
68
68
67
65
63
60
58
55
53
51
49
48
48
47
47
47
46
46
44
43
41
40
38
37
35
34
32
31
30
29
28
28
27
26
25
25
24
24
23
23
22
21
20
20
19
19
21
25
31
39
47
55
60
63
64
63
60
58
55
52
49
47
45
44
43
42
42
42
43
42
42
40
40
38
36
34
33
31
30
29
28
27
26
25
24
24
23
23
23
22
22
21
21
20
19
19
21
24
29
36
43
50
56
59
60
59
57
54
50
47
44
42
40
39
39
39
40
40
40
40
40
40
38
37
35
33
32
30
29
28
27
27
26
25
25
25
24
24
24
23
23
22
22
23
27
33
39
46
54
60
63
64
63
61
59
56
53
51
49
47
47
44
44
44
45
45
45
44
43
43
40
39
39
36
35
35
32
32
32
30
30
29
29
28
28
28
27
27
27
26
27
30
35
40
48
56
63
68
70
71
70
68
66
64
61
59
57
55
53
52
51
51
51
51
50
49
48
47
45
43
41
40
39
38
37
36
35
34
33
32
31
31
30
29
29
28
28
27
26
26
27
31
36
42
49
57
63
66
68
68
66
64
62
59
56
54
52
50
49
48
48
48
47
47
47
46
44
43
41
40
38
37
35
34
33
32
31
30
29
29
28
28
27
26
26
25
24
23
23
25
29
34
40
47
54
59
62
62
61
59
56
53
50
48
45
44
43
42
42
43
43
43
43
42
40
39
38
36
34
33
31
30
29
28
27
27
26
26
25
25
24
24
23
23
25
28
33
40
46
52
57
61
61
61
59
56
54
51
49
47
45
43
42
42
43
43
43
43
42
41
40
39
37
36
34
33
32
31
30
30
29
28
28
27
27
27
26
26
26
25
25
24
25
25
31
37
37
51
58
58
66
66
66
64
62
62
58
56
56
52
50
50
49
48
48
47
47
46
45
44
42
40
39
38
37
36
35
34
34
33
32
31
31
30
29
29
28
28
27
27
26
25
24
23
23
25
28
34
41
49
56
62
66
67
66
65
63
61
59
56
54
52
51
49
48
48
47
47
47
46
45
43
41
40
39
37
36
35
34
33
32
31
31
30
29
29
28
28
28
27
26
26
25
24
24
24
28
32
38
44
51
57
60
62
61
60
57
55
52
49
47
45
44
43
43
43
43
44
44
43
42
41
40
39
37
36
34
33
32
31
30
29
28
28
27
27
27
26
26
25
24
24
23
23
24
27
32
39
45
52
58
62
63
62
61
59
56
54
51
49
47
45
44
43
43
43
43
43
43
41
40
39
38
36
35
33
32
31
30
30
29
28
28
27
27
26
26
26
25
25
24
24
23
23
22
21
22
25
30
37
43
51
58
63
65
65
64
62
59
57
55
53
51
49
47
46
45
45
44
44
43
42
41
40
39
38
36
34
33
32
31
30
29
28
28
27
26
26
25
25
24
23
23
22
22
21
21
20
20
19
19
19
22
27
34
41
49
56
60
62
62
60
58
58
52
49
49
45
43
43
41
41
41
41
41
40
40
39
39
37
35
35
32
31
30
29
28
27
27
26
25
25
25
24
24
24
24
23
22
22
21
20
21
24
29
35
42
49
56
60
61
60
59
56
53
50
48
45
43
41
40
40
40
40
40
40
40
40
39
38
37
35
34
33
31
30
29
28
27
27
26
26
26
25
25
24
24
24
23
23
23
22
22
22
23
26
32
39
47
55
62
66
68
67
66
63
61
58
56
54
52
50
48
47
47
47
47
47
47
46
45
44
42
40
40
38
37
36
35
34
33
32
32
31
31
31
30
29
29
28
28
28
27
27
26
25
25
24
25
28
33
40
47
55
63
68
70
70
69
67
64
62
60
57
55
53
51
50
49
49
49
49
49
48
47
46
44
43
41
40
39
37
36
35
34
33
33
32
31
30
30
30
29
29
28
28
27
26
25
24
24
24
25
28
34
40
48
56
63
67
69
69
67
65
62
59
56
54
51
50
48
48
48
48
48
49
49
48
47
47
43
42
42
40
38
38
35
34
34
33
32
32
31
30
30
29
28
28
27
27
27
30
35
41
49
57
69
68
65
62
59
57
54
52
50
50
49
50
50
50
50
49
48
46
44
42
41
40
38
37
36
35
34
33
32
32
31
30
30
30
29
29
28
27
27
28
31
36
42
50
59
66
72
75
76
75
73
71
69
67
65
61
59
58
57
56
56
56
55
55
53
52
49
47
45
43
41
40
39
38
37
36
35
34
33
32
31
31
30
29
29
28
27
26
25
25
26
30
37
44
52
60
67
71
73
72
71
69
67
64
62
59
57
55
53
52
52
52
51
51
50
48
47
45
43
41
40
39
37
36
35
34
32
31
30
30
29
28
28
27
26
25
25
24
23
23
26
30
37
43
51
59
64
67
67
66
64
61
59
55
53
50
48
47
46
46
46
47
47
46
45
44
42
40
38
37
35
33
32
31
30
29
28
27
27
26
26
25
25
24
23
23
22
23
27
32
39
46
54
61
66
68
68
66
64
62
59
56
54
51
49
48
47
46
46
46
46
45
44
43
41
40
38
36
35
33
32
30
29
28
28
27
26
25
24
24
23
23
23
22
21
21
20
20
22
22
32
40
40
56
63
63
69
69
69
66
63
63
58
56
56
52
50
50
48
48
48
47
46
45
43
41
40
38
36
35
33
32
31
30
28
27
26
26
25
24
23
23
22
21
21
20
20
19
18
18
17
16
17
20
26
33
41
50
58
63
66
66
65
63
61
58
56
54
51
49
47
46
46
45
46
46
45
44
43
41
40
38
36
34
33
32
30
29
28
27
26
26
25
24
24
23
22
22
21
20
20
19
18
18
19
23
29
36
44
51
58
62
63
63
61
58
56
53
50
47
45
44
43
42
42
43
43
43
43
42
40
39
37
35
33
32
30
29
28
27
26
25
25
24
23
23
23
22
22
22
21
21
20
20
19
18
18
20
25
32
40
48
57
64
68
70
70
69
67
65
62
59
57
54
52
50
49
49
49
49
49
48
47
45
44
42
40
39
37
36
34
33
31
30
30
29
28
28
27
26
25
25
24
23
23
22
22
21
20
20
19
19
18
20
23
29
37
45
55
55
70
73
73
74
72
72
68
65
65
60
58
58
54
52
52
51
51
51
50
48
48
45
43
41
40
38
37
35
33
32
31
30
28
28
27
26
25
24
24
23
22
22
21
20
20
19
18
17
16
17
19
24
31
40
49
58
65
70
71
71
69
67
64
61
59
56
53
51
50
49
48
48
48
48
48
47
45
44
42
40
38
36
35
33
32
30
29
28
27
27
26
25
24
24
23
23
22
21
21
20
19
18
18
19
22
28
36
44
53
61
67
69
69
68
65
62
59
56
53
50
48
46
46
46
46
47
47
47
46
45
43
41
40
38
36
34
33
31
30
29
28
28
27
26
26
25
25
24
24
23
22
22
21
21
23
28
35
43
53
62
69
74
75
75
74
72
69
66
63
61
58
55
54
53
53
53
52
52
52
50
49
46
44
42
40
39
38
36
34
33
32
31
30
29
29
28
27
27
26
26
25
24
24
23
24
27
33
40
49
59
68
74
77
78
78
76
74
71
69
66
63
61
58
56
55
54
54
53
52
51
49
47
45
43
41
40
38
37
35
33
32
30
29
28
27
26
25
25
24
23
22
22
21
20
19
20
23
28
36
44
53
61
67
71
72
71
70
67
64
62
59
56
56
51
50
50
48
48
48
47
46
46
43
40
40
37
34
34
31
30
30
27
26
25
25
24
23
23
22
22
21
20
20
19
18
19
23
28
36
43
51
59
64
66
66
64
62
59
55
52
49
47
44
43
43
43
43
43
43
43
41
40
39
37
35
33
31
30
29
28
26
25
25
24
23
23
22
22
21
20
20
20
23
28
35
42
51
58
64
66
67
66
64
61
58
55
52
50
47
46
45
45
45
45
45
45
44
42
40
39
37
35
33
32
31
30
28
27
27
26
25
25
24
24
23
22
21
21
21
23
28
34
41
50
58
64
67
68
68
66
64
62
60
57
55
52
50
49
48
47
47
46
46
45
44
42
40
39
38
36
34
32
31
30
29
28
27
27
26
25
25
24
24
23
23
22
21
20
20
21
24
29
36
44
52
59
64
67
67
66
64
62
59
57
54
52
49
48
46
46
46
45
45
45
43
42
40
39
37
35
34
32
31
30
29
27
26
26
25
25
24
24
23
22
22
21
20
20
20
22
27
27
40
48
48
60
62
62
62
59
59
54
51
51
45
43
42
41
41
42
42
42
42
41
40
38
36
35
33
31
30
28
27
26
25
24
23
23
22
22
21
21
20
19
19
19
22
27
33
40
47
54
59
61
61
60
58
56
53
50
48
45
43
42
41
41
41
41
41
40
40
39
37
35
33
32
30
29
28
27
26
25
24
23
23
22
22
21
21
21
20
20
19
19
19
22
27
34
41
49
56
61
63
64
62
60
58
56
54
52
50
48
46
45
44
44
44
44
43
43
41
40
39
37
35
33
32
30
29
28
28
27
26
26
25
24
24
23
23
22
22
21
20
20
19
18
19
21
26
33
40
48
56
61
64
65
64
62
60
58
55
53
51
49
47
45
44
44
44
43
43
42
41
40
38
36
35
33
32
30
29
28
27
27
26
25
24
24
23
23
23
22
21
21
20
19
18
17
17
19
23
29
36
43
50
56
60
61
60
59
56
53
51
48
45
43
42
41
41
41
41
42
42
41
40
40
38
36
34
32
31
29
28
27
26
25
25
24
23
23
23
22
22
21
21
20
19
19
18
19
22
28
34
41
49
55
59
61
60
58
56
53
50
48
45
45
41
40
40
40
41
41
41
41
41
39
37
37
34
32
32
30
29
29
27
27
26
25
25
25
24
23
23
23
22
22
21
21
20
20
19
18
20
25
31
39
47
56
62
66
67
67
65
62
60
58
55
53
51
49
47
46
46
46
46
46
46
45
44
42
40
39
38
36
35
34
33
32
31
30
30
29
28
28
28
27
27
26
26
25
24
24
23
23
22
22
21
21
23
27
34
41
50
59
66
69
71
70
68
65
63
60
58
55
53
51
49
48
48
47
47
47
47
46
45
43
41
40
39
37
35
34
33
32
31
30
30
29
28
28
27
26
26
25
25
24
24
23
23
22
21
21
22
26
32
39
47
55
62
66
67
67
65
62
59
56
53
51
48
47
45
45
45
46
46
46
46
45
43
42
40
39
37
36
34
33
31
30
29
29
28
28
27
27
27
27
26
26
25
24
24
23
23
25
29
34
41
49
57
63
66
68
67
65
62
59
56
53
50
48
46
45
45
46
46
47
47
47
47
45
43
43
40
38
38
36
35
35
32
32
32
31
30
30
29
29
29
28
27
26
26
25
25
24
26
29
35
42
51
60
67
72
74
74
73
70
68
65
63
60
58
57
55
54
54
54
54
54
53
52
51
49
47
45
43
41
40
38
37
36
35
34
33
32
31
31
30
29
29
28
28
27
26
25
24
24
25
28
34
41
50
59
67
72
75
75
75
73
71
68
66
63
61
59
57
56
55
55
55
55
54
53
51
50
48
46
44
42
40
40
38
37
36
35
34
33
32
32
31
30
30
29
28
27
27
26
25
24
24
26
30
37
44
53
62
68
73
74
74
72
70
67
65
62
59
57
55
53
52
52
52
52
51
51
49
47
45
43
41
40
38
36
35
34
32
32
30
30
29
28
27
27
26
25
25
24
23
22
21
21
22
26
32
39
46
54
61
65
66
66
64
61
58
55
52
49
47
45
44
44
44
44
44
44
44
42
41
40
38
36
34
32
31
29
28
27
26
25
25
24
24
23
23
22
21
20
20
20
21
25
31
38
45
53
59
63
64
63
62
59
56
53
51
48
46
44
43
42
43
43
43
43
42
41
40
38
36
34
33
31
30
29
28
27
26
25
24
24
24
23
23
23
22
21
21
20
19
19
23
28
28
43
51
51
62
64
64
63
61
61
57
55
52
50
48
47
46
45
44
44
44
44
43
42
40
39
38
36
34
33
31
30
29
28
27
27
26
26
25
24
24
23
23
22
21
21
20
20
19
19
20
24
29
37
45
53
60
64
66
65
64
62
60
58
56
53
46
46
46
45
45
43
42
40
39
37
36
34
33
32
31
30
29
28
27
27
26
25
25
24
24
24
23
22
21
21
20
19
19
21
24
30
37
44
52
58
61
62
62
60
58
56
53
51
49
47
45
43
42
41
41
41
41
40
40
39
37
35
34
32
30
29
28
27
26
26
25
24
24
23
23
23
22
22
21
21
20
19
18
18
18
20
25
31
38
45
51
56
58
57
55
53
50
47
44
42
40
39
38
37
37
37
37
37
37
37
36
34
33
31
30
28
27
26
25
24
24
23
23
23
22
22
22
22
21
21
20
19
19
20
22
26
32
39
45
51
55
55
56
54
54
48
45
45
40
39
39
36
36
36
37
38
38
38
38
38
36
35
33
32
30
29
28
27
27
26
26
25
25
25
24
24
24
24
23
23
22
22
23
26
30
37
43
50
56
60
61
60
58
56
53
51
49
46
44
43
41
41
40
41
41
41
41
40
40
39
37
36
34
33
32
31
30
29
28
27
27
26
26
25
25
25
24
24
24
23
22
22
21
23
26
32
39
45
53
58
61
62
61
59
56
54
52
50
48
46
44
43
42
42
42
43
42
42
42
41
40
39
38
37
35
34
33
32
31
31
30
29
29
28
28
27
27
26
26
25
24
24
23
24
27
32
38
43
50
56
59
60
59
58
56
53
51
49
47
45
43
42
42
42
42
42
42
42
41
40
40
39
37
36
34
33
32
31
30
30
29
29
28
27
27
27
26
26
25
25
24
24
25
29
33
39
45
51
56
59
59
58
56
54
51
49
46
44
42
41
41
41
42
43
43
43
43
42
40
40
38
37
35
34
33
32
31
30
30
29
29
28
28
27
27
27
28
30
34
39
44
50
56
59
61
60
59
57
55
52
50
47
45
44
43
43
44
45
45
46
46
45
44
43
41
40
39
38
37
36
36
35
34
33
33
31
31
31
30
32
32
40
45
45
58
62
62
66
65
65
62
60
60
56
54
52
51
50
50
50
50
50
50
49
48
47
45
44
42
41
40
40
38
37
36
35
34
34
33
32
31
31
31
31
34
39
44
51
58
64
67
69
69
68
66
64
62
60
58
56
54
53
52
52
51
51
50
50
49
47
45
44
42
40
40
38
37
36
35
34
33
33
32
31
31
30
30
29
28
27
27
28
31
35
40
47
54
60
64
66
66
64
63
61
59
57
55
53
51
50
49
49
49
48
48
47
46
45
43
42
40
39
38
36
35
34
33
31
30
30
29
28
28
27
26
26
25
24
24
24
25
28
33
39
45
51
55
57
58
57
56
54
52
50
48
46
44
43
42
42
42
42
42
42
41
40
40
38
37
35
34
33
32
31
31
30
30
29
28
28
27
26
25
24
24
24
26
29
33
38
43
48
52
54
54
53
64
59
54
49
44
40
38
36
36
36
37
37
37
36
34
32
29
27
27
22
20
20
16
15
15
13
12
12
10
9
9
7
8
8
19
29
29
52
62
68
71
70
67
63
59
54
50
46
42
40
38
37
37
37
38
37
36
34
32
30
28
25
23
21
20
18
17
15
14
13
12
11
10
9
9
7
6
6
7
10
18
29
41
55
67
76
80
80
78
74
70
67
63
59
56
53
50
48
47
47
47
46
46
44
42
40
37
34
31
29
27
25
24
22
20
19
18
17
15
14
13
11
10
8
8
10
16
25
36
48
60
70
75
76
73
70
65
60
55
51
47
43
41
40
39
40
40
40
39
39
37
34
31
28
26
23
20
18
17
15
13
12
11
10
9
9
8
7
6
6
8
14
23
33
44
56
64
69
70
67
63
58
53
47
42
38
35
32
31
32
33
33
33
33
32
30
27
25
22
19
17
15
13
11
11
10
9
8
8
7
7
6
7
10
17
27
39
50
61
69
72
72
69
64
58
53
47
42
38
35
33
33
33
34
35
35
34
32
30
27
25
22
20
18
16
14
12
11
11
10
9
9
8
7
8
12
19
29
41
53
64
71
73
72
68
63
58
54
49
45
41
39
37
36
36
36
36
36
36
35
33
31
28
25
23
21
19
17
16
16
15
15
14
13
13
12
13
13
27
37
37
61
71
71
78
76
76
67
62
62
51
47
43
40
39
39
39
40
40
41
41
40
39
36
33
30
27
25
23
21
19
18
17
16
14
14
13
12
11
11
12
16
24
35
46
59
70
77
79
78
74
68
63
57
51
47
43
40
39
39
39
40
40
40
40
39
37
35
32
30
27
25
23
21
20
18
17
16
15
14
13
11
11
12
17
25
35
46
57
67
72
74
71
67
61
54
48
42
38
34
32
32
33
35
37
38
38
37
36
33
31
28
26
24
21
19
18
16
15
13
12
11
10
12
17
26
37
49
61
70
75
76
73
69
63
57
51
46
41
39
37
37
37
39
40
40
40
40
38
36
33
30
28
26
24
22
20
20
19
18
16
15
14
13
13
13
18
25
36
49
62
74
82
85
85
81
76
71
66
61
57
53
50
48
48
48
48
49
49
48
46
45
42
40
37
35
33
31
29
27
26
25
23
22
22
22
21
20
19
19
18
18
21
28
28
49
63
63
83
87
87
83
79
79
70
66
66
58
56
56
52
51
51
51
50
49
47
45
43
40
39
36
34
32
30
28
26
25
24
23
22
21
21
19
19
18
17
16
15
13
12
11
13
18
27
40
52
65
75
82
83
81
77
73
68
63
58
54
50
48
46
46
47
48
49
48
47
46
43
41
38
36
33
31
29
27
25
24
23
22
22
21
20
19
17
16
15
15
15
19
27
37
48
60
70
76
79
78
74
70
65
59
54
49
45
42
41
41
42
44
45
46
46
44
42
40
38
35
32
30
27
25
24
22
21
20
20
19
18
17
17
16
16
15
14
13
14
18
26
37
50
64
76
85
89
90
88
84
80
75
70
65
61
58
56
54
54
55
55
56
55
54
52
49
46
43
40
38
35
33
31
29
28
26
25
24
23
22
21
20
20
19
18
17
15
14
13
12
10
10
13
20
32
45
60
75
87
93
95
94
90
86
81
76
72
67
63
60
57
56
56
56
56
56
55
53
51
48
44
41
38
35
33
31
29
27
25
23
22
21
20
20
18
17
16
14
14
12
11
10
9
7
6
6
10
18
30
44
59
73
83
87
88
85
80
75
69
64
58
54
50
48
47
47
47
50
51
51
50
48
48
43
40
40
33
29
29
24
21
21
19
18
18
16
16
15
15
14
13
12
11
9
9
12
18
29
42
57
72
84
91
94
93
90
85
79
74
68
63
58
55
53
53
54
55
56
56
55
54
51
48
45
41
39
36
33
30
28
26
25
23
22
21
20
19
18
16
15
14
13
12
11
10
9
8
6
4
4
7
15
27
43
61
79
94
103
107
107
104
100
95
65
63
61
59
57
55
54
54
54
54
54
54
53
51
50
48
46
44
42
40
40
38
37
36
35
35
34
33
32
32
31
30
30
29
29
28
28
27
27
26
25
25
27
32
38
45
54
62
68
72
73
73
71
69
66
63
60
58
56
54
53
52
52
52
52
52
51
50
48
47
45
43
41
40
39
37
36
35
34
33
32
31
30
30
29
29
28
27
27
26
25
25
24
24
27
32
38
44
52
59
64
67
68
66
65
62
59
56
53
51
49
48
48
48
49
50
50
50
49
48
46
44
42
42
40
38
38
36
35
35
33
32
32
31
31
31
30
29
29
28
28
28
28
32
32
43
51
59
66
70
72
72
71
69
66
63
61
58
56
54
53
53
53
53
53
53
52
51
50
48
46
44
42
41
40
39
38
36
35
34
34
33
32
32
31
31
30
30
29
28
28
27
26
27
30
35
42
50
59
67
73
76
77
77
75
73
71
68
66
64
61
60
59
58
58
58
57
56
55
54
52
50
48
46
44
42
41
40
39
38
37
37
36
35
34
33
32
31
31
30
29
29
28
27
26
25
25
27
32
38
46
55
63
70
74
75
75
74
72
70
67
65
63
60
58
56
55
55
54
54
53
52
51
49
47
44
42
40
39
38
36
35
34
32
31
30
29
29
28
27
27
26
25
25
24
23
22
21
21
46
54
61
65
67
68
66
64
62
59
56
53
51
49
48
48
48
48
48
48
47
46
44
42
40
39
38
36
34
33
32
30
30
29
28
27
27
26
26
25
25
24
24
23
22
21
23
26
31
39
47
55
63
68
71
71
69
67
64
62
59
56
54
52
51
50
50
50
50
50
49
47
45
43
41
40
37
35
34
33
32
31
30
29
28
27
26
26
25
25
24
24
23
23
22
21
21
20
20
20
27
34
34
52
61
61
73
75
75
74
72
72
67
65
63
60
58
56
54
53
53
53
52
51
49
47
45
42
40
39
37
35
33
32
30
29
27
26
25
24
24
23
22
21
20
19
18
18
17
16
15
15
14
14
17
22
29
38
47
56
63
68
70
69
68
65
63
60
57
54
52
50
48
47
47
47
47
47
46
45
43
41
40
37
35
33
31
30
28
27
26
25
25
24
23
23
22
22
21
21
20
19
18
17
17
17
20
25
32
41
50
59
66
69
71
70
68
65
62
59
56
53
51
49
47
47
47
46
46
46
45
44
42
40
38
36
34
32
30
29
28
27
26
25
24
23
23
22
22
21
20
20
19
19
18
18
17
17
16
15
16
18
24
32
41
52
62
70
75
77
77
75
73
70
68
65
63
60
58
56
54
53
52
52
51
50
49
47
45
43
41
39
37
35
34
32
31
30
28
27
26
25
24
24
23
22
22
21
20
19
19
18
18
18
17
16
16
15
15
15
19
26
26
43
54
54
71
75
75
75
73
73
67
65
65
59
56
54
52
51
50
50
49
49
48
46
44
42
40
39
37
35
33
31
29
28
27
26
25
24
23
23
22
21
21
20
20
19
18
18
17
16
15
15
15
17
21
29
38
47
57
64
69
71
71
69
66
63
59
56
53
50
48
46
46
47
47
47
47
47
46
44
42
40
39
37
35
33
31
30
29
28
27
26
25
24
24
23
23
22
22
22
21
20
20
19
18
19
23
30
38
47
58
67
73
76
77
76
73
71
68
65
62
59
56
54
53
52
52
52
51
51
50
49
47
44
42
40
39
37
35
33
32
30
29
29
28
27
26
25
25
24
23
23
22
22
20
20
19
18
18
17
18
21
27
35
44
55
65
73
78
79
79
77
75
72
69
66
64
61
58
56
55
54
54
54
53
52
51
49
47
44
42
40
38
36
35
33
32
30
29
28
27
26
25
25
24
23
22
22
21
21
20
19
18
17
16
16
17
21
28
36
45
56
65
71
74
74
73
71
68
64
61
58
55
52
50
50
49
50
50
50
50
49
47
45
43
41
40
38
36
34
33
32
31
30
29
28
27
26
25
25
24
24
23
22
22
20
20
20
24
30
30
46
56
64
70
73
73
73
71
71
65
62
62
55
53
51
50
50
51
51
51
50
49
48
46
44
42
40
38
36
35
33
32
31
30
29
29
28
28
27
26
26
25
25
24
23
23
22
22
24
28
35
43
53
64
73
78
81
81
80
78
76
73
70
67
64
61
59
58
57
57
57
56
56
54
53
51
48
46
44
42
40
39
37
35
34
33
32
31
30
30
29
28
27
26
26
25
24
23
23
22
21
21
22
25
32
40
49
59
68
75
78
79
79
77
74
72
69
65
62
60
57
55
54
53
53
52
51
50
48
46
44
41
40
38
36
33
32
30
29
28
27
26
25
24
24
23
22
22
21
20
19
18
17
16
17
20
26
34
42
52
60
66
70
71
70
68
65
62
58
54
51
49
47
46
46
46
46
46
46
45
43
41
40
38
35
34
32
30
28
27
26
25
24
23
22
22
21
21
20
20
19
18
17
17
17
19
24
32
40
50
60
67
71
71
73
72
72
66
63
63
56
54
54
50
49
49
49
49
49
47
46
46
42
40
40
35
33
31
29
28
26
25
24
23
22
21
21
20
20
19
19
18
18
17
16
15
14
14
16
20
27
36
45
56
65
71
75
76
75
73
71
68
66
63
60
57
55
53
52
51
51
50
49
47
46
44
42
40
38
35
33
31
30
28
27
26
25
24
23
23
22
21
20
20
19
18
17
16
16
15
15
14
13
13
13
16
22
30
40
50
60
67
72
75
75
73
71
68
66
63
60
58
55
53
51
50
49
48
47
47
45
43
41
40
37
35
33
31
29
27
26
25
24
23
22
21
20
19
18
18
17
17
16
15
14
13
13
13
15
20
27
35
44
53
60
65
67
67
65
63
60
57
54
51
48
46
44
43
43
43
43
43
42
41
40
38
36
34
32
30
28
27
26
25
23
22
21
21
20
20
19
18
18
17
16
16
15
15
18
23
30
39
47
56
63
67
68
68
66
63
61
58
55
52
49
47
46
45
44
44
44
43
42
41
40
38
36
34
32
30
29
27
26
25
24
23
22
21
20
20
19
19
18
18
17
17
16
15
16
19
24
31
40
48
57
63
67
68
68
67
65
63
60
58
56
53
53
50
49
49
48
47
47
46
44
44
40
39
39
35
33
33
30
29
29
27
25
25
24
23
23
22
21
21
20
20
19
18
18
17
16
17
19
24
31
40
48
56
62
65
66
65
64
62
59
57
54
52
50
48
47
46
45
45
45
44
43
42
40
39
37
35
33
32
30
29
28
27
26
25
25
24
23
23
22
22
21
21
20
19
19
18
17
17
19
23
28
36
42
50
56
60
61
61
59
57
54
52
49
47
45
43
42
42
42
42
42
42
41
40
40
38
36
34
32
31
30
29
28
27
26
25
25
24
23
23
23
22
22
21
21
20
19
19
20
23
28
35
42
50
58
63
65
66
65
64
61
59
56
54
52
50
48
47
46
46
46
46
45
44
42
40
39
37
36
34
32
31
30
29
28
27
26
25
25
25
24
24
23
23
22
22
21
20
20
19
19
18
18
19
23
29
37
45
54
62
67
70
70
69
68
66
64
62
60
58
55
54
52
51
51
50
49
49
47
46
46
42
40
40
37
35
35
33
32
32
29
28
28
27
26
26
24
24
24
22
21
21
20
19
18
17
17
18
21
26
33
41
50
58
64
67
68
67
65
63
60
58
55
53
51
49
48
47
47
47
46
46
45
44
42
40
39
37
36
34
32
31
30
28
28
27
26
25
24
24
23
23
22
22
21
20
19
19
19
21
25
31
39
47
55
60
64
65
64
63
60
57
54
51
48
46
44
43
43
43
44
44
44
44
43
42
40
39
37
35
34
32
31
29
28
28
27
26
26
26
25
25
25
24
23
23
22
22
23
27
33
40
49
58
65
70
72
72
71
69
66
64
61
59
56
54
53
52
51
51
51
51
50
49
47
45
43
41
40
38
37
35
34
33
31
30
29
29
28
27
27
26
25
25
24
24
23
22
22
21
22
25
30
38
46
55
64
70
73
74
73
72
70
67
65
62
60
57
55
54
52
52
51
51
50
49
48
46
44
42
40
39
37
36
34
33
32
30
30
29
28
27
26
25
25
24
23
23
22
21
20
20
19
20
23
28
35
43
51
59
64
66
67
65
63
60
58
55
52
50
47
46
45
44
45
45
45
44
43
42
40
39
37
35
34
32
31
30
29
28
27
26
25
25
24
24
24
23
22
22
21
20
20
19
20
20
30
37
37
51
57
57
62
61
59
56
53
50
47
45
43
42
41
42
42
43
43
44
43
42
40
40
38
36
35
33
32
31
30
29
28
28
27
27
26
26
25
25
24
24
23
22
22
24
28
34
41
49
56
62
65
67
66
64
62
59
57
55
53
51
49
48
48
48
48
48
47
47
46
44
42
41
40
38
37
36
35
33
32
32
31
30
30
29
29
28
28
27
27
26
26
25
24
24
24
26
31
37
44
52
60
66
69
71
70
69
67
65
63
60
58
56
55
53
53
52
52
51
51
50
49
48
46
44
42
40
39
37
36
34
33
32
31
31
30
29
29
28
27
27
26
25
25
24
24
23
22
22
24
27
33
40
48
56
63
66
67
67
65
62
60
58
55
53
51
49
48
47
47
48
48
48
47
46
45
43
41
40
38
37
35
34
32
31
30
29
28
28
27
27
26
26
25
24
23
23
22
24
28
33
40
47
54
54
64
65
65
53
51
49
47
46
45
45
45
46
46
46
45
44
42
40
39
38
36
35
34
33
32
31
30
29
28
28
28
27
27
26
26
25
24
24
25
29
35
41
50
58
65
70
72
72
70
69
67
64
62
59
57
55
54
53
53
53
52
51
51
49
47
45
43
41
40
39
37
36
34
33
32
32
31
30
30
29
29
28
28
27
26
25
25
24
24
26
31
38
45
54
62
67
71
72
71
69
67
65
62
60
58
55
54
52
52
51
51
51
50
49
48
46
44
42
40
38
37
35
33
32
31
30
29
28
28
27
26
26
25
24
24
23
22
21
20
20
19
20
23
28
35
42
50
58
63
66
66
65
63
61
58
55
53
51
49
48
47
47
47
47
47
47
46
44
43
41
40
38
36
34
33
32
31
30
29
28
27
27
27
26
25
25
24
23
23
23
26
30
36
42
49
55
60
63
63
62
60
57
55
52
49
46
45
44
43
44
44
45
45
44
43
42
40
39
38
36
34
33
32
31
30
29
28
27
27
27
26
26
25
24
23
23
23
24
28
34
40
48
56
62
66
67
67
65
64
61
59
56
54
52
50
48
48
48
48
48
47
46
45
43
41
40
38
37
37
34
32
32
30
29
29
28
27
27
26
26
26
24
23
23
22
22
22
28
33
40
47
55
61
65
66
66
65
64
62
60
57
55
53
51
50
49
48
48
48
47
46
45
43
41
40
39
37
36
34
33
31
30
29
28
27
26
26
25
25
24
23
22
21
20
19
18
18
20
24
30
36
43
49
54
57
58
58
56
54
53
50
48
46
44
43
42
42
42
42
41
41
40
40
38
36
35
33
31
30
29
27
27
25
25
24
23
22
21
21
20
19
18
17
17
16
17
19
23
27
33
40
44
48
50
50
50
48
46
44
42
40
39
37
36
36
36
37
37
37
37
36
35
33
32
30
29
27
26
25
24
24
23
22
22
22
21
20
20
19
19
18
17
17
18
21
26
32
38
44
49
52
53
53
53
52
50
49
48
46
44
43
42
41
41
42
42
41
41
40
39
38
36
34
33
31
30
29
28
27
26
25
25
24
24
23
23
22
21
21
20
19
19
19
20
23
28
35
40
40
52
55
55
56
55
55
52
50
50
46
45
45
43
42
42
42
42
42
41
40
40
38
37
35
34
32
31
30
29
28
27
27
26
25
25
24
24
23
22
22
21
21
20
20
19
18
18
18
19
23
29
36
42
49
54
57
58
57
56
54
52
50
48
46
44
43
42
42
42
42
42
42
41
40
40
38
37
35
34
32
31
30
29
28
27
27
26
26
25
25
24
24
23
23
22
21
21
21
22
25
30
36
42
48
53
57
58
57
55
53
51
48
46
44
42
41
40
40
41
41
42
42
42
41
40
39
38
36
35
33
32
31
30
29
28
27
27
26
26
25
25
25
24
24
23
23
22
22
23
27
32
39
46
53
60
64
66
65
64
62
60
57
55
53
51
49
48
47
47
47
47
47
47
46
45
43
41
40
39
38
36
35
34
33
32
31
30
30
29
29
28
28
28
27
27
26
25
25
24
23
24
26
31
37
44
52
60
66
69
70
70
69
67
65
62
60
58
56
54
53
52
51
51
51
50
50
48
47
45
43
41
40
39
37
36
34
33
32
31
31
30
29
29
28
28
27
26
26
25
24
23
22
22
22
25
30
37
43
51
58
62
64
65
63
61
59
56
53
51
49
47
45
45
44
44
44
44
44
44
42
40
40
37
35
35
32
31
31
29
28
28
26
26
25
25
24
24
23
23
22
22
21
21
22
25
30
36
42
49
54
57
58
58
56
53
51
48
45
43
41
40
40
40
40
40
41
41
41
40
40
38
37
35
33
32
31
30
29
28
28
27
27
26
26
26
25
25
25
24
24
23
24
26
30
35
41
48
55
59
62
62
61
59
57
55
53
51
49
47
46
45
45
45
45
45
45
45
44
42
41
40
39
38
37
36
35
34
33
33
32
31
31
30
30
30
29
29
28
28
27
27
28
31
36
41
48
55
60
63
64
63
62
60
58
56
54
52
50
48
47
47
47
47
46
46
45
44
43
41
40
38
37
35
34
33
32
31
31
30
30
29
29
29
28
28
27
27
26
25
25
25
26
29
34
40
47
53
58
61
62
61
59
57
54
52
49
47
45
44
43
43
44
44
44
44
44
42
41
40
39
37
36
35
34
33
33
32
31
31
30
30
30
30
29
28
28
27
27
27
30
35
35
46
52
52
61
63
63
61
59
59
53
51
49
47
45
45
44
45
45
46
46
45
44
43
41
40
39
38
37
35
35
34
33
32
32
31
30
30
30
29
29
28
28
27
26
26
27
30
35
41
48
56
62
66
67
67
66
64
62
60
58
55
54
52
51
50
50
50
50
49
49
48
47
45
44
42
40
40
39
38
37
36
35
34
33
33
32
32
31
31
31
30
29
29
28
27
26
26
26
27
31
36
42
50
58
64
68
69
69
67
66
63
61
59
57
55
53
51
51
50
50
50
50
49
47
46
44
43
41
40
39
37
36
35
34
33
33
32
31
31
30
30
29
28
28
27
26
25
25
24
23
22
22
25
29
35
41
49
57
63
66
66
65
64
61
59
56
54
52
50
48
47
47
47
47
47
47
46
45
44
42
40
40
38
37
35
34
33
32
31
30
30
29
29
28
28
27
27
26
26
25
24
23
23
24
27
32
39
46
53
60
64
66
66
64
62
60
57
54
52
49
47
46
46
46
47
47
47
47
46
44
43
41
40
38
37
35
34
33
32
31
30
30
29
28
28
27
27
27
26
26
25
24
23
23
25
29
35
42
50
59
59
70
72
72
71
68
68
63
61
61
56
54
54
51
51
51
51
51
51
49
48
48
44
43
41
40
38
37
36
35
34
33
32
31
31
30
29
29
28
28
27
27
26
25
24
24
25
28
33
40
49
58
66
72
74
75
75
73
71
68
66
63
61
59
57
56
55
54
54
54
53
52
50
49
46
44
42
40
39
37
35
34
33
31
30
30
29
28
27
27
26
25
25
24
23
23
22
21
21
22
26
32
39
47
56
64
69
71
72
70
68
65
62
59
56
54
52
51
50
50
50
50
50
49
48
47
45
43
41
40
38
36
35
34
32
31
30
30
29
28
28
27
26
26
25
24
23
23
24
27
32
39
46
54
61
65
68
68
66
64
61
58
55
52
49
48
46
46
46
47
48
48
48
47
45
43
41
40
38
36
34
33
32
31
30
29
29
28
28
27
27
26
26
26
29
34
40
48
56
63
68
71
72
72
70
68
65
62
60
57
55
53
52
52
52
52
52
51
50
48
47
45
43
43
40
38
38
36
34
34
32
31
31
29
29
29
28
27
27
26
25
25
25
28
33
40
48
58
66
72
76
78
78
76
75
72
70
67
65
62
60
59
58
57
57
56
55
54
52
50
48
46
44
42
41
40
39
37
36
35
34
33
32
31
30
30
29
28
28
27
26
25
24
23
24
26
32
39
47
56
65
71
74
76
75
74
72
69
67
64
61
59
56
55
54
53
53
52
51
50
48
46
43
41
40
38
36
34
32
31
30
29
28
27
27
26
26
25
24
24
23
22
21
20
20
20
22
27
34
41
50
58
64
68
69
69
67
65
62
58
55
52
50
48
47
47
47
47
47
46
45
43
42
40
39
37
34
33
31
30
28
27
27
26
25
24
24
24
23
22
22
21
20
21
23
28
35
42
51
59
65
69
70
69
68
65
62
59
56
53
51
49
47
47
47
47
47
46
45
43
41
40
38
36
34
32
31
29
28
27
26
25
24
23
23
22
21
21
20
20
19
18
17
17
16
16
19
24
31
40
49
58
66
70
72
72
71
69
66
64
61
59
56
54
52
50
50
49
48
48
46
45
43
41
40
37
35
33
31
29
28
27
26
25
24
23
22
21
20
20
19
18
17
17
16
15
15
14
13
13
12
12
12
18
25
25
42
51
51
64
67
67
67
65
63
61
58
56
53
51
49
47
46
46
45
45
44
43
41
40
37
35
33
31
29
28
26
25
24
23
22
21
20
19
18
17
17
16
14
13
12
12
11
12
16
21
28
37
46
54
59
62
64
63
61
58
56
53
50
47
45
44
43
42
42
42
42
41
40
40
38
36
34
32
30
28
26
25
24
23
22
21
20
19
19
18
17
17
16
16
15
15
14
13
13
14
18
24
32
40
49
56
61
63
63
62
60
58
55
52
49
47
45
43
42
42
42
43
42
42
41
40
39
37
35
33
31
29
28
26
25
24
23
22
21
21
20
20
19
19
18
18
17
17
16
15
15
14
14
16
21
28
37
46
55
63
68
70
71
70
68
66
63
60
58
55
53
51
50
49
49
49
48
48
47
45
43
41
40
38
36
34
32
30
29
28
27
26
25
24
24
23
22
22
21
21
20
19
19
18
17
16
16
17
21
21
35
43
43
62
68
68
73
72
72
68
66
66
60
58
58
53
51
51
50
50
49
49
48
46
44
42
40
39
37
35
33
32
30
29
28
27
26
25
25
24
23
23
22
21
21
20
20
19
18
17
17
19
24
30
38
47
55
63
67
69
69
68
65
62
59
55
53
50
48
47
46
46
46
46
46
46
45
43
41
40
38
36
34
32
31
29
28
27
26
25
24
23
23
22
22
22
21
20
19
19
18
17
17
20
25
31
40
48
56
62
66
67
66
64
62
59
56
53
50
47
46
44
44
45
45
46
46
45
44
42
40
39
37
35
33
32
30
29
28
27
26
26
25
24
24
23
23
23
22
22
21
20
20
19
18
19
22
27
35
43
52
61
68
72
73
73
71
69
66
64
61
59
56
54
53
52
51
51
51
50
49
48
46
44
42
40
39
37
36
34
33
32
30
30
29
28
27
27
26
26
25
24
24
23
22
21
21
20
19
20
23
28
35
43
52
61
67
71
72
71
70
67
65
62
59
57
54
52
50
49
49
49
49
48
47
46
44
42
40
39
37
35
34
32
31
30
29
28
27
26
26
25
25
24
23
23
22
22
21
20
19
19
20
23
29
37
37
53
61
61
68
68
68
65
62
62
55
52
52
47
45
45
45
46
46
46
46
45
44
42
40
39
37
35
34
32
31
29
28
28
27
26
26
25
25
24
24
23
23
22
22
23
27
33
40
48
57
64
70
72
73
72
70
67
64
60
58
55
52
51
50
50
50
50
50
50
49
47
45
43
41
40
38
36
35
33
32
31
30
29
28
28
27
26
26
25
25
24
23
23
22
22
23
27
33
40
50
60
69
76
79
80
79
78
75
72
70
67
64
62
60
58
57
56
56
56
55
54
52
51
48
46
44
42
40
38
37
35
34
33
31
30
30
29
28
27
26
25
25
24
23
23
22
21
20
19
20
23
30
38
46
57
66
72
75
76
76
74
71
68
65
63
60
57
55
53
52
52
51
51
49
48
47
45
43
41
40
38
36
34
33
31
30
28
27
26
25
25
24
23
23
22
21
20
19
18
18
18
20
25
32
40
48
57
64
67
69
68
66
63
60
56
53
50
47
45
45
45
45
45
46
46
46
44
42
42
38
36
36
32
31
31
28
27
27
25
24
24
23
23
23
22
22
21
20
20
20
23
28
35
43
52
61
68
72
73
72
70
67
64
61
57
54
52
50
48
48
48
48
48
48
47
46
44
42
40
38
36
34
32
31
29
28
27
27
26
25
24
24
23
23
22
22
21
20
19
19
20
24
30
38
47
57
66
72
75
76
75
73
71
68
65
62
59
57
54
53
52
51
51
51
50
49
48
46
44
42
40
39
37
35
34
32
31
30
29
28
27
27
26
25
25
24
23
23
22
21
20
20
21
25
31
40
49
59
67
73
76
77
76
73
70
67
64
61
58
56
54
52
51
51
51
51
50
49
47
45
43
40
39
37
35
33
32
30
29
28
27
26
25
25
24
23
23
22
21
21
20
19
19
21
25
32
40
49
58
65
70
72
71
69
67
63
60
56
53
50
48
47
47
47
47
48
47
47
46
44
42
40
39
37
35
33
31
30
28
27
26
25
25
24
24
23
23
22
21
21
22
25
30
37
45
54
63
69
72
74
73
71
68
65
61
58
55
52
50
50
49
50
50
50
49
48
46
45
42
40
39
37
35
34
32
31
30
29
28
27
27
26
26
25
24
24
23
22
22
22
25
25
38
46
46
66
73
73
80
79
79
76
73
70
67
64
61
59
57
56
55
55
55
54
53
51
49
47
44
42
40
39
37
36
34
32
31
30
29
29
28
27
26
26
25
24
23
22
21
21
20
22
27
34
42
52
62
70
75
78
78
76
74
71
68
65
61
58
55
53
52
51
50
50
49
48
47
45
43
40
39
37
34
32
31
29
28
26
25
25
24
23
22
22
21
20
20
19
18
17
16
16
17
21
28
36
45
54
62
68
70
71
69
67
63
60
56
53
50
47
46
45
46
46
46
45
45
43
41
40
38
36
33
31
29
28
26
25
24
23
22
21
21
20
20
19
18
17
17
18
20
26
33
41
50
59
65
68
69
68
66
63
59
56
52
49
47
45
44
44
44
44
44
44
42
41
40
37
35
33
31
29
28
27
25
24
23
23
22
21
21
21
20
20
19
18
18
18
20
25
32
40
50
59
67
71
73
73
72
70
67
64
64
58
56
56
52
51
51
50
49
49
48
46
46
42
40
40
37
35
35
31
30
29
28
27
26
25
25
24
23
23
22
21
21
20
19
20
24
29
37
45
54
62
68
70
71
70
68
65
63
60
57
54
51
49
48
47
47
47
46
46
44
42
41
39
37
35
33
32
30
28
27
26
25
24
23
23
22
21
21
20
20
19
18
18
17
16
16
19
24
31
39
47
56
62
65
66
65
63
61
58
54
51
48
46
44
43
43
43
43
43
43
42
40
39
37
35
33
31
29
28
27
26
25
24
23
22
22
21
20
20
19
18
17
17
16
18
21
27
34
41
49
55
59
61
61
59
57
54
51
48
46
43
41
40
40
40
40
40
40
40
39
37
35
33
31
29
27
26
25
24
23
22
21
20
20
20
19
19
18
18
17
17
16
15
16
18
23
29
37
44
52
57
60
61
60
59
57
55
52
50
48
46
45
43
42
42
41
41
40
40
39
37
36
34
32
30
29
28
26
25
24
23
22
21
21
20
19
19
18
18
17
17
16
15
14
14
13
13
16
20
26
34
41
48
53
56
57
57
55
54
52
50
47
45
43
42
41
40
40
40
40
40
39
38
37
35
34
32
30
28
27
26
25
25
23
22
22
21
20
20
19
18
18
17
16
16
14
14
13
14
18
18
29
36
42
48
52
54
54
52
50
48
46
43
41
40
39
38
38
38
38
39
39
38
37
36
34
32
31
29
28
27
25
25
24
23
22
22
21
21
20
20
19
19
18
17
18
19
23
28
34
40
47
52
56
57
57
55
53
51
48
46
44
42
41
41
40
40
41
41
41
41
40
39
37
36
34
33
31
30
29
28
27
26
25
24
24
23
23
22
22
21
21
20
20
19
19
21
25
30
37
44
52
58
62
64
63
62
61
59
56
54
52
50
48
47
46
46
46
45
45
45
44
42
41
40
38
37
35
34
32
31
30
29
29
28
27
26
25
25
24
24
23
22
22
21
20
19
19
20
23
28
34
41
49
55
59
61
62
60
58
56
53
51
49
47
45
44
43
43
43
43
43
43
42
41
40
39
37
35
34
32
31
30
29
28
28
27
26
26
26
25
25
24
24
23
22
21
21
21
22
26
32
32
44
51
51
59
60
60
58
55
55
50
47
47
43
42
42
41
42
42
43
43
42
41
40
39
37
36
34
33
32
31
30
29
29
28
28
27
27
26
26
25
25
25
24
25
27
31
37
43
51
58
62
65
65
64
62
60
57
55
52
50
48
47
46
46
46
47
47
47
46
45
44
42
40
39
38
36
35
34
33
32
31
30
30
29
29
28
28
28
27
27
26
26
25
24
25
27
32
39
46
55
63
68
72
73
72
70
68
66
64
61
59
57
55
54
53
53
52
52
52
51
50
48
46
44
43
41
40
38
37
36
35
34
33
32
31
31
30
29
28
28
27
27
26
25
24
23
22
22
24
27
33
40
48
57
64
70
67
65
62
59
56
54
52
51
51
51
51
50
50
49
48
47
45
43
41
40
38
36
35
34
32
32
31
30
29
28
28
27
27
26
25
24
24
22
22
22
24
29
35
42
50
58
63
66
67
67
65
62
59
55
51
48
46
45
45
45
45
46
46
46
45
44
42
40
39
38
36
35
33
32
31
30
29
29
28
28
27
26
26
25
24
24
25
28
33
40
47
56
63
69
72
72
72
70
67
64
61
58
55
53
51
51
50
50
50
50
50
49
49
46
44
44
40
38
38
35
34
34
31
30
30
28
28
28
27
26
26
26
25
25
24
23
23
24
27
32
40
49
59
68
75
79
81
80
79
77
74
71
69
66
63
61
60
59
58
57
57
57
55
54
52
50
48
45
43
41
40
39
37
36
35
34
33
32
31
31
30
29
28
27
27
26
25
24
23
22
23
26
32
39
48
58
67
73
77
79
78
77
74
72
69
66
63
60
58
57
56
55
55
55
54
53
51
49
47
44
42
40
39
37
35
34
33
31
30
29
29
28
27
26
26
25
24
23
22
22
23
27
32
40
47
56
63
68
70
71
69
67
64
61
57
54
51
49
48
48
48
48
49
48
47
45
43
41
40
37
36
34
32
31
30
28
27
26
26
25
24
24
23
23
22
21
20
20
22
26
33
40
49
58
66
71
73
73
71
69
66
63
60
57
54
52
51
50
49
49
49
49
47
46
43
41
40
37
35
33
32
30
29
28
27
26
25
25
24
24
23
23
23
21
21
21
19
18
18
18
21
21
33
41
41
60
68
68
74
73
73
70
68
65
62
60
57
55
53
52
51
51
50
50
48
47
45
42
40
39
36
34
33
31
30
29
28
26
25
24
24
22
22
21
20
20
19
18
17
17
16
15
16
18
24
31
39
48
57
63
67
68
67
66
63
60
57
55
52
49
47
46
46
46
45
45
45
44
42
40
39
37
35
33
31
29
28
26
25
24
24
23
22
22
21
21
20
20
19
18
18
17
16
16
17
21
28
35
43
52
59
64
66
66
64
62
59
55
52
49
46
45
43
43
43
44
44
44
43
42
41
40
37
35
33
32
30
29
28
27
26
25
24
23
23
22
22
22
21
21
21
20
19
18
19
20
25
32
40
49
59
66
71
73
73
72
69
67
64
61
58
56
54
52
51
50
50
50
49
48
47
46
44
42
40
39
37
35
34
32
31
30
29
28
27
26
25
25
24
23
23
22
22
21
20
20
19
20
22
28
35
44
54
63
71
75
77
77
75
73
70
68
64
62
59
56
54
53
53
52
52
51
50
49
47
45
43
41
39
37
35
33
32
30
29
28
27
26
25
25
24
23
23
22
21
20
20
19
19
18
17
16
16
18
22
22
38
48
48
67
72
72
75
74
74
68
65
65
59
56
56
52
51
51
50
50
50
50
49
47
45
43
40
39
37
35
33
31
30
29
28
27
26
25
25
24
23
23
22
21
20
20
19
20
23
29
37
45
54
62
68
71
71
70
68
65
61
58
54
51
49
47
46
46
47
47
47
47
46
45
43
41
39
37
35
33
31
30
29
27
26
25
25
24
23
23
22
22
21
21
20
19
19
22
27
35
43
53
62
70
74
75
75
73
70
68
65
62
59
56
53
51
50
50
50
49
48
48
46
44
42
40
39
37
35
34
32
31
30
29
28
27
26
25
25
24
23
23
22
22
21
20
20
19
19
21
26
34
41
51
60
67
71
72
72
70
67
65
62
59
56
53
51
49
48
47
47
46
46
45
43
42
40
38
36
35
33
31
29
28
27
26
25
24
23
22
21
21
21
20
19
19
18
17
16
17
20
26
33
41
49
56
61
64
64
62
59
57
54
50
47
45
43
42
41
41
42
42
42
42
41
41
39
37
35
33
31
31
28
27
27
25
24
24
23
22
22
21
20
20
19
18
19
21
25
32
39
46
53
58
61
61
60
58
56
53
50
47
45
43
41
41
41
42
42
42
42
41
40
39
37
35
34
32
30
29
28
27
26
25
24
23
23
22
22
21
21
20
20
19
18
20
23
29
36
44
52
59
63
66
66
65
63
61
59
57
54
52
50
48
47
47
47
47
47
46
45
44
42
40
39
37
35
34
33
31
30
29
28
27
27
26
25
24
24
23
23
22
21
21
20
19
19
21
25
31
38
46
53
60
64
65
65
64
63
61
59
57
54
53
51
49
48
48
47
47
46
45
44
42
40
39
37
35
33
32
30
29
27
26
25
24
24
23
22
22
21
20
20
19
18
17
16
15
16
17
21
27
35
42
50
56
59
61
60
59
57
54
52
49
47
45
44
42
42
42
42
42
42
41
40
39
37
35
33
32
30
29
27
26
25
24
23
23
22
21
21
21
20
20
19
18
18
17
18
21
26
32
39
46
52
56
59
59
57
55
53
50
47
45
43
41
40
40
40
40
40
40
40
40
38
37
35
33
32
30
29
28
27
25
24
24
23
22
22
22
21
21
21
20
19
19
18
18
18
21
27
27
41
50
50
62
65
65
64
62
60
58
56
53
51
49
47
46
46
46
46
45
45
44
43
41
40
39
37
35
34
32
31
30
29
28
28
27
26
26
25
25
24
24
23
23
22
22
21
20
20
22
26
33
40
48
57
63
68
69
69
68
66
63
61
58
56
53
51
50
49
48
48
48
47
47
45
44
42
40
39
38
36
34
32
31
30
29
28
26
25
25
24
23
22
22
22
21
20
20
19
18
17
17
18
21
26
33
41
50
57
63
66
66
65
63
60
57
54
52
49
47
45
44
44
44
44
44
44
43
42
40
39
37
35
34
32
31
29
28
27
26
25
25
24
23
23
22
22
21
21
20
19
19
19
22
26
33
40
48
55
60
63
64
63
60
57
54
51
48
45
43
41
41
41
42
43
43
43
43
42
41
40
38
36
34
33
31
30
29
28
27
26
26
25
25
24
24
23
23
22
22
21
21
20
21
24
30
37
45
54
63
63
73
74
74
71
68
68
63
60
60
55
53
53
51
50
50
50
50
50
49
47
45
43
41
40
38
37
35
34
33
31
31
30
29
29
28
27
27
26
26
25
25
24
23
22
22
22
24
29
36
44
54
63
70
75
77
77
75
72
70
67
64
61
59
57
55
54
54
53
53
53
53
51
50
48
46
44
41
40
39
37
36
34
33
32
31
30
29
28
27
26
26
25
24
23
23
22
21
20
20
23
27
34
42
51
60
66
70
71
71
69
66
63
60
57
54
52
49
48
47
47
48
47
47
46
45
43
41
40
38
36
34
32
31
30
28
27
26
25
24
23
23
22
22
21
21
20
19
19
19
21
26
33
40
48
55
60
63
63
62
59
56
53
49
46
44
42
40
40
40
41
42
43
43
42
41
40
38
36
35
33
31
30
29
28
27
26
25
24
24
24
23
23
22
22
21
21
21
23
27
33
40
49
57
64
68
69
68
66
64
61
58
55
52
50
49
47
47
47
46
46
46
46
45
43
42
40
39
37
36
34
33
32
31
30
30
29
28
28
27
26
26
25
25
24
24
23
22
22
23
26
32
39
47
56
63
68
70
70
69
67
64
62
59
57
55
53
52
51
50
50
50
50
50
49
47
47
43
41
41
38
36
36
33
32
32
30
29
29
28
28
27
26
26
25
25
24
24
23
22
21
21
21
23
27
34
41
49
57
63
67
68
67
65
63
60
58
55
52
50
48
47
46
46
47
47
46
46
45
43
42
40
39
37
36
34
33
32
31
30
29
29
28
27
27
26
26
25
24
24
23
22
22
24
28
33
40
47
54
59
62
63
62
60
57
54
51
48
45
43
42
41
41
42
43
43
44
43
42
41
40
38
37
35
33
32
31
30
30
29
28
28
27
27
27
26
26
25
25
24
24
25
28
34
40
48
56
62
67
68
68
66
64
62
59
56
54
51
50
48
48
47
47
47
47
47
46
44
43
41
40
38
36
35
34
33
32
31
30
29
28
28
28
27
27
26
25
25
24
23
23
24
27
33
40
48
56
63
68
70
69
68
66
63
61
58
56
53
51
50
49
48
48
48
48
48
47
41
40
38
36
35
33
32
31
30
30
29
28
28
27
27
27
26
26
25
24
24
26
30
37
43
52
59
65
68
68
67
65
63
60
57
54
52
50
48
47
46
46
47
47
46
46
45
43
41
40
38
36
35
33
32
30
29
28
27
26
26
25
25
24
24
23
22
22
23
26
31
38
44
52
57
60
61
60
59
56
53
50
47
44
41
40
40
40
40
41
42
42
41
40
40
38
36
34
33
31
30
29
28
27
26
25
25
24
24
23
23
22
23
25
30
36
42
49
55
59
60
60
58
55
53
50
47
44
42
41
40
40
40
40
40
40
40
40
38
37
35
33
32
31
29
28
27
26
25
24
24
23
23
22
22
22
21
21
20
20
20
22
26
32
39
46
52
57
59
59
57
55
53
50
48
46
44
42
41
40
40
40
40
40
40
40
39
38
36
35
33
32
30
29
28
28
27
26
25
25
24
24
23
23
23
22
22
21
20
19
19
20
23
28
34
40
46
51
54
54
53
51
49
47
45
43
41
40
38
38
37
37
37
38
37
37
36
35
33
32
31
30
28
28
27
26
25
24
24
23
23
22
22
22
21
21
21
20
19
19
19
21
24
29
35
40
46
50
52
52
50
48
46
43
41
39
38
36
35
35
35
36
36
37
37
37
36
35
35
32
31
31
28
27
27
26
25
25
24
24
24
23
23
22
22
22
23
26
30
35
40
46
51
53
54
54
52
50
48
45
43
41
40
39
38
38
38
38
39
39
39
38
37
35
34
33
32
30
30
29
29
28
27
27
27
26
26
26
26
25
25
25
25
26
29
34
40
46
53
58
61
62
61
60
58
55
53
51
49
48
46
45
45
45
45
46
46
45
45
43
42
40
40
38
37
36
35
34
34
33
32
31
31
30
30
30
29
29
28
27
27
27
28
31
36
41
47
54
58
61
61
60
59
57
55
53
51
49
47
46
45
44
44
44
45
45
44
44
43
41
40
40
38
37
36
35
34
34
33
32
32
31
31
30
30
29
28
27
27
28
31
35
40
46
51
56
59
59
58
56
54
51
48
46
43
42
41
40
41
41
42
43
43
43
42
41
40
39
38
37
36
35
33
32
32
31
30
30
29
28
28
28
29
32
36
41
47
53
57
59
60
59
59
54
52
52
47
45
45
42
42
42
43
43
43
43
43
43
41
40
40
37
36
36
33
33
32
31
31
30
30
29
29
28
28
28
29
31
35
40
47
53
58
62
64
63
62
60
58
56
54
52
50
48
47
47
46
47
47
46
46
45
44
43
41
40
39
38
37
36
35
34
33
33
32
31
31
31
30
30
29
29
28
28
27
27
28
31
36
42
49
56
61
65
66
65
64
62
59
57
55
53
51
50
48
48
47
47
47
46
46
45
44
42
41
40
39
38
37
36
34
33
33
32
31
31
30
29
29
28
28
27
27
26
25
25
24
23
24
27
32
38
44
51
57
61
62
61
60
58
55
53
50
48
46
44
43
43
43
43
43
43
43
42
41
40
38
37
35
34
33
32
31
30
29
28
28
28
27
27
27
26
26
25
24
24
25
28
33
39
44
50
55
57
58
57
55
52
50
47
44
42
40
40
40
40
40
40
41
41
40
40
39
37
36
35
33
32
31
30
29
28
28
28
27
27
27
26
26
25
25
25
26
29
34
40
47
53
58
61
61
61
59
56
54
52
49
47
45
44
43
43
43
43
44
43
43
42
41
40
39
38
36
35
34
33
32
32
31
30
30
29
29
29
29
28
28
28
28
27
28
28
36
41
41
55
60
60
65
64
64
61
59
59
54
52
51
49
48
47
47
47
47
47
46
45
44
42
41
40
40
38
37
36
35
34
33
32
31
31
30
29
28
27
27
26
25
24
23
23
22
22
25
29
34
40
46
52
56
58
58
58
56
54
52
51
49
48
46
46
46
46
46
47
47
46
45
44
43
41
40
39
38
37
36
35
35
34
33
32
32
31
30
30
29
28
27
27
26
27
29
33
38
43
49
54
57
58
58
56
54
51
48
45
43
41
40
39
39
39
40
40
40
40
39
38
36
35
33
32
31
30
29
29
28
28
27
27
27
27
27
27
26
26
26
25
25
27
30
35
40
47
53
57
58
58
57
55
52
50
47
45
43
41
40
40
40
40
40
40
39
38
37
36
34
33
32
31
30
29
28
28
27
27
27
26
26
26
25
25
25
25
24
24
23
22
22
23
26
31
38
43
50
55
57
58
57
55
53
51
48
46
44
43
41
41
40
40
40
40
40
40
39
38
38
36
34
34
32
31
31
29
29
29
28
27
27
26
26
26
26
25
25
25
24
24
23
23
23
24
27
32
39
45
51
56
58
58
56
54
51
49
46
44
42
40
40
39
39
39
40
40
40
40
39
37
36
35
34
32
31
31
30
29
29
28
27
27
27
26
26
26
26
26
26
25
24
24
24
25
28
32
38
43
49
54
57
57
55
53
51
48
45
42
40
39
38
37
38
38
39
40
40
40
39
38
37
36
34
33
32
31
30
30
29
29
28
28
28
27
27
27
27
26
26
26
25
25
27
30
36
41
49
55
60
62
62
61
58
56
53
51
49
47
45
43
42
42
42
43
43
43
42
41
40
40
38
37
35
34
34
33
32
32
31
30
30
30
29
29
29
29
29
28
28
27
27
26
27
29
33
39
45
52
59
63
65
65
63
61
58
56
54
51
50
48
47
46
46
45
45
45
45
45
44
43
42
41
40
39
38
37
36
35
34
34
33
33
32
32
32
31
31
30
30
29
29
28
27
27
29
32
38
43
51
57
62
65
65
64
62
60
57
54
52
50
48
47
46
46
46
46
47
47
46
46
44
43
42
41
40
39
38
37
36
36
34
33
33
33
32
32
32
32
32
31
30
30
28
28
28
33
38
38
50
56
56
63
64
62
60
58
55
52
50
47
46
45
45
45
46
47
48
48
47
47
45
44
43
42
40
40
39
38
38
37
36
35
35
35
34
34
33
33
32
33
35
39
43
50
57
63
67
70
70
69
67
66
63
60
58
56
54
53
52
52
53
53
53
53
53
52
50
49
47
46
44
43
42
41
40
39
38
38
37
36
36
35
