Wave
31
29
28
28
27
26
25
24
24
23
23
22
22
23
22
24
27
32
39
46
53
58
61
62
59
56
53
50
47
44
42
41
40
41
41
41
41
41
40
39
38
36
34
32
31
29
28
27
26
25
25
24
24
24
24
24
25
29
35
41
49
57
62
66
67
66
65
62
59
56
53
50
48
46
45
44
44
44
44
43
42
41
40
40
38
37
36
35
34
32
31
30
29
29
29
29
29
29
30
33
38
43
51
58
64
68
70
69
67
65
62
58
55
55
49
47
47
45
45
45
46
45
45
43
42
42
39
38
38
35
34
34
31
30
28
27
26
26
26
26
27
30
35
41
48
56
63
67
69
68
66
63
60
57
53
50
47
45
45
45
46
47
48
47
46
45
44
43
41
40
39
38
37
37
36
35
33
33
32
31
30
30
33
38
44
52
59
66
70
71
70
68
65
61
58
54
51
48
46
45
45
46
46
46
46
45
43
41
40
38
36
34
32
31
30
28
27
27
26
26
29
34
40
47
55
62
67
69
69
68
66
64
61
58
55
53
51
50
49
48
48
47
46
45
44
42
40
39
37
35
33
31
29
28
27
26
26
25
25
26
30
35
42
50
58
65
69
71
71
70
69
67
65
63
60
58
55
53
51
50
49
48
47
46
44
42
40
39
37
35
33
31
30
29
27
26
25
25
24
24
24
24
23
23
25
29
35
42
51
59
65
68
70
70
68
67
65
62
60
58
55
52
50
48
47
47
46
46
45
44
43
41
40
38
37
36
34
33
33
31
30
29
28
27
26
26
25
24
24
23
23
22
22
23
27
33
40
49
57
65
70
72
72
71
69
66
63
60
57
55
53
51
50
49
49
49
48
48
46
44
44
40
39
39
36
34
34
32
30
30
28
27
27
25
25
24
24
23
22
21
21
20
21
24
29
36
43
52
61
66
69
69
68
65
62
58
55
51
48
45
44
43
42
42
42
41
40
40
38
36
34
32
31
29
28
27
26
25
25
24
23
22
21
20
19
19
18
18
18
19
23
28
36
43
52
59
63
65
65
63
61
59
57
54
52
49
47
46
45
44
43
43
42
41
40
39
37
34
31
29
27
25
24
22
21
20
20
19
18
17
17
16
16
16
15
14
15
15
16
20
27
35
43
51
58
63
64
64
62
61
58
56
53
50
47
45
43
42
41
40
40
40
40
39
37
35
33
31
29
28
26
25
24
23
22
21
20
19
19
18
18
17
17
16
15
15
15
14
15
19
24
32
40
48
55
60
62
62
60
57
55
52
49
47
44
43
41
40
40
39
39
38
38
37
35
34
32
30
28
27
26
25
24
24
23
23
22
21
21
20
20
20
18
18
18
16
16
16
15
16
16
24
31
31
45
52
52
59
59
57
55
53
50
47
45
43
41
40
40
39
39
39
39
38
37
35
33
31
29
27
26
25
25
24
23
23
22
21
20
20
20
20
19
18
18
17
17
16
16
15
16
19
25
32
40
47
53
57
58
58
55
52
49
46
42
40
38
37
36
35
35
35
35
35
34
33
33
31
30
28
27
26
25
23
23
22
21
20
19
19
19
18
18
17
17
16
16
15
15
15
17
21
27
34
41
48
54
57
58
57
54
51
48
45
42
40
38
36
35
35
36
36
37
37
37
36
35
33
31
30
28
27
26
25
25
24
23
22
21
21
20
20
20
19
18
18
18
18
18
19
21
26
32
40
47
54
59
61
61
60
57
54
51
47
44
41
40
39
39
40
40
41
41
41
41
40
40
38
37
35
33
32
30
29
28
27
26
25
25
25
24
24
24
24
24
25
27
31
37
44
51
58
63
66
66
63
61
58
54
51
47
44
42
41
40
41
41
42
42
42
41
41
40
39
38
37
36
35
33
32
31
30
29
28
27
27
27
27
29
33
39
45
53
60
64
66
66
64
62
62
56
53
53
48
46
46
44
43
43
44
44
44
44
43
43
41
40
39
38
37
35
34
33
32
31
30
30
29
29
29
29
32
37
43
51
60
67
72
75
75
74
72
70
67
64
62
59
57
55
54
53
52
51
51
50
49
47
45
44
42
40
39
38
37
36
35
34
33
32
31
30
30
29
29
30
34
40
47
55
62
68
71
73
72
71
69
67
65
62
60
57
55
54
53
52
51
51
50
49
48
46
45
44
42
40
40
39
38
37
36
35
33
32
31
30
29
28
28
28
27
28
31
37
43
51
60
67
72
74
74
72
70
67
64
61
58
56
54
52
52
52
53
53
53
52
51
49
48
45
43
41
40
39
38
36
35
34
33
32
31
30
30
29
29
29
28
26
27
29
33
39
46
55
62
68
71
73
72
71
69
66
64
60
57
55
54
53
53
53
52
52
50
49
47
45
42
41
40
39
37
35
34
33
31
30
30
29
28
27
27
27
26
25
25
24
24
24
28
34
34
49
58
58
70
72
72
70
67
67
61
58
55
52
50
48
48
47
48
48
47
46
45
43
41
40
38
36
34
33
32
31
30
29
29
28
27
27
26
26
25
24
23
22
22
21
24
28
35
42
50
58
63
66
66
65
62
60
57
54
50
48
45
44
43
43
43
44
44
43
42
41
40
38
36
34
32
31
29
28
27
26
25
25
24
24
23
23
22
21
21
21
21
21
22
26
33
40
47
55
61
64
65
64
61
58
55
52
49
46
44
42
42
41
41
42
41
41
40
39
37
35
33
31
29
28
26
25
24
23
23
23
22
22
22
21
21
20
20
19
18
17
17
20
24
31
38
45
52
57
60
60
59
57
54
51
48
46
44
42
40
40
39
39
39
40
39
39
38
37
36
34
33
32
31
31
30
30
29
28
28
28
27
27
26
25
24
24
23
23
23
24
26
30
36
43
51
58
64
67
67
65
63
60
57
54
51
48
46
44
43
42
42
42
42
42
41
40
40
38
37
35
34
32
31
29
28
26
25
25
24
24
24
24
23
23
22
22
21
20
18
17
17
19
24
31
39
46
53
57
59
59
59
55
53
53
47
46
46
43
42
42
41
40
40
40
40
40
39
37
37
33
32
30
28
27
26
26
25
24
24
24
23
23
22
22
22
22
22
21
22
25
31
37
44
52
59
62
63
62
60
57
53
49
46
42
40
40
39
39
40
41
42
42
42
41
40
39
38
36
34
33
32
30
29
28
28
27
27
25
25
24
23
23
24
27
33
39
46
53
59
63
64
63
60
56
53
49
45
42
40
38
38
38
39
40
40
40
40
40
39
38
36
33
32
30
29
27
26
25
25
24
23
23
25
29
35
42
50
57
62
64
64
62
59
55
51
48
45
43
42
41
41
42
43
44
44
44
44
43
41
40
39
38
37
36
35
33
32
31
30
30
29
28
29
32
38
45
54
63
70
75
77
78
77
75
74
72
70
67
65
63
61
58
57
57
56
55
54
52
50
48
47
46
45
43
42
41
40
39
38
37
36
34
33
33
33
34
38
43
51
60
68
68
79
81
81
81
79
79
74
71
71
66
64
64
60
59
59
57
56
56
53
51
48
46
45
43
41
40
39
37
36
34
33
31
30
29
29
28
27
27
27
26
26
26
28
33
39
47
56
65
71
74
75
74
73
70
67
65
62
59
56
54
53
52
51
51
51
50
49
47
45
43
42
40
38
36
35
34
33
32
31
31
31
30
30
29
28
28
27
26
25
25
24
23
24
27
33
40
48
57
64
68
70
69
67
63
59
55
51
48
45
43
42
42
43
43
40
39
39
33
31
29
27
26
24
23
23
22
22
21
20
19
19
18
17
16
16
16
19
24
31
38
45
52
56
57
56
54
51
47
44
40
38
36
34
33
33
34
34
35
35
35
34
33
31
30
28
27
25
23
22
22
21
20
19
18
18
17
17
17
16
16
16
19
24
31
38
46
53
59
61
61
60
57
54
52
49
47
44
42
41
40
39
39
39
39
38
38
37
35
33
31
29
27
26
24
23
22
21
20
18
18
17
16
16
16
16
15
15
16
20
26
33
41
48
55
57
58
57
54
51
48
45
42
39
37
35
34
33
33
34
34
33
32
31
30
29
27
27
25
23
23
21
20
20
18
17
17
16
16
16
16
16
16
17
19
19
30
37
43
50
53
55
54
52
49
47
43
40
39
37
35
34
34
34
34
34
34
33
32
31
30
28
27
26
25
23
22
22
21
19
19
18
18
17
17
17
17
17
17
18
21
27
34
41
48
53
56
56
55
53
50
47
44
42
40
38
37
37
37
37
38
38
38
38
37
35
33
32
30
29
27
26
25
24
23
23
22
22
21
21
21
21
21
20
20
21
26
32
39
46
53
59
61
60
59
56
52
49
44
41
38
36
35
34
35
35
36
37
37
37
36
34
33
31
29
28
26
25
24
23
23
23
22
21
20
20
20
20
20
22
26
32
39
46
53
58
61
61
60
57
54
51
47
44
41
39
38
36
36
37
37
38
38
38
38
37
35
34
33
32
32
31
30
29
28
27
26
25
24
23
23
22
22
22
24
27
33
39
46
54
60
63
64
63
61
59
56
54
52
50
48
48
46
45
45
45
45
45
43
42
42
40
38
38
34
32
32
30
29
27
26
26
25
24
24
24
23
22
21
21
22
22
24
28
34
41
49
57
63
67
67
66
63
60
57
54
51
48
46
44
43
43
43
43
43
42
41
40
39
37
36
34
33
32
31
30
28
28
27
27
26
26
25
25
25
25
24
24
23
23
23
26
30
36
43
50
57
61
63
63
61
58
55
52
49
47
45
43
43
42
42
43
43
43
43
42
41
40
39
38
36
34
33
32
31
30
29
29
28
28
28
28
27
27
26
25
25
24
23
23
27
32
38
45
53
60
63
65
64
62
59
56
53
50
48
46
44
43
42
43
43
43
42
42
41
40
39
37
35
34
32
31
30
29
28
27
26
26
25
25
25
24
24
24
23
23
23
23
23
25
30
37
43
51
57
62
63
62
60
56
53
50
47
44
42
41
40
40
41
42
42
43
43
42
41
40
39
37
36
34
32
31
29
27
26
25
24
23
23
23
22
22
21
21
20
20
20
22
26
32
40
47
55
60
63
63
61
59
56
53
49
46
44
42
41
40
40
40
41
41
41
40
40
39
37
35
33
31
30
30
27
26
26
26
26
26
26
25
25
24
23
23
22
24
24
34
40
40
54
59
60
60
58
55
51
48
45
42
40
40
39
39
40
40
40
40
40
40
40
39
38
37
36
35
34
33
33
32
32
31
30
30
29
28
29
31
36
42
49
57
64
69
71
71
70
68
65
62
59
57
55
53
52
51
51
51
52
52
52
52
50
49
47
45
43
42
41
40
40
39
38
37
36
35
34
33
32
30
29
30
33
39
45
53
60
66
68
68
66
64
61
58
55
53
51
50
49
48
48
48
48
48
48
47
46
44
43
41
39
38
36
34
33
32
31
30
29
29
29
29
29
29
30
33
38
44
52
60
66
69
70
69
66
62
58
54
51
47
45
45
44
45
46
47
48
47
47
46
45
43
41
40
39
38
37
36
36
35
33
32
31
30
29
31
36
41
48
56
63
69
71
71
69
66
63
58
54
50
47
45
44
44
45
46
47
48
48
48
48
46
45
44
42
42
40
39
39
36
36
36
34
33
33
39
44
44
60
68
68
75
75
75
70
67
63
60
57
55
53
52
51
51
52
53
53
52
52
50
48
46
44
42
40
38
36
35
33
32
31
29
29
32
37
43
53
63
73
79
82
83
82
78
76
73
70
68
65
63
61
59
58
58
58
57
57
56
54
52
50
47
45
42
40
40
38
37
35
33
32
30
29
28
27
27
26
26
26
28
33
40
48
59
69
77
81
83
83
81
80
77
75
73
70
68
65
62
61
60
59
58
57
55
53
52
49
47
45
43
41
40
38
37
35
34
32
31
29
28
27
26
25
24
23
23
22
21
20
19
21
25
32
40
51
61
70
75
77
77
76
73
70
67
64
61
59
56
54
54
54
53
53
52
51
49
47
45
43
41
40
38
36
34
32
30
28
27
26
25
24
23
23
23
22
21
21
20
20
20
19
19
21
26
33
41
51
60
67
70
71
69
66
62
59
55
51
48
46
44
43
43
43
43
43
42
41
40
38
36
34
32
31
29
27
26
24
23
22
22
21
20
19
19
18
18
17
17
16
16
15
16
19
23
30
39
47
55
60
62
62
61
58
58
50
47
47
40
38
38
36
35
35
35
35
35
33
32
32
29
27
27
24
22
21
20
19
18
17
17
16
15
14
14
14
14
13
13
13
13
15
19
26
33
41
49
54
57
58
56
53
49
45
41
38
34
32
30
29
29
29
30
30
30
30
29
28
27
26
25
23
22
21
20
19
18
16
15
15
14
14
14
13
13
14
16
20
27
34
42
50
56
59
59
58
55
52
48
45
41
39
36
34
33
33
33
34
35
36
36
36
34
33
31
29
28
27
26
25
23
22
21
20
19
18
18
18
18
18
18
18
20
24
30
37
43
50
55
57
57
55
52
49
46
42
40
37
34
33
32
32
33
33
33
33
32
31
30
29
28
27
25
24
23
21
20
19
18
17
16
16
16
16
16
16
16
18
22
28
35
41
48
53
55
55
53
51
48
45
42
40
38
36
35
35
35
36
37
37
38
37
36
35
33
31
30
28
27
26
25
24
23
23
22
21
21
20
20
21
21
21
25
30
30
43
50
50
59
61
61
58
54
54
47
43
43
38
36
35
35
36
36
37
36
36
35
33
32
30
28
27
26
25
24
23
22
21
21
21
21
20
20
21
23
28
34
41
48
55
59
61
59
57
55
52
49
47
45
43
41
40
40
40
40
40
40
40
39
38
37
35
33
31
30
28
27
26
25
25
24
24
24
24
23
23
24
26
30
36
43
51
58
64
67
67
66
65
62
59
56
54
52
50
48
47
46
45
45
45
44
43
42
40
39
37
36
34
33
32
30
29
29
28
28
27
26
25
25
24
24
24
23
23
24
28
33
40
47
55
61
64
65
64
62
60
58
56
53
51
49
48
46
46
46
46
46
46
45
44
43
41
40
38
36
35
33
32
30
29
28
27
26
26
25
25
25
25
24
24
24
23
22
22
22
23
27
32
40
48
57
64
69
71
70
68
65
63
59
57
54
52
50
49
48
48
49
49
49
48
47
45
43
41
40
39
38
36
35
34
33
32
32
32
32
31
31
31
30
29
28
27
27
26
26
26
26
30
35
42
50
59
67
72
73
73
71
68
64
61
58
55
52
51
50
50
50
50
50
50
49
48
48
45
43
43
40
38
38
36
34
34
32
31
31
30
29
29
28
28
28
28
28
27
26
26
29
35
41
50
58
66
71
73
72
70
68
65
61
58
55
53
51
50
49
48
48
48
48
47
46
45
43
41
40
38
36
34
33
31
30
29
29
28
28
28
27
26
25
25
27
31
38
45
53
62
69
73
75
75
73
71
68
66
63
61
59
57
56
54
52
51
50
50
49
48
47
45
44
42
40
39
38
37
36
35
34
33
32
31
30
29
28
27
27
26
26
25
25
27
32
39
47
56
66
73
77
79
79
78
77
75
73
70
68
66
63
61
60
59
59
59
58
57
56
54
52
50
49
47
45
44
42
40
39
38
36
35
33
32
31
30
29
29
27
27
26
26
25
25
28
33
40
48
58
66
72
74
75
74
72
70
67
64
61
58
56
53
51
50
49
49
49
48
47
45
43
42
40
39
37
36
34
33
31
30
30
28
27
26
26
24
23
23
22
21
21
19
19
19
18
21
21
32
40
40
56
62
62
66
64
62
49
47
44
43
42
43
43
44
44
43
42
41
40
38
35
34
31
30
28
27
26
25
25
24
23
23
22
21
20
19
18
18
18
19
23
28
35
42
49
55
59
60
59
56
52
48
43
40
37
34
33
32
33
34
35
36
37
36
35
33
32
30
28
26
25
24
23
22
21
20
19
19
18
18
18
17
17
18
21
25
32
40
48
55
61
63
63
61
59
55
52
49
46
43
41
40
40
40
40
40
40
40
40
39
37
35
34
32
30
29
28
26
25
25
24
23
22
21
21
20
19
19
19
21
24
30
37
45
52
59
63
64
63
61
58
56
53
50
47
45
43
42
41
41
42
42
42
41
40
40
38
37
35
33
32
31
30
29
27
26
25
24
23
23
23
22
22
22
23
26
31
37
44
52
59
63
65
65
63
59
54
49
44
40
36
34
34
34
35
36
37
37
37
36
34
33
31
29
27
26
25
23
22
22
21
20
19
19
19
19
20
22
27
33
40
46
52
56
58
57
55
52
49
45
42
40
38
37
37
37
39
40
41
42
42
42
40
39
39
36
35
35
33
32
32
29
28
28
26
26
26
33
39
39
54
61
66
69
69
67
65
61
57
54
51
49
47
45
45
45
46
46
46
46
45
43
41
40
38
36
34
33
32
30
30
29
29
29
30
33
39
45
53
62
69
74
76
76
74
72
69
66
64
61
59
56
55
54
54
54
54
53
52
50
48
46
44
43
41
40
38
36
34
33
32
30
29
28
28
28
29
33
40
47
57
66
72
77
78
78
77
76
74
72
70
68
66
63
61
59
58
57
56
55
54
53
51
50
47
46
44
42
41
40
39
38
37
36
35
33
32
32
31
30
30
31
35
40
47
56
64
71
76
78
77
76
74
72
69
67
64
61
58
56
54
54
53
53
52
51
49
47
45
43
41
40
39
37
35
33
32
31
29
28
27
27
26
26
26
26
25
25
25
24
24
25
29
35
43
52
61
68
72
73
72
69
65
62
58
55
52
51
49
48
48
48
48
47
46
46
43
41
41
39
37
37
33
32
32
30
29
29
27
27
27
26
25
25
24
23
22
21
21
21
22
26
32
39
46
54
59
63
63
62
60
57
54
51
48
45
44
43
43
43
43
43
43
42
40
39
37
36
34
33
31
29
28
26
25
24
23
22
22
22
21
21
21
22
22
24
26
29
35
41
49
55
60
62
62
60
56
52
47
44
40
39
37
36
36
37
38
39
39
39
39
37
36
34
32
30
28
26
25
23
22
22
21
21
20
20
21
23
28
35
42
50
57
61
63
62
59
56
53
49
45
42
40
38
38
38
39
40
40
40
40
40
39
37
35
33
31
29
27
26
24
23
23
22
23
24
28
34
40
48
56
61
65
65
64
61
57
53
49
45
42
40
39
39
39
39
39
39
38
37
36
34
32
30
28
27
25
24
23
23
23
22
22
22
25
30
36
44
52
60
65
66
66
64
60
56
51
46
42
40
38
36
36
37
38
38
38
38
37
36
34
33
31
29
27
26
24
23
21
21
20
19
18
19
22
28
35
42
51
58
63
65
65
63
59
55
51
47
43
40
38
37
37
38
39
40
40
40
40
39
37
36
34
34
30
28
28
25
24
24
22
22
22
20
20
20
27
34
34
50
58
58
64
64
61
58
53
49
45
41
40
38
38
38
39
40
40
40
40
40
38
36
35
33
31
29
28
26
25
25
24
24
23
23
24
27
32
39
46
54
61
65
67
65
62
58
53
48
43
40
38
36
36
37
38
40
40
40
40
40
38
36
34
32
30
28
26
24
23
22
21
21
22
25
32
40
48
57
64
69
70
70
67
64
61
57
53
50
47
45
44
44
44
45
46
46
45
44
43
41
40
38
36
34
33
31
30
29
28
28
28
30
35
41
51
61
71
80
85
86
86
84
81
78
75
71
68
65
63
60
59
58
58
57
56
55
53
51
48
46
43
41
40
38
36
33
31
29
27
26
24
24
24
28
35
44
54
65
74
80
82
82
81
77
74
70
66
63
59
56
54
53
53
52
52
52
52
51
49
47
45
43
41
39
37
36
34
32
31
30
28
27
26
25
26
29
34
34
51
61
61
76
78
78
75
71
71
62
58
58
50
48
48
47
48
48
50
50
49
48
46
43
41
39
37
35
33
31
30
29
27
27
26
25
25
28
33
40
49
59
68
75
79
79
77
75
70
66
62
58
55
52
50
49
49
50
50
49
49
48
46
45
42
40
39
37
36
34
32
31
29
28
27
26
26
27
32
39
47
58
70
79
86
90
90
89
87
84
81
78
74
71
68
66
63
62
62
61
61
59
58
56
53
50
47
44
42
40
38
36
34
32
30
29
29
28
27
27
27
28
33
40
50
60
70
79
84
86
86
83
81
77
73
70
66
63
60
58
56
56
55
55
53
51
49
47
44
41
39
36
34
32
30
28
27
25
24
23
22
22
21
20
19
19
19
18
18
20
25
33
42
53
64
71
76
78
77
74
71
66
62
58
55
52
50
49
48
48
48
48
48
46
44
42
40
37
34
32
30
27
26
24
23
22
21
20
19
18
18
18
17
17
17
17
16
16
17
21
28
37
47
58
67
74
77
76
74
71
66
62
57
54
51
49
48
47
47
47
47
47
46
44
42
40
38
35
33
31
28
27
25
23
22
21
20
20
18
18
18
17
16
16
14
14
14
12
13
13
23
32
32
54
64
64
75
76
74
71
67
63
58
54
50
47
45
44
44
44
45
45
44
42
40
39
36
33
31
28
26
24
22
21
20
19
17
17
16
15
15
15
14
14
14
13
13
12
12
14
19
27
37
48
59
68
73
75
74
72
68
64
60
55
51
48
46
45
45
46
47
47
47
46
44
42
40
38
35
33
31
29
27
25
24
23
21
20
19
19
19
19
18
18
18
17
17
16
17
21
28
37
47
58
68
75
78
77
74
70
65
60
55
50
46
43
42
41
41
42
43
44
44
43
42
40
39
36
33
30
27
25
23
21
20
20
19
19
19
19
20
21
22
25
29
37
46
57
68
78
85
87
87
85
82
77
73
68
64
60
57
56
55
55
56
56
56
55
54
52
49
47
44
40
39
36
34
32
30
29
27
26
26
25
24
24
24
23
22
21
21
21
23
28
36
46
58
69
79
85
88
88
85
82
82
73
69
69
63
60
60
58
57
57
57
56
56
53
51
51
46
43
40
39
36
33
31
29
27
26
24
23
22
22
22
21
20
20
20
19
21
25
32
40
51
63
74
81
84
84
82
79
75
70
65
61
57
55
53
53
53
53
53
53
52
50
48
46
44
42
40
38
36
34
32
30
28
27
26
25
23
23
23
22
21
20
20
19
18
18
19
24
31
41
52
64
74
80
83
83
81
77
73
69
66
62
58
56
54
54
54
54
54
54
53
51
49
46
43
41
39
37
36
34
32
31
29
28
26
26
25
24
24
23
23
22
21
21
22
26
33
41
52
64
74
81
85
86
83
80
75
70
65
60
57
55
53
52
53
53
54
54
54
53
50
47
44
41
38
35
32
31
29
28
26
25
24
23
22
22
21
22
24
29
37
46
57
69
78
83
86
85
83
79
76
72
68
64
61
59
57
56
56
56
56
56
55
54
51
48
45
42
40
38
35
33
31
29
28
27
26
25
24
24
24
23
25
29
36
45
57
70
80
89
93
95
94
92
90
86
83
79
75
72
69
66
65
63
63
62
60
59
56
54
52
49
46
43
40
38
36
34
34
30
29
29
26
25
25
24
23
23
22
21
21
29
38
38
61
73
73
89
92
92
90
87
84
80
76
72
69
67
64
63
62
61
60
59
58
55
52
49
47
43
40
38
35
32
30
28
27
25
24
23
22
22
21
20
19
19
18
17
16
17
20
27
36
47
60
73
81
86
87
86
84
80
76
71
68
64
61
59
57
57
56
56
56
54
52
49
47
44
41
39
36
34
32
29
27
25
24
22
21
20
19
18
17
17
16
16
15
14
13
12
11
10
13
18
28
39
52
65
74
80
82
82
79
76
72
67
63
60
57
54
53
52
51
51
51
51
50
48
45
43
32
30
27
25
22
20
19
17
16
15
14
13
13
13
12
12
12
12
12
14
20
30
40
53
65
75
80
82
81
78
74
68
62
56
52
48
45
45
45
46
47
47
46
45
43
41
39
36
33
30
27
25
23
21
20
18
17
16
15
14
13
12
11
11
12
12
25
35
35
59
70
70
82
82
82
77
72
72
64
59
59
52
50
50
48
48
49
49
49
47
45
43
40
37
34
31
29
27
25
23
21
19
18
16
16
15
14
14
14
14
16
21
29
40
51
64
75
84
88
89
87
84
81
77
73
68
65
61
58
56
55
53
53
52
51
50
47
45
42
39
36
33
30
28
25
23
21
19
18
16
15
14
13
13
13
12
11
11
11
12
15
23
33
44
57
68
77
81
82
80
76
72
66
61
57
53
50
48
46
46
46
46
45
44
42
40
39
36
33
30
27
25
22
20
19
17
15
14
13
12
11
10
9
9
8
7
6
6
7
12
19
30
41
54
65
72
75
75
73
70
65
60
55
51
47
44
42
41
41
42
42
42
42
41
40
38
36
34
31
29
27
24
22
20
18
17
16
16
15
14
14
14
13
12
12
12
12
14
19
28
38
50
62
71
76
78
77
73
68
63
58
54
49
46
44
43
44
45
46
47
47
47
45
43
41
39
35
32
30
27
25
24
22
21
20
19
18
17
17
17
16
16
15
17
22
30
40
53
65
76
82
86
86
84
81
77
73
68
65
61
59
57
56
56
56
56
56
54
52
52
47
44
44
39
35
35
29
26
26
22
20
20
17
17
17
16
16
16
15
15
15
17
23
32
42
54
66
76
83
85
85
82
78
73
68
62
58
54
52
50
49
49
50
50
49
48
46
43
40
39
36
33
31
29
26
24
22
21
19
18
17
16
15
14
14
13
13
13
13
13
15
20
29
40
52
65
75
82
85
84
82
78
73
68
63
58
55
52
50
49
49
50
50
50
50
48
46
44
41
39
36
34
31
29
28
25
24
22
21
20
19
18
17
15
14
14
14
15
19
26
35
46
58
69
77
81
82
79
76
72
67
62
57
53
51
49
48
48
48
48
48
48
47
44
42
39
36
33
30
27
26
24
23
22
22
21
20
19
18
18
17
17
16
17
21
29
40
52
65
78
87
92
94
93
90
87
83
78
74
70
66
63
61
61
60
60
59
57
55
54
51
49
46
43
41
38
36
33
31
29
26
25
23
22
21
20
20
20
19
18
18
18
21
21
36
47
47
73
83
83
93
92
92
83
77
77
67
62
59
56
55
54
54
53
53
52
50
48
46
43
40
38
35
32
29
27
25
23
22
21
20
19
18
17
16
15
15
14
13
12
11
10
9
10
13
20
30
41
55
68
78
83
85
83
80
75
70
65
60
56
52
50
49
49
50
51
52
51
51
49
47
45
42
40
37
34
32
30
28
26
24
23
22
21
20
19
18
18
17
16
16
15
14
14
14
17
23
33
44
58
70
80
85
87
86
82
77
72
66
61
56
53
51
49
49
49
50
50
50
49
48
45
43
40
38
36
33
31
29
27
25
22
20
18
16
14
11
9
7
5
3
1
0
0
0
3
11
22
35
48
61
70
75
77
75
71
67
62
56
51
47
43
40
40
40
40
42
43
43
43
41
40
37
34
31
28
25
22
20
17
15
13
11
10
9
8
7
7
6
6
6
5
7
10
18
28
40
53
65
74
78
79
76
72
66
60
54
48
44
41
40
40
40
42
45
46
47
47
46
44
41
38
34
30
27
24
21
19
17
15
14
12
12
13
14
19
27
38
49
61
71
79
82
82
79
74
68
62
62
51
47
47
43
44
44
48
50
50
51
50
50
46
44
44
39
37
37
31
29
27
25
24
24
27
35
44
57
71
85
94
100
102
100
96
90
84
77
71
66
62
60
59
59
59
60
60
61
60
59
56
53
50
46
42
40
37
34
31
29
28
31
37
47
60
74
88
99
105
107
106
102
98
66
64
61
59
58
56
55
55
55
54
54
54
53
52
50
49
47
45
43
41
40
39
37
36
35
35
34
35
38
43
49
57
66
73
78
81
82
81
79
78
75
73
71
68
66
63
61
59
58
57
56
55
54
52
50
48
46
44
42
40
39
38
36
35
34
33
32
31
30
30
29
28
28
27
26
25
25
24
24
24
26
31
38
46
55
64
71
75
77
77
76
75
73
70
68
66
63
61
59
57
56
55
54
53
52
50
48
47
44
42
40
40
38
36
35
33
32
31
30
30
29
28
28
27
26
25
24
23
23
22
21
20
20
19
19
21
25
30
37
44
44
58
62
63
63
62
62
56
53
53
48
45
45
42
41
41
40
40
40
38
36
35
33
32
30
29
28
27
26
25
24
23
23
22
21
21
20
20
20
19
19
18
18
18
18
17
17
17
17
18
22
27
33
39
44
48
51
51
50
48
45
43
40
38
36
34
33
33
33
34
34
34
34
33
32
31
30
28
27
26
25
24
23
22
21
21
20
20
19
19
19
18
18
18
18
17
17
17
17
16
16
17
19
23
28
34
40
44
47
49
48
53
47
42
38
33
28
25
22
21
21
22
24
25
25
24
23
21
19
16
14
12
10
8
6
4
3
2
1
0
0
0
0
0
0
0
0
0
0
0
0
0
0
1
9
20
31
41
50
55
56
54
51
46
41
37
32
28
26
24
23
23
23
24
25
26
25
25
23
21
19
17
15
13
11
9
8
7
6
6
6
6
5
5
5
5
5
4
4
3
3
4
7
14
23
33
44
53
58
59
57
52
47
41
36
31
27
24
21
20
21
21
22
23
24
24
23
22
20
18
16
14
13
11
9
8
6
5
3
2
2
1
1
1
0
1
1
1
1
4
9
16
26
36
45
52
56
56
56
50
45
45
36
31
31
25
24
24
24
25
25
28
28
28
26
25
25
21
20
18
17
15
14
13
12
11
10
10
9
9
9
10
10
10
10
13
18
26
36
45
54
61
64
64
61
57
52
47
43
39
36
34
32
32
32
33
34
35
35
35
34
32
30
29
27
25
24
22
20
18
17
16
15
14
13
12
12
11
11
12
15
21
28
37
46
54
60
62
62
60
56
52
48
44
40
37
35
33
33
33
34
35
36
36
35
34
32
31
29
27
27
25
24
23
21
20
19
19
18
18
18
18
18
20
23
30
38
47
58
67
73
75
74
71
67
62
57
53
49
47
45
45
45
46
48
49
50
49
48
46
44
42
40
38
36
35
33
32
31
29
28
27
26
26
26
28
34
41
50
59
68
74
77
76
74
70
65
61
57
53
50
48
47
46
46
46
46
47
46
45
43
42
40
38
36
34
33
32
30
30
29
28
28
28
30
34
41
51
63
74
83
88
88
90
88
88
81
77
77
70
68
68
64
62
62
61
61
61
58
56
56
52
49
46
44
41
40
38
36
34
33
32
31
29
28
27
27
29
34
42
52
64
75
84
90
92
92
90
87
83
79
76
72
69
66
63
62
61
60
59
58
57
55
53
50
48
45
42
40
38
36
34
32
31
29
28
27
26
25
25
24
23
22
21
20
21
23
29
38
49
61
73
83
88
90
89
86
82
78
74
70
67
63
61
60
59
58
58
57
56
55
53
51
49
46
44
41
40
38
36
34
33
31
30
28
27
26
25
23
22
21
21
19
18
17
16
15
17
22
30
40
52
65
75
82
85
85
83
79
75
70
66
62
59
56
55
54
54
54
54
53
51
49
47
44
42
40
38
35
33
31
28
27
25
24
23
21
21
20
19
18
17
17
16
15
14
13
13
12
14
20
28
39
51
63
72
78
80
79
76
71
66
61
56
53
50
48
46
46
46
46
46
45
44
42
40
38
35
33
30
28
26
24
23
22
20
19
18
17
16
15
15
14
13
13
13
12
11
10
10
12
17
25
36
47
59
68
73
74
73
70
65
61
56
52
48
45
43
42
42
42
43
43
43
42
40
40
36
34
34
29
27
27
23
20
20
17
16
16
15
14
13
13
13
12
11
11
11
11
11
13
19
26
36
46
56
65
71
72
71
68
64
59
54
49
45
42
40
39
39
39
40
40
40
34
32
30
27
25
23
22
21
20
18
17
16
15
15
13
12
12
11
10
10
12
18
26
36
46
57
65
68
69
66
62
58
53
48
43
40
37
36
35
36
37
38
39
39
39
38
37
35
33
31
28
26
24
23
21
20
19
18
17
16
15
15
15
15
15
16
20
27
36
46
58
68
76
80
80
78
74
69
64
59
55
51
48
46
45
44
44
45
45
45
45
43
41
40
37
35
32
29
27
25
23
21
20
19
18
17
16
16
16
16
15
15
16
20
27
37
46
58
67
73
76
76
73
70
65
61
56
52
49
47
45
45
45
46
46
46
46
45
43
41
40
37
35
33
31
29
27
26
24
23
22
21
21
19
18
17
17
15
16
16
25
34
34
55
65
65
75
75
75
68
64
64
55
51
51
45
44
43
44
44
46
47
47
47
46
44
42
40
38
35
32
30
28
26
25
23
22
21
21
21
20
20
20
21
25
32
41
52
65
76
83
87
87
85
82
78
73
68
64
60
57
55
53
52
53
53
54
53
52
51
48
46
43
40
39
36
34
32
30
28
26
25
23
21
20
20
19
19
18
17
18
20
26
35
45
58
69
78
83
84
82
79
75
70
66
62
59
56
53
52
51
52
52
52
52
52
50
48
45
42
40
37
35
33
32
31
30
28
27
26
26
25
25
24
24
23
22
21
22
26
33
42
53
66
76
83
86
86
82
78
72
66
61
57
53
51
50
50
51
52
53
54
54
53
52
49
46
43
40
38
35
33
31
29
27
26
24
22
21
20
19
19
19
24
31
41
53
65
76
83
86
86
83
78
73
68
63
59
55
52
51
50
51
51
52
52
52
51
49
46
43
40
37
34
31
29
27
25
23
22
21
21
21
20
20
20
23
29
38
50
63
77
88
95
98
99
96
93
89
84
80
75
71
67
64
62
60
60
59
58
57
55
52
49
46
43
40
40
35
32
32
28
26
26
23
21
21
19
18
18
16
16
16
22
30
30
55
69
81
90
94
95
93
89
85
80
76
71
67
64
61
59
59
58
58
57
56
54
52
49
46
43
40
38
35
32
29
27
25
23
22
21
20
20
18
18
17
16
16
15
14
13
15
19
28
39
52
66
79
88
93
93
90
86
81
76
71
67
63
60
58
58
58
59
59
58
57
55
53
50
47
43
40
38
35
33
30
29
27
25
24
22
21
21
21
21
20
19
19
18
17
17
20
27
37
49
63
77
87
93
93
91
86
80
74
68
63
59
55
53
52
53
54
55
56
55
54
51
49
46
42
40
36
33
31
28
25
23
21
19
18
17
16
15
15
14
14
16
23
33
45
58
71
79
84
85
82
77
72
66
61
55
52
49
47
46
45
46
46
46
45
44
42
40
37
33
30
27
24
22
20
18
16
14
13
12
11
10
12
17
26
38
52
67
80
89
92
93
93
86
81
81
72
67
67
59
55
55
51
50
50
49
47
47
43
40
40
35
31
28
26
23
20
18
16
15
13
12
12
11
11
11
13
18
26
37
49
63
76
85
89
90
89
85
81
76
71
67
63
58
55
52
50
49
48
47
45
44
41
39
37
34
31
28
25
23
20
18
16
14
12
10
9
8
7
6
6
5
4
4
8
14
24
37
50
63
72
78
79
78
74
70
64
59
54
50
47
45
44
44
44
45
45
44
43
41
39
37
34
31
28
26
23
21
19
17
16
15
14
13
12
12
11
11
10
9
9
12
17
26
38
50
63
73
79
80
78
73
67
60
54
48
44
40
39
38
37
38
39
39
39
38
37
34
32
29
26
23
20
19
17
15
14
12
11
10
9
8
7
8
11
18
27
39
50
62
70
74
74
72
68
62
57
52
47
42
40
38
36
36
36
37
37
36
35
34
32
29
27
24
22
19
17
15
13
12
11
10
9
9
8
8
9
14
21
32
43
57
69
77
81
82
80
76
72
67
63
58
54
50
47
45
44
44
44
43
42
41
40
38
35
32
29
26
24
21
19
17
15
13
11
10
9
9
8
7
7
7
11
11
28
39
39
63
72
76
76
74
74
64
59
59
49
46
46
40
40
40
39
39
39
39
38
37
35
32
30
27
24
22
20
18
16
14
12
11
11
9
9
8
8
8
7
7
8
11
17
27
39
51
63
72
77
77
75
70
65
59
53
47
43
40
38
36
36
37
38
38
38
36
34
32
30
27
24
21
19
17
14
13
11
10
9
8
7
7
6
6
6
9
15
24
35
47
59
69
74
76
74
70
65
60
54
49
45
41
39
38
38
38
39
40
40
39
39
37
35
33
30
27
25
23
20
19
17
15
13
12
11
11
10
10
10
10
12
19
28
40
52
65
76
83
86
85
82
77
72
67
61
56
52
48
46
44
43
43
42
42
41
40
38
35
32
29
26
23
20
18
15
14
12
10
9
8
7
7
6
6
6
6
6
8
14
22
34
46
59
71
78
81
80
78
74
68
63
57
52
47
44
43
42
43
44
45
46
46
45
43
41
40
40
34
31
31
26
24
24
20
19
19
17
16
16
15
15
15
14
16
16
30
40
53
66
76
82
85
83
79
74
67
60
54
48
44
40
39
39
40
40
42
43
43
43
41
40
37
33
30
27
24
21
19
18
16
15
14
14
13
13
13
17
24
35
47
61
74
83
89
90
88
84
79
73
68
63
58
54
52
50
50
50
50
51
50
50
48
46
43
40
38
35
32
29
26
24
22
20
19
17
16
16
15
16
18
24
33
44
58
72
84
92
96
96
93
89
84
79
73
68
64
60
57
55
54
53
52
51
50
48
47
44
42
40
37
34
32
29
26
24
21
19
18
17
16
15
15
14
14
13
15
19
27
38
50
64
77
85
90
91
89
84
79
73
67
62
57
53
51
49
49
50
51
51
51
51
49
47
44
41
39
36
33
31
29
27
25
23
21
20
19
18
17
16
16
15
16
20
27
37
49
63
75
83
88
89
86
81
75
68
61
55
50
47
45
44
44
45
47
48
49
48
47
45
43
40
38
35
32
29
26
24
22
20
18
16
15
14
13
15
19
27
38
51
65
78
87
91
92
89
84
78
71
64
59
53
50
47
46
46
46
47
47
47
47
47
43
40
40
35
31
31
24
21
21
17
15
15
13
12
12
11
14
20
30
42
57
73
86
96
101
102
100
97
66
63
60
58
55
53
51
50
49
48
48
47
47
46
44
43
41
40
39
37
36
34
33
32
31
30
29
28
28
27
27
27
27
29
32
37
43
51
58
64
68
69
69
68
65
63
60
57
54
52
50
48
47
46
46
46
45
45
44
43
42
40
40
38
36
35
33
32
30
29
28
28
27
26
26
25
25
25
24
25
27
31
36
42
49
56
61
64
65
64
62
60
57
54
50
48
46
44
44
44
44
44
44
44
44
43
41
40
39
37
36
34
33
32
30
29
28
27
27
26
26
26
25
25
25
25
26
28
32
38
44
51
58
62
64
64
62
59
55
52
48
45
43
41
40
40
40
41
42
42
42
41
40
40
38
37
35
34
32
31
30
29
27
26
26
25
24
24
24
24
26
30
35
41
49
56
61
64
65
65
62
59
59
53
50
50
44
42
42
41
40
40
41
41
41
41
40
40
38
37
35
34
32
31
30
29
28
27
26
26
25
25
25
25
27
30
35
41
48
56
63
68
71
72
71
68
66
63
59
56
53
51
49
48
47
47
47
47
46
45
44
43
41
40
39
38
37
35
33
32
31
30
28
28
27
26
26
26
25
25
25
25
26
28
33
39
45
52
59
63
66
66
64
62
58
55
52
49
46
44
43
42
42
43
43
42
42
42
41
40
39
38
36
35
33
32
31
30
28
27
26
25
25
24
24
24
24
24
24
24
25
28
32
38
44
51
57
61
63
62
60
58
54
51
48
45
42
40
40
40
40
40
40
40
40
40
40
39
38
36
35
33
32
30
29
28
27
26
25
25
24
24
24
24
24
24
23
24
26
29
34
40
47
53
58
61
62
61
58
55
51
48
45
42
40
40
39
40
40
40
41
41
41
41
40
39
37
36
34
32
30
29
27
26
24
23
22
21
21
20
20
20
21
40
47
53
58
61
62
60
58
55
52
48
45
42
40
39
39
39
40
40
40
41
41
40
40
39
37
36
34
33
31
30
29
28
28
27
26
26
26
25
25
26
28
31
36
41
47
54
59
61
62
61
58
55
51
47
43
40
39
39
39
39
40
41
41
41
41
40
40
38
36
35
33
31
30
29
28
27
27
27
26
28
31
36
41
48
56
62
66
68
68
66
64
60
57
53
50
48
46
45
44
45
45
45
45
45
44
43
42
40
40
38
36
35
33
32
31
30
29
29
28
28
27
28
31
35
41
48
57
64
69
73
73
73
70
68
64
61
58
55
53
52
51
50
50
50
50
49
49
47
46
44
42
40
39
38
36
35
33
32
31
30
30
29
29
28
28
29
31
35
40
47
55
62
67
70
71
70
68
65
62
58
55
52
50
48
47
47
47
47
47
47
46
45
43
41
40
39
37
35
34
32
31
30
29
28
27
27
26
26
26
26
26
26
27
30
35
40
48
55
62
66
67
67
65
63
59
56
52
50
48
46
46
46
46
47
47
47
47
46
45
43
41
40
38
38
34
33
33
30
29
29
28
27
27
26
26
26
25
26
26
33
39
39
52
58
62
64
64
62
59
56
52
49
46
43
42
41
41
42
43
43
43
43
42
41
40
39
37
35
33
32
30
29
28
27
26
26
25
25
25
24
24
24
24
25
28
33
40
47
55
62
67
70
70
69
67
63
60
56
53
50
48
47
46
46
46
46
46
46
45
43
42
40
39
37
35
34
32
30
29
28
27
26
25
25
25
25
25
24
24
24
25
29
34
40
48
56
63
67
69
69
67
64
61
57
53
50
47
45
44
43
43
44
44
43
43
42
41
40
38
36
34
33
31
30
28
27
26
25
24
23
23
23
23
23
22
22
23
25
29
35
42
50
57
63
66
67
66
63
60
56
53
49
46
44
43
42
42
42
43
43
42
42
41
40
39
37
36
34
32
31
30
28
27
26
25
24
24
23
23
23
22
22
23
24
28
33
40
47
55
61
65
67
66
64
61
57
53
50
47
44
42
41
41
42
43
43
44
44
43
42
41
40
38
37
35
33
32
30
29
28
27
27
26
25
25
25
25
24
25
28
32
38
45
52
59
65
67
68
67
64
61
57
54
50
50
46
45
45
44
44
44
45
45
45
43
41
41
39
37
37
33
32
32
29
28
27
27
26
26
26
26
26
26
26
27
29
34
40
47
54
61
66
68
68
66
64
61
57
54
51
48
46
45
44
44
45
45
45
44
44
42
41
40
39
37
35
34
32
31
30
29
28
27
27
26
26
25
25
25
25
25
28
32
38
44
51
58
63
65
65
64
61
58
54
51
47
44
42
40
40
40
40
40
40
40
39
39
37
36
35
33
31
30
29
28
27
26
25
25
24
24
24
24
24
24
24
24
27
31
37
43
51
58
64
66
67
65
62
59
55
51
48
46
44
42
42
42
42
43
43
43
43
42
40
40
38
36
35
33
32
30
29
28
27
26
26
25
25
24
24
24
26
30
36
42
49
57
62
65
65
64
61
58
54
51
48
45
43
42
41
41
41
42
42
42
41
41
40
39
37
35
33
32
30
29
28
27
26
26
25
25
24
24
24
26
30
36
43
43
59
66
66
71
71
71
67
64
64
58
55
55
50
49
49
47
46
46
45
44
43
42
40
39
37
35
34
33
31
30
29
28
27
26
26
25
25
24
24
24
24
26
30
36
43
51
59
65
68
70
69
67
64
61
58
55
52
50
48
47
46
46
46
45
45
44
43
42
40
39
38
36
35
33
32
31
30
29
28
27
26
25
25
25
24
24
24
23
23
23
24
27
32
38
45
53
60
64
66
66
64
61
58
55
52
49
46
45
44
43
43
43
43
43
42
41
40
40
38
37
35
34
32
31
30
28
27
27
26
25
25
25
24
24
24
24
23
23
23
22
23
26
31
37
43
51
57
61
63
63
61
58
55
51
48
46
43
42
41
41
41
42
42
42
42
42
40
40
38
36
34
33
31
29
27
26
25
24
23
23
22
22
22
21
21
21
21
20
20
21
23
28
34
41
48
55
59
61
61
59
56
52
49
45
42
40
38
37
37
38
38
39
39
39
38
37
36
34
33
31
30
28
27
26
25
24
23
23
22
22
21
21
21
20
20
21
23
28
33
39
45
50
54
55
54
52
49
46
42
40
37
35
34
34
35
36
37
37
39
39
39
38
36
36
34
32
32
30
28
28
26
26
26
25
24
24
26
28
33
38
44
50
55
58
59
58
55
52
49
45
42
40
38
37
37
37
38
39
40
40
40
40
40
40
38
37
36
34
33
32
31
30
29
28
28
31
36
41
49
56
63
67
69
68
66
63
60
56
53
49
47
46
45
45
45
46
47
47
47
46
44
43
41
40
38
36
35
33
32
31
30
29
29
30
33
39
45
53
62
69
73
74
74
72
69
67
63
61
58
55
54
52
51
50
49
49
48
48
46
45
43
42
40
39
37
35
33
32
30
29
28
27
26
26
26
25
25
24
24
24
26
31
38
45
54
63
69
73
74
74
73
71
68
66
63
60
58
55
54
52
51
50
49
48
47
46
44
42
40
39
37
35
33
32
30
29
28
27
26
25
25
24
23
23
22
22
21
21
21
24
28
34
40
48
55
61
64
65
64
62
59
57
54
51
49
47
45
43
42
42
41
41
40
40
40
37
36
36
33
31
31
28
27
27
25
24
24
23
22
22
22
21
21
20
20
19
18
18
17
18
21
25
31
38
44
50
54
55
55
53
51
48
46
43
41
40
38
38
37
38
38
38
37
37
36
34
33
32
30
29
27
26
25
24
24
23
22
22
21
21
20
20
20
20
20
20
19
20
22
25
30
36
41
45
48
50
49
47
51
45
40
35
31
28
26
25
26
27
28
28
28
28
26
25
22
20
18
15
13
11
9
7
5
4
3
2
1
1
0
0
2
6
14
23
34
44
53
57
59
57
53
47
41
36
30
26
22
20
19
20
20
21
21
21
21
20
19
17
15
13
11
9
8
7
6
5
3
3
2
2
6
13
22
33
43
52
57
59
57
53
48
42
36
31
26
23
21
20
21
23
24
25
25
25
24
22
20
18
16
14
12
11
9
8
7
5
5
8
15
24
34
45
55
63
66
66
63
59
53
48
43
39
36
33
31
30
30
31
32
32
32
31
30
29
27
24
22
19
18
16
15
14
13
12
12
14
19
28
39
50
62
71
77
78
76
73
67
62
56
51
47
44
41
40
40
41
42
42
42
42
40
39
39
35
32
32
27
25
25
20
19
19
16
15
15
15
18
18
31
41
52
63
72
77
78
76
72
67
61
56
51
47
44
42
42
42
43
43
44
43
42
41
39
37
35
32
29
26
23
20
18
16
15
14
13
13
13
13
12
13
16
23
32
42
53
64
71
74
73
70
66
61
55
49
44
40
38
36
35
36
36
38
38
38
37
35
33
31
28
25
23
21
19
17
16
15
14
13
12
12
11
11
11
11
11
13
18
25
35
45
55
63
67
68
65
60
54
47
41
37
33
31
32
33
35
38
40
41
42
42
40
39
36
33
30
27
25
24
22
20
19
18
16
15
14
14
14
17
22
30
40
49
58
65
67
66
62
56
50
43
37
32
29
27
28
30
32
35
38
40
40
40
40
38
36
33
31
28
26
24
22
20
19
18
17
18
22
29
39
49
61
71
77
79
77
73
67
60
53
53
41
38
36
35
36
38
40
41
43
43
42
41
39
39
35
32
32
28
26
26
22
21
21
19
23
30
40
54
54
84
95
95
102
100
95
90
84
78
73
68
65
62
59
58
58
58
58
58
57
56
54
52
49
46
43
40
38
35
33
30
28
26
25
24
23
22
22
25
32
41
55
71
87
100
108
112
111
109
105
100
68
65
62
60
58
56
55
54
54
53
53
52
51
50
48
46
45
43
41
40
39
38
37
35
35
34
33
32
31
31
30
30
29
29
28
28
29
31
36
41
49
56
63
67
69
69
67
64
61
58
55
52
50
49
47
47
46
46
46
45
45
44
43
42
40
40
35
34
33
32
31
30
30
29
28
27
26
25
24
24
23
22
22
22
24
28
34
40
46
52
56
57
57
55
52
49
45
42
40
38
36
35
35
35
36
37
37
37
37
36
35
34
32
31
30
29
28
27
25
24
23
22
22
21
21
20
20
20
20
20
19
19
20
23
27
32
38
42
47
50
50
49
54
49
43
37
31
26
22
20
18
19
21
23
25
26
26
26
25
23
21
19
17
15
14
12
11
10
8
7
6
5
5
5
5
5
5
8
14
22
31
41
50
58
60
59
56
51
46
40
40
27
22
22
16
15
15
18
20
20
23
23
23
22
21
21
17
15
13
12
10
9
8
7
6
6
7
11
18
28
40
50
60
66
68
66
62
56
50
43
38
33
28
25
24
23
24
26
28
29
30
30
29
27
26
24
22
20
19
17
16
14
13
12
12
14
21
31
42
55
68
78
83
84
82
77
72
66
61
56
52
48
45
43
43
42
43
43
44
43
42
40
38
35
32
30
28
25
24
22
21
20
19
18
19
24
32
42
54
67
77
84
86
86
82
78
72
67
61
57
52
49
46
45
45
45
45
45
44
43
41
40
37
35
32
29
26
24
22
20
19
18
17
17
16
16
18
24
32
41
53
65
74
80
81
79
75
70
65
59
54
50
46
44
42
42
42
43
43
43
42
41
39
37
34
31
29
27
26
24
22
20
19
18
17
16
15
15
15
15
16
20
27
37
48
60
70
78
81
81
78
73
68
62
56
51
47
44
42
42
43
43
45
45
45
44
41
41
37
34
34
29
27
27
24
23
23
21
21
21
19
19
19
19
19
18
19
23
30
40
50
62
72
79
82
81
78
73
68
62
56
52
48
46
45
45
46
47
49
49
49
49
47
45
42
40
38
35
33
30
29
27
25
24
24
23
23
23
22
22
21
21
25
32
42
53
65
76
82
85
83
79
74
68
61
55
50
47
45
44
45
47
48
49
50
49
48
46
43
40
37
35
32
30
28
27
25
24
23
21
21
20
20
20
23
30
40
51
64
77
86
91
92
89
84
79
73
67
62
58
55
53
52
51
52
53
53
54
53
51
49
46
43
40
38
36
33
31
30
29
27
26
25
24
24
24
26
32
40
53
67
82
93
101
104
104
102
98
94
65
62
60
58
57
55
54
54
54
53
53
52
51
49
48
47
45
44
42
41
40
39
38
36
35
34
33
33
32
32
32
31
31
31
32
35
40
45
52
59
65
68
69
69
67
65
63
60
58
55
54
52
51
50
50
50
50
49
49
47
46
44
43
41
40
39
37
36
35
34
33
32
31
31
30
30
29
29
28
28
28
27
27
27
28
31
36
41
49
56
62
66
67
67
65
62
62
57
54
54
50
49
49
47
47
47
47
47
47
45
44
44
41
40
39
38
37
36
35
34
33
32
32
31
31
30
30
29
29
28
28
28
27
28
31
35
41
47
54
60
64
65
65
63
60
56
53
50
48
45
44
43
43
43
43
44
44
44
43
42
40
40
38
36
35
34
33
32
31
30
29
28
28
27
27
27
26
26
26
26
28
31
36
42
49
55
60
63
64
63
61
59
56
53
51
48
46
44
43
42
42
42
42
41
40
40
39
38
36
35
33
32
31
30
29
28
27
26
25
25
24
24
24
24
24
24
23
24
25
28
33
39
45
52
57
61
61
61
59
56
54
51
48
46
44
42
41
41
41
41
41
41
40
40
39
37
36
34
33
32
30
29
29
28
27
26
26
25
25
24
24
24
23
23
23
22
22
23
27
32
38
44
51
56
59
60
59
57
54
51
48
46
44
42
41
40
40
41
41
41
41
40
40
39
39
36
35
35
32
31
31
29
28
28
27
26
26
25
25
25
24
24
24
24
24
24
24
27
31
37
42
49
55
58
60
59
58
55
52
49
46
44
42
40
40
40
40
40
41
41
41
41
40
40
39
38
37
36
35
34
33
32
31
30
29
29
28
28
28
27
27
27
26
26
26
27
29
32
38
43
50
55
59
61
61
59
57
53
50
47
45
42
41
40
40
40
40
40
40
40
40
39
38
37
36
35
33
32
31
30
29
28
27
27
26
26
26
25
25
25
25
25
25
26
29
34
40
46
52
58
61
63
62
60
57
54
50
47
44
42
40
40
40
40
41
41
42
43
43
42
41
40
39
37
36
34
33
32
30
30
29
29
28
28
28
27
28
29
32
37
42
49
56
61
64
65
64
61
58
55
51
48
45
43
42
42
42
43
44
45
46
46
46
45
43
42
40
40
38
37
36
35
34
33
32
31
30
30
32
36
41
48
55
61
66
68
68
67
64
61
58
55
52
50
49
47
47
47
47
48
48
48
48
47
45
43
42
40
39
37
36
35
34
33
32
31
32
35
40
46
54
62
68
72
73
73
71
68
65
62
60
57
55
54
52
52
51
51
51
50
50
50
47
46
46
42
40
40
38
36
36
34
34
34
32
32
33
36
40
47
55
63
71
76
79
79
78
76
74
72
69
67
64
62
60
58
57
55
54
53
53
51
50
48
46
44
42
41
40
38
37
35
34
32
31
30
29
29
28
28
27
27
28
32
37
43
51
60
67
72
75
75
74
72
70
67
65
62
59
57
55
53
52
51
51
50
49
48
46
45
43
41
40
38
37
35
34
33
31
30
29
28
28
27
26
25
25
24
24
23
22
22
21
22
24
28
35
42
51
60
67
70
72
71
69
66
63
60
57
55
53
51
50
50
50
50
49
48
47
46
44
42
40
39
38
36
34
33
31
30
29
28
27
26
25
24
24
23
22
21
21
20
19
19
19
20
23
29
35
42
50
56
60
62
61
59
56
53
50
47
44
42
41
40
40
40
40
40
40
40
39
37
36
34
32
30
29
27
26
25
24
23
22
22
21
21
21
21
20
20
21
24
24
33
39
39
48
50
50
50
56
56
44
39
39
28
24
22
22
22
23
24
24
24
23
21
19
16
14
11
8
6
4
2
0
0
0
0
0
0
0
0
2
10
21
33
44
53
58
59
57
53
48
42
36
30
25
22
19
18
18
20
21
22
22
21
20
18
16
14
11
9
6
4
2
0
0
0
0
0
0
0
0
0
2
10
21
33
44
54
61
62
61
57
51
45
39
33
28
24
21
20
20
20
21
22
23
23
22
20
18
16
15
13
11
9
7
5
3
2
1
1
0
0
0
0
1
6
15
26
38
49
59
64
65
62
57
51
45
39
33
29
25
23
22
22
23
24
26
26
26
25
23
21
19
17
16
14
12
10
8
7
6
5
4
4
3
3
3
3
6
12
20
31
42
54
63
68
69
66
62
56
51
45
40
35
32
30
29
29
30
32
33
34
34
33
32
30
28
26
23
21
18
16
14
12
11
9
8
8
7
7
7
8
8
8
9
12
18
27
37
49
60
69
74
74
72
66
60
53
47
41
38
35
33
33
35
37
39
40
40
40
40
38
36
33
31
28
25
22
20
18
16
16
14
14
13
13
13
13
13
13
17
17
30
39
39
58
64
64
66
62
57
49
42
42
31
27
25
25
26
28
30
33
34
35
35
34
32
29
26
24
22
20
19
17
16
15
14
14
14
14
17
23
31
42
53
65
74
79
80
78
73
67
60
53
47
42
39
38
38
39
41
43
45
46
46
45
43
41
39
37
34
31
29
27
25
24
22
21
21
20
18
19
22
30
40
54
70
85
97
105
107
106
103
98
66
63
60
58
56
54
53
52
52
52
52
52
52
51
50
48
47
45
44
42
41
40
39
37
36
35
34
33
33
32
32
32
33
36
40
46
53
61
67
70
72
72
70
68
66
63
60
57
55
53
52
51
50
50
50
50
49
48
47
45
43
42
40
40
38
37
36
35
34
33
32
31
31
31
31
30
30
29
30
32
36
41
47
54
61
65
66
66
64
61
58
55
52
49
47
46
45
45
46
47
47
47
47
46
45
43
42
40
39
38
37
35
35
33
33
33
32
31
31
30
30
30
33
36
36
46
52
52
59
60
60
57
53
50
46
43
40
39
38
38
39
40
40
41
41
41
40
40
39
37
35
34
32
31
30
30
29
28
31
35
40
47
54
61
65
66
66
63
61
57
53
50
47
45
43
42
42
43
44
44
44
44
43
43
41
40
39
37
36
34
33
31
30
30
29
28
28
28
28
30
34
40
47
56
64
70
74
75
74
72
70
70
62
59
56
54
52
51
51
50
50
50
49
48
47
45
44
42
40
39
37
36
34
33
31
30
29
29
28
28
28
29
33
38
44
52
59
66
69
71
70
68
65
61
57
54
51
48
47
45
44
44
45
45
45
44
43
42
40
40
38
37
35
34
32
31
30
28
27
27
26
25
25
24
24
24
26
29
34
40
48
55
61
65
66
65
63
59
56
52
48
45
43
42
41
42
42
42
43
43
43
42
40
40
38
36
35
33
31
30
29
28
27
26
26
26
25
25
25
25
25
28
32
38
44
50
56
60
61
60
57
53
49
45
41
39
37
36
35
36
37
38
39
39
39
39
37
36
35
33
31
30
28
27
26
25
25
24
24
24
23
24
24
32
38
38
51
57
57
63
63
63
58
55
55
48
46
46
42
41
40
41
41
41
42
42
41
40
40
38
36
35
33
32
31
30
29
28
27
26
26
25
25
25
28
32
38
43
50
57
61
63
63
61
59
56
53
50
48
46
44
43
42
42
42
42
42
41
40
40
39
37
36
34
33
31
30
28
27
26
25
24
24
24
23
23
23
23
24
28
33
39
45
52
56
59
59
58
55
52
49
46
43
41
40
38
38
38
38
39
39
39
38
37
36
35
33
31
30
29
28
27
26
25
24
23
23
23
22
22
22
22
22
23
25
29
35
41
47
53
57
59
59
57
54
51
47
44
41
40
39
38
38
38
39
39
39
39
38
37
36
35
33
32
31
30
29
28
27
26
25
24
24
23
23
23
23
23
23
23
24
27
32
38
44
51
56
60
61
60
57
55
51
48
45
42
40
40
39
39
40
40
41
41
41
40
40
39
37
36
36
33
32
32
30
29
29
28
27
27
27
27
27
26
26
26
27
29
29
39
44
51
57
61
63
62
60
56
53
49
45
42
40
40
39
39
40
40
41
41
41
41
40
39
38
36
35
33
32
31
30
29
28
28
27
27
26
26
27
29
33
39
45
52
58
62
64
63
62
59
56
52
49
46
44
43
42
41
42
43
43
44
43
43
42
41
40
39
37
36
34
33
32
31
30
30
29
29
28
29
31
34
40
46
54
61
67
70
71
70
68
65
63
60
57
54
52
50
49
48
48
48
48
48
47
46
45
43
42
40
40
38
36
35
33
32
31
30
30
29
29
29
28
28
30
33
38
44
51
58
64
67
68
68
66
63
61
58
56
53
51
49
48
47
46
46
46
46
45
45
43
42
40
39
38
36
35
33
32
31
30
29
29
29
28
28
28
28
28
28
29
32
36
42
49
56
63
67
68
68
66
63
60
56
53
51
49
47
46
46
46
47
47
47
47
46
45
43
41
40
38
37
35
34
33
32
31
31
30
30
29
29
28
28
28
29
32
37
42
49
57
63
67
68
67
65
62
58
55
51
49
47
45
44
44
45
45
45
45
45
44
44
41
40
40
37
35
35
32
31
31
29
28
28
27
26
26
26
29
29
39
46
54
61
66
69
69
68
66
63
59
56
53
51
49
47
46
46
46
46
46
46
45
43
42
40
39
37
35
33
32
30
29
28
27
27
26
26
26
25
25
26
29
33
40
47
56
64
70
73
74
73
71
69
66
64
61
58
55
53
51
49
48
48
47
46
45
44
42
40
39
37
35
33
32
30
29
28
27
26
25
24
24
23
23
23
23
22
22
22
25
29
36
43
52
60
65
69
70
69
66
64
60
57
54
51
49
47
46
45
45
45
45
44
43
42
41
40
38
37
35
33
32
30
29
28
27
26
25
24
24
23
23
22
22
22
21
21
20
20
21
23
28
34
41
50
58
64
68
68
67
65
61
58
54
51
48
45
44
43
43
43
43
43
42
41
40
39
37
35
33
32
30
28
27
26
25
24
23
23
22
22
22
21
21
21
21
20
20
20
19
19
19
21
25
25
39
47
47
62
66
66
66
63
63
56
52
52
45
43
43
41
41
42
42
43
43
43
42
40
40
38
36
34
32
31
29
28
27
26
25
24
24
23
23
23
22
22
22
22
21
21
21
22
24
30
36
43
52
59
64
66
66
64
61
57
53
49
46
43
41
40
40
41
42
43
43
44
43
42
40
40
38
36
35
33
31
30
28
27
26
25
24
24
23
23
22
22
22
24
27
32
39
45
54
60
65
67
66
64
61
57
53
49
45
42
40
40
40
40
41
42
43
43
43
42
41
40
38
36
35
33
32
30
29
28
28
27
26
26
26
26
26
27
30
36
42
51
60
68
74
77
77
76
74
70
67
63
60
57
54
52
51
50
50
50
50
50
50
49
48
46
44
42
40
38
36
35
33
32
30
29
29
28
27
27
27
27
27
30
34
40
47
56
64
70
73
74
73
71
68
64
60
56
53
50
48
47
47
47
47
47
47
46
45
44
42
40
39
37
35
33
31
30
29
28
27
26
25
25
25
24
24
25
26
30
36
42
51
59
65
69
70
69
67
64
60
56
53
50
47
45
45
45
45
46
46
46
46
45
45
42
40
40
37
35
35
31
30
30
28
28
28
26
26
26
25
25
25
25
27
27
38
44
53
61
68
72
73
72
70
66
62
58
54
51
49
48
47
47
48
49
50
50
50
49
47
45
43
41
40
38
37
35
34
32
31
31
30
30
29
29
28
28
31
36
41
49
58
66
71
74
74
72
69
65
61
57
53
50
48
47
46
47
47
48
48
48
47
46
44
42
40
39
36
34
32
31
29
29
28
27
27
26
26
28
32
38
45
55
65
74
79
82
82
81
78
75
71
68
64
61
58
56
54
53
53
52
52
51
49
48
46
43
41
40
38
35
33
31
30
28
27
27
26
25
25
25
25
26
29
35
42
51
61
70
76
80
81
79
77
74
70
67
63
60
57
55
53
52
51
51
50
49
48
46
44
42
40
38
36
34
33
31
29
28
27
26
25
24
24
23
23
22
22
22
21
21
23
28
34
42
52
62
71
76
79
78
76
73
70
66
62
59
59
53
52
52
50
50
50
49
48
48
45
43
43
40
38
38
34
32
32
29
28
27
27
26
25
25
25
24
24
24
23
23
22
22
22
23
27
34
42
52
62
70
76
78
77
74
71
66
61
57
54
51
49
48
47
48
48
49
48
48
46
44
42
40
38
35
33
31
29
28
27
26
25
24
23
23
22
22
22
21
21
20
22
25
31
40
49
59
68
74
77
77
76
73
69
65
61
57
54
51
48
47
46
46
47
47
46
45
44
42
40
38
35
33
31
29
27
26
24
23
22
21
20
20
19
19
19
19
19
18
18
18
21
26
34
42
53
63
71
76
78
77
75
71
67
63
59
55
52
49
48
47
46
46
46
46
45
44
42
40
38
36
34
32
30
28
26
25
23
22
21
20
20
19
19
18
18
18
17
17
16
17
20
25
33
41
52
61
69
73
75
74
71
67
62
58
54
50
47
45
44
43
43
44
44
44
43
42
41
40
37
35
33
31
29
27
26
25
23
22
22
21
20
20
20
20
20
20
19
19
19
19
21
25
33
41
51
60
68
73
74
73
70
66
61
57
52
48
46
44
43
43
44
45
46
46
46
45
45
42
40
40
36
34
34
29
28
28
25
23
23
21
21
21
20
20
20
21
24
29
37
45
55
64
70
73
73
71
68
63
58
54
49
46
43
42
41
42
43
44
45
46
46
45
44
42
40
38
36
33
32
30
28
27
26
25
24
23
23
24
28
34
42
51
62
70
76
78
78
75
71
67
62
57
53
50
47
45
44
44
45
45
46
46
45
44
42
40
39
36
34
32
30
28
26
25
24
23
23
22
23
26
33
41
52
63
74
82
86
87
86
84
81
77
73
69
65
62
59
57
55
54
54
53
52
51
50
48
46
43
41
39
37
35
33
31
29
28
27
26
25
25
24
24
25
28
34
42
52
63
73
80
84
86
85
83
79
76
72
68
65
61
58
56
54
52
51
50
49
41
40
37
34
32
29
27
26
24
23
22
21
20
19
19
19
19
18
18
18
18
18
22
28
37
46
57
67
75
79
80
79
76
72
68
63
59
55
52
50
48
47
46
46
45
44
43
42
40
38
36
33
31
29
27
25
23
23
21
20
19
18
18
17
17
16
16
16
15
14
14
13
14
17
23
31
40
50
59
65
68
68
66
63
59
54
50
46
43
41
40
39
39
40
40
40
39
38
36
34
32
30
28
26
24
22
20
19
18
16
16
15
14
14
13
13
13
13
12
12
12
11
11
11
13
17
23
31
39
46
52
55
56
55
53
49
45
42
39
36
34
33
32
32
33
34
34
34
34
33
31
29
28
26
25
23
21
20
19
18
17
16
15
14
14
14
14
13
13
13
13
12
12
12
13
17
23
30
37
42
47
49
49
47
44
40
37
34
30
28
27
26
26
27
29
30
30
31
30
30
28
27
25
23
22
21
19
18
17
17
16
15
15
14
14
13
14
15
19
25
32
39
45
50
52
53
51
48
45
41
39
36
33
31
30
30
30
31
33
33
34
34
33
32
31
29
28
26
24
23
22
20
19
19
18
18
17
17
17
17
18
21
26
33
40
48
55
60
62
63
61
59
56
53
50
47
44
42
41
40
40
40
40
40
40
39
38
37
35
34
32
31
29
28
27
25
24
23
22
22
22
21
20
20
20
21
21
29
35
35
49
55
55
61
61
61
57
54
51
48
45
43
41
40
40
40
40
40
40
40
40
39
37
36
35
33
32
30
29
28
27
25
24
23
23
22
22
22
21
21
21
21
22
24
29
35
42
49
56
61
63
63
61
59
55
52
48
45
43
41
40
40
40
40
41
41
41
40
40
39
37
36
34
32
31
30
28
27
26
25
25
24
24
23
23
23
23
23
23
22
23
26
30
37
43
51
58
62
64
64
62
60
56
53
49
46
44
42
41
41
42
42
43
43
43
42
41
40
39
38
36
35
33
32
31
29
28
28
27
26
26
25
25
25
25
24
24
24
25
28
33
40
47
55
61
65
66
66
63
60
56
52
49
46
43
42
41
42
42
43
44
44
43
43
41
40
39
37
35
34
33
31
30
29
29
28
27
27
27
26
26
27
27
27
27
28
30
35
40
47
55
61
66
69
69
68
65
61
57
54
50
50
46
46
46
46
47
47
48
48
48
47
45
45
42
40
40
38
36
36
34
33
33
32
32
31
31
31
30
30
31
32
35
40
46
54
62
68
71
72
71
68
64
60
56
52
49
47
46
46
46
47
48
49
50
50
49
48
46
44
42
40
39
37
36
34
33
32
32
31
31
31
31
32
36
41
48
57
65
71
75
76
75
73
69
65
62
58
55
52
51
50
50
50
51
51
51
51
50
48
46
44
42
40
39
38
37
35
34
33
33
32
32
34
39
44
53
62
71
79
84
86
86
84
81
78
75
71
68
65
62
60
59
58
58
57
56
55
54
52
50
48
45
43
41
40
38
37
35
34
33
32
31
31
31
31
33
37
42
51
61
71
80
86
88
89
88
85
82
79
76
72
69
66
64
61
60
59
58
56
55
53
51
49
47
44
42
40
38
37
35
33
32
31
30
29
28
28
27
27
26
26
25
25
27
32
39
47
58
69
77
83
85
86
84
81
78
74
71
67
64
62
60
58
57
56
56
55
53
51
49
47
44
42
40
38
36
34
32
31
30
29
28
27
27
26
26
25
25
25
24
23
23
22
23
26
32
40
49
60
70
77
77
82
81
78
74
70
70
62
59
59
54
53
53
52
52
52
50
49
49
45
42
40
39
36
34
33
31
29
28
27
26
26
25
24
24
23
23
23
22
22
21
21
20
20
21
24
30
39
48
59
69
76
80
80
78
75
71
66
62
58
54
51
49
48
48
48
48
47
47
45
43
41
40
38
35
33
31
30
28
27
25
24
24
23
22
22
21
21
21
20
20
19
19
18
18
17
17
19
23
30
39
49
60
68
74
77
76
74
70
65
61
56
53
50
47
46
46
46
46
47
47
46
45
43
41
40
37
35
33
31
29
27
26
25
24
23
23
22
22
22
21
21
20
20
19
19
18
17
17
19
24
31
40
50
60
68
72
74
72
69
64
59
54
49
45
42
41
40
40
41
42
42
43
42
41
40
38
36
33
31
29
27
25
24
22
21
20
19
19
18
18
18
18
18
17
17
17
19
23
30
40
50
60
69
75
78
78
76
72
68
64
60
56
52
52
47
46
46
45
45
45
44
43
43
40
38
38
33
31
31
27
25
25
22
21
20
19
18
18
17
17
16
16
16
16
15
15
16
19
25
33
43
54
64
72
77
78
76
73
69
64
60
56
52
48
46
45
44
44
44
44
44
43
42
40
39
37
35
32
30
28
26
25
23
22
21
20
20
19
19
18
18
17
17
17
17
16
16
16
17
21
28
38
47
58
68
74
77
77
74
70
66
61
56
52
49
46
45
44
44
44
45
45
45
44
42
41
39
37
35
32
30
29
27
25
24
23
21
21
20
20
19
19
19
19
19
19
19
18
18
20
24
30
39
49
60
69
76
79
79
76
73
68
63
58
54
51
48
47
46
46
46
47
47
47
46
45
43
41
40
37
35
33
31
30
28
27
26
25
24
23
22
22
22
22
21
21
21
20
20
21
24
30
38
47
57
66
72
76
75
73
69
64
59
54
49
46
43
41
40
40
40
41
42
42
42
40
40
38
35
33
31
29
27
26
25
23
22
22
21
21
20
20
20
20
20
20
20
20
20
21
25
32
40
51
61
70
76
78
78
75
70
65
59
53
49
45
43
42
42
43
44
45
46
46
46
45
43
43
39
36
36
32
30
30
27
25
25
24
23
23
22
22
22
22
25
25
37
46
56
67
76
81
83
82
79
75
70
65
61
56
53
50
48
47
47
48
48
49
48
47
45
43
41
39
37
35
32
30
28
27
25
24
23
22
22
22
21
21
21
23
26
33
41
51
62
72
79
83
84
82
78
74
69
64
59
56
53
51
49
49
49
50
50
49
48
46
44
42
40
38
36
33
31
29
27
26
25
24
23
23
22
22
22
22
21
21
21
23
28
36
45
55
66
75
80
83
82
79
75
70
65
60
56
53
51
49
49
49
49
50
49
48
47
45
43
40
39
36
34
32
30
28
26
25
24
23
23
22
22
22
21
21
21
20
21
22
27
34
43
54
64
73
79
81
81
78
73
69
63
58
54
51
48
47
46
46
47
47
47
46
45
43
41
40
37
34
32
30
28
26
25
24
22
22
21
20
20
20
20
20
20
19
19
20
23
29
37
46
57
67
74
78
79
77
77
68
63
63
53
50
50
45
44
44
45
45
45
45
44
44
41
39
39
35
33
30
29
27
26
24
23
22
22
21
21
20
20
20
20
19
19
19
20
24
31
40
49
59
68
74
76
76
73
69
64
59
54
50
46
44
43
42
43
43
44
44
43
42
41
39
37
34
32
30
27
25
24
23
22
21
20
19
19
19
18
18
18
18
18
17
17
19
23
30
39
48
58
67
73
75
74
71
67
62
58
53
49
45
43
42
41
42
42
43
43
42
41
40
38
36
34
31
29
27
26
24
23
22
21
20
19
19
19
19
19
19
18
18
18
17
19
22
29
37
46
56
64
70
72
71
68
63
58
53
48
43
40
39
38
38
39
40
40
41
41
40
40
38
36
33
31
29
27
26
24
23
22
21
20
20
19
19
18
18
20
23
30
38
47
56
65
70
73
72
69
65
61
56
51
47
44
42
40
40
41
42
43
44
44
43
42
40
39
36
34
32
30
28
26
25
24
23
22
22
21
23
26
33
41
52
63
72
79
83
83
82
78
75
71
67
63
59
55
53
50
49
48
48
48
47
46
45
43
41
39
37
35
33
31
29
27
26
25
24
23
23
22
22
22
23
27
27
41
52
52
71
77
77
81
80
80
73
69
69
61
58
58
52
50
50
48
48
47
46
45
44
42
40
39
36
34
32
30
28
26
25
24
22
22
21
21
21
21
21
20
20
21
23
28
36
44
55
65
74
79
81
80
77
73
69
64
60
56
47
47
47
46
45
45
41
40
40
36
33
31
29
27
26
25
23
22
22
21
21
20
20
19
19
19
19
18
18
18
18
22
28
36
45
56
65
72
76
76
74
71
66
62
57
53
50
48
46
45
45
45
45
45
44
42
41
40
38
36
33
31
29
27
26
24
23
22
22
21
21
20
20
20
20
20
20
20
20
19
20
22
26
33
41
51
61
69
74
76
75
73
69
64
59
55
51
48
46
45
45
45
46
46
46
45
44
42
40
38
36
34
32
30
28
26
25
24
23
23
22
21
21
21
20
20
19
18
18
17
19
22
29
37
46
56
65
71
73
72
69
65
60
54
49
45
42
40
39
39
40
40
41
41
41
41
40
40
35
33
33
28
26
26
23
21
21
19
19
19
18
18
18
17
17
17
18
21
26
34
44
55
65
73
78
80
79
76
71
67
62
58
54
50
48
46
45
44
45
45
44
44
43
41
40
38
35
33
31
28
26
24
23
22
20
19
18
18
17
17
17
17
17
17
17
17
20
26
34
44
55
66
75
80
81
81
78
73
68
63
58
54
50
47
45
44
44
44
44
44
43
42
41
40
38
35
33
31
29
27
26
25
23
22
21
21
20
20
19
19
19
19
19
19
18
19
22
28
36
45
56
67
75
79
79
77
73
67
61
56
51
47
44
42
41
42
43
44
45
46
45
44
43
41
39
37
34
32
29
27
25
24
22
21
20
20
20
19
19
19
21
25
31
40
50
61
70
77
80
80
78
74
69
63
58
53
49
46
44
43
43
44
45
46
46
45
44
42
40
38
35
33
30
28
26
25
23
22
21
21
20
20
19
19
20
23
28
37
47
59
71
81
88
90
90
87
83
79
74
69
64
60
57
54
52
51
50
50
49
48
47
46
43
41
39
36
34
32
29
27
25
24
23
21
20
19
19
19
18
18
18
18
18
20
26
34
43
55
55
77
84
84
86
83
83
73
68
68
58
54
54
49
47
47
47
47
47
46
45
43
41
39
37
34
32
30
28
26
24
23
21
20
19
18
18
17
17
17
17
16
16
17
19
24
33
42
54
66
76
82
84
84
80
76
70
64
59
54
50
47
46
46
46
47
48
48
48
47
45
42
40
38
35
32
30
28
26
24
22
21
20
19
19
18
18
17
17
16
16
19
24
32
42
53
64
73
78
79
78
74
68
62
56
51
46
42
40
40
40
40
41
42
43
42
42
40
39
36
33
31
28
26
24
22
20
19
18
17
17
17
17
16
17
19
23
31
40
52
64
75
82
86
86
84
79
75
69
64
59
55
51
48
47
46
45
45
45
45
44
42
40
39
36
34
31
29
27
25
23
21
19
18
17
16
15
15
15
15
15
15
16
21
28
38
48
60
70
77
81
81
79
75
70
64
59
54
50
47
45
44
43
43
44
44
43
42
41
40
38
35
33
30
28
26
24
22
20
19
19
16
16
16
15
15
15
14
14
14
16
21
21
38
49
49
71
77
77
79
76
71
66
60
55
50
46
43
42
41
42
43
44
44
44
44
42
40
39
36
33
31
29
26
24
23
21
20
20
19
18
18
18
18
17
18
22
29
37
47
58
67
74
76
76
73
68
62
55
50
44
40
38
37
36
37
39
40
41
41
41
40
39
37
34
32
29
27
25
23
21
20
19
19
18
18
18
20
25
33
42
54
66
76
82
85
85
82
77
72
66
60
55
51
48
46
44
44
44
45
45
45
44
43
41
39
37
35
32
30
28
26
24
22
21
20
19
18
18
18
18
21
26
35
45
57
70
80
86
89
89
86
82
78
72
67
62
58
55
52
50
49
49
48
48
47
46
44
41
40
37
34
32
29
27
25
23
22
20
19
18
17
17
16
16
16
16
16
17
22
29
39
50
62
72
79
82
82
79
75
69
63
58
53
49
45
43
42
42
42
43
43
43
43
41
40
38
35
33
30
28
26
24
23
21
20
19
18
18
17
17
17
17
16
16
17
20
26
34
44
56
67
76
80
81
79
75
69
62
56
50
45
42
40
40
40
40
42
44
44
44
43
42
40
38
35
33
33
27
25
25
22
21
21
19
18
18
17
18
18
27
35
35
57
68
68
81
82
82
75
70
64
58
52
47
43
41
40
40
40
41
42
43
43
42
40
39
36
34
31
28
26
24
22
21
19
18
18
17
19
24
33
43
55
68
79
86
89
89
85
81
75
69
64
59
54
51
48
46
46
46
46
47
46
46
44
42
40
37
35
32
29
27
25
23
21
20
19
19
18
19
22
29
39
50
63
76
85
91
93
92
89
85
80
75
70
66
61
58
55
53
51
51
50
49
48
47
45
43
40
38
36
33
30
28
26
24
22
21
20
19
18
18
18
19
23
30
39
49
0
0
0
0
0
0
0
0
0
0
0
0
0
0
0
0
0
0
0
0
0
0
0
0
0
0
0
0
0
0
0
0
0
0
0
0
0
0
0
0
0
0
0
0
0
0
0
0
7
25
37
42
44
41
39
36
33
30
27
26
25
25
25
26
28
29
30
30
30
29
28
27
26
24
23
22
21
20
19
18
18
18
17
17
17
18
17
17
17
18
18
22
27
27
41
50
50
62
64
64
61
57
52
47
43
40
36
35
34
34
34
35
37
37
38
37
36
35
33
31
29
27
26
24
23
22
21
20
19
19
18
18
19
21
25
31
39
46
54
60
63
63
62
59
55
51
46
42
40
37
36
35
35
35
36
37
37
37
36
35
33
32
30
28
26
24
23
22
21
20
19
18
18
17
19
22
28
35
43
52
59
64
66
66
65
62
58
54
50
47
44
41
40
39
38
38
38
38
38
38
37
35
34
32
31
29
27
26
24
22
21
20
19
18
18
18
17
18
20
24
30
37
45
53
59
63
64
64
62
58
55
51
47
44
41
40
38
38
38
38
39
39
38
38
37
36
34
33
31
29
28
26
25
24
23
22
21
21
21
20
20
20
20
20
22
26
31
38
45
52
58
62
63
62
60
56
52
48
44
41
40
38
37
37
38
39
39
39
39
39
37
36
34
32
31
29
27
26
25
24
23
23
22
22
22
22
22
23
27
32
39
45
53
60
65
67
67
65
62
59
55
51
48
45
42
41
40
40
41
41
41
41
40
40
39
37
36
34
32
31
29
28
26
25
25
24
24
23
23
23
23
23
28
34
34
49
57
57
69
71
71
68
65
65
58
54
54
48
45
45
43
43
43
43
43
42
42
41
40
39
37
35
33
32
30
29
27
26
25
24
24
24
23
23
23
23
24
27
31
38
44
53
60
66
69
69
68
65
61
57
53
50
46
44
42
42
42
42
42
43
43
43
42
40
40
38
36
35
33
31
30
29
28
27
26
26
26
25
25
25
25
25
26
29
34
40
47
55
61
66
68
67
64
60
56
51
47
43
40
39
38
38
39
40
40
41
41
41
40
39
37
35
34
32
30
29
28
27
26
25
25
25
24
24
26
29
34
40
49
57
64
70
72
72
70
67
63
59
54
51
47
45
43
42
41
42
42
42
42
41
40
40
38
36
34
32
31
29
28
26
25
24
24
23
22
22
22
22
24
27
33
40
49
58
66
71
73
73
71
68
64
60
57
53
50
47
45
44
43
43
43
43
42
41
40
40
38
37
35
33
31
30
28
27
25
24
23
23
22
22
21
21
21
22
22
27
33
33
48
57
57
69
71
71
68
65
65
56
51
51
44
42
42
40
41
41
42
42
42
41
40
40
38
36
34
33
31
29
28
27
26
25
24
24
24
23
23
23
23
24
26
30
37
44
52
60
66
69
70
68
65
61
56
51
47
43
41
40
39
40
40
40
41
41
41
40
40
38
36
34
32
30
29
27
26
25
24
24
24
23
23
23
24
28
33
40
49
58
66
72
75
75
73
70
66
62
58
54
51
48
46
45
44
44
44
44
44
43
42
41
40
38
36
34
32
31
29
28
27
26
25
24
24
24
23
23
24
27
32
39
47
56
66
73
77
78
77
75
71
67
63
59
55
52
50
48
47
46
46
45
45
44
43
42
40
39
37
35
33
31
30
28
27
25
24
23
23
22
22
23
25
29
36
43
53
62
69
73
74
73
71
67
62
58
54
50
47
45
43
42
42
43
43
43
42
41
40
39
37
35
33
32
30
29
27
26
25
24
23
22
22
22
21
21
21
21
21
22
26
32
39
47
57
64
71
72
71
68
63
59
54
49
46
43
41
40
40
41
42
42
43
42
41
40
39
37
35
33
31
30
28
27
25
24
23
22
22
22
21
21
21
21
21
21
28
34
34
50
58
58
69
70
70
65
61
61
51
46
46
40
38
37
37
38
39
40
40
40
40
39
37
36
34
32
30
28
27
25
24
23
22
21
21
21
21
21
21
23
27
33
40
49
59
68
74
77
78
76
73
68
63
59
54
50
47
44
43
42
42
43
43
43
42
42
40
40
38
36
34
32
30
29
27
26
24
23
22
22
22
21
21
21
22
25
30
37
45
54
63
70
73
74
73
70
65
61
56
51
47
44
41
40
40
40
41
42
42
42
41
40
40
38
36
34
32
31
29
27
26
25
24
23
23
23
22
22
22
23
26
32
39
47
56
65
70
73
73
71
67
63
57
52
48
44
41
40
40
40
41
42
43
44
43
42
41
40
38
36
34
32
30
28
27
26
24
24
23
22
22
23
26
31
39
47
56
64
71
74
74
72
68
64
59
54
49
46
43
41
40
41
41
42
43
43
43
42
41
40
38
36
34
32
30
28
27
26
25
25
24
24
24
25
29
29
44
54
54
73
79
79
81
79
79
72
67
67
59
55
55
50
48
48
48
48
47
47
46
44
43
40
39
37
35
33
31
30
28
27
26
25
25
24
24
24
24
25
28
33
40
50
60
69
76
80
81
80
77
73
68
64
60
56
52
50
48
47
47
46
46
46
45
44
42
40
39
37
35
33
31
30
28
27
26
25
24
24
23
23
22
22
22
21
22
25
31
38
46
56
64
71
74
75
73
70
65
60
56
51
48
45
43
43
42
43
43
43
43
42
41
40
38
36
34
32
30
29
27
26
25
24
23
23
22
22
22
22
21
21
21
23
28
34
41
50
58
65
68
68
67
63
59
54
49
45
41
40
38
37
37
38
39
39
39
39
38
37
35
33
31
29
27
25
24
23
22
21
20
20
20
20
20
19
21
24
29
36
44
53
61
66
69
69
67
63
60
56
52
48
45
42
40
40
40
40
40
40
39
38
37
36
34
32
30
28
26
24
23
22
20
20
19
18
18
18
17
17
17
18
20
25
31
39
48
56
63
67
68
67
65
62
59
55
52
48
45
43
41
40
40
40
40
39
38
37
36
34
33
31
29
27
26
24
22
21
20
18
17
17
16
16
16
16
16
16
16
18
18
27
34
34
50
57
57
64
64
64
59
56
56
49
45
45
40
39
39
38
38
38
38
37
37
35
34
33
31
29
27
26
24
23
22
21
20
19
18
18
18
18
17
17
17
17
17
17
18
21
26
33
40
49
56
61
63
63
61
58
54
50
46
42
40
39
37
37
37
38
39
39
39
38
37
36
35
33
31
30
28
27
25
24
23
22
21
21
20
20
20
20
20
20
19
19
20
22
27
33
40
48
55
61
63
64
62
59
55
51
47
43
40
39
38
37
37
38
38
39
39
38
38
37
35
33
32
30
28
27
25
24
23
22
22
21
21
21
21
21
21
22
25
31
38
45
54
62
68
71
72
70
67
64
60
56
52
49
46
44
43
42
42
42
42
41
41
40
39
38
36
35
33
31
30
28
27
25
24
23
23
22
22
21
21
21
21
22
25
30
38
45
54
62
68
72
72
71
68
64
60
56
53
49
47
44
43
43
42
43
43
43
42
41
40
39
37
36
34
32
32
29
27
27
25
24
24
23
22
22
22
22
22
22
23
23
30
37
37
53
61
67
71
72
71
68
64
59
55
51
47
45
43
42
41
41
42
42
42
42
41
40
39
37
36
34
33
31
30
28
27
26
25
24
24
23
23
23
23
22
22
22
24
27
32
40
47
56
64
69
71
71
69
65
61
56
52
48
45
42
41
41
41
42
43
44
44
43
42
41
40
38
36
34
32
31
29
28
27
26
25
24
24
24
23
23
23
24
26
30
36
43
51
59
66
69
70
68
65
61
56
51
47
43
40
39
39
39
40
40
41
41
41
41
40
39
38
36
34
32
31
29
28
27
26
25
24
24
24
25
28
34
40
49
58
66
71
74
74
71
68
64
59
54
50
47
44
42
42
42
43
44
45
45
45
44
42
40
39
37
35
33
31
30
28
27
26
26
28
32
38
46
56
65
73
78
80
80
77
74
70
65
61
57
54
51
49
48
47
47
47
47
46
46
44
42
41
39
37
35
33
32
31
29
28
27
27
26
27
31
37
45
55
65
75
82
86
87
86
83
80
76
72
68
65
61
58
55
53
52
51
50
49
48
46
44
42
40
39
36
34
32
31
29
27
26
25
25
24
24
23
23
24
24
31
38
38
56
66
66
77
78
78
75
71
71
64
60
60
53
50
50
46
45
44
43
43
41
40
39
38
35
33
31
29
27
26
24
23
22
21
20
19
19
18
18
17
17
17
16
16
15
15
15
17
21
28
36
45
53
60
64
65
64
61
58
54
50
46
42
40
39
38
37
37
37
37
36
35
34
33
31
29
27
26
24
22
21
20
19
18
17
17
16
16
15
15
14
14
14
14
13
13
13
12
13
16
21
27
34
41
47
52
53
53
51
48
45
41
39
36
33
32
31
30
30
31
31
31
30
30
29
28
27
25
24
23
21
20
19
18
18
17
16
16
15
15
15
15
14
14
14
14
14
14
13
13
15
18
22
28
35
40
45
48
49
48
46
43
40
38
35
33
31
30
30
30
31
31
32
32
31
31
30
29
27
26
25
24
23
22
21
20
20
19
18
18
18
18
17
17
17
17
16
16
16
16
16
17
20
24
30
36
41
46
49
49
48
53
48
42
36
31
31
23
20
20
19
20
20
22
23
23
22
20
20
17
15
13
11
9
9
6
5
5
3
2
1
1
1
0
0
0
0
0
0
0
0
5
12
22
33
44
54
61
63
62
59
54
48
42
38
33
29
27
26
26
27
29
31
32
33
33
32
30
28
26
23
21
19
16
14
13
11
10
9
8
8
7
7
7
7
7
10
15
23
34
45
56
65
70
71
69
64
59
53
46
41
37
33
31
31
32
34
36
37
39
39
38
37
35
33
30
28
25
23
21
20
18
17
16
15
15
15
18
24
34
44
57
69
79
84
86
84
80
75
70
64
58
53
50
47
46
46
47
48
49
50
50
49
48
45
43
40
38
36
33
31
29
27
26
25
25
24
24
25
30
39
50
64
79
92
100
105
105
102
98
66
63
61
58
56
54
52
51
51
51
51
51
50
50
49
48
46
45
43
42
40
40
39
38
37
36
35
35
34
34
34
36
39
44
50
57
63
68
71
71
70
68
65
62
59
57
54
52
51
49
49
49
48
48
48
47
46
44
43
42
40
40
38
37
36
35
34
33
32
31
31
30
30
30
30
31
34
39
44
51
57
62
65
66
65
62
59
56
53
50
48
46
44
43
43
43
43
43
43
43
41
40
40
38
36
36
34
32
32
30
29
29
28
27
27
26
26
26
26
26
26
30
34
40
45
50
55
57
58
57
55
52
49
46
43
41
40
39
38
38
39
39
39
39
38
37
36
35
34
32
31
30
29
28
27
27
26
25
25
24
24
24
24
24
24
27
31
36
41
46
51
54
55
54
52
52
47
44
41
40
38
37
37
37
37
37
37
37
36
36
35
34
32
31
30
29
28
27
27
26
25
25
25
24
24
24
24
24
24
27
30
35
40
45
49
52
53
52
51
57
52
47
42
39
35
33
31
31
31
32
32
32
31
30
29
27
25
23
21
20
18
17
16
15
14
13
12
12
11
11
10
10
12
17
25
34
44
54
63
67
68
66
63
58
53
47
43
39
36
34
33
34
35
35
36
36
35
33
31
29
27
25
24
22
20
19
18
16
16
15
14
14
13
13
13
14
19
25
34
44
54
63
68
69
68
64
60
55
50
45
41
39
38
37
37
38
38
39
38
37
35
33
23
22
20
19
18
16
16
15
15
14
14
16
20
28
37
47
58
67
72
74
72
68
63
58
53
49
45
42
40
40
40
40
41
41
41
40
40
38
35
33
30
28
26
25
24
22
21
20
19
20
23
29
37
46
56
68
71
71
68
64
59
53
48
43
40
37
36
36
36
37
38
38
38
37
35
34
32
30
28
26
24
22
20
19
17
17
19
24
32
41
51
60
66
68
67
63
58
52
46
41
38
35
33
33
34
35
36
37
37
37
36
34
32
30
27
25
23
22
20
19
18
19
22
28
37
46
57
66
72
74
73
69
64
58
53
48
43
40
38
36
36
36
36
36
36
35
33
31
29
27
24
22
20
18
16
15
14
13
13
16
22
30
40
51
60
67
69
68
64
59
54
49
44
40
37
35
33
33
33
33
33
32
31
30
28
26
24
21
19
17
15
14
12
11
10
9
9
10
13
20
29
39
48
57
62
63
61
57
53
48
43
39
36
33
31
30
30
30
30
30
30
29
28
26
25
23
21
20
18
17
15
14
13
12
11
11
10
11
13
18
25
35
43
53
59
62
62
59
55
50
45
40
37
34
32
31
31
32
33
33
33
33
32
31
29
28
28
25
23
23
21
19
19
16
15
15
13
12
12
11
12
12
22
30
30
45
50
50
52
49
45
40
36
32
28
26
24
23
24
25
26
27
28
28
28
27
26
24
23
21
20
18
17
16
15
14
13
12
12
12
12
12
15
20
28
37
44
52
57
59
58
54
49
44
40
35
31
29
27
27
28
29
31
32
32
32
31
29
27
25
23
21
19
18
16
15
13
12
12
11
11
14
18
25
33
41
49
54
56
55
51
47
41
37
32
28
25
23
24
24
26
28
30
31
31
30
29
28
26
24
22
21
20
19
18
17
16
16
15
18
23
31
40
50
60
67
70
70
67
63
58
53
48
44
41
40
39
39
39
40
40
40
40
39
38
36
34
32
29
28
26
25
23
22
21
20
19
20
23
29
37
46
55
64
69
70
69
66
61
56
51
46
42
40
39
38
37
37
38
38
38
38
37
35
33
31
29
27
26
24
23
22
21
20
19
19
19
20
24
31
39
46
55
62
65
65
63
59
55
50
45
41
41
36
34
34
35
36
36
37
37
37
35
34
34
30
29
29
25
24
24
21
20
18
18
17
18
21
26
34
42
50
57
61
63
61
57
52
47
41
38
34
32
31
31
32
34
36
37
37
37
37
35
34
32
30
29
27
26
24
23
23
22
21
21
23
27
33
40
49
58
65
68
68
66
61
55
49
44
40
36
34
33
33
34
36
38
39
39
39
38
37
35
33
32
30
29
27
26
25
24
23
24
27
32
40
47
56
63
67
68
66
61
56
51
46
41
39
37
36
36
37
39
40
40
41
40
40
39
37
36
34
32
30
29
28
28
28
32
38
45
55
65
74
79
81
80
77
73
68
63
59
55
52
49
48
47
47
47
47
46
45
43
41
40
37
35
33
31
29
28
27
26
28
32
39
46
56
65
71
74
75
73
69
65
61
57
53
50
47
45
43
42
42
41
41
40
39
38
36
33
31
29
27
26
24
23
22
21
21
22
26
32
40
48
57
64
68
69
68
65
61
57
53
49
46
43
41
40
40
40
39
39
38
36
34
32
30
28
27
25
24
23
22
21
20
20
19
19
19
21
25
32
40
47
55
61
63
63
60
57
54
50
46
43
40
38
37
36
36
36
36
36
35
34
34
30
29
29
25
24
24
22
21
21
19
18
18
16
16
16
15
15
15
20
26
34
42
51
58
61
62
61
58
55
51
48
45
42
40
39
39
39
39
39
39
38
36
34
32
30
29
27
26
25
24
23
22
21
20
20
19
19
19
18
18
17
17
17
17
20
26
33
40
49
57
61
63
62
59
56
52
49
45
42
40
39
39
39
39
39
39
39
38
36
35
33
31
29
28
27
26
25
24
23
22
21
21
20
19
19
18
18
18
18
18
18
19
22
28
36
44
53
61
65
66
64
61
57
53
49
45
42
40
40
40
40
40
40
40
40
40
39
37
35
33
31
29
28
27
26
25
24
23
22
22
22
21
21
21
20
20
19
20
23
28
35
43
52
60
65
66
65
62
58
54
50
46
43
41
40
40
40
40
41
41
41
40
39
38
36
33
31
29
28
27
26
25
24
23
22
21
20
20
20
21
24
31
39
47
57
64
69
70
69
66
63
59
57
54
51
49
47
46
45
45
46
46
46
44
43
43
40
38
38
33
32
32
29
28
28
26
25
25
24
24
24
23
25
29
36
44
54
64
73
78
80
80
78
75
72
69
66
64
61
58
56
54
53
52
51
50
49
47
45
43
41
39
37
35
33
31
29
27
26
25
24
23
22
22
21
20
20
19
20
21
26
34
43
54
64
73
77
79
78
75
71
67
63
60
57
54
52
50
49
48
48
47
47
45
44
42
40
38
36
35
33
31
30
28
27
26
25
24
23
22
21
21
20
20
19
19
18
18
21
26
35
43
54
64
71
74
74
72
68
64
60
55
52
49
46
45
44
44
44
44
44
43
42
40
39
37
35
33
31
29
27
26
25
23
22
21
21
20
19
19
18
18
17
17
16
16
16
17
20
26
34
44
54
64
71
74
74
71
67
62
57
52
48
45
42
41
40
41
42
43
43
43
42
41
40
38
36
34
32
30
29
27
26
25
24
24
23
22
21
21
20
19
19
19
18
18
18
20
26
33
41
51
61
68
71
71
68
64
59
54
49
45
42
40
39
39
39
40
41
41
41
40
40
38
36
33
31
29
27
25
24
23
22
22
21
21
21
20
20
20
21
24
30
38
47
57
66
72
74
74
71
66
66
56
52
52
45
43
43
42
42
42
44
44
44
43
41
41
38
36
36
33
31
30
29
28
26
26
25
25
24
24
24
26
30
37
46
57
69
79
87
90
90
88
85
81
76
72
68
64
60
58
56
54
54
53
53
52
51
49
46
44
41
40
38
35
33
31
29
28
26
25
24
23
23
22
22
22
25
31
39
49
60
71
80
84
85
83
79
75
70
65
60
57
53
51
49
48
48
48
48
48
47
46
44
42
40
38
35
33
31
29
28
26
25
24
23
22
21
21
20
20
19
20
23
29
37
47
59
69
77
81
82
80
76
71
66
61
56
52
49
47
46
46
46
47
47
47
47
45
43
41
39
37
34
32
30
28
26
25
23
22
21
21
20
20
20
20
20
20
21
24
31
39
49
60
71
79
82
82
80
75
70
65
59
54
50
47
45
45
45
46
47
48
48
47
46
44
42
40
38
35
33
31
29
28
26
25
23
23
22
21
21
21
20
20
20
23
28
36
46
57
68
77
82
82
80
76
76
64
57
57
47
44
44
42
42
42
46
47
47
47
46
46
42
40
38
35
33
31
29
28
26
25
23
23
22
22
22
23
28
36
45
56
68
78
85
87
86
83
78
72
66
60
55
51
48
47
47
48
49
50
51
51
50
48
46
43
40
38
36
33
31
29
28
27
26
25
24
24
26
30
38
48
61
74
87
95
100
101
99
95
90
85
80
75
70
66
63
61
60
59
59
58
57
55
53
51
48
45
42
40
37
34
32
30
28
26
25
24
23
22
22
23
28
36
46
59
72
85
93
98
98
96
92
86
81
75
70
65
61
58
56
56
55
55
54
54
52
50
47
44
41
39
36
34
31
29
27
25
23
22
21
20
19
19
18
18
19
23
29
40
51
65
77
86
91
93
90
86
80
74
67
61
56
53
50
49
49
49
50
50
50
49
47
45
42
40
37
34
31
28
26
24
22
20
19
18
18
17
17
16
16
15
15
18
23
32
42
56
69
80
87
90
90
86
81
74
68
61
56
51
48
47
46
47
48
48
48
47
46
44
41
39
37
34
31
28
26
24
22
21
19
18
17
17
17
16
16
16
16
16
19
24
33
44
57
70
80
86
88
87
82
77
70
64
58
52
52
46
44
44
45
46
46
47
46
46
42
40
40
35
32
32
28
25
25
22
20
18
17
16
15
15
14
14
13
14
18
25
35
47
60
71
80
84
84
80
75
68
42
41
40
41
42
44
45
46
46
45
43
41
39
37
34
32
29
27
25
23
21
20
19
18
18
20
25
34
44
56
69
79
86
89
87
83
78
71
64
57
51
47
44
42
42
43
44
45
45
45
43
41
39
36
33
28
26
24
22
20
18
17
17
19
25
35
47
62
77
89
96
99
99
95
91
85
78
72
67
62
57
55
53
52
52
52
52
51
49
47
44
40
38
35
32
29
27
25
23
21
20
19
18
20
25
35
47
61
77
90
100
105
106
104
101
96
65
62
59
56
54
52
50
49
48
47
47
46
45
43
42
40
39
38
36
34
33
32
31
30
29
28
27
27
26
26
26
25
26
28
31
37
42
50
57
63
66
67
67
65
62
59
56
53
50
48
46
45
44
44
43
43
42
42
42
40
39
39
35
33
33
31
29
29
28
27
27
26
25
25
24
24
24
23
23
23
22
22
23
26
31
37
43
50
56
60
62
61
60
57
54
51
48
45
43
41
40
40
40
40
40
40
40
39
38
37
35
34
32
31
30
29
28
28
27
26
26
25
25
24
23
23
22
22
22
21
21
21
22
24
28
33
39
45
50
54
56
55
54
52
49
46
43
40
40
38
38
38
38
38
39
39
38
37
36
35
34
33
31
30
29
28
27
26
25
25
24
24
24
23
23
23
23
23
22
22
23
24
28
32
37
42
47
50
52
52
50
56
50
44
40
35
31
29
28
28
29
31
32
33
33
33
31
29
27
25
23
21
19
17
16
14
13
12
11
11
10
10
11
14
21
30
40
50
60
67
71
70
68
63
58
52
46
41
38
35
33
32
32
33
34
35
36
35
34
32
29
27
24
21
19
17
15
14
13
12
11
11
12
17
25
36
47
59
70
77
79
79
76
72
68
63
58
54
50
47
44
43
42
41
41
41
41
40
38
36
33
31
28
26
24
22
20
18
16
15
14
13
12
12
13
17
25
35
47
61
73
83
88
90
89
86
82
77
73
68
64
60
57
54
51
50
49
48
47
46
44
44
40
37
37
31
28
28
23
21
21
17
15
15
12
11
11
10
9
9
9
11
17
25
36
49
62
73
81
85
85
82
78
72
67
61
55
50
46
43
41
40
40
40
40
40
39
37
35
33
31
28
26
24
22
20
18
16
15
14
12
11
11
10
9
8
8
8
7
7
7
8
13
20
31
43
56
68
76
81
81
79
74
69
64
58
53
49
46
44
43
42
42
43
43
42
41
40
38
36
33
31
29
26
24
22
20
19
17
16
15
14
13
12
12
12
11
11
10
10
10
12
16
24
34
44
56
67
75
78
78
76
71
65
58
52
46
42
39
37
37
37
38
38
38
38
37
35
33
31
29
27
24
23
21
19
17
16
15
14
13
13
12
12
12
12
11
11
11
13
18
26
36
47
59
68
74
76
75
71
65
59
52
45
40
36
33
32
32
33
35
36
37
37
37
36
35
33
31
29
27
24
22
20
18
17
16
15
14
14
14
13
14
16
22
30
40
52
63
73
78
80
78
74
74
61
53
53
41
37
37
33
33
33
37
39
39
40
40
40
38
36
36
31
28
26
24
23
21
20
18
17
18
22
30
40
51
64
76
85
89
89
86
81
75
69
62
56
51
47
44
43
44
45
46
48
48
48
47
45
42
40
38
35
33
31
29
27
25
24
23
23
26
33
42
55
70
85
96
103
106
105
102
97
65
62
58
56
53
51
49
49
48
48
48
48
47
47
46
44
43
41
40
40
38
37
35
34
33
32
32
31
31
32
36
40
47
54
61
67
70
71
71
69
66
63
59
56
53
51
49
47
47
47
46
46
46
46
45
44
42
41
40
38
37
35
34
33
32
31
30
29
29
28
28
29
31
35
40
46
53
60
65
67
68
67
64
61
57
54
51
48
46
45
44
44
45
45
45
45
44
43
42
41
40
39
37
36
35
34
33
32
31
30
29
29
28
28
28
28
28
31
35
40
47
54
60
65
67
67
66
63
60
56
52
49
47
45
44
44
45
45
46
47
46
46
45
43
42
40
39
38
36
35
34
33
32
31
30
30
29
29
29
29
29
31
35
40
47
54
60
65
67
66
64
61
58
54
50
47
44
42
42
42
42
43
44
45
45
45
44
42
41
40
40
37
36
36
33
32
32
30
29
29
29
30
30
37
42
49
57
63
63
69
68
68
63
59
55
51
48
45
44
43
43
44
45
45
46
46
45
44
43
42
40
39
38
36
35
34
33
32
31
30
31
34
39
45
53
60
67
71
72
72
70
67
64
60
56
53
50
48
46
46
46
46
47
47
47
46
45
43
41
40
38
36
35
33
32
31
30
30
31
35
41
48
57
66
72
76
77
77
74
71
68
65
61
58
55
52
50
49
48
48
48
48
47
46
44
42
40
39
37
35
34
32
31
29
28
27
27
27
28
33
39
46
55
64
72
76
78
78
76
74
71
67
64
61
57
54
52
50
48
47
46
45
44
43
42
40
39
36
34
32
31
29
27
26
25
24
23
22
22
21
21
20
20
20
21
24
29
36
43
51
58
63
66
66
64
62
59
56
53
50
47
44
42
40
39
38
38
37
36
35
33
32
30
28
26
25
23
21
20
19
18
17
16
15
15
14
13
13
12
12
11
11
11
11
10
10
10
9
10
10
17
22
22
36
41
41
47
47
47
44
42
42
37
35
33
31
30
29
29
29
29
29
28
27
26
25
24
22
21
20
19
18
18
17
16
16
15
15
14
14
13
13
13
12
12
11
11
11
10
10
10
10
11
14
18
22
28
33
36
38
39
38
37
35
32
30
28
26
25
24
23
23
24
24
24
24
24
24
23
22
22
21
20
19
19
18
18
17
17
16
16
16
15
15
15
14
14
14
13
13
13
13
13
13
13
14
17
20
24
28
32
35
36
35
34
32
30
28
26
25
23
23
22
22
23
23
24
24
24
24
24
23
22
22
21
21
20
20
19
19
19
19
18
18
18
18
18
18
18
18
18
18
18
18
18
19
20
23
26
30
33
36
37
37
36
34
32
30
28
26
25
24
24
24
24
25
26
26
27
27
27
26
26
25
25
24
24
23
23
22
22
22
22
22
22
22
22
22
22
22
22
22
22
22
23
25
28
31
35
38
40
40
40
39
37
35
32
30
29
28
27
27
27
27
28
29
29
29
30
30
29
29
28
28
27
27
26
26
26
25
25
25
25
25
25
25
25
25
25
26
26
27
29
32
35
39
41
43
43
42
42
39
34
29
25
22
22
18
18
18
19
21
21
24
25
25
24
23
23
21
20
20
18
17
17
16
16
15
15
15
14
14
14
14
14
15
17
21
27
33
40
46
50
51
50
47
43
39
35
31
27
25
23
23
23
24
26
27
29
30
30
30
29
28
27
26
25
24
23
22
22
21
21
20
20
20
20
22
25
31
37
44
50
56
58
58
56
52
48
44
40
37
35
33
32
32
33
34
35
36
37
37
36
36
35
33
32
31
30
28
28
27
26
25
25
24
26
29
35
42
51
59
66
70
71
70
67
64
61
58
55
52
49
48
46
46
46
46
47
47
47
46
45
43
42
40
39
38
36
35
34
33
33
32
32
31
33
36
41
49
58
67
74
79
80
80
77
75
71
68
65
62
60
58
56
56
55
55
55
55
54
53
52
50
48
46
45
43
42
41
40
39
38
37
36
35
35
35
34
35
37
41
48
57
66
75
81
84
85
84
81
78
74
71
67
64
62
60
59
59
59
59
59
58
57
56
54
52
50
50
47
45
45
43
41
41
40
39
39
37
36
36
35
34
34
33
34
34
41
49
58
68
75
80
83
82
80
76
72
68
64
61
58
57
56
56
56
56
56
56
55
54
52
50
48
46
44
42
40
40
38
37
36
34
33
33
32
31
31
30
29
29
28
28
28
31
37
44
53
63
72
78
80
80
78
74
70
66
61
58
55
53
52
52
52
53
53
53
53
51
50
48
46
43
42
40
39
38
37
36
34
33
33
32
32
31
31
31
30
29
29
28
28
29
33
39
46
55
64
71
75
76
74
71
67
62
58
54
51
48
47
47
48
49
50
50
48
46
44
42
40
39
37
35
34
32
31
30
29
28
27
27
27
26
28
31
38
45
53
62
69
74
75
74
71
67
62
58
54
51
48
47
46
46
47
48
48
48
47
46
45
43
40
39
37
34
33
31
30
29
28
27
26
26
25
25
25
27
31
38
46
56
67
76
82
84
84
82
79
76
73
69
66
63
60
57
56
55
54
54
54
53
52
51
49
47
44
42
40
39
37
35
33
32
31
30
29
28
27
27
26
26
25
24
26
30
36
44
55
66
75
81
85
84
82
79
75
71
67
63
60
57
54
53
52
52
52
52
52
50
48
48
44
42
42
38
36
36
32
30
30
28
27
27
25
24
23
22
22
21
20
20
20
21
25
32
41
52
63
73
79
82
82
80
76
72
67
62
58
55
52
51
50
50
50
51
51
50
49
48
46
44
42
40
38
36
34
32
31
29
28
27
26
25
24
24
24
23
23
22
22
21
22
26
32
40
51
62
72
78
81
81
78
73
68
63
57
53
49
46
45
44
44
46
46
47
47
45
44
42
40
38
36
33
31
30
28
27
26
26
25
24
24
23
22
21
22
25
30
39
48
59
69
76
80
81
79
75
71
66
61
56
53
50
47
46
46
46
47
47
47
46
45
43
41
39
37
34
32
30
28
27
25
24
23
22
21
20
20
19
19
22
27
36
46
59
71
80
86
88
87
84
79
75
70
65
61
57
54
52
50
49
49
49
49
48
47
45
43
41
39
36
34
32
29
27
26
24
23
21
20
20
19
18
18
18
17
19
23
30
40
51
63
74
81
85
85
83
83
74
69
64
59
56
56
51
49
49
49
49
49
49
47
47
43
40
40
36
33
31
29
27
26
25
23
22
21
21
20
20
20
19
19
18
18
19
24
31
41
52
64
75
81
83
82
78
73
67
61
55
51
47
45
44
44
45
47
48
49
49
48
46
44
42
40
38
35
33
31
29
27
26
25
24
24
23
22
22
21
22
26
33
41
53
65
75
83
86
86
83
78
72
66
59
54
49
46
44
43
44
45
46
47
48
47
46
44
41
39
36
34
31
29
27
25
23
22
21
20
20
22
28
38
49
63
76
86
93
95
94
91
86
81
75
69
64
59
56
53
52
51
52
52
52
51
50
48
45
42
40
37
34
32
29
27
25
23
21
20
18
18
17
20
26
36
48
62
77
89
98
101
101
99
94
64
62
59
57
54
52
51
50
49
49
48
48
47
47
46
45
43
42
40
39
38
36
35
34
33
32
31
31
30
30
29
29
29
31
34
38
44
51
58
63
66
68
67
66
63
61
58
55
52
49
48
46
45
45
45
46
45
45
44
43
42
41
40
39
38
36
35
34
32
31
31
30
29
29
28
28
28
28
28
29
31
35
40
46
53
59
63
65
65
64
61
58
54
51
51
45
44
44
42
43
43
43
43
43
42
41
41
39
38
38
35
33
33
31
30
29
29
28
28
27
27
27
27
27
27
27
27
29
33
38
43
50
56
61
64
65
63
61
58
54
51
47
45
43
42
41
41
42
43
43
43
42
42
41
40
39
37
36
34
33
32
31
30
29
29
28
28
28
28
27
27
27
27
27
28
32
36
42
48
55
60
63
63
62
60
56
52
49
45
42
40
39
39
40
40
41
42
43
43
43
42
41
40
39
38
36
35
34
33
32
31
30
29
29
29
28
29
31
34
40
45
52
58
63
65
66
64
62
58
54
51
47
44
42
41
40
41
42
43
43
44
44
43
42
41
40
38
36
35
33
32
31
30
29
28
29
31
35
40
47
55
61
67
69
70
69
66
63
60
56
53
50
48
46
45
45
45
46
46
46
45
45
43
42
40
40
38
36
35
33
32
31
30
30
29
30
33
38
44
52
60
68
73
76
77
76
74
72
69
66
62
60
57
55
53
52
52
52
51
50
50
47
46
46
42
40
40
38
36
36
33
32
32
31
30
30
29
30
32
36
41
48
56
63
69
72
73
72
70
67
64
60
57
54
52
50
48
48
47
47
47
46
45
44
42
41
40
38
36
35
33
32
31
30
29
28
27
27
27
26
26
26
27
29
33
39
45
52
59
64
67
68
67
64
62
58
55
51
48
46
45
44
44
44
45
45
44
43
42
41
40
38
37
35
34
32
31
30
29
29
28
27
27
27
27
26
26
26
26
27
30
34
40
46
54
60
64
66
66
64
61
57
53
49
46
44
42
42
42
43
43
44
44
44
43
42
41
40
38
37
35
33
32
31
30
29
28
28
27
27
26
26
26
28
31
36
41
48
55
60
64
64
63
61
57
54
50
46
43
41
40
40
40
40
40
41
41
41
40
39
38
36
34
33
31
30
28
27
26
25
25
24
24
26
28
33
39
46
53
59
63
65
65
63
61
58
54
51
48
45
43
42
41
41
41
41
41
41
40
40
39
37
36
34
32
31
29
28
27
26
26
25
25
24
24
25
28
33
39
46
53
60
65
67
67
66
64
61
58
55
52
49
47
45
43
43
42
42
42
41
41
40
39
38
36
35
33
33
30
29
29
27
26
26
24
24
24
23
22
22
22
23
23
31
37
37
51
58
62
64
64
63
60
57
54
50
47
45
43
41
40
40
40
40
40
40
40
39
38
36
35
33
32
31
29
28
27
26
25
24
24
24
24
23
24
23
23
23
23
24
27
32
38
44
51
56
60
62
61
59
57
53
50
47
44
42
40
40
40
40
40
40
40
40
40
39
38
37
35
34
32
31
30
28
27
26
25
24
24
23
23
23
22
22
22
22
23
25
28
34
40
46
52
56
58
59
57
54
51
48
44
41
39
37
36
35
36
36
37
38
38
38
37
37
35
34
33
31
30
29
27
26
25
24
24
23
23
23
22
22
23
26
30
36
43
50
56
61
63
64
63
61
58
54
51
47
45
42
41
40
40
40
40
41
40
40
40
39
38
36
35
34
32
31
30
29
28
27
26
25
25
24
24
24
24
25
28
33
39
45
52
59
63
65
65
63
60
57
53
49
45
42
40
40
39
39
39
39
39
39
39
38
37
37
35
33
33
31
29
29
27
26
26
25
24
24
24
24
24
25
28
32
38
44
52
58
62
64
64
62
59
55
51
47
44
41
40
39
39
39
40
40
41
41
41
41
40
39
38
36
35
34
32
31
30
29
28
28
27
26
26
28
31
36
42
49
56
62
65
66
65
63
60
56
52
48
45
43
41
40
40
41
42
43
43
43
43
42
41
40
38
37
35
34
33
31
30
29
29
29
31
35
40
47
55
61
66
68
68
66
63
60
56
52
49
46
44
42
42
42
43
43
44
44
44
43
41
40
39
37
36
34
33
32
31
30
29
29
32
36
42
50
59
67
73
77
79
78
76
73
70
67
63
60
57
55
53
52
51
50
50
49
48
46
45
43
41
40
38
36
35
33
32
31
30
29
28
29
30
34
40
47
55
63
70
74
76
75
73
71
67
63
60
56
54
51
49
48
48
48
47
47
46
44
43
41
40
39
37
35
34
32
31
30
28
28
27
27
27
26
26
27
28
31
37
43
51
58
65
69
71
70
68
65
61
57
53
50
47
45
44
44
44
44
45
45
44
43
42
41
40
38
36
34
33
31
30
29
28
27
27
26
26
26
26
25
25
25
25
26
26
35
41
41
56
62
62
65
64
64
57
53
53
45
42
42
40
40
40
40
41
42
42
41
40
40
38
37
35
33
31
30
29
27
26
26
25
24
24
23
23
23
25
29
34
40
47
54
59
62
63
61
58
55
51
47
43
40
39
38
37
37
38
38
39
39
38
37
36
34
33
31
29
28
27
25
24
24
23
22
21
21
21
23
26
31
39
46
54
61
65
68
68
66
63
60
57
53
50
47
45
43
42
41
41
40
40
40
39
38
37
35
33
32
30
28
27
26
25
24
23
23
22
22
21
21
23
26
31
38
45
53
59
63
65
65
64
61
58
54
51
48
45
43
41
40
40
40
40
40
39
39
38
36
35
33
32
30
29
27
26
25
24
23
22
22
21
21
21
21
20
20
20
21
24
29
36
42
51
57
62
64
64
62
60
56
53
49
40
40
40
40
40
40
40
39
38
37
35
34
32
31
30
29
27
27
26
25
24
24
23
23
23
22
22
22
22
22
22
25
29
36
42
49
56
61
63
63
62
59
55
51
47
44
41
40
39
38
39
39
40
40
40
39
38
37
35
34
32
31
29
28
27
26
25
24
24
23
23
23
23
22
22
22
22
23
25
28
34
40
47
54
59
62
63
61
59
55
51
47
43
40
39
38
37
38
38
39
40
40
40
40
40
38
37
35
33
32
30
29
28
27
26
25
24
24
24
24
23
23
23
23
24
26
31
37
43
50
57
61
64
64
62
59
55
50
46
43
40
39
38
38
39
40
40
41
42
42
41
40
40
38
37
35
34
32
31
29
28
27
27
26
26
26
26
26
26
28
31
37
42
50
56
62
65
66
65
62
59
55
51
47
43
41
40
40
40
40
41
42
43
43
43
42
40
40
38
36
35
33
32
30
29
28
28
27
27
27
27
29
33
38
45
53
61
68
72
74
74
71
68
64
60
57
53
50
48
46
46
46
46
47
47
47
46
45
43
41
40
39
38
36
34
33
32
31
30
30
30
29
29
29
31
34
40
46
53
61
68
72
74
73
71
68
64
60
56
52
49
47
46
46
46
47
47
48
48
47
46
45
43
41
40
39
37
36
34
33
32
31
30
30
29
29
29
29
29
36
41
41
56
64
64
72
72
72
67
63
63
54
50
50
45
43
43
43
44
45
45
46
45
44
43
41
40
39
37
35
33
32
31
30
29
28
27
27
27
29
33
39
45
54
62
68
71
72
71
69
65
61
57
53
50
47
45
44
44
45
45
45
45
45
44
43
41
40
38
36
35
33
32
30
29
29
28
27
27
27
27
28
30
35
41
49
59
68
75
79
81
80
78
75
71
67
63
59
56
54
52
50
50
49
49
48
47
46
45
43
41
39
37
35
33
32
30
28
27
26
25
25
25
24
24
24
24
24
26
29
35
42
51
60
68
73
75
75
72
69
65
61
57
53
50
47
45
44
44
44
45
44
44
43
42
40
39
37
36
34
32
30
29
28
27
26
25
24
24
24
24
23
23
23
23
22
23
25
30
36
43
52
61
67
71
72
70
67
63
59
54
50
47
44
42
42
42
42
43
43
43
42
41
40
39
37
35
33
31
29
28
26
25
24
24
24
23
22
22
22
22
22
21
21
21
21
24
24
35
43
43
60
66
66
70
69
66
62
57
53
48
45
42
41
40
40
41
41
42
42
41
40
40
38
36
34
32
30
28
27
25
24
24
23
22
22
21
21
21
21
22
22
22
23
26
30
37
44
53
61
67
70
70
68
65
61
56
51
46
43
40
39
39
39
40
40
40
41
41
40
40
38
37
35
33
31
29
28
26
25
24
24
23
22
22
22
22
22
22
22
23
27
32
40
47
55
63
67
69
68
66
62
58
53
48
44
41
39
38
38
39
40
41
41
42
41
40
40
38
36
34
32
31
29
27
26
25
24
24
23
23
24
26
31
37
45
54
63
69
73
75
74
71
67
62
58
53
49
46
44
42
42
43
43
44
44
44
43
42
41
40
38
36
34
32
30
29
27
26
25
25
24
24
24
27
31
38
45
55
64
71
76
78
78
75
72
68
64
59
56
52
50
48
47
47
47
47
47
46
45
43
42
40
38
36
34
32
31
29
28
27
26
25
24
24
23
23
24
27
32
40
47
56
64
69
72
72
71
68
64
60
56
52
48
46
44
43
43
43
43
43
42
41
40
39
37
35
33
31
29
28
26
26
24
23
23
22
22
22
21
21
21
23
26
26
38
45
45
59
63
63
64
62
62
54
50
46
43
40
39
38
37
37
38
38
38
38
37
35
34
32
30
28
27
25
24
23
22
21
21
21
20
20
20
20
20
21
23
26
31
37
44
50
56
59
60
59
56
52
49
45
41
39
37
36
35
35
36
37
37
38
37
37
35
34
32
31
29
27
26
25
24
23
22
21
21
21
21
20
20
20
21
24
28
34
40
47
53
57
59
59
57
54
51
47
43
40
38
37
36
36
37
38
39
39
39
39
38
36
35
33
31
29
28
27
26
25
25
24
24
23
23
24
27
31
37
42
49
55
59
61
61
59
56
53
49
45
42
40
39
37
37
37
37
38
38
38
37
37
35
34
33
31
30
28
27
26
26
25
24
25
26
30
35
41
48
55
61
64
64
63
61
58
55
51
48
46
44
42
41
40
40
41
41
40
40
40
39
37
36
34
33
31
30
29
28
27
26
25
24
24
23
23
24
27
27
40
47
47
63
69
69
72
71
71
66
63
63
58
55
55
51
49
49
46
45
44
43
42
41
40
38
37
35
33
31
30
28
27
26
25
24
23
23
22
22
21
21
21
20
19
19
18
17
17
17
16
16
15
15
15
15
15
17
21
27
36
44
53
60
65
67
66
65
62
59
56
53
51
48
46
44
43
43
42
42
41
40
40
39
37
35
34
32
30
29
27
26
24
23
22
22
21
20
20
19
19
19
18
18
18
17
17
16
16
15
15
14
14
14
15
17
21
27
34
41
47
51
53
53
51
49
46
43
40
38
36
35
34
33
33
33
33
33
33
32
31
30
29
28
27
26
25
24
23
22
21
20
19
19
18
18
18
18
18
18
17
17
17
17
17
17
17
19
22
27
32
38
42
45
47
46
45
45
40
34
29
24
20
18
17
17
18
19
21
22
23
22
21
19
17
15
13
11
9
8
6
5
4
3
2
2
2
2
1
1
2
5
10
17
25
34
40
45
46
45
42
38
32
26
21
16
13
11
11
12
13
15
17
18
19
19
18
17
16
15
13
11
10
8
7
6
4
4
3
3
2
2
3
6
12
20
29
38
45
50
52
50
47
42
38
32
32
22
18
18
16
17
17
21
24
24
26
26
26
24
22
22
19
17
17
14
13
13
11
10
10
9
9
11
15
22
30
39
46
52
54
53
50
46
40
35
30
25
21
19
18
19
20
22
24
26
28
28
28
27
26
25
23
21
20
18
17
15
14
13
15
19
27
37
47
58
66
71
72
70
66
60
54
48
42
38
33
31
30
30
31
33
35
36
36
36
35
34
33
31
30
28
27
25
24
22
21
21
25
33
42
55
69
81
89
94
94
92
87
82
75
69
63
58
55
52
51
51
52
52
53
53
53
52
50
48
45
42
40
38
36
33
31
29
27
26
25
25
30
38
48
62
75
87
95
99
98
95
89
83
75
68
62
56
52
50
49
50
51
52
53
53
52
51
49
46
44
41
39
37
34
31
29
27
25
24
23
22
22
24
30
39
50
64
77
88
95
97
96
92
85
78
70
62
56
51
48
46
47
48
49
51
52
52
51
50
48
46
43
40
38
35
33
30
28
26
26
23
22
21
21
21
21
25
31
31
52
66
66
90
96
96
96
91
91
77
70
62
56
52
49
49
49
51
53
54
55
55
54
52
50
47
44
41
39
36
33
31
29
27
25
24
23
22
22
21
21
23
28
35
45
59
72
84
93
97
96
93
86
79
71
63
56
51
47
46
46
47
49
51
52
53
52
51
49
47
44
41
39
36
34
31
29
27
25
24
23
22
22
21
21
23
28
37
47
61
74
86
94
97
96
92
86
78
70
62
55
49
46
44
44
45
47
48
49
50
49
48
46
43
41
39
36
33
31
28
26
25
23
22
21
21
21
20
21
23
29
38
49
63
77
89
97
99
98
94
88
80
72
64
57
51
48
46
46
48
50
52
53
53
53
52
50
47
44
41
39
36
34
31
29
27
26
25
24
23
22
22
25
31
40
52
65
79
90
97
99
97
92
85
77
69
61
55
50
48
47
48
50
52
54
55
55
54
52
49
46
43
40
36
33
31
28
26
25
23
22
21
22
25
33
43
57
73
89
101
109
111
109
105
69
65
61
57
53
51
49
48
48
48
48
49
49
49
48
47
45
43
41
40
38
37
35
34
33
32
31
30
30
29
29
29
32
32
42
49
49
65
71
71
75
74
74
68
64
64
56
53
53
49
48
48
48
48
48
48
48
47
45
44
42
40
39
37
36
34
33
32
31
30
29
28
29
30
33
38
44
52
60
67
71
73
72
70
67
63
59
55
55
49
47
47
46
46
46
47
47
47
46
44
44
41
40
40
37
35
35
32
31
30
29
28
28
27
27
27
27
26
26
26
28
32
38
44
53
64
69
72
72
70
67
63
59
55
51
48
46
45
45
45
46
46
46
46
45
44
42
40
39
37
36
34
32
31
30
29
28
27
27
27
26
26
26
26
26
25
26
28
33
39
46
54
62
67
70
70
69
66
62
57
53
49
46
44
43
42
42
43
43
44
43
43
42
40
39
37
36
34
32
31
29
28
27
27
26
25
25
25
24
24
24
24
23
23
24
26
30
36
43
51
59
66
69
70
68
65
62
57
53
49
45
43
41
40
40
41
41
42
42
42
41
40
39
37
36
34
32
30
29
29
27
26
26
25
25
25
24
24
24
23
23
23
24
27
27
40
47
47
62
67
69
68
66
62
58
54
49
46
43
41
40
40
40
41
41
42
42
41
40
39
37
36
34
32
30
29
27
26
25
24
24
23
23
23
23
23
23
23
23
23
24
26
31
38
46
54
62
68
70
71
69
66
62
57
53
49
45
43
42
41
41
42
43
43
43
43
42
41
40
38
36
35
33
31
30
29
28
26
26
25
24
24
23
23
23
23
23
23
24
26
30
36
43
51
60
66
70
71
69
67
63
59
54
50
47
44
42
42
42
42
43
43
43
43
42
41
40
39
37
36
34
33
31
30
29
28
27
26
26
25
25
25
25
24
24
24
25
28
33
40
47
56
63
67
69
69
67
64
60
56
51
48
45
43
41
41
42
43
43
44
44
44
43
41
40
39
37
35
33
32
30
29
28
27
26
26
25
25
25
24
24
24
26
30
36
42
50
58
65
68
70
68
66
62
57
53
48
45
42
40
40
40
40
41
42
43
42
42
41
40
38
36
34
32
31
29
28
27
26
25
24
24
24
23
23
24
25
29
35
42
50
59
67
72
74
74
72
68
64
60
56
52
49
47
45
45
45
45
45
45
45
44
44
42
40
40
37
35
35
32
30
30
27
27
27
25
25
25
24
24
24
25
27
32
38
46
54
63
69
73
74
73
70
66
62
58
54
51
48
46
45
45
45
46
46
46
45
44
42
41
40
38
36
34
32
31
29
28
27
26
26
25
25
25
25
24
24
24
26
30
36
42
51
59
66
70
71
70
68
65
61
56
52
49
46
44
43
43
43
43
43
43
43
41
40
39
37
35
33
32
30
29
27
26
25
25
24
24
23
23
23
22
22
22
22
24
28
34
40
48
56
63
66
68
66
64
60
56
52
48
45
42
40
40
40
40
40
41
41
40
40
39
37
35
33
31
30
28
27
26
25
24
24
23
23
23
23
22
23
22
23
23
25
30
36
42
50
57
63
66
67
65
62
58
54
50
46
43
41
40
40
40
40
41
41
41
40
40
39
37
36
34
32
31
29
28
27
26
25
24
24
23
23
23
23
23
22
22
23
26
31
38
45
53
59
64
64
65
63
63
55
51
51
44
41
41
39
39
39
40
40
40
40
40
40
37
35
33
32
31
30
29
28
28
27
26
26
25
24
24
24
24
24
27
31
37
44
52
60
65
68
69
68
65
62
58
54
50
47
45
43
42
42
42
42
42
42
41
40
40
38
36
34
32
31
29
28
26
25
25
24
23
23
23
22
22
22
22
23
26
30
37
44
52
60
66
68
69
68
65
61
57
53
49
46
43
42
41
41
41
41
41
41
41
40
39
38
36
34
33
31
30
29
28
27
26
25
25
24
24
24
24
24
24
24
25
27
32
39
46
54
61
66
68
68
66
63
59
54
50
46
43
41
40
40
41
42
42
43
43
43
41
40
39
37
35
33
31
30
29
28
27
26
26
25
25
24
24
25
27
32
39
46
54
62
68
72
72
71
68
64
60
56
52
49
46
44
43
43
43
43
43
43
42
41
40
39
37
35
33
32
30
29
28
26
26
25
24
24
24
24
24
24
26
30
36
42
51
59
66
70
72
71
68
65
61
57
53
49
46
44
43
42
42
42
42
42
42
41
40
39
37
35
34
32
30
29
27
26
25
24
24
23
23
23
23
23
23
23
26
30
36
43
43
60
66
66
71
69
69
63
58
58
50
46
46
42
40
40
41
41
41
41
41
40
40
38
36
35
33
31
30
28
27
26
25
24
23
23
23
23
23
23
23
22
22
24
27
32
40
47
56
63
68
70
70
67
64
59
55
50
47
44
42
41
40
41
41
42
42
42
42
41
40
39
37
36
34
32
31
30
28
27
26
25
24
24
23
23
23
23
23
23
23
25
30
36
43
52
60
67
70
71
70
67
63
59
54
50
46
43
41
41
41
42
43
44
44
44
43
42
41
40
38
36
35
33
32
30
29
28
27
27
26
26
26
25
25
26
29
33
40
47
55
62
68
71
71
69
65
61
56
51
47
43
41
40
40
40
42
43
44
45
45
44
42
40
39
37
35
33
32
31
30
29
28
27
27
28
32
37
43
51
59
66
70
72
71
68
64
60
55
51
47
44
42
41
41
41
42
43
44
44
43
42
40
39
37
35
33
32
30
29
28
28
27
28
32
38
45
45
65
74
74
84
84
84
79
75
75
67
63
63
56
54
54
52
51
51
51
50
50
48
46
44
42
40
39
37
35
33
32
31
30
29
29
31
35
41
49
58
68
75
80
82
82
80
77
73
69
65
61
58
55
53
51
50
50
49
48
47
46
44
42
40
39
37
35
33
32
30
29
28
27
26
26
25
25
25
25
27
31
38
45
54
63
70
74
75
74
72
68
64
59
55
52
49
46
45
44
44
44
43
42
41
40
39
37
35
33
31
29
27
26
25
24
23
22
21
21
21
20
20
20
19
19
19
18
19
21
25
31
39
47
55
61
64
65
64
61
57
53
49
45
42
40
39
38
38
38
39
39
38
38
36
35
33
31
30
28
27
25
24
23
22
22
21
21
20
20
19
19
19
18
18
18
17
17
17
18
21
26
32
40
47
54
58
60
60
57
54
51
47
43
40
39
37
37
37
37
38
38
38
38
37
36
35
33
31
30
28
27
26
24
24
23
22
21
21
20
20
20
20
20
19
19
19
19
21
25
30
37
43
49
54
56
56
55
52
49
45
41
39
36
35
33
33
33
34
35
35
35
35
34
33
31
30
28
27
25
24
23
22
21
21
20
20
20
19
19
19
18
18
18
20
24
24
36
42
42
55
58
58
59
57
54
51
48
45
43
40
40
39
38
38
38
39
39
38
37
36
35
33
32
30
29
27
26
25
24
23
22
22
21
21
20
20
20
20
20
20
20
21
23
28
34
40
47
54
58
61
61
59
57
53
50
47
44
41
40
39
39
39
39
40
40
40
39
38
37
36
34
33
31
30
28
27
26
25
24
24
23
23
22
22
22
22
22
21
21
21
22
25
29
35
42
49
56
61
63
63
62
59
56
52
48
45
42
40
40
40
40
40
40
41
41
40
40
39
38
36
35
33
32
30
29
28
27
26
25
24
24
24
24
23
23
23
23
23
24
26
31
37
43
51
57
63
65
65
64
61
58
54
50
46
44
41
40
40
40
41
41
42
42
42
41
40
39
37
36
34
32
31
30
28
27
27
26
25
25
25
25
24
24
25
25
25
28
32
38
45
53
60
65
68
69
67
64
61
57
53
49
46
44
44
42
42
42
44
44
44
44
43
43
41
40
40
37
35
35
33
31
31
29
29
28
28
28
28
28
27
28
29
32
38
43
51
59
65
70
71
70
68
65
61
56
52
49
46
44
43
43
44
44
45
46
46
46
45
43
42
40
39
37
35
33
32
31
30
29
29
28
28
28
30
33
39
45
53
61
68
72
73
72
70
67
63
59
55
51
49
47
46
45
46
46
46
47
46
46
44
43
41
40
38
36
34
32
31
30
29
28
28
27
27
28
30
35
41
49
58
67
73
77
79
78
75
72
68
64
60
57
54
52
50
49
49
49
49
48
48
47
45
43
41
40
38
36
35
33
31
30
29
28
27
27
26
26
26
27
30
36
42
51
60
68
73
69
65
60
56
52
49
47
46
45
45
45
46
45
45
44
42
41
40
38
36
34
33
31
30
29
28
28
27
26
26
26
25
25
25
27
30
36
42
51
59
67
71
73
72
69
66
61
57
53
49
46
45
44
44
44
45
45
45
44
43
41
40
38
36
34
33
31
30
29
28
27
27
26
26
25
25
25
25
26
28
33
39
46
54
61
66
68
68
65
62
58
53
49
45
42
40
40
40
40
40
40
41
41
41
40
38
38
34
32
32
28
27
27
25
24
24
23
22
22
23
25
29
35
42
50
58
64
68
69
67
65
61
57
53
50
46
44
42
41
40
40
41
41
41
40
40
39
37
35
33
31
29
28
26
25
24
23
23
22
22
22
21
22
23
26
32
39
47
55
62
67
69
68
66
63
60
56
52
49
46
44
42
41
41
41
41
41
40
40
39
38
36
34
32
31
29
28
26
25
24
24
23
22
22
22
22
22
22
22
24
27
33
40
47
55
61
65
66
65
63
60
56
52
48
45
42
41
40
40
40
40
40
40
40
39
38
36
34
33
31
29
28
27
25
24
24
23
22
22
22
22
22
22
22
22
22
23
27
32
39
46
54
60
64
65
64
61
58
54
50
46
43
40
40
39
40
40
40
41
41
41
40
40
38
37
35
33
32
30
29
28
27
26
25
25
25
24
24
24
23
23
23
24
26
30
36
42
50
57
62
65
65
63
59
55
50
46
46
40
38
38
37
37
37
40
40
40
40
40
40
37
35
35
31
30
30
27
26
25
24
24
24
23
23
23
25
30
36
42
50
57
62
65
65
63
60
56
51
47
43
40
39
37
37
37
38
39
39
40
40
39
38
36
34
32
31
29
28
27
25
25
24
23
23
23
23
26
32
39
47
56
65
71
74
75
74
71
68
64
60
56
52
49
47
45
44
43
43
43
43
42
41
40
39
37
35
33
31
30
28
27
26
25
24
24
23
23
23
24
27
32
39
46
55
63
69
72
72
71
68
64
60
55
52
48
45
44
42
42
42
42
42
41
41
40
39
38
36
34
32
31
29
28
26
25
24
24
23
23
22
22
22
22
22
22
23
27
33
40
48
56
63
67
68
67
65
61
57
53
48
45
42
40
40
40
40
40
40
40
40
40
38
37
35
33
31
30
28
27
25
24
23
22
22
21
21
21
20
20
20
20
20
20
20
23
28
35
42
50
57
61
63
63
60
57
53
48
44
40
39
37
36
36
36
37
37
38
38
37
36
35
33
32
30
28
27
26
24
23
22
22
21
21
20
20
20
20
20
20
20
20
21
23
27
33
40
47
53
58
60
60
60
55
51
51
43
40
40
36
35
35
35
36
36
38
38
38
37
36
36
33
32
32
29
27
26
25
24
24
23
23
22
22
22
22
22
22
23
26
31
37
43
50
56
59
60
59
57
53
49
45
41
39
36
35
34
35
36
37
38
38
39
38
37
36
35
33
31
30
28
27
26
25
24
24
23
23
22
23
24
28
34
40
48
55
61
65
66
65
63
60
56
52
48
45
43
41
40
40
40
41
41
42
41
41
40
39
38
36
35
33
32
30
29
28
27
26
26
25
25
25
25
27
31
37
43
51
59
66
70
72
71
69
66
62
58
54
51
48
47
45
45
46
46
47
47
46
45
44
43
41
40
38
37
35
34
33
31
30
30
29
29
28
28
28
27
28
29
33
38
44
52
59
65
69
71
70
68
65
61
57
53
50
47
45
44
44
44
44
45
45
45
44
42
41
40
38
36
35
33
32
31
30
29
28
27
27
27
26
26
26
26
26
27
29
34
40
47
47
62
67
67
70
68
68
61
56
56
48
45
45
42
41
41
43
43
43
44
43
42
40
40
38
36
34
33
31
30
29
28
28
27
27
26
26
26
26
26
26
25
25
26
29
34
40
48
57
64
69
71
71
68
65
61
56
52
48
45
43
42
42
43
44
44
44
44
44
43
41
40
38
36
34
33
31
30
29
28
27
27
26
26
26
26
26
26
26
26
26
27
30
36
42
50
58
66
70
72
72
69
66
61
56
52
48
45
43
43
43
43
44
45
45
45
45
43
42
40
39
37
35
33
32
30
29
28
28
27
27
27
27
27
27
26
27
27
29
34
40
47
55
63
69
72
72
70
67
63
58
53
49
46
43
42
41
41
42
43
44
44
43
43
41
40
38
36
34
33
31
30
28
27
26
26
25
24
24
24
23
23
23
23
25
29
35
42
51
61
69
74
77
77
74
71
66
62
57
53
50
47
46
45
46
47
47
48
48
47
46
44
42
40
38
36
34
33
31
30
29
28
27
27
26
26
26
26
26
26
27
29
33
39
46
55
64
72
76
78
77
75
71
66
62
57
53
50
48
47
46
47
47
48
48
48
47
46
44
42
40
39
37
35
33
32
30
30
28
28
28
27
27
27
27
27
30
35
42
42
60
69
69
79
80
80
75
71
66
61
57
53
49
47
46
45
46
46
46
46
46
44
43
41
39
37
35
33
31
30
28
27
26
25
25
25
24
24
24
24
24
25
28
33
40
49
59
69
76
81
82
80
77
73
68
64
59
55
52
50
48
48
48
48
48
47
47
45
43
41
40
38
36
33
32
30
29
27
27
26
25
25
24
24
24
24
24
23
23
24
27
32
40
48
59
68
75
80
81
79
76
72
67
62
58
54
51
48
47
46
47
47
47
47
46
45
43
41
40
38
36
34
32
31
29
28
27
26
25
25
25
25
25
25
24
24
24
24
26
30
37
44
54
63
71
75
76
75
72
67
62
57
52
48
45
43
41
41
42
43
44
44
44
43
42
40
38
35
33
31
29
28
26
25
25
24
23
23
23
22
22
22
23
27
33
40
49
58
66
72
74
74
72
68
64
60
55
51
48
45
43
43
42
42
42
42
42
42
40
39
39
35
33
33
29
27
27
24
23
23
22
21
21
21
21
20
20
21
23
27
33
41
50
60
68
73
76
75
73
70
66
62
57
53
50
48
46
44
44
44
44
43
43
42
41
40
38
36
34
32
31
29
28
27
26
25
24
24
23
23
23
23
22
22
22
23
26
32
40
48
57
65
71
74
74
72
69
64
60
55
51
48
45
44
43
43
44
44
44
44
43
42
40
39
37
35
33
31
29
28
27
26
25
24
24
23
23
23
22
23
25
30
37
44
53
61
67
70
70
68
65
61
56
52
48
45
42
40
40
40
40
40
40
40
40
39
37
36
34
32
30
28
26
25
24
23
22
21
20
20
20
20
19
20
21
25
31
39
47
56
64
69
71
71
69
66
62
58
53
50
46
44
42
41
40
40
40
40
40
39
38
37
35
33
31
29
27
25
24
23
22
21
20
19
19
19
18
18
18
18
18
18
21
26
33
41
49
57
63
66
66
64
61
57
52
48
44
41
40
38
37
37
37
37
37
37
36
35
34
32
31
29
27
25
24
22
21
20
19
18
18
17
17
17
17
16
16
16
16
17
20
25
32
40
47
47
58
60
60
57
54
54
46
42
42
36
34
34
33
33
33
35
35
35
35
34
34
32
30
28
27
25
24
23
22
21
20
19
19
18
18
18
18
17
17
18
19
23
29
36
42
50
56
59
60
59
56
53
48
44
40
38
36
34
34
35
36
37
38
38
39
38
37
36
34
33
31
29
28
27
26
25
24
23
23
22
22
22
22
24
28
33
40
46
54
59
62
63
61
58
54
50
46
42
40
37
36
35
35
36
37
38
38
38
38
37
36
34
33
31
29
28
26
25
24
23
22
22
23
25
30
36
42
50
57
61
63
63
61
58
55
51
47
44
41
40
38
38
38
38
39
39
38
38
37
35
34
32
30
29
27
26
25
24
23
22
22
21
21
22
26
31
38
45
52
59
63
65
65
63
60
57
54
51
48
46
43
41
40
40
40
39
39
38
37
36
35
33
32
30
29
27
26
25
24
23
22
21
21
20
20
20
21
25
29
35
41
48
53
57
58
57
57
53
50
50
44
42
42
39
37
37
37
37
37
36
36
36
34
33
33
30
29
27
26
25
24
23
22
22
21
21
21
20
20
20
20
32
38
44
49
53
54
54
53
50
47
44
41
39
37
36
35
35
35
35
35
35
35
35
34
33
31
30
29
28
27
26
25
24
23
23
22
22
22
21
21
21
21
21
21
20
21
22
24
29
34
40
46
51
54
55
54
51
48
45
42
40
38
37
36
36
36
36
37
37
37
37
36
35
34
32
31
30
29
29
28
27
26
26
25
25
25
24
24
24
24
24
24
24
23
24
25
28
32
38
43
49
54
57
57
56
54
51
48
44
41
40
38
37
37
37
38
39
39
39
39
38
38
36
35
34
33
32
30
29
29
28
27
26
26
25
25
25
24
24
24
24
24
24
24
26
29
34
40
46
52
57
59
60
58
56
53
50
46
43
41
40
39
38
39
39
40
40
40
40
40
39
38
37
35
34
33
31
30
29
29
28
27
27
27
26
26
26
26
26
26
26
26
27
31
36
41
48
54
60
63
63
62
60
57
53
50
46
44
41
40
40
40
41
42
43
43
43
43
42
41
40
39
38
36
35
35
33
32
32
30
30
30
29
29
29
29
28
28
28
30
30
38
44
44
58
63
66
67
66
64
60
57
53
50
47
45
44
43
44
44
45
46
47
47
46
45
44
43
42
40
40
38
37
36
35
34
33
32
32
31
31
31
31
32
35
40
45
52
59
65
69
71
70
68
64
60
56
52
49
46
45
44
44
44
45
46
47
48
47
47
46
44
43
41
40
39
37
36
34
33
33
32
31
32
35
40
46
54
62
69
73
75
75
73
70
66
62
59
55
53
50
49
48
48
49
49
50
50
49
48
46
45
43
41
40
39
37
36
34
33
33
32
31
31
32
36
41
49
58
67
75
81
83
84
82
79
76
72
68
65
62
59
57
56
55
54
54
53
53
52
50
49
47
45
43
41
40
38
36
34
33
32
31
31
30
30
29
30
32
36
41
49
58
67
73
77
79
78
75
72
68
64
60
57
54
52
50
49
49
49
49
48
47
46
45
43
41
40
38
38
34
33
33
30
29
29
27
27
27
26
26
26
25
25
25
27
31
31
44
52
52
67
71
72
71
68
64
60
56
52
49
46
44
43
43
43
43
44
43
43
42
40
39
37
36
34
32
31
29
28
27
26
25
25
24
24
24
23
23
23
23
22
22
23
26
31
38
44
52
60
64
66
66
64
61
57
52
48
45
42
40
40
40
40
40
40
40
40
40
39
38
36
34
33
31
30
29
27
27
26
25
24
24
24
23
23
23
23
23
23
22
22
23
26
31
38
44
52
59
63
65
65
62
59
55
51
47
44
41
40
39
39
39
40
40
40
40
40
39
38
36
34
32
31
29
28
27
26
25
25
24
24
23
23
23
23
23
23
23
23
24
27
32
39
45
52
58
63
64
64
61
58
54
50
46
43
41
40
39
39
40
40
41
41
41
41
40
39
38
36
35
33
32
30
29
28
27
26
26
25
25
25
25
25
25
25
25
26
29
35
40
48
55
61
65
66
65
62
58
54
49
45
42
40
38
38
38
39
40
41
41
42
41
40
40
38
36
34
33
31
30
28
27
27
26
25
25
25
25
27
31
37
44
52
59
65
68
69
68
65
62
58
53
53
46
44
44
41
41
41
42
42
42
42
41
40
39
37
37
34
32
32
29
28
27
26
25
25
24
24
24
24
26
29
35
41
50
58
65
70
72
71
69
66
62
58
54
51
48
46
44
43
43
43
44
43
43
42
41
40
39
37
36
34
32
30
29
28
26
25
25
24
24
23
23
23
23
24
27
32
39
46
54
61
66
68
68
66
63
59
55
52
48
45
43
41
41
41
41
41
42
41
41
40
39
38
36
34
32
30
29
28
26
26
25
24
23
23
23
22
22
22
22
22
23
27
32
39
46
54
61
65
66
66
63
60
56
52
48
44
42
40
40
40
40
40
40
40
40
40
39
38
36
34
32
31
29
28
27
26
25
24
23
23
23
22
22
22
22
22
22
23
26
31
38
44
52
59
63
66
65
63
60
56
52
48
44
41
40
39
39
39
40
40
40
40
40
40
38
37
35
33
32
30
29
27
26
26
25
24
24
24
23
23
23
23
23
23
24
26
26
37
44
44
59
64
64
66
64
64
57
53
53
45
42
42
39
39
39
40
40
41
41
40
40
39
37
35
33
32
30
29
27
26
25
25
24
23
23
23
23
23
23
23
23
24
27
32
38
45
53
60
65
67
67
65
62
57
53
49
45
42
40
40
40
40
40
41
41
41
41
40
40
38
37
35
33
31
30
28
27
26
25
24
24
23
23
23
23
23
23
24
27
32
38
45
53
61
66
69
69
67
64
60
55
51
47
43
41
40
40
40
41
42
42
43
43
42
41
40
38
37
35
33
32
31
30
29
28
27
27
26
26
25
25
25
25
26
28
33
40
47
55
63
68
71
72
70
67
63
58
54
50
46
44
43
42
42
43
44
45
45
44
44
42
41
40
38
36
35
33
32
31
30
29
29
28
28
28
28
27
27
28
29
33
39
45
53
61
67
70
71
70
67
63
59
54
50
47
44
42
42
42
43
44
45
45
45
44
43
41
40
39
37
35
33
31
30
29
28
27
26
26
26
26
27
30
35
41
49
57
65
71
74
74
72
69
65
61
57
53
49
47
45
44
44
45
45
46
46
45
44
43
41
40
38
36
34
32
31
29
28
27
27
27
26
26
26
25
27
27
35
41
41
58
66
66
73
73
73
68
64
64
55
52
48
46
44
44
44
44
44
44
44
43
42
40
39
37
35
33
32
30
28
27
26
25
25
24
24
24
24
24
24
25
27
32
39
46
54
62
67
70
70
69
65
61
57
53
49
46
43
42
42
42
43
43
44
44
43
42
40
39
38
36
34
32
30
29
27
26
26
25
24
24
24
23
23
23
25
29
35
41
49
56
62
65
65
64
61
57
53
49
45
42
40
40
39
39
39
40
40
40
40
39
38
37
35
33
32
30
29
27
26
25
24
24
23
23
23
22
22
22
24
27
32
38
45
53
60
65
67
67
65
62
59
55
51
48
45
43
41
41
41
41
41
41
41
40
40
38
36
35
33
31
29
28
27
26
25
24
23
23
23
22
22
22
22
23
24
28
34
40
47
55
60
63
64
63
60
57
53
50
47
44
42
40
40
40
40
40
40
40
40
39
38
36
35
35
32
30
30
28
27
27
25
24
24
24
23
23
23
23
23
24
27
27
37
43
50
56
61
63
62
60
57
54
50
46
43
41
40
39
39
40
40
41
41
41
41
40
40
38
36
35
33
31
30
29
28
27
26
25
25
25
24
24
25
26
30
35
41
48
55
60
62
63
61
58
55
51
48
44
42
40
39
39
39
39
40
40
40
40
39
38
37
35
33
32
30
29
28
27
26
25
24
24
24
23
23
24
26
30
36
42
50
57
62
64
65
63
61
58
55
51
48
46
43
41
40
40
40
40
40
40
40
39
37
36
34
33
31
29
28
27
25
24
24
23
22
22
22
22
22
22
23
26
31
37
42
49
54
58
59
58
56
53
50
47
44
41
40
38
37
36
36
36
37
36
36
35
34
33
32
31
29
28
27
26
25
24
23
22
21
21
21
20
20
20
20
20
22
25
30
36
41
47
52
54
54
53
50
48
44
41
39
37
35
34
33
33
34
35
35
35
35
35
34
32
31
30
29
28
27
26
25
24
23
23
22
22
22
22
21
21
22
23
27
32
37
42
48
51
53
53
51
57
51
44
39
34
30
27
25
25
26
28
29
30
30
30
29
29
25
22
22
18
16
16
12
10
10
7
6
6
4
3
3
7
14
14
36
47
59
67
71
71
68
63
57
51
45
40
36
33
31
30
31
32
33
34
35
34
33
31
29
27
24
21
19
17
15
13
12
10
10
9
8
8
9
13
21
31
43
57
70
79
84
84
82
78
73
67
61
56
51
48
45
43
43
43
44
44
44
43
42
40
38
36
33
30
28
25
23
21
19
18
17
16
15
14
14
15
19
27
37
49
62
74
83
88
88
86
81
76
69
63
58
53
49
47
46
46
47
48
48
48
47
46
44
42
40
37
34
32
29
21
20
19
18
18
17
17
20
26
35
46
59
71
81
86
87
85
80
74
67
60
54
49
45
43
43
43
44
45
46
46
45
44
41
39
37
33
30
28
25
23
21
19
18
17
16
15
14
14
16
21
29
40
53
67
83
89
90
87
83
77
70
63
57
51
47
44
43
43
43
44
45
45
45
43
41
41
36
33
33
28
25
25
20
18
18
15
14
14
12
12
12
16
23
23
47
63
77
89
95
97
95
90
84
77
70
64
58
53
50
48
47
47
47
47
47
46
45
43
40
38
35
32
29
26
23
21
19
17
15
14
13
12
12
12
12
14
19
28
39
52
66
79
87
90
90
86
81
74
66
59
53
48
44
42
41
42
42
43
43
43
42
41
39
37
34
30
28
25
23
20
18
16
15
13
13
12
11
11
11
11
15
22
32
43
57
70
81
86
87
85
80
73
65
58
51
45
41
39
38
39
40
41
42
43
42
41
40
38
35
32
29
26
24
22
20
18
16
14
13
13
12
12
11
12
14
19
29
40
53
67
78
86
89
88
83
77
70
62
55
48
43
40
40
40
40
42
44
45
46
45
44
42
40
37
34
32
29
26
24
22
21
19
18
17
17
16
17
21
28
38
50
64
77
86
91
92
89
83
76
68
60
53
47
43
41
40
41
43
45
47
48
47
46
44
41
38
35
31
28
25
23
21
19
17
16
15
17
22
32
43
57
71
82
90
93
91
87
81
73
66
58
52
47
43
42
42
43
45
46
47
47
46
44
41
38
35
35
29
26
26
22
20
20
17
18
18
30
41
41
72
87
87
105
107
105
100
67
63
59
56
53
50
48
47
47
46
46
46
46
46
45
43
42
40
39
37
35
34
33
32
31
30
29
29
29
31
35
40
48
56
63
69
71
72
71
68
65
61
57
54
50
48
46
45
45
45
45
45
44
43
42
41
40
38
36
35
33
32
31
29
28
27
27
26
26
25
26
27
30
35
40
47
54
60
63
64
63
61
58
54
51
47
44
42
40
40
40
40
40
40
40
40
39
37
35
34
32
31
29
28
27
25
25
24
23
22
22
22
22
22
22
21
22
24
27
32
38
44
50
55
57
58
56
54
50
47
44
40
39
37
36
35
36
36
37
37
37
36
36
34
33
32
31
29
28
27
26
25
25
24
24
23
23
23
23
23
23
22
22
22
23
26
30
36
41
47
52
54
54
53
51
48
45
42
40
38
36
36
36
36
37
38
38
38
38
37
36
35
34
33
31
30
29
29
28
27
27
26
26
26
25
25
25
25
26
26
32
37
37
47
52
52
55
53
63
58
52
46
41
38
35
33
32
33
34
36
37
37
37
35
33
31
28
25
23
21
18
17
15
14
13
12
12
13
16
23
33
44
56
68
76
80
80
78
74
69
64
59
54
49
45
42
41
40
40
40
40
40
39
37
35
33
30
28
26
24
21
19
18
16
15
14
13
12
12
13
17
25
35
47
61
73
82
87
88
86
83
78
73
67
62
58
54
50
47
46
45
44
44
43
42
41
39
37
34
31
28
26
23
21
19
17
15
13
12
11
11
10
10
10
9
10
13
19
29
40
54
67
77
83
85
83
80
75
69
64
59
54
50
46
44
43
42
42
41
40
40
38
36
33
30
27
25
22
20
18
16
14
13
12
10
10
9
8
7
7
6
5
4
4
3
5
11
19
30
41
53
63
68
69
67
63
57
51
45
40
35
31
29
27
27
28
29
29
29
29
28
26
24
21
19
16
14
12
10
9
7
6
5
4
4
3
2
2
1
1
0
0
0
0
0
1
6
14
24
36
46
55
60
60
58
54
49
43
38
32
27
24
22
21
21
22
24
25
25
25
24
24
21
19
19
15
14
14
10
8
8
6
4
4
3
3
3
2
2
2
2
2
1
2
6
13
22
32
42
53
60
62
61
58
53
47
41
37
32
28
25
23
23
24
26
27
28
29
29
29
27
26
24
22
20
19
17
16
14
13
12
11
11
10
10
10
10
10
10
10
12
15
22
32
41
52
62
67
69
67
63
57
51
45
40
35
31
29
28
28
30
32
34
35
36
36
35
34
32
30
28
26
24
22
21
19
18
17
17
16
16
16
18
22
29
39
49
61
70
77
79
78
74
69
63
58
52
47
43
41
40
40
41
42
44
45
46
46
45
43
41
39
37
35
33
31
29
27
26
25
24
23
23
26
33
42
54
67
80
90
96
97
96
92
87
82
76
70
65
61
58
56
56
56
56
56
57
56
55
53
51
48
45
42
40
38
35
33
31
29
28
27
26
25
26
29
36
45
58
71
84
94
99
101
99
95
90
84
78
72
67
63
63
58
57
57
58
58
58
57
55
55
51
48
48
42
40
40
35
33
33
29
27
26
25
25
24
23
23
25
29
38
48
61
74
86
93
96
95
91
85
79
71
65
59
54
51
49
49
49
50
51
51
51
49
48
45
42
40
37
35
32
29
27
25
24
22
21
20
20
19
19
19
18
18
19
23
30
40
51
64
75
84
88
88
85
79
73
66
59
53
49
45
44
43
44
45
47
48
48
47
45
43
41
39
36
33
31
28
26
24
23
21
20
19
19
18
18
17
17
16
16
17
21
28
39
50
62
73
80
83
82
78
72
65
58
52
46
41
40
39
39
40
42
44
45
46
45
43
41
39
36
33
31
28
26
24
22
20
19
18
17
16
15
15
17
22
31
41
53
66
76
83
85
83
79
73
67
60
54
49
45
42
41
41
42
43
44
45
45
44
42
40
37
34
31
28
26
24
22
20
19
18
17
16
15
15
15
19
27
37
50
65
80
91
97
99
97
92
87
81
75
69
64
59
56
54
52
52
52
52
52
51
49
47
44
41
38
35
32
29
27
24
22
20
19
18
17
16
16
15
15
17
21
29
40
53
68
82
91
96
97
94
89
82
76
76
63
58
58
51
49
49
49
49
49
48
47
47
43
40
40
36
33
31
28
26
24
22
20
19
18
17
16
16
15
15
14
14
16
22
31
43
57
72
84
92
95
93
89
83
76
68
61
55
50
47
45
45
46
47
49
49
49
48
46
43
40
38
34
31
28
25
23
21
19
17
16
15
14
14
13
13
13
12
12
13
17
26
37
50
65
78
87
92
92
88
83
76
68
60
54
48
44
42
41
42
43
44
45
45
45
43
41
39
36
33
30
27
25
22
20
17
16
14
13
13
12
12
11
11
11
11
12
17
26
37
50
65
78
87
91
91
87
81
74
66
58
51
45
41
40
39
40
41
43
44
44
44
42
40
38
36
33
30
27
25
22
19
18
16
14
13
12
11
11
10
10
10
10
11
15
22
33
45
60
75
86
92
94
91
86
79
70
62
54
48
43
40
40
40
42
44
46
47
48
47
45
43
40
37
34
31
28
26
23
21
19
18
16
16
14
14
14
14
15
15
31
42
42
73
86
86
101
101
101
92
62
62
54
50
47
45
43
43
43
44
44
45
45
45
44
43
42
40
39
37
36
34
33
31
30
29
29
28
28
28
28
30
34
40
47
56
64
70
74
75
75
72
69
66
62
58
55
52
50
48
47
47
47
47
47
46
46
44
43
41
40
38
37
35
34
32
31
30
29
29
28
28
28
27
28
29
33
39
45
53
61
68
72
73
73
70
67
63
59
55
52
49
46
45
44
44
44
45
45
44
43
42
41
40
38
37
35
33
32
31
29
28
28
27
26
26
26
26
26
25
25
26
29
34
40
47
55
62
66
68
68
66
62
58
54
50
46
43
41
40
40
40
40
41
41
41
40
40
39
38
36
35
33
32
30
29
28
27
26
25
25
24
24
23
23
23
23
23
25
29
35
40
47
54
59
62
62
60
57
54
50
46
42
40
38
37
36
37
38
39
39
40
40
39
38
37
35
34
32
31
29
28
27
26
25
24
23
23
23
22
22
22
23
26
30
36
41
48
53
56
57
56
53
50
47
43
40
38
36
35
34
34
35
36
37
37
37
37
36
35
33
32
31
29
29
27
26
26
25
24
24
24
23
23
24
27
27
37
43
43
56
60
60
61
59
57
53
50
47
44
42
40
40
40
40
40
39
37
36
35
33
32
31
29
28
27
27
26
25
25
25
24
24
24
26
28
28
38
43
43
55
58
58
58
56
56
50
47
47
41
40
40
38
38
38
39
39
40
39
39
38
37
36
34
33
32
31
29
29
28
28
27
27
27
27
27
27
27
29
33
38
43
49
54
58
59
59
58
55
52
49
46
43
41
40
40
39
40
40
40
41
41
40
40
40
39
37
36
35
34
33
32
31
30
29
28
28
27
27
27
27
27
30
34
39
44
50
55
58
59
58
56
53
50
47
44
41
40
39
38
38
39
40
40
40
40
40
40
38
37
36
34
33
32
30
30
29
28
28
27
27
27
26
27
29
33
38
43
50
56
60
62
63
61
59
56
53
50
47
44
42
41
41
40
41
41
41
41
41
40
40
39
37
36
36
34
33
33
31
30
30
29
28
28
28
28
28
29
32
32
42
49
49
60
63
63
63
60
58
55
51
48
46
44
42
42
42
42
42
43
43
42
42
41
40
39
38
37
35
34
33
32
31
30
29
29
28
28
28
28
28
29
33
37
42
49
55
60
63
63
62
60
57
54
51
48
45
43
42
42
42
43
43
44
44
43
43
41
40
39
38
36
34
33
32
31
30
30
29
29
28
28
28
28
29
32
37
42
48
54
59
62
62
61
59
56
52
49
46
43
41
40
40
40
40
41
41
41
41
40
40
38
37
35
33
32
31
30
29
28
27
26
26
26
25
25
26
28
32
38
43
50
56
60
63
63
61
59
56
53
50
47
44
42
41
40
40
41
41
41
41
40
40
39
38
36
35
33
32
31
30
29
28
28
27
27
26
26
26
26
26
28
31
36
41
47
53
58
61
61
60
57
54
51
47
45
42
41
40
40
40
40
40
41
41
40
40
40
39
37
36
34
33
32
31
30
29
28
27
27
26
26
25
25
26
28
31
36
41
47
53
56
58
57
55
53
50
46
43
40
39
37
37
37
37
38
38
39
39
38
37
36
35
33
32
31
29
28
28
26
26
26
25
24
24
24
24
24
27
30
30
41
47
47
57
59
59
57
55
52
49
46
43
41
40
39
39
39
39
39
39
39
39
38
37
35
34
33
32
30
29
28
28
27
26
26
25
25
25
25
26
29
33
38
43
49
55
58
60
59
57
55
52
49
45
43
40
40
39
39
39
39
40
40
40
39
38
37
36
35
33
32
31
30
29
28
28
27
27
26
26
26
26
27
29
33
38
44
50
55
58
60
59
57
54
51
48
45
42
40
39
38
38
39
39
40
40
40
39
38
37
36
35
34
32
31
30
29
28
28
27
27
27
26
26
26
27
28
31
36
41
47
53
57
59
59
58
55
52
49
46
43
40
39
38
38
38
39
39
40
40
39
39
38
36
35
34
33
32
31
30
29
28
28
27
27
26
26
27
29
32
37
42
48
53
57
58
58
56
54
51
47
45
42
40
40
39
39
39
40
40
40
40
40
39
38
37
36
35
34
33
32
32
30
30
30
29
30
30
37
41
41
53
57
57
60
59
59
53
50
50
44
41
40
40
39
40
40
40
40
40
40
40
39
38
37
35
34
33
32
31
30
29
29
30
33
38
42
48
53
57
59
59
57
54
51
48
44
41
40
38
38
38
38
39
39
40
40
39
38
37
36
35
34
33
31
31
30
29
28
29
31
35
40
45
51
56
59
60
59
56
53
49
46
42
40
39
38
37
37
38
39
39
39
39
38
38
36
35
34
33
32
31
30
29
28
27
27
27
29
33
38
42
48
52
55
55
54
63
56
49
42
37
32
29
27
27
28
29
30
31
32
31
30
28
26
23
21
19
17
15
13
11
9
7
6
5
5
7
13
21
30
40
49
56
59
58
55
50
44
39
33
27
23
21
20
21
22
24
26
27
27
27
25
23
21
19
17
15
14
12
11
10
9
8
7
6
6
8
12
19
27
36
43
48
50
49
45
40
34
28
22
17
14
13
13
15
18
20
23
24
25
24
23
21
20
18
16
14
12
11
10
8
7
8
11
16
24
33
42
50
55
56
54
50
45
39
33
28
23
21
19
19
20
22
24
26
27
27
26
25
23
22
22
19
17
17
15
14
14
15
21
21
40
52
52
72
77
77
75
71
71
61
55
50
46
43
41
40
40
40
41
41
41
41
40
39
37
35
33
31
29
27
26
25
24
24
28
35
43
54
66
76
82
85
84
80
76
70
65
60
55
52
49
47
47
47
47
47
47
47
45
44
41
40
38
35
33
31
29
27
25
24
23
23
26
31
40
49
61
71
79
83
83
80
75
70
64
59
54
51
48
47
46
46
47
47
47
46
44
42
40
37
34
32
29
28
26
25
24
23
22
21
21
22
26
33
41
51
61
69
73
74
72
68
63
58
53
48
44
42
40
40
40
40
40
40
40
40
38
36
33
30
28
26
24
23
21
20
19
18
17
16
15
15
14
15
18
24
33
42
52
62
69
72
72
69
65
61
57
53
49
46
44
42
41
41
41
42
41
41
40
39
36
35
32
30
28
26
24
23
22
20
19
18
18
17
17
17
16
16
16
16
19
24
31
40
49
59
65
65
68
66
66
57
53
53
44
41
41
38
37
37
37
37
37
36
35
33
31
29
27
26
24
22
21
20
19
18
18
17
17
17
16
16
16
15
15
14
13
14
16
21
29
38
46
55
60
63
62
60
56
51
46
42
39
37
35
34
34
35
36
36
36
36
35
33
31
29
27
25
24
22
20
19
18
17
16
16
16
15
15
15
14
14
13
13
12
11
12
16
21
29
38
46
54
58
59
58
55
50
46
41
38
35
32
31
31
31
33
34
35
36
36
35
34
32
30
28
26
25
23
22
21
20
19
19
18
17
17
17
16
16
15
15
14
15
18
23
31
40
48
57
63
66
65
62
58
53
48
43
40
37
35
34
34
35
37
38
39
39
38
37
35
33
31
29
26
25
23
22
21
20
19
19
19
19
19
19
19
19
20
23
28
37
46
56
66
74
79
80
78
75
70
65
60
56
52
49
46
46
46
46
47
47
47
47
45
44
42
40
38
35
33
31
30
28
27
26
25
24
24
24
23
23
22
22
21
21
21
23
28
36
45
57
68
77
83
84
83
80
75
70
65
60
56
53
51
50
50
51
52
53
53
53
52
50
47
47
42
40
40
36
34
34
31
30
30
27
26
26
25
24
24
24
24
24
24
27
32
40
51
62
74
82
87
89
87
84
79
73
68
63
59
56
54
53
53
54
55
55
55
55
53
52
49
47
44
42
40
38
37
35
33
32
31
30
30
30
29
29
29
28
28
28
29
32
39
48
59
71
81
88
91
90
87
82
77
71
66
61
58
55
54
54
55
56
57
58
57
57
55
52
50
47
44
42
40
38
36
34
32
30
29
28
27
27
27
26
26
27
30
37
45
56
68
79
87
91
91
88
84
79
73
67
62
58
56
54
53
53
54
54
54
54
53
51
48
45
42
40
37
34
32
30
28
27
26
25
24
23
23
22
22
26
33
42
54
67
79
88
92
93
92
88
83
79
74
69
65
61
58
56
55
54
54
54
53
52
50
47
45
42
40
38
35
33
31
29
27
25
24
23
22
21
21
20
19
19
18
17
18
23
30
41
54
68
81
89
94
95
93
93
86
81
81
72
67
67
60
58
58
55
55
55
53
51
51
47
44
44
39
36
34
31
29
27
25
24
23
22
21
20
19
18
17
17
16
15
14
13
13
12
15
21
31
42
56
70
81
89
92
91
88
84
79
74
69
65
61
57
55
54
53
53
53
52
51
49
46
44
41
39
36
34
31
29
27
25
23
22
21
20
19
18
18
17
16
16
15
15
14
13
12
12
12
15
21
31
43
57
70
81
88
90
89
85
80
75
69
64
59
55
53
51
50
50
50
50
50
49
47
45
42
40
38
35
32
30
28
26
24
22
21
20
19
18
17
17
16
16
15
15
14
13
13
12
11
12
16
24
34
46
61
74
83
88
89
87
83
77
72
66
61
56
53
51
50
50
51
52
52
52
51
49
46
43
40
38
35
32
30
28
26
24
23
22
21
19
19
18
17
16
16
15
14
16
21
30
40
54
67
79
86
89
88
85
79
73
67
60
55
51
48
47
47
48
50
51
52
52
51
49
46
43
40
38
35
32
29
27
25
23
22
21
20
19
19
18
18
17
19
24
37
48
61
74
84
90
91
88
84
78
71
64
58
58
49
46
46
45
46
46
48
49
49
47
44
44
39
36
36
29
27
27
22
20
18
17
15
15
14
13
13
13
17
23
34
47
63
78
91
99
103
103
100
96
65
62
59
56
54
52
50
49
49
48
48
48
48
47
46
44
43
41
40
38
37
35
34
33
32
31
30
29
29
28
28
28
28
28
28
28
29
31
36
42
49
57
65
70
73
74
73
71
68
65
62
58
56
53
52
50
50
49
49
49
48
48
46
45
43
42
40
39
38
36
35
34
33
32
31
30
29
29
28
28
27
27
26
26
25
25
25
25
27
31
36
43
51
58
64
68
69
69
66
64
60
57
54
51
49
47
46
46
45
45
45
45
44
43
42
40
40
38
36
35
33
32
31
29
29
28
27
27
26
26
25
25
25
24
24
24
23
23
22
23
24
28
33
40
46
53
59
62
63
62
60
57
53
50
47
44
42
41
40
40
40
41
41
41
40
40
39
38
36
34
33
31
30
29
28
27
27
26
25
25
24
24
24
23
23
23
22
22
22
21
21
21
22
26
26
36
42
49
54
58
59
58
56
53
50
47
44
41
40
39
38
38
38
39
39
39
39
39
38
36
35
34
32
31
30
29
28
27
26
26
25
25
25
24
24
24
24
24
24
23
23
23
23
23
24
27
31
37
43
49
54
58
59
59
57
54
51
48
45
42
40
40
39
39
39
40
40
40
40
40
40
39
38
37
35
34
33
32
31
30
29
28
28
27
27
27
27
27
27
27
27
27
27
27
30
34
40
45
51
56
59
60
59
57
54
51
48
45
42
40
40
39
39
40
40
40
41
41
41
40
40
38
37
36
34
33
32
31
30
29
29
28
28
28
28
29
32
36
41
47
54
59
63
65
65
64
61
59
56
53
50
48
46
45
44
44
45
45
45
45
45
44
43
41
40
39
38
37
36
34
33
32
32
31
31
30
30
30
30
30
33
37
42
49
56
62
67
69
69
68
66
64
61
58
55
53
51
49
49
48
48
48
49
48
48
47
45
44
43
41
40
39
38
37
36
35
34
33
33
32
32
32
32
32
32
35
39
43
50
57
63
67
69
69
69
65
62
62
56
53
53
49
48
48
47
48
48
48
47
47
45
44
44
41
40
39
37
36
35
34
33
33
32
31
31
31
30
30
30
30
31
34
38
43
50
56
61
64
65
64
62
59
56
53
50
47
45
44
43
43
44
44
44
44
43
42
41
40
39
38
36
35
34
32
32
31
30
29
29
28
28
27
28
29
32
37
42
48
54
59
61
62
61
59
56
53
50
48
45
44
42
42
41
41
41
41
41
40
40
39
37
36
34
33
31
30
29
28
27
27
26
26
25
25
24
24
24
24
26
30
35
40
47
54
59
62
63
63
61
59
57
54
51
49
47
45
44
43
42
42
42
41
41
40
40
38
37
35
34
33
31
30
29
28
27
27
26
26
26
25
25
25
24
24
24
23
23
24
27
32
37
43
50
56
60
62
62
60
58
56
53
50
48
46
44
43
42
42
42
42
41
41
40
40
39
38
36
35
33
32
31
30
29
28
27
27
26
26
26
25
25
25
24
24
24
23
23
23
23
25
25
34
40
40
54
59
62
63
62
60
57
54
51
48
46
44
42
42
42
42
42
42
42
42
41
40
39
38
36
35
33
32
31
30
29
28
28
27
27
27
26
26
26
26
26
25
25
25
24
24
25
27
31
36
42
49
56
61
63
64
62
60
57
54
51
48
45
43
42
41
41
42
42
42
42
42
41
40
39
38
36
35
34
33
31
31
30
29
29
28
28
28
27
27
27
27
26
26
26
25
25
26
28
31
37
42
49
56
61
64
65
64
62
59
55
52
48
46
44
43
42
43
43
44
45
45
44
44
43
42
40
40
38
37
35
34
33
32
31
30
29
29
29
28
28
28
28
28
28
29
31
36
41
47
54
60
63
65
64
62
59
56
52
49
45
43
41
41
41
41
42
43
44
44
44
43
41
40
39
38
36
34
33
32
31
30
29
28
28
28
28
29
32
37
43
50
58
64
68
70
70
68
65
62
58
55
52
49
47
45
44
44
45
45
45
45
45
44
43
41
40
39
37
36
34
33
32
31
30
29
29
28
28
28
29
31
36
41
49
57
65
70
74
74
73
71
68
64
61
61
55
52
52
49
48
48
48
48
48
47
46
46
43
41
41
39
37
37
34
33
31
31
30
29
29
29
28
28
28
28
29
33
38
44
52
60
67
72
74
74
71
68
65
61
57
54
51
49
47
47
47
47
47
47
47
46
45
43
41
40
38
37
35
33
32
31
30
29
28
28
27
27
27
27
26
26
27
29
33
40
46
54
62
67
71
71
70
67
64
60
56
52
49
47
45
45
45
45
46
46
46
45
44
43
41
40
38
37
35
34
32
31
30
29
29
28
28
27
27
27
27
27
26
27
28
31
37
43
51
59
66
70
72
72
69
66
61
57
53
50
47
46
45
45
45
46
47
47
47
46
44
43
41
40
38
36
34
33
31
30
29
28
28
27
27
27
26
26
27
29
34
40
47
55
63
68
71
72
70
67
63
59
55
52
48
46
44
44
44
44
44
45
45
44
43
41
40
38
36
34
33
31
30
28
27
26
26
25
25
25
25
25
25
25
29
35
35
50
58
58
71
74
74
73
70
70
62
58
58
51
48
48
46
46
46
46
46
46
45
44
42
41
40
38
36
34
33
31
30
29
28
27
27
26
26
26
26
26
26
26
28
33
40
47
56
64
70
74
75
74
71
67
63
59
55
52
49
47
46
46
46
46
46
46
45
44
43
41
40
38
36
35
33
32
30
29
28
28
27
27
27
27
27
26
26
26
27
29
34
40
47
56
64
69
72
73
71
68
64
60
56
52
49
47
45
44
45
45
46
46
46
45
44
42
40
39
38
36
34
33
31
30
29
28
27
27
27
26
26
26
26
26
26
27
30
36
42
50
58
65
70
72
71
69
65
61
57
52
48
46
44
43
43
43
44
45
46
46
45
44
42
40
39
37
36
34
33
31
30
30
29
28
28
28
27
28
29
32
37
43
50
58
64
68
70
69
66
62
58
54
49
46
43
41
40
40
41
42
43
43
44
43
42
41
40
38
36
35
33
32
31
29
29
28
27
28
31
36
42
50
58
66
71
73
73
71
67
63
58
54
50
46
44
42
41
42
42
43
43
43
42
41
40
38
36
34
32
30
29
27
26
25
25
26
26
36
43
43
62
70
70
78
78
78
72
68
68
60
56
56
50
48
48
46
45
45
45
45
44
42
41
40
37
35
33
31
30
28
27
26
25
24
23
23
24
27
33
40
49
58
66
71
74
74
72
69
66
63
59
55
52
48
46
43
42
40
40
39
39
37
36
34
32
30
28
25
23
22
20
18
17
16
15
14
13
13
12
12
11
11
10
10
9
9
11
14
20
27
34
41
46
50
51
51
49
47
44
41
39
37
35
33
32
31
30
30
30
29
29
28
26
25
23
22
20
19
17
16
15
14
13
12
11
11
10
10
9
9
8
8
8
7
7
7
6
6
6
6
7
11
15
21
27
33
37
40
40
40
38
36
33
31
29
27
26
24
24
24
24
24
24
24
24
23
22
22
20
19
18
17
17
16
15
14
14
13
13
13
12
12
12
12
12
12
11
11
11
11
11
11
11
12
14
17
22
27
31
35
36
37
35
34
32
29
27
25
24
23
23
22
22
22
23
23
23
23
23
23
21
21
21
19
19
19
18
17
17
16
16
16
16
16
16
16
15
15
15
15
15
15
15
15
15
16
18
21
25
29
33
36
37
37
35
33
31
29
26
25
23
22
22
22
23
23
24
25
25
25
25
25
24
24
23
22
22
21
21
20
20
20
20
19
19
19
19
20
20
20
20
20
20
20
20
20
20
21
23
40
41
40
39
37
34
33
30
28
27
26
25
25
26
27
27
28
28
28
28
28
27
27
26
25
25
24
24
24
24
23
23
23
23
23
23
24
24
24
24
24
24
24
24
25
27
30
34
37
40
42
43
42
42
38
34
29
25
21
19
17
17
17
18
20
21
22
23
23
23
22
21
20
18
17
16
15
14
13
13
12
12
12
12
12
12
12
12
12
12
12
12
12
14
18
25
32
40
46
52
54
53
50
46
42
38
34
30
28
26
25
25
26
27
29
30
31
31
30
30
29
28
26
25
24
23
22
21
20
19
19
18
17
17
17
17
18
18
18
18
19
22
27
34
41
50
57
61
63
62
59
55
50
46
42
40
38
36
36
37
38
40
41
42
43
43
42
41
41
39
38
38
35
33
33
31
30
30
28
27
27
26
26
26
27
31
31
45
53
61
68
72
72
70
67
64
59
55
51
48
46
44
44
45
46
48
49
50
50
50
49
47
45
43
42
40
39
38
36
36
35
34
33
33
32
32
34
38
45
54
64
74
82
88
90
90
87
84
81
77
74
71
68
66
65
64
65
65
66
66
66
65
64
62
60
58
56
54
52
50
48
46
45
44
43
42
41
41
41
42
45
52
60
70
81
91
98
102
103
101
98
94
90
86
83
80
77
75
74
74
74
74
74
73
72
71
69
66
64
61
59
56
54
52
50
48
47
45
44
43
42
41
40
40
40
39
38
38
40
46
54
65
76
87
95
100
101
99
96
92
87
82
78
74
71
69
68
68
68
68
68
67
66
64
62
59
57
54
51
49
47
45
43
41
40
40
39
38
38
37
36
34
33
32
31
30
29
28
28
29
33
40
49
61
73
84
91
94
95
95
88
83
83
73
69
69
63
62
62
62
62
62
63
63
63
60
58
58
52
50
47
44
42
40
39
38
36
35
34
33
32
31
30
29
28
27
26
25
24
23
23
22
23
27
34
42
54
66
77
85
89
89
86
82
77
72
67
63
59
56
55
54
54
55
55
55
54
53
51
49
47
44
41
40
38
36
34
33
32
31
30
29
28
28
28
27
26
26
25
24
23
23
22
21
20
20
24
30
39
49
60
71
79
82
83
80
76
71
65
60
56
52
49
47
47
47
48
49
50
49
49
47
45
43
40
39
36
34
32
30
28
27
26
25
23
23
22
22
21
20
20
19
19
19
23
30
39
50
62
72
79
83
83
81
78
73
69
64
60
56
53
51
49
48
48
49
49
48
47
46
44
41
39
37
34
31
29
27
25
24
22
21
20
18
18
17
17
16
16
16
15
15
16
21
28
39
50
63
75
83
88
89
87
83
79
74
69
65
61
58
55
53
52
52
52
52
52
51
49
47
45
42
40
38
36
33
31
29
27
25
24
23
22
21
20
19
19
18
18
17
16
16
16
19
25
34
44
58
71
81
87
90
89
86
82
77
72
67
62
59
59
53
52
52
52
52
52
51
50
50
46
43
43
38
35
33
31
29
29
25
24
23
22
21
20
20
19
19
19
19
18
18
18
19
24
31
41
53
66
77
85
89
89
86
82
77
71
65
61
57
54
52
52
52
53
54
54
54
53
51
49
46
43
41
39
37
34
32
30
28
27
25
24
24
23
23
22
21
21
21
20
20
23
29
38
48
61
73
82
88
89
87
83
77
71
64
59
54
50
48
47
48
49
50
51
51
51
49
47
45
42
40
37
34
31
29
27
25
24
22
21
21
20
20
21
25
33
42
55
69
82
91
97
98
96
93
87
82
76
70
65
61
57
55
54
53
53
53
53
52
50
48
45
42
40
37
34
31
28
26
24
23
21
20
20
19
18
18
17
18
21
27
38
50
65
80
91
99
102
101
98
93
63
60
57
55
53
51
49
49
48
48
48
48
47
46
45
44
42
41
40
39
37
36
35
34
33
32
31
30
30
29
29
29
29
28
28
28
31
36
36
48
55
55
66
69
69
68
66
66
59
56
56
51
49
47
46
46
46
46
46
46
46
45
43
42
40
40
38
36
35
34
32
31
30
30
29
28
28
28
27
27
27
27
27
26
26
27
30
35
40
48
55
62
66
68
68
66
63
59
56
52
49
47
45
44
44
44
44
44
45
44
44
42
41
40
39
37
35
34
33
32
30
29
29
28
27
27
27
27
26
26
26
26
26
26
25
26
28
32
37
43
51
58
64
67
68
67
64
61
57
53
50
47
45
44
43
43
44
45
45
45
45
45
44
42
40
40
38
36
35
34
32
31
30
30
29
29
28
28
28
28
28
27
27
27
28
31
36
41
48
56
62
66
68
67
65
61
57
53
50
46
44
42
41
41
42
43
43
44
44
44
43
42
40
39
38
36
34
33
32
31
30
29
29
28
28
27
28
30
34
40
46
54
61
66
69
69
67
65
61
57
53
50
46
44
43
42
43
43
44
45
45
45
44
43
42
40
39
37
35
34
32
31
30
29
28
28
27
27
27
28
33
39
46
55
63
71
76
78
78
76
73
70
66
62
59
56
54
52
51
51
50
50
50
50
49
47
47
44
42
42
39
37
37
33
32
32
30
29
29
28
28
28
28
29
32
37
43
51
59
67
72
75
75
73
71
67
63
59
56
53
50
48
47
47
47
47
47
47
46
45
43
41
40
39
37
35
34
32
31
29
28
28
27
26
26
26
26
25
25
26
28
31
37
44
52
61
67
71
73
72
70
66
62
58
54
51
48
46
45
45
45
46
46
46
45
44
43
41
40
38
36
34
33
31
30
29
28
28
27
27
26
26
26
26
26
26
26
28
32
38
44
52
59
66
69
70
69
66
63
58
54
51
47
45
44
43
43
44
45
45
45
45
44
43
41
40
38
36
35
33
32
31
30
29
28
28
27
27
27
27
27
26
27
28
31
37
43
51
58
64
68
69
68
65
61
57
52
48
45
42
41
40
41
42
43
43
44
43
43
41
40
38
36
35
33
31
30
29
28
27
27
26
26
25
25
25
27
30
36
42
51
59
66
70
70
71
69
69
61
57
57
50
47
47
44
43
43
44
44
44
44
43
43
40
39
37
35
34
32
30
29
28
27
26
25
25
25
24
24
24
25
28
33
40
47
55
63
68
70
70
68
65
61
57
53
50
47
44
43
43
43
43
43
43
43
42
41
40
38
36
34
32
31
29
28
27
26
25
24
24
24
24
23
23
24
25
28
33
40
47
55
61
65
67
67
64
61
57
53
49
45
42
40
40
40
40
40
41
41
41
40
40
38
37
35
33
32
30
29
27
26
25
25
24
24
24
23
23
23
23
25
27
32
39
45
53
60
64
66
66
64
60
56
52
48
44
41
40
39
39
39
40
40
40
41
40
40
39
37
35
33
32
30
29
27
26
25
25
24
24
23
23
23
23
23
24
26
31
37
43
50
57
62
64
64
63
60
56
52
48
44
41
40
39
39
39
40
40
40
40
40
40
39
37
36
34
32
30
29
28
26
25
25
24
24
23
23
23
23
23
23
25
29
34
40
47
55
60
64
65
64
61
58
54
49
46
42
40
39
39
39
39
40
40
40
40
40
39
38
36
35
33
31
30
29
27
26
25
25
24
24
23
23
23
23
23
26
30
30
41
48
48
60
62
62
61
58
58
51
47
47
40
39
39
37
37
38
39
39
39
39
38
37
36
34
33
31
30
28
27
26
25
24
24
23
23
23
23
23
23
25
28
32
38
45
52
57
61
63
62
60
57
53
49
46
42
40
39
38
39
39
40
40
41
41
41
40
40
38
36
35
33
32
30
29
28
27
26
25
24
24
24
24
27
31
37
42
49
56
60
61
61
60
57
53
49
46
43
40
39
38
38
39
39
40
40
40
40
39
38
37
35
33
32
30
29
28
27
26
25
24
24
24
25
28
33
39
46
53
59
64
66
66
64
62
58
55
52
49
46
44
43
42
42
42
43
42
42
42
40
40
38
37
35
34
32
31
30
28
27
27
26
26
25
25
27
30
35
41
48
56
62
65
67
66
65
62
58
55
51
48
46
44
43
42
42
42
43
42
42
41
40
39
38
36
34
33
31
30
29
28
27
26
26
26
28
32
37
43
50
57
62
65
66
65
63
60
56
52
49
46
44
42
42
41
42
42
42
42
41
40
40
38
37
35
33
32
31
30
29
28
27
26
26
25
25
25
25
25
25
26
29
33
40
46
53
59
64
66
65
62
59
55
52
48
45
43
41
41
41
41
42
42
42
41
40
40
38
36
35
33
31
30
29
28
27
26
26
25
25
25
25
25
25
25
25
26
29
33
39
46
53
59
63
65
65
63
60
56
52
48
45
43
41
40
40
41
41
42
42
41
41
40
39
37
35
34
32
31
29
28
27
27
26
26
25
25
25
25
25
25
25
25
27
30
35
41
49
56
61
65
65
64
62
58
55
51
47
44
42
41
40
40
41
41
42
42
41
40
40
38
37
35
33
32
30
29
28
27
26
25
25
24
24
24
24
25
27
31
37
43
50
57
62
65
65
64
62
58
55
51
47
44
42
41
40
40
40
41
41
40
40
40
38
37
35
33
32
30
28
27
26
25
24
24
23
23
23
23
23
24
27
32
38
45
53
60
64
67
67
66
63
60
57
53
50
47
45
43
42
42
42
42
41
41
40
40
38
36
35
33
32
30
30
27
26
26
25
24
24
23
23
23
23
23
23
28
33
33
45
52
52
61
63
63
60
57
53
50
47
44
42
40
40
40
40
40
40
40
40
39
38
36
35
33
31
30
29
27
26
25
25
24
23
23
23
23
22
22
22
24
28
33
39
45
52
56
59
59
57
55
51
48
44
41
40
38
37
36
36
37
37
38
38
37
37
35
34
32
31
29
28
27
26
25
24
23
23
23
22
22
22
23
27
32
38
44
50
55
58
59
58
56
53
50
47
44
42
40
39
38
38
38
38
38
38
37
37
36
34
33
31
30
29
27
26
26
25
24
24
23
23
23
23
23
23
25
28
33
40
46
52
58
61
62
61
59
56
53
51
48
45
43
41
40
40
40
40
40
40
40
39
38
37
35
34
33
31
30
29
28
27
26
26
25
25
25
24
24
24
24
25
27
31
36
41
48
54
58
60
60
58
56
53
50
47
45
43
41
40
40
40
40
40
40
40
39
39
37
36
36
33
32
32
30
29
29
27
26
26
25
25
25
24
24
24
