Wave
40
40
40
40
40
40
39
39
38
37
36
36
36
36
35
35
35
35
35
35
35
34
35
35
37
39
40
43
45
47
48
48
48
47
46
45
44
43
42
42
41
41
42
42
42
42
42
42
41
40
40
40
39
39
38
38
37
37
37
37
37
37
36
36
36
36
36
36
35
36
36
38
40
41
44
46
48
50
50
50
50
49
56
56
51
49
49
47
47
47
47
47
47
47
46
46
44
42
42
40
39
37
36
36
35
34
34
33
33
33
33
32
32
32
31
31
30
30
31
33
36
40
45
50
55
58
59
59
58
57
55
52
50
48
47
46
45
45
46
46
46
46
46
45
43
42
41
40
39
37
36
35
34
34
33
33
33
32
32
32
31
31
31
30
30
29
29
30
32
35
40
44
49
53
56
58
58
57
55
53
51
49
47
45
44
43
43
44
45
45
45
44
43
42
41
40
39
38
37
36
34
34
33
32
32
32
31
31
31
31
30
30
29
29
29
30
32
35
40
44
49
52
55
56
56
28
26
25
24
23
22
22
21
21
20
19
18
17
16
15
14
16
21
28
38
48
59
69
75
78
79
78
75
72
68
64
60
56
54
52
52
53
54
54
54
53
51
48
45
42
40
37
34
31
28
26
25
24
24
23
23
23
22
22
21
20
19
17
17
17
19
25
33
42
54
65
74
80
83
83
82
79
74
70
66
62
59
57
56
56
56
57
57
56
55
53
51
48
45
41
39
35
35
30
28
28
25
23
23
21
21
21
20
19
19
16
14
14
12
13
13
23
32
41
53
63
70
74
76
75
73
69
64
59
54
51
47
45
45
47
48
50
51
51
50
48
45
43
40
38
36
33
32
30
28
27
26
26
25
25
25
24
24
23
21
20
19
18
18
20
25
33
41
52
62
69
74
76
76
73
70
65
60
56
51
48
22
22
21
19
18
17
17
19
24
31
40
48
57
65
70
72
71
69
66
62
58
53
49
46
44
43
44
45
46
47
46
45
43
40
37
34
31
29
27
25
22
21
20
19
18
18
17
17
16
16
15
14
13
12
11
11
13
18
26
36
47
59
69
76
79
81
80
77
74
70
66
61
58
55
53
53
54
54
55
55
54
52
49
46
42
40
37
34
32
30
28
26
25
24
23
22
22
22
20
19
19
18
17
17
15
17
17
29
38
38
60
69
69
79
79
79
75
71
68
63
59
56
54
52
52
53
53
53
53
52
49
47
43
40
37
34
31
29
27
25
24
23
22
21
20
19
18
17
16
15
14
13
12
11
11
14
20
29
39
50
60
75
72
68
64
59
55
52
50
49
49
50
51
51
51
50
49
46
43
41
39
36
33
31
28
27
25
24
23
22
22
21
21
21
19
18
18
16
15
15
18
24
24
41
51
51
69
73
73
75
73
73
65
61
56
52
49
48
49
50
50
51
51
50
47
45
42
39
36
33
31
28
26
25
23
23
22
22
21
21
20
20
19
18
17
16
14
14
15
20
27
37
47
59
70
77
82
84
83
81
78
74
70
66
62
59
57
57
57
58
59
59
58
56
53
50
46
43
40
37
34
31
29
27
26
25
23
23
22
21
21
20
19
18
17
15
14
13
13
17
23
33
44
56
68
78
84
87
88
86
84
80
76
72
68
64
62
61
61
61
62
62
61
59
57
54
50
47
43
40
37
34
32
29
28
26
25
23
22
22
21
20
19
19
18
16
14
13
13
12
15
15
32
43
43
68
77
77
85
86
86
80
76
76
67
63
63
57
56
56
57
58
58
57
55
53
50
46
43
40
37
33
30
28
26
25
23
22
21
21
20
19
18
17
16
14
12
11
9
9
10
14
21
31
41
53
64
71
76
78
77
75
71
66
62
57
53
51
49
49
50
51
52
52
52
50
48
45
41
39
35
32
29
27
24
23
21
20
20
19
19
18
17
17
16
14
13
12
12
14
18
26
36
47
59
70
77
82
84
83
80
76
71
66
62
58
55
54
54
55
57
57
57
56
54
52
48
44
41
38
35
32
29
27
25
23
22
21
20
19
19
18
17
16
14
12
11
10
12
17
26
37
49
62
72
80
84
86
85
83
79
74
69
64
60
57
56
55
56
57
57
57
55
54
50
46
42
39
35
32
29
26
24
23
22
21
21
20
19
19
18
17
15
13
11
9
7
7
10
17
27
40
54
67
78
86
89
90
89
89
82
77
77
69
66
66
65
65
65
67
68
68
65
63
63
56
53
53
46
44
41
40
39
38
37
37
36
35
34
32
31
29
28
26
25
23
23
24
29
36
46
58
71
83
91
96
99
98
95
91
87
81
76
72
68
66
66
66
67
68
68
67
65
62
59
55
51
47
44
41
39
36
34
32
30
29
28
27
26
25
23
22
20
19
18
20
23
30
39
50
61
72
80
86
88
87
85
81
75
70
65
61
58
57
58
59
61
62
63
62
60
57
53
50
46
42
39
36
33
30
27
26
24
23
22
20
19
18
18
20
24
30
39
49
59
69
77
82
84
84
81
77
72
66
61
57
54
52
52
53
55
55
56
55
53
50
47
43
40
36
33
29
27
24
22
20
19
18
16
15
14
13
11
10
8
7
6
5
8
14
23
36
49
63
75
85
91
95
95
92
88
61
58
55
52
51
50
49
49
50
50
49
48
47
45
43
41
40
38
36
35
33
32
31
30
30
29
29
28
27
27
26
25
24
24
25
27
31
36
41
47
52
56
59
59
59
58
56
53
51
48
46
44
43
43
43
44
44
43
42
41
40
38
36
34
32
31
31
28
27
27
26
25
25
24
23
23
22
21
21
20
20
20
23
27
32
38
43
47
51
53
53
53
51
49
47
45
43
41
41
40
41
41
42
42
42
41
40
39
37
36
34
33
32
31
30
29
29
28
28
28
27
27
26
26
27
28
32
35
40
44
48
51
53
54
53
52
60
55
50
46
43
41
40
41
42
43
44
43
42
40
38
35
31
28
26
23
21
19
18
17
17
16
16
16
15
15
14
13
12
11
10
11
14
20
28
39
50
61
70
76
78
78
77
74
69
65
61
58
56
54
53
53
53
53
52
51
50
49
46
42
39
35
32
30
28
27
26
25
24
24
23
22
21
21
19
18
17
15
16
18
24
33
42
53
63
71
77
79
79
78
75
71
67
62
58
56
54
53
53
54
54
53
52
50
48
45
42
39
36
34
32
30
29
27
26
25
24
23
23
22
22
21
20
18
16
15
14
15
19
27
37
47
58
68
68
78
79
79
75
72
72
64
60
60
54
52
52
52
52
52
52
50
50
45
42
40
37
33
31
28
26
25
24
23
23
22
22
21
20
20
19
18
16
15
13
13
13
16
22
31
40
52
62
70
74
76
75
72
68
64
59
54
50
47
46
46
46
47
48
47
46
44
41
39
36
32
29
27
24
22
21
20
19
18
18
18
18
18
17
17
16
16
14
13
12
11
11
14
20
29
38
48
58
66
70
71
70
67
63
58
54
49
45
43
42
42
43
45
46
47
46
45
43
41
39
36
33
31
28
26
25
23
22
21
21
21
21
21
20
20
19
18
17
16
16
17
22
30
39
49
60
69
75
78
78
76
73
69
64
59
55
51
49
48
48
49
50
50
50
48
46
44
40
38
35
32
29
27
25
24
23
22
21
20
20
20
19
19
19
18
17
16
15
14
15
19
26
35
45
56
66
74
77
78
77
74
70
64
57
50
45
40
37
36
37
37
38
38
37
36
34
31
29
26
24
22
20
18
16
15
14
13
13
12
12
12
12
12
12
11
10
9
8
8
9
13
19
28
39
49
58
65
68
68
67
64
60
56
51
46
41
38
38
33
32
32
33
33
33
31
29
29
24
20
20
16
14
14
11
10
10
9
9
9
9
8
8
8
7
7
6
6
5
5
7
12
19
28
38
47
55
60
62
62
59
56
52
48
44
40
38
36
36
37
38
39
39
39
38
37
35
32
30
27
25
23
21
20
19
18
17
17
16
16
16
15
15
14
14
13
13
15
19
25
33
40
49
56
61
64
64
62
59
55
51
46
43
40
38
37
38
39
40
41
42
41
40
39
37
35
32
30
28
26
25
23
22
22
21
21
20
20
20
19
18
18
18
19
23
30
38
46
56
64
70
74
75
74
71
68
64
60
56
53
51
50
50
50
51
52
52
52
51
48
46
43
41
39
36
33
30
27
25
22
21
20
19
19
18
17
17
16
17
19
24
31
40
50
61
69
75
77
77
75
71
66
61
56
52
49
48
47
47
48
49
50
50
49
48
45
43
40
38
35
33
31
29
28
27
26
26
25
25
25
23
22
22
21
21
21
28
35
35
52
62
62
73
74
74
71
68
63
59
54
50
47
45
45
45
46
47
47
47
45
43
40
38
35
32
29
27
25
23
22
21
20
20
19
18
17
16
15
15
16
18
24
31
39
47
55
61
65
65
64
61
58
53
49
45
42
40
40
40
41
42
42
42
41
40
37
35
32
30
28
26
24
22
21
21
20
20
19
19
18
17
17
17
18
22
28
36
44
53
60
65
67
68
66
63
60
55
51
47
44
42
41
42
43
44
44
44
43
42
40
38
35
33
31
28
26
25
24
23
23
23
22
22
22
21
20
19
19
21
26
33
40
50
60
68
73
76
76
74
71
67
63
59
55
52
50
49
49
50
51
51
50
48
46
43
40
38
36
33
31
30
28
27
26
25
25
25
25
25
24
23
22
21
21
21
24
31
39
47
57
66
72
75
75
74
71
67
62
58
54
51
49
48
47
48
48
49
48
47
45
43
40
38
35
32
30
28
26
25
24
23
22
22
22
22
21
20
19
18
17
17
17
20
26
34
42
52
61
68
72
73
72
70
66
62
57
54
50
48
47
47
47
49
49
49
48
47
47
42
40
40
35
33
33
28
26
26
24
24
24
24
24
23
23
22
21
21
21
24
29
37
45
54
63
71
75
77
77
76
72
67
61
54
49
44
41
40
40
41
42
42
42
41
40
38
35
33
30
28
26
24
23
22
21
21
20
20
20
20
19
19
18
18
18
18
19
24
31
40
50
62
71
78
82
82
80
76
71
65
59
54
51
48
47
47
47
48
49
48
47
45
43
40
38
35
32
30
28
26
24
23
22
21
20
20
19
18
18
17
16
15
14
13
14
17
24
32
41
53
63
72
77
79
79
76
73
68
63
59
55
52
50
49
50
51
51
52
51
49
47
44
41
39
36
33
30
28
26
25
24
23
23
23
23
23
22
21
20
19
18
18
18
22
29
37
47
58
67
75
79
81
80
77
73
68
63
58
55
52
50
50
51
53
54
54
53
52
49
46
43
40
38
35
33
31
29
27
26
25
25
25
24
22
21
21
21
24
29
37
47
59
71
80
86
89
89
87
84
79
73
67
61
56
51
49
49
50
51
51
51
50
47
44
41
39
36
33
30
28
25
24
22
21
20
19
18
17
17
16
15
14
13
11
11
11
15
23
38
48
60
70
77
80
80
79
76
72
67
62
58
54
52
51
51
53
54
54
53
51
49
46
43
40
38
35
32
29
27
25
23
22
21
21
20
20
19
18
17
16
15
14
15
18
24
32
42
53
65
73
79
82
82
80
77
72
67
62
58
55
53
52
53
54
55
55
55
53
51
48
44
41
39
36
33
30
28
26
24
23
22
21
20
19
19
18
17
16
15
14
14
16
22
31
41
53
66
77
84
88
89
88
85
82
77
72
68
64
61
59
59
60
61
61
61
59
57
54
50
46
43
40
37
34
31
29
27
26
25
24
23
23
22
21
19
18
17
16
15
15
20
27
37
48
61
73
82
87
90
90
87
84
80
75
69
65
61
59
57
58
58
58
58
57
54
51
47
43
40
37
33
30
27
24
22
20
19
18
17
16
14
13
12
11
9
8
7
7
10
15
24
35
46
59
59
76
79
79
78
75
75
66
61
61
53
51
51
51
52
52
53
52
52
48
45
42
39
36
32
30
27
25
23
22
21
20
20
19
18
17
16
15
14
14
15
19
26
36
46
59
70
79
84
87
87
85
81
76
71
66
62
59
58
57
58
59
60
59
58
55
52
49
45
41
38
35
32
30
27
26
25
24
23
22
21
20
19
18
17
15
15
15
19
25
35
46
59
71
81
88
92
93
92
90
85
80
73
67
61
57
55
55
55
56
55
54
52
49
46
42
39
35
32
29
26
23
22
20
18
17
16
16
15
13
12
10
9
7
6
7
10
16
26
37
49
62
72
78
81
81
80
76
71
66
61
57
54
52
51
51
52
52
52
51
48
45
41
38
35
31
28
25
22
19
17
15
14
13
13
12
12
11
10
9
8
7
7
9
14
22
32
43
56
67
74
79
80
79
76
72
67
61
57
53
50
49
49
51
52
52
52
50
48
44
41
41
34
31
31
25
23
23
19
18
18
16
15
15
13
12
12
9
8
8
10
15
22
33
44
57
69
77
82
84
83
81
77
72
67
63
59
56
55
54
54
55
55
54
52
49
46
42
40
36
32
29
26
24
22
20
19
18
17
16
16
15
14
13
11
10
8
8
10
15
24
36
47
61
72
79
83
84
83
80
76
72
68
63
58
54
51
49
48
48
48
47
45
42
40
37
33
29
26
23
21
18
16
14
13
12
12
11
10
10
9
8
7
5
4
2
2
3
9
18
29
41
53
63
69
72
73
71
67
64
59
53
49
45
43
42
42
43
43
43
43
41
39
36
33
29
26
22
20
17
15
13
12
11
10
10
9
9
8
7
6
5
4
4
4
6
11
19
29
40
51
61
68
71
71
69
66
61
56
51
47
43
41
40
41
43
44
45
45
44
42
40
36
33
30
27
25
22
21
19
18
17
17
16
16
16
15
15
14
13
13
12
13
16
23
32
42
55
67
76
82
85
84
82
78
73
68
63
59
56
54
54
54
55
55
55
54
52
50
46
43
40
38
35
32
30
27
26
25
24
24
23
23
23
22
21
21
19
18
18
19
23
23
38
48
48
70
78
78
84
82
82
75
69
69
59
54
51
49
48
49
50
51
51
50
49
46
42
40
36
33
30
27
25
23
21
19
18
17
16
16
15
15
14
13
12
11
10
9
10
15
24
34
46
59
70
77
81
82
80
76
72
67
61
57
53
50
48
48
49
50
51
50
49
47
44
41
38
34
30
27
25
23
21
20
19
19
19
19
18
18
17
16
15
14
14
16
20
26
36
46
58
68
77
81
83
81
78
73
67
61
56
52
48
47
47
49
50
50
50
49
47
44
41
39
36
33
30
27
24
22
21
20
19
19
18
18
18
17
16
15
14
14
16
22
30
40
52
64
75
82
86
87
85
82
77
72
67
62
59
56
54
54
54
55
55
55
53
51
49
45
42
39
36
33
30
28
26
24
23
22
22
22
21
20
19
18
17
16
17
21
28
37
48
60
72
81
87
89
89
87
83
78
72
67
63
59
59
56
57
57
58
58
58
54
51
51
44
40
40
34
31
31
26
24
24
21
20
20
18
18
17
15
15
14
15
18
24
32
42
54
65
75
82
84
84
81
77
72
66
61
56
53
51
50
50
50
51
51
49
48
45
42
40
36
33
29
26
24
21
20
18
17
17
16
16
15
15
13
12
11
10
11
15
23
32
42
54
66
74
78
80
79
76
72
67
61
57
53
50
48
48
48
49
50
50
49
47
44
40
37
34
31
28
25
23
21
19
18
17
16
16
16
16
15
14
13
12
12
14
18
26
37
49
62
72
79
81
80
75
70
65
60
55
50
47
44
42
42
43
45
45
45
44
42
40
37
34
31
28
26
23
21
19
18
17
16
16
16
16
16
15
15
13
12
12
12
16
23
32
42
54
65
74
78
80
79
76
72
66
61
56
52
49
48
48
48
49
50
50
49
48
45
42
39
36
33
30
28
26
24
23
21
20
20
18
18
17
16
15
14
14
15
17
23
31
41
52
63
71
76
77
76
73
70
64
58
52
47
42
39
38
39
40
40
40
40
38
36
33
29
26
23
21
19
17
16
14
14
13
13
13
12
12
11
11
11
14
14
29
38
38
57
63
67
66
64
64
55
49
49
40
36
33
32
33
35
36
38
38
37
35
33
30
27
24
21
18
16
14
12
10
9
8
8
8
10
13
20
28
37
46
54
60
62
62
59
56
51
46
41
37
34
33
32
33
35
37
38
38
37
36
33
31
28
25
23
20
18
17
15
14
14
13
13
14
17
24
32
41
51
60
67
71
72
70
66
62
57
51
47
43
41
40
40
41
42
44
44
44
42
40
37
35
32
29
27
25
23
22
20
20
19
19
18
18
18
18
20
25
33
41
51
62
70
75
78
78
76
72
67
62
56
50
45
43
41
41
42
43
44
43
42
41
39
36
33
30
27
25
23
21
20
19
19
18
17
17
16
15
16
20
27
35
44
54
63
68
71
71
70
67
63
59
54
49
45
43
42
42
43
44
44
43
41
40
38
34
32
29
26
23
21
19
18
17
16
15
15
14
12
12
11
11
14
19
19
35
44
44
60
65
65
66
63
63
56
51
51
44
42
42
42
43
44
45
45
44
42
40
37
34
31
29
27
25
24
22
21
21
20
19
19
18
17
17
17
20
25
32
40
49
59
66
71
73
73
71
68
64
60
55
52
49
48
48
48
49
49
49
49
47
45
42
40
37
34
32
29
28
26
25
24
24
24
23
23
22
21
20
19
18
20
25
32
41
51
62
71
77
79
79
78
75
71
67
62
58
55
53
52
51
52
52
52
51
49
47
44
41
39
36
33
31
29
27
25
24
23
23
22
22
21
21
20
19
17
17
16
17
21
27
36
46
56
66
73
76
76
74
71
67
62
57
54
50
48
47
46
47
47
47
46
45
43
40
38
34
31
29
26
23
21
19
18
17
16
15
14
13
13
12
11
10
9
8
8
7
8
10
16
25
34
44
54
62
67
68
67
64
60
56
51
46
42
40
38
38
39
40
40
40
40
39
36
34
31
28
26
24
21
20
19
17
17
17
17
17
17
17
17
16
15
14
13
13
13
15
21
28
37
46
55
62
66
67
66
64
60
56
51
46
42
40
39
39
40
40
41
42
41
41
39
36
36
31
28
28
24
22
22
19
18
18
16
16
16
16
16
16
16
16
15
16
18
24
32
40
50
60
68
73
74
73
71
67
63
59
54
51
48
46
45
45
46
47
47
47
46
44
41
39
37
34
32
30
28
26
24
24
23
22
22
22
22
21
21
20
19
19
18
19
24
30
39
48
59
68
75
78
79
78
75
72
69
63
58
52
48
44
41
41
42
43
43
42
40
39
36
33
31
29
27
25
23
22
20
20
19
18
18
18
17
17
16
15
14
13
13
16
21
28
38
47
57
64
69
70
69
66
63
58
53
48
45
41
40
40
40
41
42
42
42
41
39
28
26
23
21
18
17
15
14
14
13
13
12
11
10
9
9
8
9
12
18
26
35
44
52
58
62
62
60
57
53
49
45
41
39
37
37
38
39
40
41
41
41
40
38
35
33
31
29
26
25
23
22
21
20
19
19
19
18
19
23
23
36
43
43
60
65
65
68
67
67
60
55
55
47
44
44
41
42
42
44
45
45
44
42
40
38
36
34
31
29
27
25
24
23
23
22
22
22
22
22
21
21
20
20
20
23
28
36
46
56
67
75
80
82
82
80
77
73
69
65
61
58
55
54
54
55
55
55
54
53
51
48
45
42
40
37
35
33
32
31
29
29
28
27
27
26
26
25
24
23
23
23
26
32
40
48
59
68
76
80
81
80
78
75
71
67
63
59
56
54
53
53
54
55
55
53
50
46
42
39
37
35
34
33
31
28
26
23
22
21
22
22
22
21
21
20
18
16
15
14
16
21
29
39
49
59
67
71
73
72
70
67
63
59
56
52
49
46
45
44
44
45
45
45
44
43
40
37
33
30
27
25
24
23
22
21
21
20
20
19
19
20
19
18
17
16
15
15
16
18
23
30
38
47
57
66
72
74
73
70
66
61
56
52
49
48
46
45
45
46
47
48
47
46
44
42
40
38
36
34
32
29
26
23
21
21
22
24
25
26
25
22
20
17
17
17
18
20
24
30
37
45
55
65
73
77
79
78
76
73
69
65
61
57
53
51
49
50
50
53
53
53
49
44
44
36
33
33
29
27
27
24
22
22
18
17
17
17
18
19
19
18
18
16
15
14
14
16
21
29
40
50
62
72
78
80
80
78
75
71
66
61
56
51
46
44
43
44
45
46
46
45
43
41
39
35
32
30
27
25
23
22
20
20
20
19
19
18
17
16
16
15
15
14
13
12
11
12
16
24
33
44
55
65
71
74
74
72
69
65
60
56
51
48
46
45
45
46
47
47
47
46
44
42
40
37
35
32
30
27
25
24
22
21
21
21
20
19
19
18
17
16
16
15
15
15
18
23
31
40
50
60
68
72
74
74
71
68
63
58
53
49
47
45
45
45
47
47
47
46
45
42
40
38
35
33
31
28
26
25
23
22
21
21
21
20
20
19
19
19
18
17
16
15
15
17
22
30
40
50
61
69
75
77
77
76
73
69
64
59
54
51
48
48
48
50
51
51
51
49
47
45
42
40
37
34
34
29
28
28
26
25
25
23
22
22
21
21
21
21
20
20
17
16
16
20
26
35
44
55
66
73
78
79
78
75
71
66
61
56
52
49
47
46
47
48
49
49
48
46
44
41
39
36
33
30
28
25
24
22
22
21
20
19
19
19
19
20
20
19
17
15
12
11
12
16
23
33
43
54
63
68
70
68
66
63
59
56
52
49
45
42
41
40
41
43
44
45
45
43
40
38
35
33
30
28
26
24
22
20
19
19
20
21
21
21
20
18
16
15
14
14
16
20
27
34
42
52
60
67
70
71
71
68
65
60
55
50
46
43
42
42
45
47
48
49
48
46
43
40
38
35
33
31
29
27
25
24
22
22
21
22
22
22
22
21
21
20
19
18
18
19
23
30
39
48
59
68
75
78
78
76
73
69
64
60
56
53
50
48
48
48
49
50
50
50
48
46
43
40
38
35
32
30
28
26
25
24
23
22
21
21
21
21
20
19
18
17
16
15
15
17
21
28
37
46
57
66
72
74
74
72
68
64
59
55
51
48
46
45
45
47
48
48
48
47
46
43
40
38
36
33
31
29
27
25
24
24
24
23
24
24
24
23
23
22
21
21
19
19
19
25
32
32
50
60
60
73
75
75
73
70
70
61
57
53
50
48
47
47
49
50
51
51
50
48
46
43
40
39
37
35
33
31
29
28
27
26
26
26
25
25
24
24
23
23
21
20
19
20
24
30
40
51
62
72
80
84
85
84
81
77
73
68
64
60
56
54
54
54
55
56
56
55
54
51
48
45
42
40
38
36
34
33
31
30
29
28
28
27
27
27
26
26
25
23
22
20
19
19
23
29
38
48
59
70
78
82
83
82
79
76
71
66
61
57
54
52
52
52
53
54
54
53
52
49
46
43
40
37
34
32
30
28
27
26
25
24
24
23
23
23
22
21
20
19
18
17
17
21
27
35
44
55
65
72
76
78
77
74
70
64
59
55
51
48
47
47
47
49
49
50
49
47
45
42
40
38
35
32
30
28
26
25
24
24
24
24
23
23
22
22
21
20
20
21
24
30
38
47
58
69
69
82
84
84
81
78
78
68
63
63
56
54
54
54
55
55
56
56
56
52
49
46
43
40
38
35
33
31
29
28
28
28
27
27
26
26
25
24
23
22
22
22
26
33
41
52
63
74
82
87
89
88
84
78
71
64
57
52
48
47
46
47
48
49
49
49
47
45
42
39
36
33
31
28
26
24
22
21
20
19
19
18
18
17
16
15
13
12
11
11
13
19
28
38
49
60
69
74
76
76
73
69
65
59
54
49
46
44
43
43
45
46
46
45
43
41
39
36
33
30
27
24
21
19
18
17
16
15
15
15
15
14
14
13
12
11
11
12
15
21
29
38
48
58
65
69
70
69
66
61
56
51
47
43
41
40
40
41
42
43
43
43
41
39
37
33
30
28
25
23
21
19
18
18
17
17
17
17
17
17
17
16
15
15
14
16
20
27
36
46
57
67
73
77
77
75
72
68
64
59
55
51
49
47
47
48
49
49
50
49
47
44
41
38
35
32
30
28
26
24
23
23
22
21
21
21
20
20
19
19
18
17
17
17
20
25
33
42
53
64
72
77
78
77
75
71
67
62
58
53
49
45
44
43
43
44
44
43
43
40
38
38
32
29
29
24
21
21
18
16
16
15
15
15
14
14
14
13
12
11
11
10
11
15
22
31
41
52
62
68
71
71
69
66
61
56
51
47
43
41
40
41
42
44
45
45
45
43
40
39
36
33
30
28
26
24
23
21
20
20
20
20
20
19
19
18
18
18
18
19
22
29
37
45
55
64
70
74
74
72
69
65
60
55
51
47
45
44
45
46
47
48
48
48
46
44
41
39
36
34
32
30
28
26
25
24
24
24
24
23
23
23
22
21
21
21
23
29
37
46
57
68
77
83
85
85
82
79
75
70
65
61
58
56
55
55
56
57
57
57
56
53
50
47
44
41
39
36
34
32
30
29
28
28
27
27
27
27
26
25
24
23
22
23
26
33
41
52
63
74
82
86
87
86
84
80
75
71
66
62
58
55
53
52
51
51
50
49
47
45
42
39
36
33
31
29
27
25
24
23
22
21
20
20
19
19
19
17
15
15
13
13
13
19
26
26
45
56
56
72
75
75
74
70
70
60
55
51
47
45
44
44
45
46
47
46
45
43
40
37
34
31
28
26
24
22
21
20
19
19
19
18
19
19
18
18
17
16
15
14
15
19
26
35
44
54
63
70
73
73
71
68
64
59
54
50
47
44
44
44
45
47
47
47
46
44
41
39
36
34
31
29
27
25
24
23
22
22
22
22
21
21
21
21
20
19
18
18
18
20
26
34
44
55
66
74
80
81
79
76
71
65
59
53
50
47
45
45
46
47
49
49
49
47
45
42
40
37
34
32
30
28
26
25
25
24
24
24
24
24
24
23
23
22
20
19
18
18
19
23
30
40
50
61
70
76
79
79
77
74
69
64
59
55
51
49
47
48
48
50
50
50
48
46
43
40
38
35
31
29
26
24
22
21
20
20
20
20
20
20
20
19
18
17
16
15
14
15
17
23
32
40
51
61
69
73
74
73
69
65
60
55
51
47
45
43
43
45
46
48
48
48
47
45
42
40
37
34
32
29
27
26
25
24
24
23
23
23
23
23
22
21
20
20
19
21
26
33
42
53
64
72
78
81
81
79
76
76
67
62
62
54
52
52
51
52
52
53
52
52
49
46
46
40
38
35
32
30
28
26
25
25
24
24
24
24
24
24
24
23
22
22
22
24
29
37
47
58
70
79
86
89
89
85
80
74
67
60
54
50
48
47
47
49
50
50
50
49
47
45
42
42
36
33
30
28
26
24
22
21
20
19
19
18
15
14
13
13
16
22
31
41
52
62
70
75
77
76
73
69
64
59
54
49
46
44
43
45
46
47
47
46
44
42
39
36
33
30
28
25
23
21
19
18
17
17
16
16
15
15
14
13
13
13
13
16
21
29
38
52
61
67
70
70
68
64
60
55
50
46
42
40
40
40
41
42
42
42
42
40
38
35
32
29
26
23
21
19
18
17
17
17
17
17
16
16
15
15
15
16
19
25
32
40
50
59
66
70
71
70
68
64
59
55
50
47
45
44
43
44
46
47
47
46
45
42
40
37
37
31
28
28
25
24
24
22
22
22
22
21
21
21
20
20
19
19
19
25
32
40
50
60
68
73
75
75
73
70
66
62
58
55
52
50
49
49
49
50
50
50
48
46
43
40
38
35
32
30
28
26
26
25
24
24
24
24
23
23
22
21
20
19
18
18
20
24
30
37
45
53
59
62
63
62
59
56
52
48
44
41
39
38
38
38
39
40
40
40
38
36
33
31
29
27
25
23
21
20
19
18
18
17
17
17
17
16
16
15
14
13
12
12
13
17
23
31
40
49
58
63
66
65
63
60
56
52
47
44
41
40
40
40
41
42
42
42
40
39
36
34
31
29
27
25
23
22
21
20
20
21
21
21
21
20
20
20
19
19
18
17
18
22
29
38
47
57
65
70
72
72
70
67
63
58
54
50
47
45
44
45
46
47
48
48
47
45
42
40
37
35
32
30
28
27
25
24
24
24
24
23
23
23
23
22
22
21
19
19
18
17
19
24
32
40
51
61
70
75
77
77
75
72
69
65
61
57
55
53
52
52
52
52
52
52
50
48
46
44
41
39
36
34
32
29
28
26
25
24
23
23
22
22
21
21
20
19
19
17
16
16
15
17
17
30
39
39
58
65
65
72
72
72
66
62
62
53
49
46
44
44
44
46
47
47
47
46
44
42
40
37
35
32
30
28
27
26
25
24
24
24
23
24
24
23
23
22
21
20
19
19
22
27
35
43
53
63
71
75
76
76
73
70
66
61
57
53
50
49
49
49
51
52
53
53
52
50
47
45
42
40
38
36
33
32
30
29
28
27
27
26
25
25
25
24
23
22
21
20
20
22
28
37
46
58
69
78
83
86
86
84
79
73
66
59
52
47
45
44
44
46
47
47
47
46
45
42
40
38
34
32
29
27
26
25
24
23
23
23
22
22
22
22
22
21
20
19
18
17
18
22
29
38
49
60
71
78
83
83
82
79
74
69
64
59
55
52
50
50
50
51
52
51
50
49
46
43
40
38
34
31
29
27
25
23
22
21
21
20
20
20
19
19
19
18
17
16
15
14
15
19
26
35
45
57
57
75
80
80
80
77
77
67
62
62
53
50
50
49
50
50
53
53
53
51
49
46
43
40
38
35
32
30
27
26
25
24
23
22
22
22
21
21
20
20
19
19
21
26
33
41
52
63
72
78
80
81
79
75
71
66
61
56
53
50
49
50
51
52
53
52
51
49
47
43
40
38
35
32
30
28
27
25
24
24
23
23
23
23
23
22
21
21
20
20
23
28
37
47
59
71
81
87
90
89
87
84
79
74
69
66
62
60
59
59
60
61
61
60
59
57
54
50
47
43
40
38
35
33
32
30
29
29
28
28
27
26
25
24
22
21
21
21
25
31
40
49
60
70
77
81
82
80
77
73
67
62
57
53
50
48
48
49
50
50
50
48
46
43
40
36
33
30
27
24
22
20
18
17
16
15
15
15
14
13
12
11
11
11
13
18
25
34
43
53
61
65
67
66
63
59
54
49
44
41
39
38
37
38
40
40
41
41
40
38
35
32
29
26
23
21
19
18
17
16
15
15
15
14
15
15
18
22
29
37
45
53
60
64
65
65
62
59
55
50
46
42
40
39
39
40
41
42
42
42
41
40
37
34
32
29
27
25
25
22
21
21
20
20
20
20
19
19
18
17
17
15
15
15
22
30
30
50
61
70
75
77
77
75
72
68
65
61
57
55
53
52
51
52
53
52
52
50
48
45
43
40
38
35
33
31
29
28
28
27
27
27
26
25
24
23
22
21
21
22
26
33
40
50
60
68
73
75
75
74
71
67
63
58
55
52
49
47
45
44
43
42
40
38
36
33
30
27
25
22
20
18
17
16
15
14
14
14
14
14
13
13
12
11
10
10
11
15
21
30
39
48
57
63
66
66
64
61
57
53
48
45
42
40
40
40
40
41
41
41
40
40
37
34
32
29
27
25
23
22
21
20
20
20
20
20
20
19
18
17
17
16
16
19
23
30
38
46
54
61
64
65
64
61
57
52
48
44
42
40
40
40
41
42
44
44
43
42
40
38
35
33
31
28
27
25
24
23
23
22
22
22
22
22
21
20
20
19
18
20
23
30
39
48
58
67
67
76
76
76
71
68
68
61
58
58
53
52
52
50
49
49
47
45
45
41
39
37
34
32
30
28
26
25
24
24
24
24
24
24
24
24
23
22
22
21
20
22
26
32
40
49
59
67
73
75
74
70
66
61
56
50
47
44
42
41
41
42
43
43
43
42
40
39
37
34
32
29
27
25
23
21
20
19
19
18
17
17
17
16
16
15
14
13
13
13
15
20
27
37
47
57
65
71
73
73
70
67
63
58
53
49
46
44
43
44
46
47
48
48
47
46
43
40
38
35
33
30
28
27
26
25
24
23
23
23
22
22
22
21
20
20
19
20
22
28
37
45
56
66
73
78
79
78
76
73
68
63
59
55
52
51
50
51
52
53
54
53
52
49
47
44
41
38
35
33
31
29
27
26
25
25
24
24
24
24
24
23
23
22
21
21
22
26
33
42
53
65
75
82
86
86
85
82
78
73
67
61
56
51
48
47
47
48
49
50
49
48
46
44
40
38
35
32
30
27
26
24
23
22
21
20
19
19
18
18
17
16
15
14
13
12
13
17
25
34
45
57
67
75
79
80
79
76
72
67
61
56
52
49
48
48
49
50
50
51
50
50
47
44
44
38
34
34
28
25
25
21
20
20
18
18
18
18
18
18
18
17
16
16
16
17
21
27
36
46
57
67
75
80
81
80
77
73
67
62
57
52
49
47
47
48
50
50
51
50
49
47
45
42
40
37
34
31
29
26
25
23
22
21
21
20
20
20
20
20
19
18
18
17
20
25
33
43
56
68
78
85
89
90
88
84
79
74
68
63
59
56
54
54
55
56
57
57
57
55
52
49
46
42
40
37
33
30
28
26
24
22
21
20
20
19
19
18
17
17
16
14
13
14
18
26
36
47
60
71
80
84
85
84
81
76
70
64
59
55
51
49
49
50
51
52
52
51
50
48
45
41
39
35
32
29
26
23
21
20
18
17
16
16
16
15
15
15
15
15
15
16
21
28
38
48
60
71
79
83
84
83
79
75
69
63
58
54
51
50
50
52
53
55
55
55
53
51
48
45
42
40
37
34
31
28
28
25
24
24
23
23
23
22
21
21
20
20
20
28
37
37
60
73
73
92
96
98
97
93
89
83
77
72
68
65
64
64
65
67
68
68
67
65
62
58
54
49
45
42
39
36
33
31
29
28
27
26
25
25
24
23
22
21
21
22
25
32
41
54
68
81
91
98
101
102
100
96
65
62
59
57
55
53
53
53
53
53
53
52
51
50
48
46
44
41
40
38
36
34
33
32
31
30
30
29
29
29
28
27
27
26
26
26
28
32
37
42
49
55
60
63
65
65
64
62
59
56
53
51
49
48
47
48
49
49
49
49
48
46
45
43
41
40
38
36
35
33
32
31
30
30
29
29
28
28
27
27
27
27
29
33
38
43
50
56
61
65
66
67
65
63
60
57
55
52
50
49
49
50
50
50
50
50
49
47
45
43
41
40
37
35
34
32
31
30
30
29
29
28
28
27
27
27
26
26
28
31
36
41
48
56
63
68
71
72
72
71
69
66
63
61
58
56
55
55
55
55
55
55
54
52
50
48
46
43
41
40
37
36
34
33
31
30
29
29
28
28
27
26
25
25
24
25
28
33
39
45
53
59
65
68
69
69
69
66
63
63
57
54
54
50
50
50
50
50
50
49
47
45
37
35
33
31
30
29
27
27
26
26
25
24
24
23
22
22
23
26
30
36
42
50
57
63
67
70
70
69
67
64
61
58
55
52
51
51
51
51
51
51
51
49
47
45
43
40
39
37
35
33
31
30
29
28
28
27
27
26
26
25
24
24
24
26
29
35
41
49
57
65
70
74
76
76
74
72
68
65
62
59
57
55
55
55
55
55
54
53
51
49
47
44
41
40
37
35
33
31
30
29
28
27
27
26
26
25
25
24
23
23
23
25
29
35
41
50
59
66
72
76
77
77
75
72
69
65
62
58
56
54
54
53
53
53
52
51
49
47
44
41
39
37
34
32
30
28
27
26
25
24
24
23
23
23
22
21
21
20
20
21
24
29
36
43
52
60
66
70
72
72
71
68
64
61
57
54
51
50
49
50
50
50
50
49
48
46
43
41
41
36
34
34
29
27
27
25
24
24
23
22
22
21
21
21
19
19
19
22
26
32
40
47
55
61
66
68
68
67
65
62
58
55
51
48
46
45
45
45
45
45
44
43
41
39
37
34
32
29
27
25
24
22
21
21
20
20
19
19
19
19
18
17
17
16
16
17
21
26
32
40
47
53
57
59
59
57
54
50
46
42
40
38
36
36
36
36
37
37
37
36
35
34
32
30
28
27
25
24
22
21
20
20
19
19
19
18
18
18
18
17
17
16
16
17
19
23
29
35
41
47
51
54
54
53
51
49
46
43
40
39
37
37
37
37
38
39
39
38
37
36
34
32
31
29
28
27
25
25
24
23
23
23
23
23
23
23
23
22
22
22
22
23
25
30
35
40
46
51
54
55
55
54
51
49
46
43
41
40
39
39
39
40
40
40
41
40
40
39
37
36
34
33
32
31
30
29
28
28
28
28
28
28
28
28
28
28
28
28
30
33
38
43
49
55
59
61
62
61
59
57
54
52
49
47
45
44
44
44
45
46
46
45
45
43
42
40
39
38
36
35
34
33
32
32
31
31
31
31
31
31
31
30
30
30
29
30
30
36
40
40
53
58
58
64
64
64
59
55
55
48
45
45
42
41
41
42
42
43
43
43
42
41
40
39
37
36
35
33
33
32
31
31
30
30
30
30
30
30
29
29
28
27
27
28
31
35
40
45
52
57
60
62
61
60
58
55
52
49
47
45
44
43
43
44
45
45
45
44
43
42
40
39
38
36
35
33
32
31
31
30
30
30
30
30
30
30
29
29
28
28
28
30
33
38
43
49
55
59
62
62
61
60
57
54
51
48
46
44
43
44
44
45
46
46
46
45
44
43
41
40
39
37
36
35
34
34
33
33
33
33
33
33
32
32
31
31
32
34
37
42
48
54
60
65
67
68
67
66
63
60
57
54
52
50
50
49
50
51
51
51
51
50
48
46
44
43
41
40
39
37
36
35
35
34
34
34
34
33
33
32
32
32
31
32
34
38
43
49
56
62
66
69
69
68
66
64
61
58
55
53
51
50
50
50
50
50
50
50
49
47
47
43
41
41
39
37
37
35
34
34
33
33
33
32
32
32
31
30
30
29
29
31
34
38
43
49
55
60
62
63
62
60
58
55
51
48
46
44
43
42
43
43
44
44
43
42
41
40
38
36
35
33
32
31
30
29
28
28
28
27
27
27
27
26
26
25
25
25
27
30
34
40
44
50
54
56
56
55
53
51
48
45
42
40
40
40
40
40
40
41
41
40
40
39
37
36
34
32
31
30
29
28
27
27
27
27
27
27
27
26
26
26
27
29
32
36
41
46
51
55
57
58
57
55
53
50
47
45
42
41
40
40
40
41
41
42
41
41
40
39
37
36
34
33
32
31
30
29
29
29
28
28
28
28
28
27
27
27
27
29
33
37
42
48
53
57
60
60
60
58
56
54
51
49
47
45
44
43
44
44
44
44
44
43
42
40
39
38
36
35
33
32
31
31
30
30
29
29
29
29
28
28
27
26
26
26
28
32
36
41
46
51
55
57
57
56
55
53
50
47
45
43
41
40
40
41
41
41
42
41
40
40
38
36
35
33
32
30
29
28
28
27
27
27
27
26
26
26
25
25
25
24
24
26
30
30
39
44
44
53
55
55
55
53
53
48
46
46
41
40
40
40
40
40
41
41
41
40
40
39
37
35
34
33
32
30
30
29
28
28
28
28
28
27
27
27
26
26
26
27
30
34
39
44
49
54
58
59
59
58
56
53
50
48
45
43
42
41
42
42
42
43
42
42
41
40
39
37
36
34
33
32
31
30
29
29
29
28
28
28
28
28
27
27
27
26
26
27
29
33
38
43
50
55
59
60
60
59
57
55
52
50
47
45
44
43
43
43
43
44
44
43
42
41
40
38
36
35
33
32
31
30
29
28
28
28
27
27
27
27
27
27
26
26
25
26
27
31
35
40
46
52
56
58
59
58
57
54
52
49
46
44
43
42
42
43
44
44
44
44
43
42
40
40
39
37
36
35
34
33
32
32
31
31
30
30
30
29
29
29
28
28
29
31
34
39
44
50
55
59
61
62
61
60
57
54
51
49
47
45
45
45
45
45
47
47
47
46
44
44
40
40
40
36
35
34
33
32
32
31
31
31
31
31
30
30
30
29
29
29
31
34
39
43
50
56
61
64
66
66
65
62
58
54
50
46
43
41
41
41
42
42
43
43
42
41
40
39
37
36
34
33
31
30
29
29
28
28
28
27
27
27
27
26
26
25
25
26
28
32
37
42
49
55
59
61
62
62
60
58
55
52
49
47
46
45
45
46
46
47
47
46
45
43
41
40
39
37
36
34
33
32
31
31
30
30
29
29
28
28
27
27
26
27
28
31
35
40
45
51
55
59
60
60
58
56
53
51
48
46
44
43
42
42
43
43
43
43
42
41
40
38
36
35
33
32
30
29
28
28
27
27
27
26
26
26
25
25
24
24
24
25
27
31
36
41
48
53
57
59
59
58
55
52
48
44
42
40
39
38
38
39
39
40
40
40
39
37
36
34
32
31
30
29
28
27
26
26
25
25
25
25
25
24
24
24
23
23
22
22
23
26
30
36
41
47
51
54
55
55
53
51
49
46
43
41
40
39
39
39
40
40
40
40
40
39
37
36
34
32
31
30
28
27
27
26
25
25
25
25
25
25
25
24
24
23
23
23
24
26
26
35
40
46
51
54
55
55
53
51
49
46
43
41
40
39
39
40
40
40
41
41
40
40
39
37
36
35
34
33
32
31
30
30
29
29
29
29
29
29
29
29
28
28
28
30
33
38
42
48
53
57
60
60
59
58
55
53
50
47
45
44
43
43
43
44
44
44
44
44
42
41
40
39
37
36
35
33
33
32
31
31
31
30
30
30
30
30
29
29
29
29
31
34
38
43
48
54
59
61
62
62
60
58
55
52
49
47
45
44
43
43
44
45
45
44
44
43
41
40
39
37
36
34
33
32
31
30
30
29
29
29
28
28
28
27
27
27
27
28
30
34
39
44
50
55
58
59
59
58
56
53
50
47
45
43
42
42
42
42
43
44
44
43
42
41
40
38
37
35
34
33
32
31
31
30
30
30
30
30
30
30
29
29
29
29
31
34
38
43
48
53
58
58
60
59
59
55
52
52
47
44
44
42
42
42
44
44
44
44
44
44
41
40
39
37
36
34
33
32
32
31
31
30
30
30
30
30
30
29
29
29
29
31
34
39
44
50
56
61
64
65
64
63
61
58
55
53
51
48
47
45
45
44
44
44
43
43
42
41
40
38
37
35
33
32
31
31
30
30
30
29
29
29
29
29
28
28
27
27
27
29
33
38
43
50
56
60
62
63
62
61
58
55
52
49
47
45
44
44
44
45
45
45
45
44
43
41
40
39
37
36
34
33
31
30
30
29
29
29
28
28
28
27
27
26
26
26
27
29
34
39
44
50
55
59
60
60
59
56
54
51
48
46
44
43
42
43
44
45
45
45
45
44
42
40
40
38
36
35
34
33
31
31
30
30
29
29
29
28
28
28
29
32
36
40
45
51
57
61
63
64
63
62
59
56
53
51
49
47
47
47
48
48
49
49
48
47
46
44
43
41
40
38
36
35
32
32
31
30
29
29
28
28
30
33
38
43
50
57
63
66
68
68
67
66
63
60
58
55
53
51
51
51
51
51
52
51
51
49
47
45
43
41
40
38
37
35
34
33
32
31
31
31
30
30
29
28
28
27
28
33
33
42
49
55
60
64
65
65
63
61
58
55
52
49
48
46
46
46
46
46
45
44
43
42
40
38
36
34
32
30
29
28
27
26
25
24
24
24
23
22
22
21
20
20
20
22
25
30
36
41
47
51
54
54
53
52
49
47
44
41
40
39
38
38
39
40
40
40
40
39
37
35
34
32
31
30
29
28
27
26
26
26
26
25
25
25
24
24
24
24
26
28
32
37
41
47
51
54
56
55
53
51
49
46
43
41
40
40
40
40
40
41
41
41
40
40
38
36
35
33
32
31
30
29
28
28
28
28
28
28
28
28
28
27
27
27
29
32
37
41
47
53
56
59
59
59
57
55
52
49
47
45
43
43
43
43
43
44
43
43
42
40
40
38
37
35
34
33
32
31
31
30
30
30
29
29
29
28
28
28
27
27
27
28
31
36
40
45
51
55
57
58
57
57
53
51
51
45
43
43
41
40
40
41
42
42
41
40
40
39
37
37
34
33
32
31
30
29
29
28
28
28
28
28
27
27
26
26
26
27
29
33
37
42
47
52
56
57
57
56
54
51
48
46
43
42
40
40
40
41
42
42
42
42
41
40
38
37
35
34
33
32
31
30
30
29
29
29
29
29
29
29
28
28
28
29
31
35
40
45
51
56
59
61
61
60
58
55
53
50
47
46
44
43
43
44
44
44
44
44
43
42
40
39
38
36
35
34
33
32
31
31
30
30
30
30
30
30
29
29
29
28
28
30
33
37
42
48
54
59
62
62
62
60
58
55
52
50
47
45
44
43
44
44
45
45
44
43
42
41
40
38
37
35
33
32
31
30
29
29
29
29
28
28
28
27
27
27
27
26
26
27
29
34
39
44
50
56
59
61
60
59
56
54
51
48
45
43
42
41
41
42
43
43
43
43
42
40
40
38
37
35
34
33
32
31
30
30
29
29
29
29
29
29
28
28
28
27
27
29
33
38
43
49
55
60
62
62
62
60
57
55
51
49
46
44
43
42
43
44
45
45
45
44
43
41
40
39
39
36
34
34
32
31
31
30
30
30
30
30
30
29
29
29
28
28
28
30
33
38
43
50
57
62
65
66
66
65
62
59
56
53
50
49
47
47
47
47
48
48
47
47
46
44
42
41
40
38
37
35
34
33
32
31
31
30
30
30
30
30
29
29
28
28
28
27
28
31
35
40
46
53
59
63
64
64
62
60
57
54
51
49
46
45
44
43
44
45
46
46
45
44
42
40
39
37
36
34
33
31
30
29
28
28
27
27
26
26
26
26
26
25
25
25
25
27
31
36
42
48
54
58
60
60
60
58
55
52
50
47
44
42
41
41
41
42
43
44
44
42
41
40
38
36
35
34
33
31
30
29
29
28
28
28
28
27
27
27
26
26
26
27
28
31
36
40
47
53
58
61
62
61
60
58
55
52
49
47
45
43
43
43
44
44
45
45
44
43
41
40
39
37
36
35
33
32
31
30
29
29
29
29
29
29
29
28
28
28
27
27
29
31
31
41
47
47
60
63
63
64
63
63
58
55
55
50
48
46
45
45
46
46
47
47
46
45
44
42
40
40
38
36
35
34
33
32
31
30
30
30
30
30
30
29
29
28
28
27
28
29
33
38
44
50
56
61
63
64
63
61
59
56
53
50
47
45
44
44
45
45
46
46
45
45
44
42
40
40
38
36
35
33
32
31
30
30
29
29
29
29
28
28
28
27
26
26
26
27
30
35
40
46
52
58
61
63
63
61
59
56
53
51
48
46
45
45
45
46
47
47
47
46
45
43
42
40
40
38
36
35
34
33
32
32
31
31
31
30
30
30
29
29
28
28
29
32
36
40
47
53
59
64
66
66
66
64
61
58
56
53
51
49
49
49
49
50
50
50
50
49
47
46
44
42
40
39
38
36
35
34
33
32
32
32
31
31
31
30
30
29
29
29
30
33
38
43
50
57
63
67
70
71
70
68
66
63
60
58
55
54
53
52
53
53
53
53
52
51
49
47
45
43
41
40
38
36
35
34
33
32
32
31
31
31
30
30
29
28
28
27
27
30
34
39
46
53
60
66
69
71
71
70
68
65
65
60
57
57
54
53
53
53
53
53
52
51
51
47
45
45
40
39
39
35
33
31
30
29
29
28
27
27
26
26
25
24
23
23
22
23
25
29
35
42
49
56
61
64
66
66
64
62
59
56
53
50
48
47
47
47
48
48
48
47
46
44
41
40
38
35
33
31
30
28
27
26
25
25
24
24
23
23
22
22
21
21
21
22
25
29
35
40
48
54
59
62
64
63
62
59
56
53
50
47
46
45
45
45
46
46
46
45
44
43
41
40
38
36
34
32
31
29
28
27
27
26
26
26
25
25
24
24
23
23
24
27
31
37
43
50
57
63
67
69
69
68
66
63
60
57
55
53
51
51
51
51
52
52
51
50
48
46
44
41
40
38
36
34
32
31
30
29
28
28
27
27
27
26
26
25
24
24
26
28
33
39
45
51
58
63
66
67
67
65
63
60
56
54
51
50
49
49
49
49
49
49
48
47
45
43
40
39
39
35
33
33
30
29
29
26
26
26
25
25
25
25
24
24
22
22
22
26
31
38
46
54
62
68
71
73
72
71
68
65
62
58
55
52
51
50
50
50
50
50
49
47
45
42
40
37
35
33
30
28
26
25
24
23
23
22
22
22
21
21
20
20
19
19
19
22
26
32
40
47
55
61
66
68
68
67
64
61
57
54
51
48
47
46
47
47
48
48
47
46
44
42
40
38
35
33
30
28
27
25
24
24
23
23
22
22
21
21
21
20
20
22
25
30
37
44
52
60
66
69
71
70
68
65
62
58
54
51
49
47
47
47
48
48
48
47
46
44
41
40
37
35
33
31
29
27
26
25
24
24
23
23
23
22
22
21
21
20
20
22
26
32
40
48
58
66
72
75
77
77
75
72
68
64
61
57
55
53
52
52
53
52
52
51
49
47
45
42
40
38
35
33
31
29
28
27
26
25
25
24
24
23
23
22
21
21
20
19
20
24
29
37
45
54
63
70
75
77
77
75
72
68
64
60
56
53
51
51
50
51
51
50
49
48
46
43
41
39
36
33
31
28
26
25
24
23
22
22
22
21
21
21
21
20
19
18
18
17
19
19
28
36
36
53
62
62
72
73
73
71
68
68
60
56
53
50
49
48
49
49
50
49
49
47
45
43
41
39
36
33
31
29
27
26
24
23
23
22
22
22
22
22
21
20
20
19
19
21
25
32
40
49
59
67
74
78
80
80
78
75
70
64
59
54
50
47
46
47
47
47
48
47
46
44
42
40
37
35
32
29
27
26
24
23
22
21
21
21
20
20
20
20
19
18
17
17
17
20
26
33
42
52
63
71
78
81
82
80
77
72
67
61
57
53
50
49
48
49
49
49
49
48
46
44
41
39
36
33
30
27
25
23
21
20
20
19
19
18
18
18
18
17
17
16
15
14
15
17
22
29
38
48
58
67
74
78
79
78
75
71
67
62
57
53
50
49
48
49
49
50
50
49
47
45
43
40
37
35
32
29
27
25
24
23
23
22
22
22
22
22
21
21
20
19
19
21
25
31
39
48
58
67
74
79
79
80
78
78
69
64
64
55
52
52
50
50
50
51
52
52
49
47
47
42
40
37
34
32
29
27
26
24
24
23
23
23
23
22
22
22
21
21
22
24
29
36
45
56
67
76
83
87
89
88
86
82
77
72
67
63
59
57
57
57
57
57
57
56
54
52
49
46
43
40
37
35
32
30
28
27
26
25
24
24
24
23
23
22
21
20
20
21
24
30
38
47
58
69
77
83
85
86
84
80
74
69
64
59
55
52
51
51
51
52
52
51
50
48
45
42
40
36
33
30
27
25
23
21
20
20
19
19
19
18
18
17
17
16
16
16
18
23
30
40
49
60
69
76
80
81
80
77
72
67
62
57
50
51
52
52
51
49
47
45
42
39
36
33
30
28
26
24
23
22
22
22
22
22
21
21
20
20
21
24
29
37
45
56
67
76
83
86
87
86
82
77
72
66
61
57
54
53
52
53
54
54
54
53
51
48
45
40
38
35
32
30
28
26
25
24
23
23
23
22
22
22
21
21
21
23
28
35
44
55
67
78
86
91
93
92
89
85
79
73
68
63
59
57
56
56
57
57
57
55
53
53
47
44
44
37
34
34
29
27
27
24
23
23
23
22
22
22
21
21
20
20
22
26
33
42
53
65
75
83
88
90
89
85
80
74
68
62
58
54
52
51
51
52
52
52
51
49
46
42
40
36
33
29
27
24
22
21
20
19
19
19
19
19
19
18
17
17
17
18
22
28
36
46
57
68
76
82
84
83
80
75
69
63
58
53
50
49
48
49
50
50
50
50
48
45
42
40
37
33
30
28
25
24
22
21
21
21
21
20
20
20
19
19
20
23
28
36
45
56
67
76
83
87
88
86
82
77
71
65
59
55
52
50
50
50
51
51
51
49
47
44
41
38
35
32
29
26
24
22
21
20
20
19
19
19
19
19
18
18
18
19
23
29
39
49
61
73
82
88
91
91
89
85
79
73
67
62
58
55
53
53
53
53
53
52
50
48
45
41
38
35
32
29
26
24
22
21
20
19
19
19
19
19
19
18
17
16
15
15
18
24
24
42
55
55
77
85
85
90
88
88
78
72
72
59
55
55
50
49
49
50
50
49
48
46
43
40
37
33
30
26
24
21
19
18
17
16
16
16
16
16
15
15
14
13
13
12
14
17
24
33
44
56
68
78
84
87
87
84
79
73
66
60
55
50
48
47
47
48
49
49
49
47
45
42
40
36
32
29
26
23
21
19
18
17
17
17
17
17
17
16
16
15
15
15
16
21
29
39
50
63
75
84
90
93
92
89
84
78
71
65
59
55
52
51
51
51
52
52
51
49
47
43
40
37
33
30
26
24
21
19
18
17
17
16
16
16
16
16
16
15
14
14
14
17
23
31
42
55
68
79
88
93
95
93
88
82
74
65
57
52
47
45
44
44
45
45
45
44
43
40
38
34
30
27
23
20
17
15
14
13
12
11
11
11
11
11
11
11
10
9
9
10
13
19
28
40
52
65
76
83
87
88
85
81
75
68
61
55
50
47
45
45
46
47
48
47
46
44
41
39
36
32
29
26
23
21
19
17
16
16
15
15
15
15
15
14
14
14
16
20
28
37
48
61
72
81
87
89
88
84
79
72
65
59
53
53
47
46
46
48
49
49
49
47
47
41
39
39
31
27
27
21
19
19
16
15
15
15
15
15
15
15
15
14
15
18
24
33
43
57
70
81
90
94
96
94
90
84
78
71
65
59
55
53
52
52
53
53
53
52
49
47
43
40
36
32
29
26
23
21
19
18
17
17
17
17
16
16
15
15
14
14
15
19
26
36
48
61
73
82
88
90
90
86
81
74
67
61
55
50
48
47
47
47
48
48
47
46
43
40
37
34
30
26
23
20
18
16
15
14
13
13
13
13
13
12
12
11
11
11
14
19
28
38
49
62
73
81
85
86
85
81
75
69
63
57
52
49
47
47
48
48
49
48
47
45
42
40
36
33
29
26
24
21
19
18
17
16
16
16
16
15
15
15
15
15
18
23
31
40
52
65
76
85
90
91
90
86
80
74
67
61
55
51
49
48
49
49
50
50
49
47
44
41
38
35
31
28
24
22
20
18
17
17
16
15
15
15
15
15
14
14
14
17
23
23
42
55
55
79
87
87
92
90
86
80
73
66
60
55
52
50
49
49
50
50
50
49
46
43
40
37
33
29
26
23
20
18
16
15
14
13
13
13
13
12
12
11
10
10
12
17
25
35
46
59
71
80
85
87
86
82
77
70
63
57
52
48
46
46
46
47
47
47
46
45
42
40
36
32
29
25
22
20
18
16
15
14
14
14
14
14
13
13
13
13
13
16
22
30
40
52
64
75
82
86
86
84
79
73
67
61
55
50
47
46
46
46
47
48
48
47
44
41
38
34
31
28
25
22
20
18
16
15
15
15
15
15
15
14
14
13
15
19
26
36
47
59
70
78
83
84
83
79
75
69
64
58
53
49
46
45
45
45
46
46
45
43
41
38
35
31
28
24
21
19
17
16
15
15
14
13
13
12
12
12
11
11
12
15
21
29
39
50
61
69
75
77
77
75
71
66
61
56
52
48
45
44
44
45
45
44
43
41
39
37
33
30
27
24
22
19
17
16
15
14
14
14
13
13
12
11
10
10
9
10
11
15
21
29
39
48
57
64
68
69
68
65
65
56
52
52
44
42
42
40
41
41
42
41
41
39
36
36
30
28
28
23
21
19
18
16
15
15
15
14
14
14
14
13
13
12
12
13
16
21
27
35
43
51
58
62
63
63
62
58
54
50
46
42
40
39
39
40
40
41
41
40
40
38
36
33
30
28
26
24
23
21
20
19
18
17
17
17
17
17
17
16
15
15
14
15
19
25
32
40
49
56
62
64
65
64
61
58
55
51
48
45
43
42
41
42
42
42
42
41
40
39
37
34
32
29
27
25
24
23
22
21
20
20
20
19
19
19
18
18
17
16
16
15
17
20
26
34
41
49
56
60
61
61
59
56
53
49
46
43
40
40
40
40
40
41
41
41
41
40
39
37
34
32
30
28
26
24
23
22
21
21
21
20
20
20
20
19
19
18
18
18
19
21
26
33
40
47
54
59
61
62
60
58
54
50
47
43
40
39
39
39
40
40
41
41
41
40
40
38
36
34
32
32
28
27
27
25
24
24
24
24
24
23
23
23
23
22
22
21
21
22
26
31
38
46
54
61
66
68
69
67
65
61
58
54
51
48
46
46
46
46
47
48
48
48
46
45
43
41
39
37
35
33
32
30
29
28
27
27
27
26
26
26
26
26
25
24
24
23
24
27
33
40
47
56
63
69
72
72
71
69
66
62
58
54
51
49
47
47
47
48
48
48
48
47
45
43
40
39
36
34
32
30
28
27
26
25
24
24
24
23
23
23
22
22
21
20
20
22
26
32
40
47
55
62
67
69
69
68
65
61
58
54
51
48
47
46
47
47
48
48
48
48
46
44
42
40
38
36
34
32
30
28
27
26
25
25
24
24
24
23
23
22
22
22
25
29
36
43
52
60
67
71
74
74
73
70
67
63
59
55
52
51
50
50
51
51
51
51
50
48
46
44
41
39
36
34
32
29
28
26
25
24
24
24
23
23
23
22
22
21
20
21
25
30
38
46
56
65
72
77
80
81
79
76
72
68
64
60
56
54
53
53
53
53
52
52
50
48
46
43
40
38
35
33
30
28
26
25
24
23
22
22
21
21
20
20
20
18
17
17
19
22
22
37
46
46
64
70
70
75
75
75
68
63
63
54
50
48
46
46
46
46
46
46
45
43
41
40
37
34
31
29
26
24
23
21
20
19
18
18
18
17
17
17
16
15
15
14
15
17
21
28
36
45
54
62
68
71
72
70
67
63
58
53
49
46
44
43
43
43
44
44
44
43
42
40
38
36
33
30
28
26
24
22
21
20
20
20
19
19
19
19
18
17
17
16
16
18
22
29
37
46
56
65
71
75
76
76
73
69
65
60
56
52
49
48
47
47
48
48
48
47
46
44
41
39
37
34
31
29
27
25
24
23
22
22
21
21
21
21
21
20
20
19
18
18
19
22
28
36
45
56
66
74
79
82
82
81
77
72
67
62
58
55
52
51
51
51
51
51
50
49
47
44
41
39
36
34
31
29
27
25
24
23
22
22
21
21
21
21
20
19
18
17
17
17
19
24
30
39
48
59
67
74
74
79
77
77
70
64
64
54
51
51
46
46
46
46
46
46
45
43
43
39
36
33
31
28
26
23
22
20
19
19
18
18
18
18
18
18
17
16
16
15
15
16
20
26
34
42
52
62
69
74
76
76
73
69
64
59
55
50
47
46
45
45
46
47
47
46
45
43
41
39
37
34
31
29
27
25
24
23
22
21
21
21
21
21
20
20
20
20
21
25
31
39
48
59
84
82
79
74
68
68
57
53
53
49
49
49
50
50
50
49
47
47
42
39
39
33
31
28
26
25
23
22
22
21
21
21
21
20
20
20
19
19
20
24
30
39
49
61
72
81
86
89
89
86
82
77
71
65
60
54
52
51
51
52
52
51
50
48
46
43
40
38
34
31
29
27
25
24
23
22
21
21
21
21
20
20
19
19
18
17
18
22
29
38
48
59
70
78
84
86
85
82
77
71
65
59
54
50
48
47
47
48
48
48
47
46
43
41
39
36
32
30
27
24
23
21
20
19
19
18
18
18
18
17
17
16
16
15
16
20
25
34
43
55
66
75
82
85
85
82
77
71
65
59
53
49
47
46
46
47
48
48
48
46
46
41
39
39
33
30
30
25
23
23
20
19
19
19
19
19
19
19
18
18
18
20
24
30
39
50
62
73
81
87
89
88
85
80
74
68
62
56
52
49
48
48
49
49
50
49
48
45
42
40
36
33
30
27
25
23
22
20
20
19
19
19
19
19
19
18
18
17
18
20
26
34
44
56
68
79
87
91
92
90
86
80
74
67
61
56
52
50
50
50
50
50
50
49
47
44
41
38
35
32
28
26
23
22
20
19
18
18
18
18
18
18
17
17
16
15
16
19
25
33
44
56
68
78
84
87
87
85
80
73
67
61
55
50
47
45
45
45
46
46
45
44
42
40
37
33
30
27
24
21
19
17
16
15
15
15
15
15
15
14
14
14
13
13
14
18
24
33
43
56
67
76
82
84
84
80
75
69
62
56
51
47
45
44
45
46
47
47
47
46
43
40
38
35
31
28
25
23
21
19
18
18
17
17
17
17
17
17
17
17
19
19
31
40
40
63
74
74
87
89
89
84
78
78
64
58
53
49
46
46
47
47
48
49
48
46
43
40
38
35
31
28
25
23
21
19
18
18
17
17
17
17
17
17
17
17
18
23
30
40
51
65
77
87
94
97
96
93
88
81
74
68
62
57
54
52
51
51
52
51
51
49
46
43
40
37
33
30
27
24
22
20
19
18
18
18
18
18
17
17
16
16
16
17
20
27
37
48
61
73
84
90
93
93
90
85
79
72
66
60
55
51
49
49
49
49
49
49
47
45
42
39
35
32
28
25
22
19
18
16
15
15
14
14
14
14
13
13
12
11
11
12
17
24
34
45
58
70
78
84
86
85
81
75
69
62
56
50
46
44
43
43
44
44
44
43
42
40
37
34
30
27
24
21
18
16
15
14
14
13
13
13
13
13
13
13
13
13
14
18
25
33
43
55
66
74
80
82
81
78
73
66
60
54
48
44
42
42
42
44
45
45
45
43
41
39
36
33
30
26
24
21
19
18
17
17
16
16
16
16
15
15
15
16
19
24
32
41
53
65
76
84
88
89
88
84
78
72
65
59
54
50
49
49
48
49
49
50
49
49
44
40
40
34
30
30
24
21
21
18
17
17
16
16
16
17
16
16
16
16
16
19
24
33
43
56
69
81
90
96
98
96
93
87
81
74
68
62
58
55
54
53
53
53
53
51
49
47
43
40
37
33
30
27
24
22
20
19
19
18
18
18
18
18
17
17
16
16
18
22
29
40
51
64
76
86
92
94
93
89
84
77
70
63
57
53
50
48
48
48
48
48
47
45
43
40
37
33
29
26
22
20
17
16
15
14
13
13
13
13
13
13
12
11
11
11
13
18
26
36
47
60
72
81
86
88
87
82
77
70
63
56
51
47
45
45
46
47
48
48
47
46
43
40
37
34
30
26
23
21
19
17
16
15
15
15
15
15
15
15
14
15
16
20
27
36
47
59
71
81
87
90
89
86
80
74
67
60
54
50
47
47
47
48
49
49
48
47
44
41
39
35
31
28
25
22
20
18
17
16
16
16
16
16
16
16
15
15
15
16
16
28
39
39
65
78
78
95
98
98
95
90
83
76
69
63
58
55
53
53
53
53
53
53
51
48
45
41
38
35
31
27
25
22
20
19
18
18
17
17
17
17
17
17
16
16
16
18
23
32
42
56
70
82
91
96
98
96
92
85
78
71
64
58
54
51
50
50
51
51
51
49
47
44
41
38
34
30
27
23
21
18
17
16
15
15
15
15
15
15
14
14
13
13
15
19
26
36
47
61
73
83
89
92
91
87
81
74
67
60
54
50
47
47
48
49
50
50
49
48
45
42
40
36
33
29
26
24
21
20
19
18
18
17
17
17
17
17
17
19
22
29
38
49
61
73
83
89
92
92
88
83
75
68
61
55
51
48
47
48
49
50
50
50
48
45
42
40
36
32
29
26
23
21
20
18
18
17
17
17
17
17
17
16
16
18
23
30
40
53
67
80
91
98
101
100
97
92
62
59
55
52
49
48
47
47
47
47
47
46
45
44
42
40
39
37
35
34
32
31
30
29
29
29
28
28
28
28
28
28
27
27
28
30
34
39
44
51
58
63
66
67
67
65
62
59
59
51
48
48
44
43
43
44
44
44
43
42
42
40
38
38
34
32
32
29
28
28
27
27
27
27
27
27
27
27
26
26
26
26
27
30
35
40
47
53
59
64
66
66
65
62
59
55
51
48
46
44
43
43
43
44
44
44
44
43
41
40
38
36
34
33
31
30
29
29
28
28
28
28
28
28
28
27
27
27
29
31
35
40
47
54
60
65
68
69
68
66
63
59
55
52
49
46
45
45
45
45
45
45
45
44
42
41
40
38
36
34
32
31
29
28
28
28
27
27
27
27
27
27
27
27
27
27
30
34
40
46
53
60
66
69
70
70
68
65
61
57
53
50
47
45
45
44
45
45
45
44
43
42
40
39
37
35
33
31
29
28
27
26
26
25
25
25
25
25
25
25
25
24
24
25
28
32
38
44
51
58
63
66
67
66
64
61
57
53
49
46
44
42
42
42
43
43
43
43
42
40
40
38
36
34
32
31
29
28
28
28
27
27
27
27
27
27
26
26
26
27
29
29
38
44
44
57
62
66
67
67
65
61
58
54
50
46
44
42
42
42
43
43
44
44
43
42
40
39
37
35
33
31
30
29
28
27
27
26
26
26
27
27
27
26
26
26
27
29
33
39
45
53
60
66
70
71
71
69
66
63
59
55
51
48
46
45
45
46
46
46
46
45
44
42
40
39
37
35
33
31
30
29
28
28
27
27
27
27
27
27
27
26
26
26
27
30
34
40
46
54
61
65
68
69
67
65
61
57
53
49
46
44
42
42
42
42
43
43
42
42
40
39
37
35
33
31
29
28
27
26
25
25
25
25
25
25
25
25
24
24
24
24
25
28
33
39
45
53
59
64
66
67
66
63
59
55
51
48
45
43
42
42
42
43
43
43
43
42
41
40
38
36
34
32
31
29
28
28
27
27
27
27
27
27
27
27
27
27
28
30
35
40
47
54
61
66
69
70
69
67
63
59
55
51
48
46
44
44
44
45
45
45
45
44
43
41
40
38
36
34
32
31
29
28
28
27
27
27
27
28
28
28
27
27
27
27
29
33
38
44
52
60
66
71
71
73
71
68
65
61
61
53
50
50
46
46
46
46
46
46
45
44
44
41
39
37
35
33
32
30
29
28
28
27
27
27
27
27
27
27
27
26
26
26
27
30
35
40
48
56
63
68
70
71
70
67
63
59
54
51
47
45
43
43
43
43
44
44
43
42
41
40
38
35
33
31
29
28
27
26
25
25
25
25
25
25
25
25
25
25
24
24
24
25
28
33
39
46
53
60
65
68
68
67
64
60
56
52
48
45
43
42
42
42
43
43
43
43
42
41
40
38
36
33
31
30
28
27
26
25
25
24
24
25
25
25
25
25
25
24
24
25
27
31
37
44
52
60
66
70
72
72
70
66
62
57
53
49
46
44
44
44
45
46
46
46
46
45
43
41
40
37
35
33
31
30
29
28
27
27
27
27
28
28
28
28
28
28
28
27
27
27
30
34
40
47
55
63
69
73
74
73
70
66
62
57
52
49
46
44
43
43
44
45
46
46
47
46
46
42
40
40
35
33
33
30
29
29
28
27
27
27
27
27
28
28
28
27
27
27
26
26
27
29
33
39
45
52
67
64
60
56
51
47
43
40
39
39
40
40
41
41
42
42
41
40
38
36
34
32
30
28
27
26
25
24
24
24
24
24
24
24
24
24
23
23
22
23
25
29
34
40
48
56
62
67
69
69
67
64
60
55
50
45
42
41
40
40
41
42
42
42
42
41
40
38
36
34
32
30
29
27
26
25
24
24
24
24
24
25
25
25
25
24
24
24
26
30
35
42
50
59
66
71
73
73
71
68
63
59
54
50
47
45
44
44
44
45
46
47
46
45
44
42
40
38
35
32
30
28
27
26
25
25
25
25
25
25
26
25
25
25
24
24
25
28
32
39
45
54
61
67
71
73
72
70
67
62
58
53
49
46
44
43
43
43
44
44
45
44
43
42
40
39
36
34
32
30
28
27
25
25
24
24
24
24
24
24
24
24
24
25
27
31
37
43
51
58
64
68
69
69
67
63
59
54
50
46
43
41
41
41
42
43
43
44
43
42
41
40
38
36
34
32
30
29
28
27
26
26
25
25
25
25
26
26
29
33
33
45
52
52
66
71
71
72
70
70
61
56
51
47
43
41
40
40
40
41
42
42
42
41
40
39
37
35
33
31
29
28
26
25
25
25
25
25
25
25
25
25
26
28
32
37
43
51
59
65
70
72
72
71
68
64
60
55
51
48
45
44
43
43
44
44
44
44
43
41
40
38
36
33
31
29
27
26
25
24
24
23
23
23
23
22
22
22
23
25
29
34
40
48
55
62
66
68
68
67
64
59
55
51
47
43
41
40
40
41
42
43
43
43
42
40
40
38
35
33
32
30
28
27
26
26
26
25
25
25
25
26
27
29
33
38
44
51
58
64
68
70
69
67
64
59
55
50
46
43
41
41
41
42
43
43
44
43
42
41
40
38
36
34
32
30
28
27
26
26
25
25
25
25
25
26
26
28
32
38
44
52
60
66
71
74
74
72
70
66
62
57
53
49
46
43
42
42
43
44
44
44
44
41
40
40
36
34
34
30
29
29
27
26
26
26
26
26
26
26
26
27
29
33
39
45
52
60
66
69
71
70
68
64
60
55
51
47
44
42
41
41
42
42
43
43
42
41
40
38
36
34
32
30
28
26
25
25
24
24
24
24
24
24
23
23
24
26
30
35
41
49
56
62
66
68
68
66
62
58
54
49
46
43
41
40
41
41
42
43
43
42
41
40
39
37
35
33
31
30
28
27
26
26
26
25
25
25
26
26
28
32
37
42
49
56
62
66
68
68
66
63
59
55
51
47
44
42
41
41
42
43
43
43
43
42
41
40
38
36
34
32
30
29
27
27
26
26
26
26
26
26
26
27
30
34
40
46
54
61
67
71
72
72
70
66
62
58
54
50
47
45
44
44
45
45
46
45
45
44
42
40
39
37
34
33
31
30
28
28
27
27
27
26
26
26
26
26
28
30
35
40
46
53
60
64
66
67
65
62
58
54
50
46
42
40
40
39
40
40
40
40
40
39
38
36
34
32
30
28
26
24
23
22
21
21
21
21
21
21
21
21
22
25
29
34
40
47
55
60
64
66
66
63
60
56
51
47
43
40
40
39
39
39
40
40
40
40
40
40
37
35
35
31
29
29
26
25
25
24
24
23
23
23
24
24
26
30
35
40
47
54
60
64
66
66
64
61
57
52
48
44
41
40
40
40
40
40
41
41
41
40
40
38
36
34
32
30
28
27
26
25
24
24
24
24
24
24
24
25
28
32
37
43
51
58
64
68
70
70
68
64
60
56
52
48
45
43
42
42
42
43
43
43
42
41
40
39
37
35
33
31
29
28
27
26
25
25
25
25
25
25
25
25
26
28
32
38
44
52
58
64
67
68
67
64
61
56
52
47
44
41
40
40
40
40
40
40
40
40
39
38
36
34
32
30
28
26
25
24
23
23
22
22
22
22
22
22
23
24
26
30
36
42
49
56
61
64
65
64
62
58
54
49
45
42
40
39
38
39
40
40
41
41
40
40
39
37
35
33
31
29
27
26
25
24
24
24
24
24
24
24
25
26
28
32
38
44
51
58
64
68
69
68
68
62
57
57
48
45
45
40
40
40
40
41
41
41
41
41
39
37
37
33
31
30
28
27
26
25
25
24
24
24
24
24
24
25
26
30
35
40
48
55
62
67
70
71
69
67
63
58
53
49
46
43
42
41
41
42
42
43
42
42
40
40
38
35
33
31
29
28
27
26
25
24
24
24
24
24
24
24
24
25
27
32
38
44
51
59
64
68
69
68
65
61
56
52
47
44
41
40
40
40
40
40
41
41
40
40
38
37
35
32
30
29
27
26
25
24
23
23
23
23
23
23
23
23
24
27
31
37
43
51
58
63
66
67
66
64
60
55
51
46
43
41
40
40
40
41
41
42
42
41
40
39
38
36
34
32
30
29
28
27
26
26
26
26
26
26
26
27
30
34
39
45
53
60
66
70
71
71
68
65
60
56
51
47
45
43
42
42
43
44
44
44
44
42
41
40
38
36
34
32
30
29
28
27
27
27
27
27
27
27
27
27
29
33
38
44
52
60
66
71
73
73
71
68
64
59
55
51
48
45
44
43
44
44
45
45
44
43
42
40
39
36
34
32
31
29
28
27
27
27
26
26
26
26
26
25
26
27
30
35
41
41
55
62
62
68
68
68
63
59
59
49
45
45
40
40
40
40
40
40
40
40
40
38
37
35
32
30
29
27
26
24
24
23
23
23
23
23
23
23
23
24
27
31
37
43
50
57
62
65
66
65
62
58
54
49
45
42
40
40
39
40
40
41
41
41
40
40
38
36
34
32
31
29
28
27
26
25
25
24
24
25
27
30
36
41
48
56
62
66
68
68
66
63
58
53
49
45
42
40
40
40
40
41
42
42
42
41
40
38
37
35
33
31
29
28
27
26
26
26
26
26
26
26
26
27
28
31
37
42
50
59
66
72
75
75
74
71
67
62
58
53
50
47
46
45
45
45
45
45
45
43
42
40
39
37
34
33
31
29
28
27
27
27
26
26
26
26
26
26
27
29
33
38
44
51
59
64
68
69
68
66
62
57
53
48
45
42
40
40
40
40
40
40
40
40
38
37
35
33
31
29
27
26
25
24
23
23
23
23
23
22
22
22
22
22
25
29
29
40
48
48
60
63
63
64
61
61
53
49
49
41
40
40
38
38
39
40
40
40
39
38
37
35
33
31
30
28
27
25
25
24
24
23
23
23
23
23
24
25
27
31
36
41
48
55
60
64
65
64
62
59
55
51
47
43
41
40
40
40
40
40
40
40
40
39
38
36
34
32
31
29
28
26
25
25
24
24
24
24
24
24
24
24
25
27
31
36
42
49
56
62
66
68
68
66
63
60
55
51
48
45
43
42
42
42
42
42
42
42
41
40
38
36
35
33
31
29
28
27
26
25
25
25
25
25
25
25
24
24
25
26
29
34
40
47
54
60
64
67
67
65
62
58
54
49
45
42
40
40
40
40
40
40
40
40
40
38
37
35
33
31
29
27
26
25
24
23
23
23
23
23
23
23
23
23
23
24
28
33
39
45
52
58
62
65
65
63
61
57
52
48
45
42
40
40
40
40
41
42
42
41
41
40
39
37
35
33
31
30
29
28
27
26
26
26
26
26
26
26
26
27
29
33
39
44
52
59
64
68
69
69
67
63
59
55
51
47
44
43
42
42
43
43
44
44
43
42
41
40
38
36
34
32
30
29
28
27
27
27
26
27
27
26
26
26
27
28
28
36
41
41
56
63
63
71
72
72
68
64
60
56
52
48
46
44
43
44
44
44
44
44
43
42
40
39
37
35
33
31
29
28
27
26
25
25
25
24
24
24
24
23
23
24
26
30
36
42
49
56
61
64
65
64
62
58
54
50
46
43
40
40
39
39
40
40
40
40
40
39
37
35
33
32
30
28
26
25
24
23
23
23
22
22
22
22
22
23
24
27
31
37
42
49
55
59
62
62
61
59
55
51
47
44
41
40
39
39
40
40
40
41
40
40
39
38
36
34
33
31
29
28
27
26
26
25
25
25
25
25
25
25
27
29
34
39
45
52
59
64
67
68
56
52
49
46
44
43
43
43
44
44
44
44
42
41
40
38
37
35
33
32
30
29
29
28
28
28
28
28
28
28
27
27
28
30
33
39
44
51
58
64
68
70
70
68
66
62
58
54
51
48
46
45
45
45
46
46
45
44
43
41
41
38
36
36
33
31
31
29
28
28
27
27
27
27
26
26
26
25
25
28
31
36
42
49
55
61
64
65
65
63
60
56
52
48
45
42
40
40
40
41
41
41
41
40
40
39
37
35
33
31
30
28
27
26
26
25
25
25
25
25
24
24
24
24
25
28
32
38
43
50
56
60
63
63
62
60
56
52
48
45
42
40
40
40
40
41
41
41
41
40
40
39
37
35
33
32
31
29
28
28
27
27
27
27
27
27
27
27
28
31
36
40
47
53
60
64
66
67
66
63
60
56
52
49
46
44
43
43
43
43
44
44
43
42
41
40
38
36
34
33
31
30
29
28
28
27
27
27
27
27
27
26
27
29
32
36
41
48
55
60
64
65
65
64
61
58
54
51
48
45
43
42
42
42
42
42
42
41
40
39
37
36
34
32
31
29
28
27
27
26
26
26
26
25
25
25
24
24
25
27
31
35
40
46
51
55
58
59
58
56
54
51
48
45
42
41
40
40
40
40
40
40
39
38
37
35
34
32
31
29
28
27
26
25
24
24
24
23
23
23
23
22
22
22
22
23
25
29
34
39
44
48
51
52
52
51
60
55
50
45
41
38
36
35
35
36
36
36
36
35
35
30
28
28
22
19
19
15
13
13
10
10
10
9
9
9
8
8
8
8
8
11
16
23
32
40
49
56
61
63
62
60
56
52
47
43
40
37
36
36
37
38
39
39
39
37
36
34
31
29
27
25
23
21
20
19
18
17
17
17
17
16
16
16
15
16
18
22
29
38
47
57
64
69
72
72
70
66
62
58
53
49
46
44
43
43
44
45
45
45
44
42
40
38
36
33
31
29
27
25
23
22
21
21
20
20
20
20
19
18
18
19
21
26
33
41
51
61
68
73
75
75
73
69
65
60
56
52
49
47
46
46
46
47
47
46
45
43
41
39
37
34
32
29
27
25
23
22
21
20
19
19
18
18
17
16
16
15
17
20
26
35
43
53
63
69
73
74
73
71
67
62
58
53
50
47
46
46
47
47
48
48
47
46
44
41
39
36
34
31
29
27
25
24
23
22
21
21
21
21
20
20
20
19
20
23
29
36
45
55
65
65
77
79
79
76
72
72
62
58
58
50
48
48
48
49
49
50
49
49
46
43
40
38
35
32
30
28
26
24
23
22
21
21
20
20
20
19
19
18
18
20
25
33
42
53
64
74
81
85
87
86
83
79
73
68
63
58
55
53
52
52
52
52
52
51
49
46
43
40
38
34
31
28
24
21
17
15
12
11
10
9
9
9
9
8
7
7
7
9
14
22
32
43
56
67
76
81
83
82
79
74
68
62
56
51
47
45
44
44
44
44
44
43
41
40
37
34
31
27
24
21
18
16
14
13
12
12
11
11
11
11
11
10
10
9
9
12
17
25
35
46
58
68
75
79
80
78
75
69
63
56
51
46
43
42
42
43
43
44
44
43
42
40
38
35
31
28
25
23
20
18
17
16
15
15
14
14
14
14
14
14
16
21
28
38
48
60
71
79
84
85
84
80
75
68
62
56
51
47
45
44
44
45
45
45
45
43
41
39
36
33
31
28
25
23
21
19
18
17
17
16
16
16
16
16
16
16
18
22
29
40
51
65
77
87
92
95
94
90
85
79
72
66
60
56
53
51
50
50
50
50
49
47
45
42
39
35
31
28
24
20
18
15
14
14
12
12
12
11
11
11
10
10
10
14
20
20
40
51
51
73
79
79
81
78
72
65
58
51
45
41
39
37
37
38
38
38
37
36
34
31
28
25
22
19
16
14
12
10
9
8
7
7
6
6
5
5
4
3
3
5
9
15
24
34
44
54
61
65
67
65
62
57
52
46
41
38
35
34
34
34
35
35
34
33
31
29
26
24
22
19
17
15
13
11
10
9
8
8
8
7
7
7
7
6
7
10
15
22
30
40
48
56
61
63
63
61
58
53
48
44
40
39
37
37
38
38
39
39
39
37
36
33
31
29
26
24
22
20
18
17
16
16
15
15
15
14
14
14
14
16
20
26
34
42
52
61
68
73
74
74
72
68
63
59
54
50
47
45
45
45
45
45
45
44
43
40
39
36
33
31
28
26
24
23
22
21
20
20
20
19
19
19
18
18
18
21
26
33
41
51
61
69
74
77
78
76
73
68
64
59
55
51
48
47
46
46
46
46
45
44
44
40
37
37
32
29
29
24
22
22
19
18
18
17
17
17
17
16
16
15
16
16
24
32
40
50
60
68
73
76
76
73
70
65
60
55
51
47
45
45
45
46
46
46
45
44
42
40
37
35
32
30
28
26
24
23
22
22
21
21
21
20
20
19
19
21
25
31
40
48
58
67
74
78
79
78
75
71
65
60
55
51
48
46
46
46
47
47
47
46
45
42
40
38
35
32
30
27
26
24
23
22
22
21
21
21
20
20
20
20
22
26
33
41
51
63
73
80
85
87
86
83
79
73
68
62
58
54
52
51
50
51
51
50
49
47
45
42
40
37
34
31
28
26
24
23
22
21
21
21
20
20
19
18
18
18
19
23
29
38
48
60
70
78
83
85
84
81
75
69
63
57
53
49
46
45
45
45
46
45
44
42
40
38
35
32
29
26
24
22
20
18
17
17
16
16
16
15
15
14
14
14
15
19
25
33
43
54
65
74
79
81
80
77
72
66
59
54
49
46
44
44
44
45
46
46
45
44
41
40
36
33
30
27
25
23
21
20
19
19
18
18
18
17
17
17
17
19
23
30
39
49
60
71
79
84
86
85
81
76
70
63
57
52
49
46
45
45
46
47
47
46
44
44
40
37
37
31
28
28
23
21
21
18
18
18
17
17
17
17
17
16
16
16
17
20
27
36
47
60
72
82
89
92
92
89
85
80
74
68
63
59
56
55
54
54
54
54
52
51
48
45
42
39
36
33
30
27
25
24
22
21
19
17
15
14
13
12
11
10
9
9
8
8
11
16
25
36
47
59
69
76
80
80
78
74
69
63
57
52
48
45
43
42
43
43
42
41
40
39
36
33
30
27
24
21
19
17
15
14
13
13
12
12
12
12
11
11
11
10
9
8
7
6
7
9
15
23
33
43
54
63
69
72
72
70
67
62
57
52
47
44
42
41
41
42
43
43
43
42
40
38
36
33
30
28
25
23
21
20
18
17
17
16
16
16
16
16
16
16
15
14
13
13
13
16
21
29
39
49
59
68
74
77
77
75
72
67
62
57
52
49
46
45
44
45
45
46
46
45
43
41
39
37
34
31
28
26
24
22
21
20
19
19
19
18
18
18
18
17
17
16
15
15
13
15
15
25
33
33
53
63
63
76
77
77
72
68
62
56
51
47
44
42
41
41
41
42
42
42
40
39
37
34
31
28
26
23
21
19
17
16
15
14
13
13
12
12
12
12
12
11
10
10
9
9
11
16
24
34
43
54
64
70
73
74
72
68
64
58
53
49
45
42
41
41
42
42
43
43
43
42
41
40
37
35
32
30
28
26
24
22
21
20
19
19
19
19
19
19
19
18
17
17
18
21
27
35
44
54
64
72
77
79
78
76
72
67
62
57
52
49
47
46
46
47
47
48
48
47
46
44
41
39
37
34
31
29
27
25
24
23
22
21
21
21
21
21
20
20
19
19
19
21
26
34
43
54
66
75
82
86
87
85
82
77
72
67
62
57
54
52
51
52
52
52
52
52
50
48
45
43
40
37
34
31
28
26
24
22
21
20
19
19
19
19
18
18
17
16
15
15
15
19
25
33
43
55
66
75
81
84
84
82
78
73
67
62
57
53
50
48
48
49
49
50
49
49
47
44
42
39
36
33
30
27
25
22
21
19
18
18
17
17
18
18
18
17
17
17
17
19
24
31
40
51
63
73
80
84
86
86
81
76
76
64
58
58
50
48
48
48
48
48
49
48
48
45
43
43
38
35
35
29
21
20
19
19
18
18
18
18
17
17
16
17
21
28
37
48
61
73
83
89
93
93
91
87
81
75
69
63
58
55
53
52
52
53
53
53
52
50
50
44
41
41
35
32
32
27
24
24
21
20
20
19
18
18
18
17
16
15
14
15
18
24
32
42
55
67
76
83
86
86
83
79
73
66
59
53
49
46
44
44
44
45
45
45
44
42
40
38
35
32
28
25
23
20
18
17
16
15
14
14
14
14
13
13
12
12
11
12
14
20
28
39
49
61
70
77
80
81
78
74
68
62
56
51
47
44
43
44
44
45
46
46
46
44
42
40
37
34
31
28
26
24
22
21
20
19
19
19
19
19
19
18
18
19
21
27
35
44
56
68
78
85
89
90
88
85
79
74
68
62
57
54
52
52
52
53
53
53
52
50
47
44
41
38
35
32
29
27
25
23
22
22
21
21
20
20
20
19
19
19
21
26
26
41
53
53
75
83
83
89
88
88
79
73
66
61
55
51
48
47
47
48
48
48
47
45
43
40
37
34
31
27
25
22
19
18
16
15
14
14
14
13
13
12
12
11
12
15
21
29
40
51
62
71
78
81
81
78
73
67
61
55
50
45
43
42
42
43
44
45
44
43
42
40
38
35
32
29
27
25
23
21
20
19
18
18
17
17
17
17
17
18
21
27
35
44
55
67
76
83
86
86
84
79
73
67
60
55
50
48
46
47
47
48
49
49
47
45
43
40
38
35
31
28
26
24
22
21
20
19
19
19
19
18
18
18
18
19
23
30
39
50
62
75
85
92
95
94
91
86
80
73
66
61
56
53
51
51
51
51
51
51
49
47
44
41
39
35
32
29
26
23
21
20
19
18
18
18
17
17
16
16
15
15
18
23
31
41
53
65
75
83
86
86
83
79
72
65
59
52
47
44
42
42
42
43
43
43
42
40
39
36
32
29
25
22
20
17
15
14
13
13
13
13
12
12
12
11
11
12
16
22
31
41
54
66
75
82
85
84
81
76
69
62
55
50
45
43
42
43
44
45
45
45
44
42
40
38
34
31
31
25
23
23
19
18
18
17
17
17
16
16
16
16
17
22
29
39
39
64
76
86
91
94
92
89
83
76
69
62
57
52
49
48
48
49
49
49
49
47
45
42
40
36
33
30
27
24
22
21
20
19
19
19
19
18
18
17
17
17
18
22
29
39
51
64
77
87
93
95
94
91
85
78
70
64
58
53
50
49
49
49
50
50
49
47
44
41
38
35
31
28
25
22
20
19
17
16
16
15
15
15
15
14
13
12
12
12
14
20
28
39
52
65
76
84
87
88
85
80
73
65
58
52
47
43
42
42
42
43
43
43
41
40
37
34
30
26
23
20
18
16
15
13
12
12
12
11
11
11
10
10
10
10
12
16
23
32
42
54
65
73
78
80
78
74
68
61
55
48
43
40
39
39
40
40
41
41
40
40
38
35
32
29
26
24
21
19
18
17
16
16
15
15
15
14
14
13
14
16
20
27
37
48
60
72
80
85
87
86
82
77
70
64
58
53
49
46
46
46
46
47
47
47
44
42
42
36
33
33
27
24
24
20
19
19
18
17
17
17
17
17
16
16
16
17
20
26
35
45
58
69
79
85
88
87
84
79
73
66
60
54
50
47
45
44
44
45
44
43
42
40
37
34
31
27
24
21
19
17
15
14
13
13
13
12
12
12
11
10
10
9
11
14
21
30
40
50
60
67
71
72
71
67
62
56
51
45
41
39
37
36
36
37
37
37
36
34
32
29
26
23
21
18
16
14
13
12
11
10
10
9
9
8
8
7
7
7
9
13
19
27
36
44
52
57
59
60
58
56
52
48
43
40
38
36
35
34
35
35
35
34
33
31
29
27
24
22
20
18
17
16
15
14
14
13
13
13
13
12
12
11
11
10
9
10
13
18
25
33
41
48
54
57
57
56
54
51
48
45
42
40
38
36
36
36
37
37
36
35
34
32
30
28
26
24
22
21
19
18
17
17
16
16
16
15
15
15
15
15
14
14
13
13
13
16
20
26
34
40
48
53
56
56
55
53
50
47
43
40
38
37
36
36
36
37
38
38
37
37
35
33
32
30
28
26
25
24
23
22
22
22
22
22
22
22
22
22
21
21
20
19
20
22
26
32
38
38
51
56
56
59
57
57
52
48
48
41
40
40
37
37
37
39
39
39
40
39
38
36
35
33
31
30
28
27
27
26
25
25
25
25
25
25
25
25
25
24
24
24
25
28
33
39
45
53
60
64
66
66
64
61
58
54
51
48
45
43
42
42
43
43
43
43
43
42
40
39
38
36
34
33
31
30
29
28
27
27
26
26
26
26
26
25
25
24
23
22
22
23
27
32
39
46
54
60
64
66
66
64
61
58
54
50
47
45
43
43
43
44
45
45
45
44
43
42
40
39
37
35
33
32
30
29
28
27
27
26
26
26
26
26
25
25
24
24
25
28
32
38
45
52
59
64
67
68
66
64
60
56
52
49
46
44
44
44
45
46
47
47
46
46
44
42
41
40
38
36
34
32
31
30
30
29
29
29
29
29
28
28
28
28
29
32
36
42
50
59
66
72
75
76
75
72
69
65
61
58
54
52
51
50
51
52
52
53
52
51
50
48
46
43
41
40
40
36
35
35
33
32
32
31
31
31
30
30
30
28
29
29
35
40
40
56
64
64
76
78
78
77
75
71
68
64
61
58
56
55
55
55
55
55
55
54
52
49
47
44
41
39
36
34
32
30
29
28
27
26
26
25
24
23
23
22
23
26
31
38
45
53
61
67
71
73
72
70
66
62
58
54
50
48
46
46
46
47
47
47
47
45
44
43
41
40
38
35
33
31
29
27
26
24
23
22
21
20
19
19
20
23
29
36
44
52
61
67
71
72
72
69
65
60
56
51
48
46
45
45
46
46
47
46
46
44
42
40
38
36
33
31
29
27
25
24
23
22
22
22
24
27
33
40
48
57
65
71
75
77
76
73
69
64
59
54
50
48
47
47
47
47
48
47
46
45
43
40
39
36
33
31
29
27
26
25
24
24
23
23
23
22
22
23
25
30
37
45
56
66
75
82
86
87
86
84
80
75
71
66
62
59
56
55
54
54
53
52
51
48
46
43
40
38
35
32
30
29
27
26
25
23
21
19
17
15
13
13
15
20
27
35
43
53
60
66
69
69
68
65
62
57
53
49
45
42
41
40
40
40
40
39
38
36
33
30
28
25
23
21
19
18
16
16
15
14
14
14
13
13
12
11
11
11
14
14
26
34
34
50
56
56
61
61
61
56
52
48
45
41
40
38
37
37
37
37
36
35
34
32
29
27
25
23
21
19
18
17
16
15
15
14
14
14
13
12
11
10
10
9
10
12
16
22
30
37
43
48
51
51
50
48
45
41
39
36
33
31
30
30
31
31
32
31
31
30
28
26
24
22
20
19
17
16
15
15
14
14
14
14
14
14
13
13
12
12
11
12
14
17
23
29
36
41
46
49
50
49
46
43
40
37
34
32
31
30
30
31
32
33
33
33
32
31
30
28
27
25
24
23
22
21
21
20
20
20
19
19
19
20
23
26
32
37
42
48
52
54
54
52
50
47
43
40
38
35
34
34
34
35
36
37
37
37
36
35
33
32
30
29
27
26
25
25
24
24
24
24
24
24
24
23
23
23
24
26
31
37
43
50
56
61
64
64
63
61
58
54
51
48
45
43
42
42
42
42
43
43
42
41
40
39
37
37
34
32
32
30
29
29
28
28
28
27
27
27
26
26
26
27
30
30
40
46
46
58
61
63
63
61
59
56
53
50
47
44
43
42
42
42
43
43
43
42
41
40
39
37
35
34
33
31
30
30
29
27
26
24
23
22
20
20
19
19
19
21
25
31
37
43
49
54
56
56
54
52
48
45
42
39
37
35
34
34
34
35
36
36
35
35
34
32
31
29
27
26
24
23
22
21
21
20
20
19
19
18
17
17
16
16
16
17
20
25
31
37
43
48
51
53
53
51
48
45
41
39
37
34
33
33
34
35
35
36
35
35
34
33
31
30
28
27
26
25
24
23
23
23
23
23
23
24
25
28
32
37
41
46
50
52
53
51
59
54
48
42
38
34
32
32
33
35
37
39
40
39
38
36
33
31
28
25
23
21
19
18
17
16
15
15
15
15
18
24
33
43
55
67
76
83
85
85
83
76
69
62
56
49
43
41
40
41
43
44
45
44
43
40
38
35
32
29
26
23
21
19
18
17
17
16
17
17
17
17
17
18
22
29
40
51
65
78
89
95
97
95
92
87
80
74
67
62
57
54
52
52
53
54
54
54
53
50
47
43
39
35
32
29
26
26
22
20
20
17
15
15
11
8
8
3
3
3
14
24
24
45
55
55
61
59
55
49
42
36
30
25
21
19
20
24
28
32
36
40
40
40
40
40
39
37
35
33
29
28
27
26
27
28
29
30
32
33
34
35
39
44
52
61
71
80
87
90
90
87
82
76
68
61
53
47
41
36
33
32
31
31
31
33
33
33
32
32
33
35
35
35
34
34
31
28
26
24
22
20
19
21
27
33
41
50
58
63
65
64
61
57
53
48
43
40
37
36
36
38
40
41
43
43
42
40
38
34
29
23
17
11
6
2
0
0
0
0
0
0
0
0
0
0
0
6
16
28
41
56
70
79
85
86
85
82
78
73
69
65
60
57
55
54
56
58
61
65
66
65
63
59
54
49
44
40
38
34
31
28
26
24
22
20
19
18
18
18
21
28
38
50
63
75
85
90
92
90
87
82
77
71
65
59
55
52
51
51
51
52
52
51
50
47
44
41
38
35
32
30
27
26
26
23
22
22
21
22
22
32
41
41
67
79
79
95
97
97
93
87
87
73
65
65
52
48
46
46
46
47
48
48
47
46
43
41
38
36
33
31
29
27
25
24
23
22
21
20
19
18
18
18
23
31
42
56
71
85
96
102
105
104
101
97
66
63
60
57
54
52
51
50
50
50
50
49
48
47
45
43
41
40
38
36
34
32
31
30
29
29
28
27
27
26
26
26
27
31
36
41
49
56
61
65
66
66
64
62
59
55
52
49
46
44
43
42
42
42
42
42
41
40
40
38
37
35
34
32
31
29
28
27
26
26
25
25
24
23
22
22
22
24
28
34
40
47
53
59
62
63
62
60
57
54
50
47
44
41
40
40
40
40
40
40
40
40
39
38
36
35
33
32
30
29
28
27
26
26
25
25
24
24
24
25
27
31
36
42
49
55
61
63
64
64
62
59
56
52
49
45
43
41
40
40
41
41
41
41
40
40
39
38
36
35
33
32
31
29
28
27
27
26
25
25
24
24
24
24
25
28
33
40
46
54
60
65
67
67
66
64
61
57
54
51
47
45
43
42
42
42
43
43
43
42
41
40
39
37
36
34
32
31
29
28
28
27
26
26
25
24
24
23
23
24
26
26
36
41
41
54
58
58
60
59
59
53
49
49
42
40
40
37
36
37
38
38
38
38
38
37
36
35
33
32
30
28
27
26
24
23
22
22
21
20
20
20
19
19
20
23
28
34
40
47
53
58
60
60
58
55
52
48
44
41
39
37
37
36
37
38
38
38
38
38
37
35
34
32
30
29
27
26
24
23
22
22
21
21
21
20
20
21
23
26
31
37
43
50
56
60
63
63
62
59
55
52
48
44
42
40
40
40
40
41
42
42
42
41
40
40
39
38
36
35
34
33
32
31
30
29
28
28
27
28
29
33
38
44
51
59
65
70
72
73
72
69
66
62
58
55
52
49
48
48
48
49
49
50
50
49
48
46
45
43
41
40
38
37
35
33
32
31
30
29
29
28
29
31
35
40
48
56
64
71
76
78
79
78
75
72
68
64
60
57
54
53
53
53
53
53
53
52
51
50
48
45
43
41
39
37
35
33
32
30
29
28
27
26
26
25
26
29
29
40
47
47
64
71
71
77
77
77
72
68
68
58
54
54
48
47
47
46
47
47
46
45
44
42
40
39
36
34
31
29
27
25
24
22
21
21
20
19
19
18
19
21
25
32
39
47
55
63
68
72
73
71
69
64
59
54
50
46
44
43
43
44
44
45
45
45
44
42
41
40
38
36
34
31
29
28
26
25
24
23
22
22
21
22
24
28
35
42
51
60
68
75
78
80
79
76
71
66
61
56
52
50
48
48
48
49
49
49
48
47
45
43
41
39
37
35
33
31
29
27
26
25
24
24
23
23
23
23
25
29
36
44
54
64
73
80
85
87
86
83
79
74
68
63
59
55
53
52
52
52
52
52
52
50
48
46
43
41
39
36
33
31
29
27
26
25
24
23
23
22
22
22
22
23
26
32
40
48
59
69
78
83
86
86
84
80
74
68
63
57
53
50
48
48
48
48
48
47
46
44
42
40
37
34
32
29
26
24
22
20
19
18
18
17
17
16
16
15
16
17
21
27
36
45
56
66
73
78
80
79
76
71
65
59
54
49
46
44
43
43
44
44
45
44
43
41
40
38
35
32
30
27
25
23
22
21
21
20
20
20
19
19
19
20
23
23
36
44
44
64
73
73
82
83
83
76
71
71
58
53
53
46
45
45
46
47
48
48
47
46
44
41
40
37
34
31
29
27
25
24
23
22
22
21
21
21
20
21
22
27
33
42
53
65
76
84
89
91
91
88
83
77
71
65
59
55
52
51
50
51
51
51
51
50
48
45
42
40
37
34
31
29
27
25
23
22
22
21
21
20
20
20
20
22
27
34
43
54
66
76
85
90
91
90
87
81
75
69
63
58
54
51
50
49
49
50
50
49
47
45
42
40
36
33
30
27
24
22
20
18
17
16
16
15
15
14
14
14
15
19
26
35
45
56
68
77
82
85
84
80
75
68
61
55
49
45
43
42
42
43
44
44
44
43
41
40
37
34
31
28
25
23
21
19
18
17
16
16
16
15
16
17
20
25
32
41
52
63
73
81
85
86
84
79
73
66
60
54
49
46
45
45
46
47
47
48
47
45
43
41
39
36
33
30
28
26
24
23
22
21
20
19
19
19
20
23
28
37
37
59
71
71
91
96
96
95
91
91
79
72
72
60
56
56
53
53
53
54
54
53
51
49
46
42
40
37
34
31
29
27
25
24
23
23
22
22
21
21
23
26
33
41
53
66
78
89
96
99
99
96
91
85
78
71
65
59
56
54
53
53
53
53
52
51
49
46
42
40
37
33
30
27
25
23
22
21
20
19
18
18
17
16
17
19
25
33
43
55
68
78
86
89
90
87
82
76
69
62
56
50
47
44
44
44
45
45
44
43
41
39
36
33
29
26
23
20
18
16
15
14
13
13
13
12
12
11
12
14
18
25
35
46
58
69
78
83
85
84
80
74
67
60
54
49
45
43
43
43
44
44
44
43
42
40
37
34
31
28
26
23
21
20
19
18
17
17
17
16
16
16
18
22
29
38
49
61
73
82
88
90
89
85
80
73
65
59
53
49
46
44
44
45
45
44
44
42
40
37
34
30
27
23
20
17
15
13
11
10
9
9
8
7
6
5
5
8
15
24
36
49
63
75
84
90
92
92
90
86
81
75
68
62
56
52
49
48
48
48
47
45
42
40
37
33
30
27
24
22
20
19
17
16
16
15
14
13
12
11
11
13
18
25
25
45
57
57
78
83
83
83
79
79
66
59
59
46
41
41
39
39
39
40
40
40
40
37
35
31
28
25
22
19
16
14
12
11
10
10
9
9
8
8
8
9
13
19
28
39
51
63
73
80
83
83
80
74
68
60
54
48
44
41
40
41
42
42
43
43
41
40
37
34
31
28
25
22
19
17
16
14
14
13
12
10
9
9
10
14
22
32
43
55
67
77
83
85
84
81
75
68
62
55
49
45
42
41
41
42
43
43
43
41
40
36
33
29
26
23
20
18
16
15
14
13
13
12
12
12
13
15
20
28
38
50
64
76
86
92
95
94
90
85
79
72
65
58
53
50
48
47
47
47
48
47
46
43
40
37
33
30
27
24
22
19
18
16
15
15
14
14
13
13
14
17
23
32
42
54
66
76
82
85
85
83
78
71
64
57
50
45
42
40
40
41
42
42
42
41
40
37
34
30
27
23
20
17
15
13
11
10
10
9
8
7
7
7
42
55
55
76
82
82
83
80
80
67
60
60
48
44
44
42
43
43
45
45
45
43
41
39
35
32
29
25
22
20
18
17
15
15
14
13
13
13
15
20
27
36
47
59
71
80
86
89
88
85
79
73
66
59
53
48
46
45
45
46
46
47
46
45
43
40
37
34
31
27
24
21
19
17
16
15
15
14
14
13
14
16
21
30
40
53
66
78
88
94
96
95
92
86
79
72
65
58
53
50
49
49
49
50
50
49
48
45
42
39
36
32
28
25
22
20
19
17
16
16
15
15
14
14
14
15
19
26
36
47
61
74
85
92
96
96
93
88
80
73
65
59
53
50
48
47
47
48
48
48
46
44
41
38
35
31
27
24
20
18
16
14
13
12
11
11
10
10
9
9
10
15
22
32
43
57
69
79
86
88
88
84
78
70
62
55
48
44
41
40
40
41
42
42
41
40
38
35
31
27
23
20
16
13
10
8
7
7
6
7
8
8
8
9
11
15
22
31
42
54
67
78
85
89
89
86
80
72
64
56
49
44
40
40
40
41
43
44
44
44
42
40
38
34
31
28
25
22
19
17
15
14
13
13
15
19
26
35
46
58
70
80
86
89
88
84
78
71
63
63
49
44
44
41
42
42
45
46
46
45
43
43
39
36
36
30
27
27
22
20
19
18
17
17
20
27
36
46
59
71
83
90
95
96
93
88
81
73
65
57
51
47
44
44
44
45
46
46
45
43
41
39
36
33
30
27
24
21
19
17
15
14
15
20
27
37
49
62
75
84
90
93
92
88
82
75
68
61
54
50
47
47
47
48
49
49
48
47
44
41
39
35
31
28
24
22
19
17
15
13
13
16
23
33
45
59
75
88
98
104
106
105
101
95
64
60
56
53
50
48
46
46
45
45
44
43
42
40
39
37
35
33
31
29
28
26
25
24
24
24
23
23
22
22
23
25
28
33
39
45
52
57
62
64
65
65
63
61
58
55
51
48
46
44
42
41
40
40
40
39
38
37
35
33
32
30
28
27
26
25
24
23
23
23
22
22
21
21
21
20
21
24
27
31
37
41
45
49
51
51
51
51
59
55
51
46
42
40
37
36
35
34
34
33
32
30
28
25
23
23
18
16
16
12
10
10
8
7
7
6
6
6
5
5
5
4
3
3
4
6
12
19
27
36
43
49
52
54
53
51
49
45
42
39
36
33
32
31
31
31
31
31
31
30
29
27
26
24
22
20
18
17
16
15
14
14
13
13
13
13
13
12
12
12
11
11
10
10
10
13
18
24
30
38
43
47
49
49
48
46
43
40
37
34
31
29
28
28
28
29
29
30
29
29
28
26
25
23
22
20
19
18
17
16
15
15
14
14
14
14
14
14
14
14
13
12
10
9
8
10
13
18
24
30
35
38
39
38
36
34
31
28
25
23
21
20
20
21
22
23
24
24
25
24
24
23
22
21
19
18
17
16
15
14
14
13
13
12
12
12
12
12
13
12
12
12
12
13
15
18
22
26
30
33
35
36
35
33
31
27
24
21
19
18
17
18
19
20
20
21
22
22
21
21
20
19
18
17
16
14
14
13
12
12
11
11
11
11
11
11
11
11
11
11
13
16
20
24
29
33
35
36
36
35
33
30
27
24
21
19
18
19
19
20
22
23
24
23
23
23
23
23
22
21
20
20
19
18
18
17
16
16
16
16
17
18
21
25
29
33
37
40
41
41
40
38
38
26
21
21
14
13
13
14
16
16
19
20
20
22
21
21
20
18
18
15
14
14
11
10
9
8
7
7
6
6
7
10
16
24
34
44
55
64
70
72
72
69
64
59
53
48
44
41
40
39
40
40
42
43
44
45
44
43
41
40
38
36
34
31
30
28
26
25
23
22
21
21
22
25
32
40
51
62
73
81
86
87
86
83
78
73
67
62
57
53
51
50
51
51
52
53
53
52
51
49
47
44
42
40
38
35
33
31
30
28
27
25
24
24
25
30
37
46
57
69
79
86
90
91
89
85
79
73
67
61
56
53
51
51
51
53
53
54
54
53
51
48
45
42
40
37
33
31
28
26
24
22
21
19
18
18
18
19
24
32
41
52
64
73
80
83
83
80
76
69
63
57
51
46
43
42
43
44
45
46
47
47
46
44
41
40
37
34
31
29
27
25
23
22
21
20
19
19
18
20
24
31
40
50
62
73
81
86
87
86
82
77
70
64
58
53
50
48
48
49
49
52
53
53
52
50
50
45
42
42
36
33
33
28
26
26
22
21
21
18
18
19
22
28
37
48
61
75
86
93
97
98
96
91
85
78
71
66
61
58
56
56
57
57
58
58
58
56
54
51
48
44
41
39
35
32
29
27
26
24
22
21
20
19
20
25
33
43
56
70
83
93
100
103
103
100
96
65
61
58
54
51
48
46
45
45
45
46
45
45
44
42
41
40
37
35
33
32
30
28
27
26
25
24
24
23
23
25
28
33
39
45
53
59
64
67
67
67
65
62
58
54
51
48
46
45
45
45
46
46
46
46
45
43
41
40
38
36
34
33
31
29
28
27
26
25
24
24
24
25
28
33
38
44
52
59
65
69
71
71
69
65
61
57
53
50
48
47
47
47
47
48
48
47
46
45
43
41
40
38
36
34
32
31
29
29
28
27
26
26
26
27
30
35
40
48
57
65
71
75
78
77
75
72
67
63
59
55
52
50
49
48
48
49
49
48
47
46
44
41
40
38
35
33
31
29
28
26
25
25
24
23
23
23
25
28
34
40
48
58
66
73
77
79
79
77
73
69
64
59
55
52
50
49
49
49
49
49
48
46
45
42
40
38
36
33
31
31
27
26
26
24
23
23
21
21
21
21
23
28
34
41
41
59
67
67
75
75
75
69
65
59
54
50
46
44
43
42
42
43
43
42
41
40
38
36
33
30
28
26
24
22
21
19
18
18
17
16
16
16
16
18
21
27
34
41
50
59
66
71
73
72
70
65
60
55
50
46
44
42
42
42
42
42
42
41
40
40
38
36
34
31
29
27
26
24
23
22
22
21
21
21
21
21
22
25
30
37
45
54
63
71
76
78
78
76
72
67
62
57
53
49
47
46
45
46
46
46
45
44
43
41
40
37
35
32
29
27
25
24
23
22
21
21
20
20
19
20
21
24
28
35
42
50
59
66
71
73
73
71
67
62
56
51
47
43
41
40
40
40
41
41
41
40
39
36
34
32
29
27
24
23
21
19
18
17
17
17
16
16
15
15
15
17
20
26
34
42
52
61
68
73
75
75
72
68
63
57
52
48
44
42
41
41
41
42
41
41
40
39
36
34
31
29
26
24
21
21
18
17
17
16
15
15
14
14
14
14
15
15
24
32
32
49
58
58
69
71
71
68
64
58
53
48
44
41
40
40
40
40
40
40
40
40
38
36
34
31
29
27
25
23
21
20
19
18
18
17
17
16
16
17
19
23
29
36
44
53
60
65
69
69
68
65
61
57
52
48
45
43
41
41
41
41
41
41
40
39
37
35
33
31
28
26
24
23
21
20
19
19
19
19
18
18
18
18
20
23
29
36
43
52
60
65
69
70
70
67
63
59
55
50
47
44
42
42
41
42
42
42
41
40
39
36
34
32
29
27
25
23
22
20
19
18
18
18
17
17
16
16
16
18
22
27
34
41
50
56
61
64
65
64
62
58
54
50
46
44
42
41
41
42
42
42
42
41
40
39
37
36
34
31
30
28
26
25
24
23
22
22
21
21
21
21
21
24
28
33
40
48
56
62
67
70
70
69
66
63
59
54
51
48
46
46
46
46
47
47
46
45
44
42
40
39
36
34
32
31
29
28
27
26
26
25
25
24
24
24
24
26
30
35
42
50
59
67
73
77
79
78
76
73
68
64
60
57
54
52
52
51
51
51
51
50
48
46
44
41
39
37
35
32
30
29
27
26
26
26
25
24
24
23
23
23
25
28
28
40
49
49
66
72
72
77
76
76
70
65
60
56
52
49
47
46
46
46
46
46
45
44
42
40
37
35
32
29
27
25
23
22
21
21
20
20
20
19
19
18
18
19
21
26
32
40
48
57
65
70
73
74
58
53
50
47
46
46
46
47
47
47
46
45
43
40
39
36
33
31
29
28
26
25
24
23
23
23
22
22
22
22
23
26
32
39
47
57
66
73
78
80
80
77
73
68
62
57
53
50
48
47
47
48
48
48
47
45
43
41
39
37
34
32
29
27
25
24
23
22
21
20
18
17
16
15
16
18
22
29
38
46
56
65
72
76
78
77
74
70
65
59
55
51
48
46
46
46
46
46
46
45
43
41
39
36
34
31
28
26
24
22
20
19
18
18
18
17
17
16
16
15
17
20
26
34
43
53
63
72
77
80
80
77
73
67
62
56
52
48
46
45
45
45
45
45
45
43
41
40
37
34
34
28
25
25
21
20
20
18
17
17
17
17
17
17
17
17
23
30
30
47
57
67
74
78
80
79
76
71
65
59
54
50
47
46
46
46
47
48
48
47
45
43
41
39
36
34
31
29
27
25
24
23
23
22
22
21
21
21
21
24
28
35
43
54
65
74
81
86
87
86
82
77
71
65
60
55
52
50
50
50
50
51
50
49
48
45
43
40
38
35
32
30
27
26
24
23
23
22
22
21
21
21
21
22
26
32
40
50
61
71
79
84
86
86
83
79
73
67
61
56
52
49
48
48
48
48
47
47
45
43
40
38
35
32
29
27
25
23
22
21
20
19
19
18
18
17
17
17
19
23
29
38
47
57
67
74
78
79
77
74
68
63
57
52
47
44
44
44
44
44
45
45
43
41
40
38
35
33
30
28
26
24
22
21
21
20
20
19
19
19
18
19
22
26
34
42
52
62
71
78
81
82
80
77
71
65
59
54
50
48
47
47
47
48
48
48
47
45
43
40
38
35
33
30
28
26
25
24
23
23
22
22
22
21
21
21
22
26
32
40
51
62
73
81
87
88
87
83
77
70
63
57
52
49
46
46
46
46
47
47
46
44
42
40
37
34
31
28
26
24
24
21
20
20
18
18
18
18
17
17
16
17
17
26
35
35
56
66
66
80
82
81
78
73
67
61
55
50
47
44
43
43
44
44
44
43
42
40
38
34
31
28
25
23
20
19
18
17
16
16
16
15
15
14
13
14
15
20
27
36
45
56
66
73
77
79
78
74
69
63
56
51
46
44
42
43
43
44
44
44
43
41
40
37
35
32
29
27
24
23
21
20
19
18
18
17
17
17
17
19
23
30
39
49
60
70
77
82
83
82
79
73
67
61
55
50
47
45
45
45
46
46
46
45
44
42
40
37
34
31
28
26
24
22
21
20
20
19
19
18
18
18
21
25
32
41
52
64
75
83
88
90
90
87
82
76
70
64
59
54
52
50
51
52
52
52
52
50
48
45
41
38
35
30
26
23
21
20
19
19
18
18
19
19
19
20
24
30
37
45
55
64
70
74
74
73
70
65
60
55
50
46
43
42
42
43
44
45
45
44
43
40
37
33
29
25
22
22
18
18
18
17
17
17
16
15
15
15
17
17
26
33
33
48
54
58
59
59
59
55
53
50
46
44
42
41
40
40
40
41
40
38
35
30
26
22
18
14
12
11
10
9
8
8
10
11
14
18
24
30
37
43
49
54
56
56
53
48
41
36
30
24
21
20
20
21
22
24
25
26
25
24
23
21
20
19
19
19
20
21
21
21
21
20
21
23
27
33
41
49
58
65
70
72
72
70
66
62
57
52
47
42
39
35
34
33
32
32
32
31
30
28
26
24
22
21
21
21
21
23
23
24
24
23
22
21
23
27
33
40
47
53
58
61
62
63
62
60
57
53
49
45
42
40
40
39
39
39
37
35
33
31
29
27
25
23
22
20
18
17
16
14
13
11
11
11
13
18
24
32
39
45
50
53
54
53
51
48
45
42
39
36
33
32
31
31
32
32
32
32
31
30
28
26
24
23
21
20
18
17
15
14
14
14
15
17
22
27
34
40
45
49
52
52
51
50
48
45
42
40
37
35
33
32
32
32
32
32
31
30
28
26
24
23
21
20
20
19
18
18
17
16
15
15
14
14
15
15
18
22
27
33
40
46
51
54
55
54
53
51
48
45
42
40
38
36
35
35
35
35
35
34
33
33
30
29
29
27
25
25
23
22
22
20
19
19
19
19
18
18
17
16
16
16
18
22
28
34
40
46
51
53
54
53
52
50
47
45
42
40
39
37
36
35
35
35
34
34
33
32
30
29
28
26
25
23
22
22
21
20
20
19
18
18
18
18
17
17
17
16
15
15
14
15
18
23
29
36
42
47
50
50
50
48
45
43
40
38
35
33
31
30
30
30
30
31
31
30
30
29
28
27
25
24
23
22
22
21
21
20
20
20
20
19
19
19
19
18
18
18
18
19
22
26
32
38
43
47
50
51
50
48
46
43
40
38
36
34
33
32
33
33
34
34
34
33
33
32
31
30
29
27
26
25
25
24
24
23
23
23
23
23
23
23
22
22
22
22
22
24
28
33
40
45
50
54
56
56
55
53
51
48
45
43
40
39
38
38
38
38
38
38
38
38
37
36
35
34
33
32
31
30
29
28
28
27
27
27
26
26
26
26
26
25
25
24
25
25
29
34
34
46
52
52
61
62
62
60
58
58
52
49
49
45
43
43
41
42
42
42
42
42
42
41
40
39
38
36
35
33
32
31
30
29
28
28
27
27
27
26
26
25
25
25
25
27
31
36
42
48
54
58
60
61
60
58
55
52
49
46
43
41
40
40
40
40
40
40
40
40
40
39
38
36
35
34
32
31
30
29
28
27
27
26
25
25
24
24
25
28
32
38
43
50
56
60
62
63
62
60
57
53
50
47
44
42
41
41
41
42
42
43
43
43
42
41
40
39
38
37
36
34
33
32
31
31
30
30
29
29
28
29
31
34
40
45
52
60
65
69
71
71
69
67
64
60
57
54
51
49
48
48
48
48
48
48
48
47
46
44
43
41
40
39
38
36
35
34
33
32
32
31
30
30
29
29
30
31
35
40
46
54
61
68
73
75
75
74
72
69
65
61
58
55
53
51
50
50
50
51
51
50
49
48
47
45
43
41
40
39
37
36
34
33
32
31
30
30
29
29
30
33
37
42
49
56
62
67
69
70
68
66
63
59
55
52
49
47
45
45
45
46
46
46
45
44
43
42
40
39
37
35
34
32
30
29
28
27
25
24
24
24
26
29
29
40
46
46
58
61
61
62
60
60
54
49
49
43
40
40
39
39
39
40
40
40
40
39
38
36
35
33
31
30
28
27
26
25
24
24
23
23
23
25
29
35
40
47
54
59
62
63
62
60
57
54
50
46
43
41
40
40
40
40
40
40
40
40
39
37
36
35
33
32
30
29
28
27
26
25
25
24
24
24
25
28
33
39
45
52
58
62
64
65
63
61
57
54
50
47
44
42
41
40
40
40
40
40
40
40
39
37
36
34
33
31
30
29
27
26
26
25
24
24
23
23
24
26
31
36
42
49
55
59
61
62
61
58
55
52
48
45
42
40
40
40
40
40
41
41
40
40
39
38
36
35
33
31
30
29
28
27
27
26
26
25
25
25
26
29
33
39
44
51
57
61
63
64
62
60
56
53
49
46
43
42
41
41
41
42
42
42
42
41
40
40
39
37
36
34
33
32
31
30
29
29
28
27
27
28
29
32
37
43
50
57
63
67
69
69
68
65
62
58
58
51
49
49
46
46
46
46
47
47
46
45
45
42
41
41
38
36
36
34
33
32
31
30
30
29
28
28
28
30
33
38
43
51
58
65
69
72
72
72
69
66
63
59
56
53
51
50
50
50
50
50
50
49
48
46
44
42
40
39
37
35
34
32
31
30
29
28
27
26
26
25
26
28
32
37
43
51
59
65
69
71
72
71
68
65
61
57
54
51
49
48
48
48
48
48
48
47
45
43
41
40
38
36
34
32
30
29
28
26
25
24
23
21
20
19
20
22
26
32
40
47
55
62
66
68
69
68
65
62
58
54
51
48
46
46
46
46
47
47
46
45
43
42
40
38
36
34
32
31
29
28
27
26
26
25
24
24
23
23
25
28
34
40
49
58
65
71
75
77
76
74
71
67
62
58
55
52
50
49
49
49
46
44
42
40
38
35
33
31
29
28
27
25
25
24
23
23
22
21
21
23
27
32
40
48
57
66
72
76
78
78
76
73
69
64
60
55
52
50
49
48
48
48
48
47
46
44
42
40
38
36
33
31
29
27
26
24
23
22
21
21
20
19
19
18
19
22
27
33
41
50
59
66
71
74
74
72
69
64
60
55
50
50
44
42
42
42
42
42
41
40
40
36
34
34
29
27
27
22
21
21
18
18
17
16
16
15
15
14
14
15
17
22
28
36
44
53
60
66
68
69
68
64
60
55
51
47
44
41
41
41
41
41
41
41
40
40
38
36
34
32
29
27
26
24
23
21
20
19
19
18
19
21
25
31
38
46
55
63
68
72
74
72
69
66
63
58
52
48
46
44
43
43
45
45
44
43
42
40
39
37
35
32
30
28
26
25
24
23
22
22
21
19
18
18
18
18
21
27
35
42
53
65
75
82
86
87
84
78
71
65
59
54
52
51
51
50
50
48
46
45
43
42
40
39
36
33
31
29
27
26
25
24
23
22
21
20
20
20
22
25
31
38
46
56
65
72
77
78
77
75
70
65
60
56
52
48
46
44
44
44
43
43
41
40
38
35
32
29
27
24
22
20
18
16
15
14
13
13
12
11
11
11
12
15
20
28
36
44
51
57
60
61
60
57
54
49
45
42
39
37
35
35
34
35
35
34
33
33
30
27
27
23
21
21
18
16
16
14
14
14
13
12
12
11
11
12
14
17
23
29
36
42
48
51
53
52
50
47
44
40
38
35
33
32
32
33
34
34
35
34
33
32
30
29
27
26
24
23
22
21
20
20
20
20
19
19
19
19
20
21
25
30
36
43
50
55
59
61
61
59
57
54
50
47
44
42
40
40
40
40
41
41
41
40
40
38
36
35
33
32
30
29
28
27
27
26
26
26
25
25
25
24
24
25
27
31
37
43
50
57
62
65
66
66
64
61
58
55
52
49
46
45
44
44
44
44
44
44
43
42
40
39
37
36
34
33
31
30
29
29
28
28
27
27
26
26
25
25
25
26
29
33
39
45
52
57
61
63
63
61
59
56
52
49
46
43
41
40
40
40
41
41
41
40
40
38
37
35
33
32
30
28
27
26
25
25
24
24
24
24
24
23
23
22
22
24
28
33
40
45
52
57
60
62
61
60
57
53
50
46
43
41
40
40
40
41
42
42
42
41
40
39
37
36
34
32
31
31
30
29
28
27
26
26
25
25
25
26
26
27
29
33
38
44
50
57
62
66
67
67
65
62
58
54
50
48
45
44
44
44
45
45
46
46
46
43
41
41
39
38
38
35
33
32
31
29
29
29
29
29
29
29
28
27
27
27
29
33
38
44
52
60
67
72
74
73
72
69
66
63
60
57
55
53
51
50
50
50
50
50
49
48
45
42
40
37
35
33
31
30
29
28
27
26
25
25
24
24
23
22
22
22
25
29
35
41
48
54
59
63
64
64
62
59
55
51
47
43
41
40
40
41
41
42
41
41
40
39
37
36
34
32
30
29
27
26
25
24
23
23
23
23
22
22
22
22
23
25
30
36
41
48
55
59
61
61
60
57
54
50
47
44
41
40
40
40
40
41
41
42
41
41
40
39
38
36
34
33
31
30
29
28
28
28
27
27
26
26
26
27
30
34
40
46
53
59
64
66
67
66
64
61
58
55
52
49
47
46
45
46
46
46
46
45
44
43
41
40
38
36
34
32
31
30
29
28
28
27
27
26
26
25
25
26
28
33
39
45
52
59
64
68
69
68
67
64
61
58
58
52
50
50
48
48
48
48
48
48
46
44
44
40
39
39
35
33
33
30
29
27
26
25
25
24
23
22
22
22
24
28
33
40
46
53
58
61
63
62
61
58
55
52
49
45
43
42
41
41
42
42
42
41
40
39
37
35
33
31
29
28
26
25
23
23
22
21
21
20
19
19
19
19
22
25
31
37
43
50
55
58
59
59
57
54
51
47
44
42
40
40
40
40
41
41
41
41
40
39
37
36
34
32
31
29
28
27
26
26
25
25
25
24
24
23
24
25
28
33
39
45
52
58
63
65
66
65
63
61
58
55
52
50
48
47
47
47
47
47
47
46
45
43
41
40
38
36
34
33
31
30
29
29
28
28
27
26
26
25
24
24
25
28
33
39
45
53
60
65
69
70
70
69
66
63
60
57
54
52
51
50
50
50
49
49
48
46
44
42
40
39
37
35
34
32
31
30
29
28
28
27
27
26
26
25
24
23
22
23
26
30
37
43
52
59
65
69
70
70
69
67
63
60
57
54
51
49
48
48
48
48
47
46
44
42
40
39
36
34
32
30
28
26
25
24
23
23
22
21
21
21
20
19
19
18
17
17
18
21
27
34
41
49
49
62
65
65
65
63
63
57
53
53
47
45
45
44
44
44
44
44
44
42
40
40
37
35
33
31
29
28
27
26
26
25
25
24
24
23
22
22
22
21
22
25
30
36
43
51
58
64
68
70
70
68
65
62
58
54
51
49
47
47
47
47
47
47
46
44
42
40
39
37
35
33
31
29
27
26
25
25
24
24
23
23
23
22
22
21
21
22
26
31
38
46
55
62
68
71
73
72
71
68
65
61
57
54
51
49
48
48
48
48
47
46
44
42
40
38
36
33
31
29
27
25
24
22
21
20
20
19
18
18
17
16
15
14
15
17
22
28
35
43
50
56
60
63
63
62
59
55
51
47
44
41
40
40
40
40
40
39
38
37
36
34
32
29
27
25
23
22
20
19
18
18
17
17
17
17
17
17
17
16
16
17
19
23
29
36
43
50
57
61
63
63
62
59
56
52
49
46
44
43
42
42
43
43
43
43
43
41
40
39
37
35
33
32
30
29
28
27
27
26
26
25
25
25
24
24
24
23
24
24
31
37
37
53
61
61
71
73
73
72
70
70
63
60
56
54
51
50
50
51
51
51
50
49
47
45
43
41
40
39
37
35
33
32
30
30
29
28
28
28
27
27
26
25
24
24
24
25
29
34
40
48
55
61
65
68
68
67
65
63
59
55
51
48
45
44
43
43
43
43
43
43
41
40
38
36
34
32
30
28
26
25
23
22
21
20
19
18
18
18
17
16
16
15
14
15
17
21
27
35
43
51
57
62
64
64
62
59
56
52
48
44
42
40
40
40
40
41
41
41
40
40
39
37
35
33
32
30
28
27
26
25
24
24
24
24
23
23
23
23
22
22
24
28
33
40
46
54
61
66
69
70
69
67
63
59
55
52
49
47
46
46
46
47
47
48
47
46
45
43
41
40
38
36
34
32
31
29
28
28
27
27
27
27
27
26
26
26
26
28
32
38
45
54
63
71
76
79
81
80
77
74
70
66
63
59
56
55
54
54
54
55
55
54
53
51
49
46
44
41
39
36
34
33
31
30
29
28
27
27
26
26
25
24
23
22
22
24
28
34
41
50
59
67
73
76
77
76
73
70
65
61
57
53
51
49
48
48
49
49
49
48
46
46
41
39
39
33
31
31
27
25
25
22
21
21
20
20
20
19
19
18
17
17
17
18
22
27
35
44
53
62
69
74
76
76
74
70
66
61
56
53
50
49
49
49
50
51
51
50
49
48
46
44
41
40
37
35
32
31
29
28
27
27
26
25
25
25
24
24
23
23
22
23
26
32
40
49
59
69
78
83
87
88
87
84
79
75
70
65
62
59
57
57
57
57
57
56
55
53
50
48
45
42
40
37
35
33
31
30
29
28
27
27
27
26
26
26
25
24
23
22
23
25
31
39
48
59
70
79
86
90
91
90
87
82
76
70
65
60
57
54
53
53
53
52
52
51
49
46
43
40
38
34
31
29
26
24
22
21
20
19
19
18
18
17
17
16
16
15
14
14
16
20
27
36
46
57
68
76
81
83
83
80
76
70
65
59
54
51
48
48
48
48
49
49
48
47
45
42
40
38
35
32
30
27
25
23
22
20
20
20
20
20
19
19
18
18
18
20
20
31
40
40
62
72
72
85
88
88
85
81
81
69
63
63
54
52
51
51
51
51
51
51
49
47
44
41
40
36
33
30
28
26
22
22
22
22
21
20
20
20
22
27
35
44
56
69
80
89
96
99
99
97
92
87
80
74
68
64
61
59
59
58
58
58
57
55
52
49
46
42
39
36
32
29
26
24
22
20
19
19
18
17
16
15
14
13
13
18
25
35
45
58
70
80
86
89
89
86
81
74
67
59
53
49
47
47
49
52
54
54
54
53
50
48
44
41
39
36
33
31
29
28
28
28
29
30
31
31
31
31
31
32
35
40
48
57
68
78
85
90
92
92
90
86
81
76
70
65
60
56
54
53
52
52
52
51
51
49
47
44
41
38
35
32
28
25
22
20
18
18
18
19
19
19
19
20
25
32
42
55
69
82
91
96
98
96
92
86
80
74
68
63
58
56
54
55
55
56
56
55
53
50
46
42
38
34
29
25
20
16
12
8
5
3
2
1
1
2
4
9
16
27
40
54
69
82
91
96
97
95
89
61
57
53
50
47
44
43
42
42
43
43
42
42
41
40
39
37
35
34
32
31
30
29
29
29
28
28
28
28
28
28
28
30
30
38
43
49
54
59
59
62
62
62
57
53
53
47
44
42
41
41
42
42
43
43
42
41
40
39
38
36
34
33
31
30
30
29
28
28
28
27
27
27
27
29
33
37
41
47
52
56
59
61
62
61
60
58
55
53
50
48
46
45
45
44
44
44
43
42
40
39
38
36
34
33
31
30
29
28
28
27
27
27
26
26
25
25
25
27
30
33
38
42
47
50
53
54
54
53
63
58
54
50
46
43
41
40
40
40
40
40
39
37
35
32
29
27
24
21
19
17
16
14
13
12
12
11
10
10
9
8
7
6
6
8
12
19
27
36
43
50
55
56
56
54
51
48
44
40
38
36
34
33
33
34
34
34
34
33
31
29
27
24
22
20
18
17
15
14
14
13
13
13
12
12
12
11
10
9
8
9
11
16
22
30
38
46
52
56
57
56
54
51
47
43
40
38
36
34
34
35
36
36
37
37
36
35
33
31
30
28
26
25
23
22
22
21
21
21
21
21
21
21
21
20
20
20
23
27
27
40
48
48
61
63
63
63
60
57
53
49
46
43
41
40
40
40
40
40
40
40
40
39
37
35
33
31
29
28
26
25
24
24
23
23
23
23
23
23
22
22
22
21
22
24
28
35
41
49
57
62
65
65
64
61
58
54
50
47
44
42
41
40
40
41
41
41
41
40
40
38
36
34
32
31
29
27
26
25
24
23
22
22
21
21
21
21
20
19
19
18
17
19
23
28
36
43
51
57
61
62
61
59
56
52
48
45
41
40
38
38
38
38
39
39
39
38
37
36
34
32
31
30
28
27
26
24
22
22
21
21
21
20
20
20
19
18
18
17
17
18
21
25
31
38
44
50
54
57
57
55
53
49
46
43
40
38
37
36
36
37
38
39
39
39
39
37
36
34
33
31
29
28
27
25
25
24
23
23
22
22
22
21
21
21
20
21
24
28
34
40
48
54
59
62
63
62
60
57
54
50
47
45
43
41
41
41
42
43
44
44
44
42
40
39
37
35
33
32
31
29
28
27
26
25
25
25
25
25
25
24
24
24
25
29
34
40
46
54
61
66
68
69
68
66
63
59
55
52
49
47
45
45
45
45
46
46
46
44
43
43
40
38
38
33
31
31
27
26
26
24
23
23
22
22
21
21
20
20
20
21
23
28
35
41
48
55
60
62
62
61
59
55
51
47
44
41
40
40
40
40
40
41
41
40
40
39
37
35
33
31
29
28
26
25
24
23
23
23
23
22
22
21
21
21
22
25
30
36
42
49
55
59
62
62
61
58
54
50
47
44
41
40
39
39
40
40
40
40
40
40
38
37
35
33
31
29
28
27
26
25
25
24
24
24
24
24
23
23
24
25
27
32
38
45
52
59
64
66
67
66
64
61
57
54
51
48
46
44
44
44
45
45
45
45
44
42
41
40
38
36
34
32
31
29
28
28
27
27
26
26
26
25
25
24
24
25
28
33
39
45
53
59
64
66
67
65
62
59
55
51
48
45
43
42
42
43
43
43
44
43
42
40
39
37
35
33
31
29
28
27
26
25
24
24
24
23
22
21
21
20
20
21
24
29
35
41
48
54
58
60
60
58
55
55
49
45
45
40
40
40
40
40
40
41
41
41
40
38
38
35
33
33
30
28
27
26
25
25
25
25
24
24
24
23
23
24
27
31
37
43
50
56
60
62
63
61
59
56
52
49
46
43
42
41
41
41
42
42
42
41
40
40
38
36
34
32
31
29
28
27
26
26
26
26
26
25
25
24
24
23
24
26
29
35
40
47
54
59
63
64
64
62
59
56
53
49
46
44
42
42
42
42
43
43
43
42
40
39
37
35
33
31
30
28
27
26
25
24
24
23
23
23
23
23
22
21
20
20
22
25
30
37
43
50
56
59
60
60
58
55
52
48
45
43
42
40
40
40
41
41
41
41
41
40
38
36
34
32
30
28
27
26
25
25
24
24
24
24
24
24
23
23
23
24
26
31
37
42
49
56
60
63
63
62
60
57
53
50
47
44
42
42
42
42
43
44
44
43
42
40
39
37
35
33
32
30
29
28
28
28
27
27
27
27
26
26
26
25
26
27
30
34
40
46
54
60
66
68
69
68
66
63
59
56
53
51
49
47
47
47
48
48
48
47
46
44
42
40
39
37
36
34
32
31
30
29
28
28
27
27
26
26
25
24
23
24
25
25
34
40
40
55
61
61
66
66
66
62
58
58
51
48
48
45
44
44
45
45
45
45
44
43
41
40
38
36
34
32
31
29
28
27
26
26
26
26
25
25
24
23
22
22
23
26
30
37
43
50
57
61
64
64
64
61
58
55
52
49
47
46
45
45
45
46
47
47
46
45
44
42
40
38
36
34
32
30
29
29
28
27
27
26
26
25
25
25
26
29
34
40
46
54
61
67
71
73
73
72
69
65
61
58
54
52
51
50
50
50
50
50
50
48
46
44
41
40
37
35
33
31
30
28
27
27
26
26
25
25
24
24
24
25
28
33
40
47
56
65
71
75
77
77
76
73
69
65
60
56
53
51
50
50
51
50
50
49
47
45
42
40
38
35
32
30
27
25
24
22
21
21
20
19
18
18
17
16
16
18
22
29
36
43
51
58
62
64
64
62
59
55
51
47
43
40
40
39
39
40
40
39
38
37
35
32
30
28
25
23
21
20
18
17
17
16
16
16
16
16
15
15
15
16
19
19
30
38
38
50
54
54
56
55
55
49
45
42
40
38
37
37
37
38
38
38
38
37
36
34
32
30
28
27
25
24
23
22
22
21
21
21
22
21
21
21
21
21
22
25
30
36
42
49
55
59
61
61
60
57
54
50
47
44
42
41
41
41
41
42
42
41
41
40
38
36
34
32
31
29
28
27
26
25
25
24
24
24
24
24
23
23
22
21
22
24
27
33
40
46
52
56
59
59
58
55
52
49
46
43
40
39
38
38
39
39
39
40
39
38
37
35
33
32
30
28
27
26
25
25
24
24
24
24
24
24
23
23
22
22
21
22
25
29
34
40
46
51
55
57
56
55
53
50
46
43
41
40
40
40
40
40
41
42
42
41
40
40
38
37
35
34
32
31
30
30
29
29
29
29
29
29
28
28
27
27
27
28
32
37
42
49
55
61
64
65
65
63
60
57
54
51
48
46
45
45
45
45
46
46
46
45
44
42
40
39
37
36
34
33
32
31
31
30
30
30
30
30
30
30
29
28
28
28
29
32
37
43
49
56
62
65
67
66
64
62
59
55
52
49
47
45
44
44
45
45
45
45
44
43
41
40
38
37
35
33
33
30
30
30
28
28
28
27
27
27
26
25
25
23
22
22
26
30
30
42
49
55
59
62
62
60
58
55
51
48
45
43
42
41
42
42
43
44
44
43
42
41
40
38
36
34
32
31
30
29
29
28
28
28
28
27
27
27
26
27
28
31
36
41
48
55
61
65
67
67
65
62
59
55
52
49
47
46
46
46
47
48
48
48
47
46
44
42
40
39
38
36
35
33
32
32
31
31
30
30
29
29
29
30
32
36
41
47
55
62
68
72
68
65
62
58
56
53
52
52
52
53
53
53
52
51
49
47
44
42
40
39
37
36
34
33
33
32
32
31
30
30
29
29
30
33
37
43
50
57
63
68
70
70
70
67
64
61
57
54
51
49
48
48
49
49
49
48
46
44
42
40
38
35
33
31
30
28
27
26
26
25
24
24
23
23
23
24
28
33
39
44
50
54
57
58
57
54
51
47
44
41
39
38
37
37
38
38
39
39
38
37
35
35
31
29
29
26
24
24
23
22
22
21
21
21
20
20
20
24
28
28
39
43
48
51
52
51
50
56
50
44
39
35
31
29
29
30
31
32
32
32
30
28
25
22
18
16
13
11
9
8
7
6
6
5
4
4
3
3
3
6
12
20
30
40
51
60
65
67
66
64
59
53
48
43
39
36
34
34
35
36
37
36
35
34
31
28
25
22
19
16
13
11
10
9
9
8
7
7
6
5
4
4
3
4
7
14
23
34
44
54
61
64
64
61
57
52
47
41
38
34
32
31
31
32
33
33
33
32
30
27
24
21
18
15
13
11
10
9
9
8
8
8
8
8
8
7
7
6
6
7
11
18
28
38
48
58
64
66
66
63
59
53
47
42
39
36
34
33
34
36
37
38
38
37
35
33
30
28
26
24
22
20
19
18
17
17
17
17
17
16
16
15
14
13
13
14
19
26
36
45
56
65
71
73
72
69
65
60
55
50
46
43
40
40
40
42
43
44
43
42
40
38
35
32
29
27
25
23
22
21
20
19
19
19
19
18
18
17
16
15
14
14
16
22
31
40
52
63
72
77
79
78
75
71
65
59
54
50
46
44
44
44
45
46
46
45
43
41
41
36
33
33
27
25
25
21
20
20
18
17
17
17
16
16
15
15
15
13
13
15
20
29
39
50
61
71
77
79
79
76
72
66
60
54
50
47
44
44
45
47
48
48
48
47
44
41
39
36
33
30
28
26
25
24
23
22
22
22
21
21
20
19
18
17
18
21
27
35
45
57
68
78
83
85
85
81
76
70
64
58
53
49
47
47
49
50
51
52
51
50
47
44
41
38
35
32
29
27
25
23
22
21
20
20
20
19
19
18
18
18
20
25
33
44
57
70
82
90
94
95
94
90
84
78
71
66
61
58
56
56
57
58
59
59
58
56
53
49
45
41
38
35
32
30
28
27
26
25
24
24
23
22
21
21
20
21
25
32
41
53
67
80
90
96
98
98
94
89
83
76
70
64
60
57
56
57
58
59
59
58
55
52
49
44
40
37
33
30
27
24
22
21
20
19
18
17
16
14
13
12
13
16
24
34
45
59
71
81
87
90
89
85
80
73
67
67
57
54
54
53
54
54
56
56
56
52
49
49
42
39
39
32
29
29
24
23
23
20
19
18
17
16
16
18
23
31
41
54
67
79
87
92
94
92
88
82
75
69
63
59
56
55
56
58
59
60
59
58
55
50
46
41
38
35
32
29
27
25
23
21
19
18
18
18
18
21
27
36
48
62
77
90
100
105
106
105
101
96
65
61
58
56
54
53
53
53
53
53
52
51
49
46
44
42
40
39
37
35
33
32
31
30
30
29
28
28
27
28
30
34
40
46
53
61
67
71
73
74
73
71
68
64
61
58
55
53
52
52
51
51
49
48
47
44
42
40
37
35
32
30
29
27
26
25
25
24
23
22
22
21
20
21
23
27
32
39
46
53
59
62
64
63
62
59
55
52
48
46
43
42
41
41
41
41
41
40
40
38
36
33
31
28
26
24
23
22
21
20
20
19
19
18
17
16
16
15
15
17
21
27
34
40
47
53
56
58
58
57
55
52
48
45
43
41
40
40
41
42
42
42
41
40
39
37
35
33
31
30
28
27
26
26
25
25
25
24
24
23
23
23
22
22
24
28
33
40
46
54
60
65
67
67
66
64
61
58
54
52
49
48
47
47
47
47
47
47
45
43
43
39
37
37
32
31
31
28
27
27
25
25
25
25
24
24
23
23
22
21
21
23
27
32
39
46
54
60
65
68
68
68
66
63
59
56
53
50
49
48
47
47
47
47
47
45
44
41
40
37
35
33
31
29
28
27
26
24
24
23
23
22
22
21
21
20
19
19
18
20
24
29
36
43
51
58
62
65
65
64
62
59
55
52
49
46
45
44
44
45
45
45
44
43
42
40
38
36
34
32
30
28
27
26
25
25
24
24
24
24
24
23
23
22
21
21
22
25
30
36
43
51
57
63
66
67
66
63
60
57
53
50
47
45
45
45
45
46
46
46
45
44
42
40
38
36
34
32
30
29
27
26
26
25
25
25
25
25
24
24
23
23
22
24
27
32
39
46
55
62
68
72
73
73
71
68
65
61
57
54
51
50
49
50
50
50
50
49
48
46
43
41
39
37
35
33
31
29
28
27
26
25
25
24
24
24
24
23
22
22
21
22
25
30
30
45
54
63
70
74
74
76
75
75
68
63
63
55
52
52
49
49
49
49
49
49
48
46
43
40
38
36
33
31
29
27
25
24
24
23
23
22
23
22
22
22
21
20
19
20
22
26
33
40
50
59
66
71
73
73
72
69
65
61
57
53
50
48
47
48
48
49
49
49
48
46
44
41
40
37
35
32
30
29
27
26
25
25
24
24
24
23
23
23
23
23
25
28
34
41
50
60
68
74
78
79
79
76
72
67
63
58
55
52
50
50
50
51
51
51
50
48
46
43
40
39
36
33
31
30
28
27
26
25
24
24
23
23
23
22
22
21
21
22
25
30
38
47
58
69
78
84
87
87
85
81
77
72
67
63
59
57
56
55
55
55
55
54
53
50
47
44
40
38
35
32
30
28
26
25
23
23
22
22
21
21
20
19
18
17
17
17
20
25
33
42
53
64
73
79
83
84
83
80
75
70
64
58
54
51
51
51
52
53
52
51
49
47
45
42
40
38
34
30
27
24
23
23
23
23
22
22
21
20
19
19
19
19
20
23
28
36
44
55
66
75
81
84
84
82
78
73
68
62
58
54
52
51
52
53
53
53
52
51
48
45
43
40
40
35
32
32
27
26
26
24
24
24
23
23
23
22
21
21
22
26
26
41
52
64
75
85
91
95
95
93
88
83
77
71
66
62
59
58
58
58
58
57
56
54
52
49
45
42
39
36
33
31
28
27
26
25
25
24
24
23
23
22
21
22
23
28
35
43
55
67
78
87
92
95
94
91
86
80
73
68
63
59
57
56
57
57
57
57
55
53
50
46
43
40
37
33
31
28
26
25
24
23
23
23
22
21
20
19
18
18
20
25
33
41
53
65
75
83
88
89
88
84
78
72
66
60
56
52
51
51
51
52
52
51
49
47
43
40
37
34
30
28
25
23
21
20
19
19
18
18
18
17
16
15
16
18
22
30
39
49
60
69
76
80
81
79
75
70
64
58
53
49
47
46
46
47
47
47
46
45
42
40
37
34
31
28
25
23
22
20
20
19
19
19
18
17
17
17
18
21
28
36
45
56
66
74
79
82
82
80
76
71
65
60
55
51
50
49
50
50
50
49
49
46
43
43
37
34
34
29
27
27
23
22
22
21
21
21
20
19
19
18
17
18
22
28
37
47
58
69
77
82
84
84
82
77
72
67
62
57
54
52
51
51
51
50
50
49
47
44
41
39
36
33
30
28
26
24
23
22
22
21
21
20
19
18
17
16
17
18
23
30
39
49
60
69
77
82
84
84
81
77
72
67
62
58
55
53
53
52
52
52
51
49
46
43
40
37
34
31
28
25
23
22
20
19
19
19
19
18
18
17
16
15
14
15
18
24
32
41
52
62
70
75
77
77
75
71
65
60
55
51
48
46
45
46
46
46
45
44
42
40
37
33
29
26
23
20
18
16
15
14
14
14
13
13
13
13
13
13
14
17
23
31
40
50
59
67
71
74
73
71
67
62
57
52
48
45
43
43
43
44
45
44
44
42
40
38
35
32
29
27
25
23
22
21
20
19
18
18
18
19
22
28
35
44
54
63
71
77
79
80
78
74
69
64
59
55
52
50
49
49
49
50
50
49
47
44
41
39
36
33
30
27
25
24
22
22
21
21
20
20
18
19
22
27
35
44
56
67
78
85
90
92
91
89
84
79
73
68
64
61
58
57
56
56
55
53
51
48
45
41
39
35
32
29
27
25
23
22
21
20
20
20
19
18
17
16
15
15
18
24
31
40
50
59
67
74
75
74
71
66
61
56
52
48
45
44
43
43
43
42
41
40
38
35
31
28
25
23
20
18
16
15
14
13
13
13
12
12
11
11
10
9
8
9
11
16
23
31
40
49
57
62
64
65
63
60
57
52
49
45
43
41
41
41
41
41
41
40
40
37
35
32
29
27
25
23
22
21
20
20
19
19
19
19
18
18
17
16
16
17
19
24
31
40
48
56
63
68
70
70
69
66
63
59
55
52
49
47
47
47
47
47
46
45
43
41
39
36
34
31
29
27
26
25
24
23
22
22
22
22
21
21
20
19
18
17
17
18
22
29
37
45
54
62
68
71
72
72
71
69
66
63
60
58
56
54
53
53
53
53
52
50
48
46
43
40
38
35
33
30
28
27
26
25
24
24
23
22
21
21
20
19
18
17
16
16
18
18
29
37
37
55
63
63
71
72
72
68
65
65
57
53
53
47
46
46
46
46
46
45
44
42
40
37
34
32
29
27
25
23
22
21
20
20
20
20
19
19
18
17
16
15
14
14
16
20
26
34
42
52
59
65
68
68
67
65
61
56
52
48
45
44
43
43
44
45
45
45
43
41
40
37
35
32
30
27
25
24
22
21
20
20
20
19
19
19
18
18
17
17
17
19
23
29
38
47
57
66
73
77
78
78
75
72
68
63
59
55
52
50
50
50
50
49
49
47
46
43
40
38
36
33
30
28
25
24
22
21
20
20
19
19
18
18
17
16
15
14
14
15
19
25
34
42
51
60
66
69
71
70
68
64
59
55
50
46
43
41
40
40
40
40
40
39
37
34
31
29
26
23
21
19
17
15
14
13
12
11
11
10
10
9
9
8
7
6
5
4
6
10
16
24
32
40
45
50
52
52
51
49
46
42
40
36
34
33
32
32
33
34
34
34
32
31
29
27
24
22
20
18
17
16
15
14
14
13
13
13
13
13
13
12
12
12
12
15
19
24
31
38
44
49
52
54
53
51
48
45
42
40
38
37
36
36
37
38
38
38
38
37
36
34
32
31
31
27
26
26
24
23
23
22
22
22
22
21
21
20
20
20
23
27
27
39
46
53
58
62
63
63
62
60
57
54
51
48
46
45
45
46
46
46
46
46
45
43
42
40
39
37
35
34
32
31
30
29
29
29
28
28
27
27
26
26
26
27
29
33
39
46
53
60
65
68
69
68
66
64
61
58
55
52
50
49
49
49
49
50
49
48
47
45
43
41
40
38
36
34
33
31
30
29
27
25
23
22
20
19
18
17
17
18
21
25
31
38
44
50
54
56
56
55
53
50
47
44
42
40
40
40
40
40
41
41
40
40
38
36
34
32
30
28
27
25
24
23
22
21
21
20
20
19
19
19
18
19
22
26
31
38
43
49
54
56
57
57
55
52
49
45
43
40
40
39
39
40
40
40
40
39
38
36
34
33
31
29
27
26
25
25
24
24
24
23
23
23
22
22
22
22
25
29
35
42
49
56
62
65
66
66
65
63
59
55
51
48
44
43
42
42
43
43
43
42
42
40
38
38
35
33
33
30
29
29
28
28
28
27
27
27
26
25
25
25
25
27
31
37
42
49
55
59
62
62
62
60
57
54
51
48
45
44
43
43
43
43
43
43
42
40
40
38
36
34
32
30
29
28
27
26
26
25
25
25
24
23
22
22
22
22
24
28
32
38
43
49
53
55
56
55
53
50
47
44
41
39
38
37
38
38
38
38
38
37
36
34
32
31
29
28
27
25
25
24
24
24
24
23
23
22
22
22
22
23
25
29
35
40
45
49
52
54
53
52
49
47
44
41
40
38
38
38
38
39
39
39
38
37
35
34
32
31
29
28
27
26
26
26
25
25
25
25
25
25
24
24
25
27
30
35
40
46
52
56
58
59
59
57
55
52
50
47
45
43
42
42
42
42
42
42
41
40
39
37
36
34
33
31
30
30
29
29
28
27
26
25
23
22
22
21
21
23
25
30
35
40
46
51
53
54
53
51
49
46
44
43
42
42
42
42
42
43
43
42
41
40
39
37
35
35
34
33
33
31
30
29
28
26
25
23
21
19
18
17
16
17
20
23
28
34
40
45
50
53
54
54
52
49
46
43
40
38
37
37
38
38
40
41
41
41
41
41
40
40
40
38
38
38
38
39
39
41
41
41
41
40
39
37
35
34
34
36
38
41
45
49
51
52
51
49
53
47
41
35
30
26
23
22
22
24
25
26
27
27
26
25
23
22
20
19
18
18
17
17
16
16
15
15
14
13
13
13
15
20
28
39
51
62
72
78
81
79
75
69
63
57
52
47
44
42
41
41
42
43
43
43
42
40
38
35
32
29
26
23
21
19
17
16
16
16
15
15
14
13
13
14
17
24
34
45
57
68
77
82
83
81
76
70
64
56
49
44
40
38
37
37
37
38
38
37
35
32
29
26
23
20
18
16
14
12
11
10
9
8
7
6
5
4
4
4
6
11
20
30
41
52
61
66
67
66
63
58
53
48
43
40
37
35
34
34
35
36
36
36
35
34
32
29
27
25
23
21
19
18
16
15
14
14
13
13
13
13
14
19
26
35
44
55
65
71
73
73
70
66
61
55
47
41
36
32
29
29
29
31
31
31
30
29
29
25
23
23
18
15
15
12
10
10
9
9
9
9
8
8
7
7
8
12
20
30
41
53
63
70
73
72
69
65
60
55
50
45
40
37
34
32
31
31
32
32
32
31
29
26
23
21
19
17
15
13
12
10
9
8
7
6
6
5
5
4
4
5
8
14
23
34
44
54
61
64
64
61
56
51
45
40
34
30
27
25
24
25
26
27
27
27
26
24
22
20
18
15
13
11
9
8
6
5
5
5
5
4
3
3
2
1
2
5
11
19
30
40
49
56
59
60
58
54
50
44
40
36
32
30
29
29
30
32
34
35
35
33
32
29
27
25
23
21
19
18
16
15
14
12
11
10
10
12
17
25
34
43
53
62
68
70
70
67
63
58
52
47
43
40
38
38
38
40
40
41
41
40
40
38
35
33
31
29
27
25
24
22
21
20
19
19
18
18
18
18
19
23
29
39
49
62
74
84
90
92
91
89
84
79
74
68
64
60
57
55
55
56
56
56
56
55
53
51
49
46
43
40
39
36
34
33
32
31
30
29
28
28
27
28
33
40
50
62
74
85
93
96
97
95
91
86
80
75
69
64
60
58
57
57
57
57
57
57
55
55
49
46
46
40
39
39
34
31
31
27
25
25
23
22
22
21
21
25
32
40
51
63
73
81
85
86
84
80
75
68
62
56
51
48
46
45
45
46
47
47
46
45
42
40
37
34
31
28
25
22
20
19
17
16
15
14
13
12
11
11
12
16
23
33
43
54
63
70
73
73
71
66
60
54
48
43
40
37
36
37
38
39
40
40
40
38
36
34
31
29
27
25
23
21
20
19
17
17
16
15
15
14
15
18
23
32
41
52
63
72
78
80
79
76
70
64
57
51
47
43
42
42
43
44
45
46
46
45
43
41
39
36
34
31
29
27
25
23
22
21
20
19
18
17
17
18
22
29
40
51
63
75
83
88
90
88
84
79
73
67
61
56
52
50
50
50
51
51
52
51
50
48
45
42
40
37
34
31
29
27
25
24
22
22
21
20
20
20
19
21
27
36
46
59
73
85
93
97
98
95
91
84
78
72
66
61
58
56
56
56
56
56
56
56
53
50
50
44
40
40
34
31
31
26
25
25
22
21
21
19
17
17
16
16
19
25
35
46
59
73
84
91
94
94
91
86
80
72
65
58
53
49
48
48
48
49
50
50
48
45
42
40
36
33
29
26
24
21
19
17
15
14
13
13
12
11
11
10
11
15
22
32
44
58
70
80
86
88
87
82
76
70
63
57
52
48
47
47
47
48
49
50
50
49
47
44
41
39
36
32
29
27
24
22
20
19
18
17
16
15
15
15
17
22
32
43
99
99
102
100
100
63
60
60
54
51
50
49
49
50
50
51
50
50
48
47
45
43
41
40
38
36
34
33
31
31
30
29
29
28
28
27
28
31
36
41
48
56
64
70
73
75
75
74
72
68
65
62
58
56
54
54
53
53
53
53
52
50
48
46
44
41
40
37
35
33
32
31
29
29
28
27
26
26
25
25
26
28
33
39
46
54
61
67
70
72
71
69
66
62
57
54
50
48
46
46
46
46
46
46
46
44
43
41
40
37
35
33
31
29
27
26
25
24
24
23
22
22
22
22
24
27
32
39
46
54
61
67
70
71
71
68
65
61
57
53
50
48
47
47
48
48
48
48
47
46
46
42
40
40
36
34
34
30
29
29
27
26
26
24
24
24
24
25
29
34
40
49
58
65
71
75
76
76
73
70
66
61
57
54
51
50
49
49
49
49
49
48
46
44
41
40
37
35
32
30
29
27
26
25
24
23
23
22
22
21
21
23
26
32
39
47
57
65
72
76
78
77
75
72
67
63
59
55
52
50
49
49
49
49
49
48
46
44
42
40
37
35
32
30
28
26
24
23
23
22
22
21
21
20
20
19
19
21
24
30
38
46
56
64
70
74
75
74
72
68
63
58
54
51
48
47
46
46
46
46
45
44
42
40
38
36
33
31
28
26
25
23
22
21
21
21
20
20
20
19
19
20
22
26
33
40
49
57
65
70
72
73
71
68
63
58
54
50
47
45
45
45
46
46
46
46
45
43
41
40
38
36
34
32
30
28
27
26
25
25
24
23
23
22
22
23
26
32
39
47
57
66
73
78
80
80
78
75
70
65
61
56
53
51
51
50
50
50
49
49
49
45
42
42
38
35
35
30
28
28
24
23
23
22
21
21
20
20
19
20
22
26
33
41
51
62
71
78
82
83
82
79
74
69
63
58
54
50
48
47
46
46
45
45
43
41
40
37
34
31
29
26
24
22
21
20
19
19
18
18
18
18
17
16
15
14
15
19
25
34
43
54
64
72
77
79
79
76
72
66
61
55
50
47
44
43
41
40
40
39
38
36
34
32
30
28
25
23
21
18
16
15
13
12
10
9
8
8
9
9
11
14
18
24
32
41
51
61
69
74
76
76
73
68
63
57
51
47
44
42
41
41
42
42
43
42
41
40
38
36
33
30
28
25
24
22
21
20
20
19
19
19
18
18
18
20
24
31
39
48
58
67
73
76
77
76
72
68
63
58
54
50
48
47
47
47
48
47
46
44
42
40
36
33
29
26
23
21
20
20
20
20
21
21
21
21
20
20
20
22
27
34
42
54
66
76
85
90
93
92
89
84
78
72
66
61
57
55
55
55
55
55
55
54
53
51
48
46
43
41
40
38
35
33
32
30
29
29
28
28
28
28
29
30
32
37
43
52
62
74
84
92
97
99
98
95
91
85
85
72
67
67
59
57
57
54
53
53
49
46
46
40
37
37
29
26
26
21
19
18
17
16
15
15
14
13
12
12
12
14
18
25
33
42
52
60
67
71
73
72
71
69
65
62
58
56
53
51
51
51
51
51
50
48
46
43
40
39
36
33
31
29
27
26
24
22
21
19
17
16
15
15
15
16
19
25
32
40
49
59
65
70
72
71
69
65
61
57
53
50
47
45
44
44
42
41
40
40
38
36
34
31
29
26
24
22
20
19
18
17
17
17
17
17
17
17
16
16
15
15
16
19
24
32
40
50
60
68
73
76
77
76
74
71
67
63
59
56
53
51
51
51
51
52
51
50
48
46
44
41
38
34
31
27
24
21
20
19
19
19
20
19
19
19
18
17
17
16
16
18
23
29
37
45
55
63
69
74
75
75
72
69
64
59
55
51
48
47
46
46
47
47
47
46
45
44
42
40
38
36
34
31
29
28
26
25
24
24
23
23
22
22
21
20
19
19
17
16
16
20
26
26
42
52
52
68
72
72
74
72
72
66
62
62
54
51
49
49
49
49
49
49
49
48
46
44
42
40
38
35
33
31
29
27
26
25
24
24
24
23
23
22
21
20
20
20
21
24
29
36
43
52
60
67
71
73
74
72
70
66
62
57
53
50
48
47
47
47
48
48
48
46
44
42
40
38
35
33
31
29
27
25
24
23
23
22
22
22
22
21
21
20
19
19
20
22
27
35
43
54
64
73
79
82
83
82
80
76
72
68
63
59
55
52
51
50
50
49
49
48
46
44
41
39
36
34
32
29
27
25
23
22
21
20
20
20
20
20
19
18
18
17
17
17
19
24
30
39
47
57
65
71
75
76
75
73
69
65
61
57
53
50
48
47
47
47
48
47
46
45
43
40
38
36
33
31
29
26
24
23
22
21
20
19
19
18
18
18
17
17
16
15
15
18
22
29
38
47
56
64
69
72
73
72
69
65
60
55
51
48
45
44
44
44
44
45
45
44
43
41
40
37
35
33
30
28
27
25
24
23
23
23
22
22
22
21
21
20
20
20
22
25
31
39
46
55
63
68
71
72
72
69
66
62
57
53
49
47
46
46
46
47
47
47
47
47
44
42
42
38
35
35
31
29
29
26
25
25
24
24
24
24
24
24
23
22
23
25
29
35
43
52
62
70
76
80
81
81
79
76
72
68
64
60
57
56
55
55
55
55
55
54
53
51
48
46
43
40
38
35
33
31
29
28
26
25
24
24
23
23
22
22
21
20
21
23
28
35
43
52
62
70
76
80
81
80
78
74
69
64
59
56
53
51
50
50
51
51
50
49
48
45
43
40
38
36
33
31
29
27
26
24
23
23
22
21
21
20
20
19
19
19
20
23
29
37
45
56
66
74
79
82
83
82
78
74
69
64
60
56
53
52
52
52
52
51
51
49
47
45
42
40
37
34
31
29
27
25
23
22
21
21
21
20
20
19
18
17
16
17
20
25
32
40
50
59
67
72
75
76
75
71
67
62
58
53
50
48
47
47
48
48
48
47
46
44
42
40
37
34
31
28
25
23
21
20
18
17
16
15
15
14
14
14
16
20
20
34
42
42
61
68
68
76
76
76
71
66
66
56
51
51
46
45
45
45
45
44
43
41
40
37
34
31
29
26
23
20
18
17
16
15
15
15
15
15
16
17
19
22
27
35
43
54
65
75
83
87
89
88
85
80
75
70
64
60
56
54
53
53
53
54
53
52
50
47
44
40
38
34
31
28
25
23
21
20
19
18
17
17
16
15
15
16
19
25
33
42
53
64
72
78
81
81
79
75
70
65
59
55
51
48
47
46
46
46
45
44
42
40
38
35
32
29
27
24
22
20
19
18
18
17
17
17
16
15
15
15
15
18
24
31
40
50
60
67
73
76
76
73
69
64
59
53
49
45
43
42
42
43
43
43
43
41
39
36
33
31
28
25
23
21
20
18
17
17
16
16
16
16
15
16
18
22
28
36
45
55
64
70
74
76
75
72
67
62
57
52
47
44
43
42
42
42
42
42
41
40
38
35
32
30
27
24
22
21
19
18
18
17
17
17
16
16
16
15
16
19
24
31
40
50
61
70
76
80
81
79
76
71
66
60
55
51
47
45
45
44
44
44
43
42
40
38
36
33
30
27
25
22
20
18
17
16
16
16
15
15
15
14
14
13
13
13
17
22
22
38
48
48
67
74
74
79
77
77
68
62
56
51
46
43
41
41
40
40
40
40
39
37
35
32
29
27
24
22
20
18
16
15
14
14
13
13
13
12
12
11
11
10
10
10
13
18
26
36
46
57
67
74
77
78
76
72
67
61
56
50
46
43
41
40
40
41
41
40
40
38
35
33
30
27
24
22
19
18
16
15
15
14
14
14
14
14
14
14
13
13
14
16
20
27
36
45
56
65
73
77
78
77
74
69
63
58
53
48
45
44
43
43
44
44
43
42
41
40
37
35
32
29
27
25
23
21
20
19
19
18
18
18
18
17
17
17
18
21
26
34
42
53
65
74
81
86
87
85
82
77
71
65
59
55
51
49
48
48
48
48
48
46
45
42
40
37
34
32
29
26
24
23
21
20
19
19
19
19
19
18
18
17
17
19
22
29
37
47
60
71
81
87
90
91
88
84
78
72
52
51
50
50
50
49
48
46
43
41
39
36
32
29
27
25
23
21
20
20
19
19
18
18
17
17
16
16
16
18
23
30
40
50
62
73
81
86
87
86
83
78
72
66
60
55
51
49
48
47
47
47
47
45
43
40
37
34
31
28
25
23
21
19
18
17
16
16
16
15
15
14
14
13
12
13
15
20
28
37
47
58
67
73
77
77
76
72
67
61
56
51
47
45
43
43
43
44
43
43
41
40
37
34
31
28
25
23
21
19
18
16
16
16
15
15
15
14
14
15
17
21
27
34
43
52
62
69
73
75
74
71
66
61
55
51
47
44
43
43
43
44
44
44
44
42
40
39
37
34
32
29
27
25
24
23
22
21
21
21
21
24
29
36
44
54
64
72
79
82
84
82
79
75
69
64
59
55
52
50
50
50
50
50
50
48
46
44
41
39
36
34
31
29
27
25
24
23
23
22
22
22
21
21
21
21
24
29
37
46
58
70
80
88
93
95
94
92
88
83
77
72
67
64
61
60
59
58
57
56
55
52
49
46
43
40
37
34
31
29
28
26
25
24
24
23
22
21
20
21
23
29
36
45
56
66
75
82
85
86
84
81
76
70
64
59
54
51
51
48
48
48
47
46
46
42
40
40
33
30
30
24
22
22
19
18
18
17
17
16
16
15
15
15
17
22
29
37
47
57
66
73
77
78
77
73
69
63
58
53
49
46
45
45
45
45
45
45
43
41
40
37
34
31
28
26
24
22
21
20
20
19
19
18
17
17
18
21
26
33
41
51
62
71
77
81
82
81
77
72
67
61
56
52
49
47
47
47
47
47
47
45
43
41
39
36
33
30
28
26
24
23
22
21
20
20
19
19
18
18
18
21
25
33
41
52
64
75
82
88
90
89
86
82
77
71
66
60
56
54
52
51
51
51
50
48
46
43
40
37
34
31
28
25
23
21
20
19
18
18
17
17
16
15
15
14
15
17
23
30
40
51
62
72
79
82
83
81
78
72
66
60
55
50
47
45
45
44
44
44
43
41
40
37
34
31
28
25
23
20
18
17
16
15
15
14
14
14
13
12
12
12
13
18
24
33
43
54
64
73
78
80
80
76
71
71
59
53
53
45
43
43
43
43
43
43
43
43
40
37
37
31
28
25
22
20
19
18
17
17
16
16
16
15
15
15
16
20
26
35
44
56
67
76
83
86
86
84
79
74
67
61
56
51
48
47
47
47
47
47
46
44
42
40
37
34
31
28
25
23
21
20
19
18
18
18
17
17
17
16
16
16
18
23
31
40
51
64
75
84
89
91
91
87
82
75
69
63
57
53
50
48
48
48
48
47
46
44
41
39
36
32
29
26
23
21
19
18
17
16
16
16
15
15
14
13
13
13
14
18
25
34
44
56
67
75
81
83
82
79
74
68
61
55
50
46
44
43
43
44
44
43
42
40
39
36
33
30
26
24
21
19
18
16
16
16
16
16
15
15
15
15
16
19
25
33
42
52
63
72
77
80
80
77
72
66
60
53
48
44
41
40
40
40
41
41
41
40
39
36
33
29
26
22
19
17
14
12
10
9
8
8
7
6
6
6
8
12
19
29
40
51
62
70
75
76
74
70
64
58
51
44
39
35
32
30
31
33
35
36
37
38
36
34
31
28
26
23
21
20
19
18
18
18
18
18
18
18
19
20
23
29
37
47
60
73
73
92
96
96
94
89
89
75
68
68
56
52
52
50
50
50
52
52
52
49
46
43
40
37
33
29
27
24
22
20
19
18
17
16
16
15
15
17
21
28
37
46
57
67
74
78
79
77
73
68
61
55
49
44
41
40
40
40
40
41
41
40
38
35
32
29
25
22
19
17
14
12
9
7
6
5
7
11
18
28
39
49
60
69
74
76
74
71
65
59
52
47
42
40
39
39
40
40
40
40
40
38
36
33
30
27
24
22
20
17
15
14
13
14
16
20
28
38
48
61
72
81
86
89
88
84
78
72
65
59
53
49
46
45
45
45
45
44
43
41
39
36
33
30
27
24
21
19
17
16
15
14
15
18
24
32
42
54
66
76
83
87
87
86
82
76
70
64
58
53
49
47
46
45
44
43
42
40
38
35
32
29
26
23
20
18
16
15
13
12
11
11
10
11
14
19
27
37
47
57
66
73
76
78
77
74
70
65
59
54
50
46
44
43
41
40
40
40
35
33
33
27
24
24
18
16
16
12
11
11
10
9
9
7
7
7
9
13
19
27
36
45
53
59
63
65
65
64
61
57
53
49
45
42
40
39
38
37
36
35
33
31
28
26
24
21
19
17
16
14
13
12
11
11
10
10
10
9
9
8
7
6
6
6
8
13
19
27
36
44
51
56
58
59
59
57
55
52
49
46
43
41
40
40
40
40
39
38
36
35
33
30
28
26
24
23
21
20
20
19
19
18
18
17
17
16
16
16
15
14
13
13
13
14
18
23
30
38
45
51
55
58
58
58
56
54
51
48
45
42
40
40
39
39
39
38
38
37
35
34
32
30
29
27
26
25
24
24
23
22
22
22
21
21
20
20
19
19
19
20
23
27
33
39
45
50
54
56
56
55
53
50
47
44
41
40
38
38
37
37
38
38
37
36
35
34
32
30
29
27
26
25
23
23
22
21
21
20
20
20
20
22
25
30
35
40
45
48
51
52
51
57
51
43
36
27
21
17
15
15
15
16
17
17
16
15
13
11
8
5
2
0
0
0
0
0
0
0
0
0
0
0
0
0
0
0
0
0
9
20
33
44
53
58
60
59
55
50
50
40
34
34
26
24
24
25
26
26
26
25
25
20
16
16
10
7
7
1
0
0
0
0
0
0
0
0
0
0
0
5
13
24
35
45
54
60
63
63
60
55
49
42
37
32
29
27
28
29
31
32
33
33
32
30
28
26
23
20
18
15
13
11
10
9
8
7
7
6
5
6
7
12
20
31
43
57
69
79
85
87
86
82
77
70
63
57
51
47
45
44
45
46
46
46
46
44
42
40
37
33
30
27
24
22
20
18
17
15
15
14
14
14
13
13
12
13
16
22
32
44
59
74
86
95
100
101
99
94
64
60
57
54
51
49
48
47
47
48
48
47
47
45
44
42
40
39
37
35
34
33
31
30
30
29
29
28
28
27
27
27
27
29
33
38
44
51
58
63
66
68
67
65
62
58
54
50
47
44
43
42
42
42
43
43
42
42
40
40
38
36
34
32
30
29
27
26
25
24
23
22
21
21
20
20
20
22
26
31
38
44
51
57
60
62
61
61
57
53
53
46
43
43
40
40
40
41
41
41
41
41
41
39
38
38
34
32
31
29
28
26
25
24
23
23
23
25
29
34
40
47
54
60
64
66
67
65
62
58
54
51
47
45
44
43
44
44
45
45
44
44
43
41
40
39
37
35
33
31
30
28
27
26
26
25
24
24
25
26
30
35
41
50
59
67
74
79
81
81
79
76
72
68
64
60
58
56
55
55
55
55
54
53
52
50
48
45
43
40
39
36
34
32
31
29
29
28
27
27
27
30
34
40
48
57
66
74
79
83
84
83
80
75
70
65
60
56
53
51
50
50
49
49
48
46
44
41
39
35
32
29
26
23
21
19
17
15
13
11
9
8
8
11
16
23
32
41
52
61
67
70
72
70
67
62
58
53
49
46
44
44
44
45
46
47
47
47
45
44
41
40
37
35
34
33
32
32
31
30
29
27
26
26
28
31
36
42
50
57
64
68
71
70
69
66
63
61
58
55
54
53
52
51
50
50
50
48
47
45
42
40
37
33
28
23
18
14
11
9
9
10
14
21
30
40
51
61
70
77
81
81
80
76
71
65
60
56
53
51
50
50
51
50
50
49
47
44
44
39
35
35
30
27
27
24
22
22
20
18
18
18
21
21
36
46
46
69
78
85
88
89
87
83
77
71
65
59
54
50
48
47
46
45
44
43
41
40
38
35
33
30
28
26
24
22
21
20
19
18
17
18
20
24
31
40
49
59
68
73
76
77
75
71
66
61
55
50
46
42
40
39
39
38
37
36
34
32
29
26
24
21
18
15
13
11
9
8
7
6
4
3
21
29
39
47
54
59
61
62
60
57
53
49
45
40
38
35
34
33
32
31
31
29
28
26
24
22
19
17
15
14
12
11
10
9
8
8
8
10
14
21
28
36
43
50
55
57
57
56
54
51
47
43
41
39
37
35
35
35
34
34
32
31
29
27
25
23
21
20
18
17
16
15
14
14
13
13
12
12
12
13
17
22
29
37
45
52
58
61
63
63
61
59
56
53
50
47
44
42
41
40
40
40
40
39
38
36
35
33
31
29
27
26
24
23
22
21
21
20
20
20
19
18
18
19
20
20
30
37
37
51
57
57
62
62
62
59
56
53
49
46
44
41
40
40
39
39
38
38
37
35
34
32
31
29
28
27
25
24
23
23
22
22
21
21
20
20
19
19
18
18
17
18
21
25
32
39
46
52
57
60
61
60
58
56
52
49
46
43
40
40
39
38
38
38
37
36
35
34
33
31
30
28
27
26
24
23
23
22
21
20
20
19
19
19
18
18
17
17
16
15
15
15
17
20
26
33
40
46
52
56
57
57
56
53
50
47
44
41
40
38
37
37
38
38
38
37
37
36
34
33
32
30
29
28
26
26
25
24
24
23
23
23
23
23
23
23
22
22
21
21
22
24
29
34
40
47
53
58
60
61
60
58
56
52
49
46
44
42
40
40
40
40
41
41
41
40
40
39
37
36
34
33
31
30
29
29
28
27
26
26
26
25
25
25
25
24
24
23
23
24
26
31
37
44
52
59
65
69
70
70
68
66
62
59
56
52
50
48
47
47
47
47
47
47
46
45
43
42
40
39
38
36
35
33
32
31
30
29
28
28
28
27
27
27
26
26
25
25
25
27
32
38
45
53
61
67
71
73
73
72
72
66
63
63
56
53
53
50
49
49
49
49
49
47
46
46
43
41
41
38
36
34
33
31
30
29
27
26
26
25
25
24
24
24
23
22
21
21
22
26
31
38
46
54
61
66
69
70
70
67
64
60
56
52
49
47
45
45
45
45
45
45
44
43
42
40
39
37
35
33
31
29
28
26
25
24
24
23
23
23
22
22
21
21
21
22
25
30
37
44
52
60
66
69
71
70
68
65
61
57
54
51
49
48
47
48
48
48
48
48
47
46
44
42
40
39
37
35
34
32
31
29
28
27
27
26
26
26
25
25
25
27
31
37
44
52
62
70
76
80
81
81
79
76
72
68
64
60
57
55
55
54
54
54
54
53
52
50
48
45
43
41
39
37
35
33
32
30
29
28
27
26
26
25
25
25
25
27
31
37
44
53
63
72
78
83
85
85
82
79
75
70
65
61
58
56
54
54
54
53
53
52
50
48
45
42
40
37
34
32
29
27
26
24
24
22
21
21
20
19
19
18
19
19
26
33
33
50
60
60
74
77
77
77
74
69
64
59
55
51
48
47
47
47
47
47
46
45
43
41
39
36
33
30
28
25
23
22
21
20
19
19
19
19
20
23
29
36
43
53
63
70
76
79
79
77
73
68
63
58
54
51
49
49
49
49
49
49
48
47
45
43
41
39
36
34
32
30
28
26
25
25
24
23
23
23
22
23
24
28
34
42
53
64
75
84
91
94
95
93
89
84
79
73
68
64
61
59
58
58
57
57
55
54
51
48
45
42
40
37
34
32
30
29
27
26
26
25
24
23
23
24
27
32
40
49
60
71
81
88
92
93
92
88
83
77
71
66
61
57
54
53
52
52
51
50
49
47
44
41
39
36
33
30
28
25
23
22
21
19
19
18
17
16
16
16
19
24
31
40
52
63
73
81
85
87
85
81
76
69
63
58
53
50
48
47
47
47
47
46
44
42
40
37
34
31
28
25
23
21
19
18
17
17
17
16
16
16
16
17
22
28
37
46
57
68
76
81
83
82
79
74
67
61
55
50
47
44
44
44
44
45
45
44
42
40
38
36
33
30
27
25
23
21
20
19
18
18
18
17
16
16
17
20
20
33
43
43
67
78
78
91
92
92
87
81
81
69
63
58
54
51
50
50
50
50
49
48
46
43
40
38
34
31
28
26
24
22
21
20
20
19
19
18
18
18
19
22
27
36
45
58
71
82
90
94
96
94
90
84
77
71
65
59
55
52
51
50
50
50
49
47
45
42
39
36
33
29
26
24
22
20
19
18
17
16
16
15
15
14
14
15
18
24
32
42
55
67
78
86
91
92
89
85
78
72
65
59
54
51
49
48
48
48
48
47
45
43
40
37
34
31
28
25
23
21
20
19
18
18
18
18
18
18
17
17
19
23
30
39
50
62
74
83
89
91
91
87
82
75
68
62
57
53
50
49
49
50
50
49
48
46
43
40
38
34
31
28
26
24
22
21
20
19
19
19
19
18
18
18
17
17
19
24
32
42
54
68
80
90
96
98
97
93
88
81
74
68
62
58
55
53
52
52
52
51
49
47
44
41
39
35
35
29
26
24
22
21
21
19
18
18
17
17
17
16
15
15
14
15
15
26
36
48
61
74
83
89
92
91
87
81
74
67
60
54
49
46
44
44
44
43
43
42
40
38
35
31
28
24
21
18
16
14
13
12
11
11
10
10
10
10
9
9
8
8
11
15
23
33
45
58
70
79
84
86
85
81
75
68
61
55
49
46
44
43
43
44
44
43
42
41
39
36
33
30
27
24
21
19
18
17
16
15
15
15
15
14
14
13
13
14
18
25
34
45
58
71
81
88
92
91
88
83
76
69
62
56
51
47
45
45
45
46
46
45
43
41
39
36
33
30
27
24
21
19
18
17
16
15
15
15
15
15
14
14
13
11
11
14
20
29
40
54
68
79
87
92
92
90
85
79
72
65
59
53
49
47
46
45
45
45
44
43
40
38
35
31
28
24
21
18
16
14
12
11
10
9
8
8
7
7
6
5
5
6
9
15
25
37
50
64
76
84
88
89
87
82
75
68
61
54
49
45
43
42
42
43
43
42
41
39
36
33
29
26
22
19
17
14
12
11
10
10
10
10
10
10
10
10
10
11
14
20
28
40
52
65
76
85
90
91
88
88
77
69
69
56
51
51
45
45
45
45
46
46
44
42
42
37
34
34
27
24
21
19
17
16
15
14
14
13
13
13
13
13
14
16
21
29
40
53
67
80
91
97
100
99
95
64
61
57
54
51
48
46
45
45
45
45
45
45
44
43
41
40
39
37
35
34
32
31
31
30
29
29
29
29
29
29
29
28
28
28
29
30
34
39
44
51
58
64
68
69
69
67
64
60
56
52
48
46
44
43
42
42
42
42
41
40
40
39
37
35
33
31
30
28
27
26
26
25
25
24
24
24
24
24
23
23
23
23
24
27
32
38
44
50
56
61
63
63
62
60
56
53
49
46
43
41
40
40
40
41
41
40
40
40
39
37
36
34
33
31
30
29
29
28
28
27
27
27
26
26
27
28
31
35
40
45
51
56
60
62
63
62
60
57
53
50
47
44
42
41
41
41
42
42
42
41
40
40
39
37
36
34
33
31
30
29
28
27
27
27
26
26
26
26
26
26
26
26
27
27
35
40
40
52
59
59
66
68
68
66
63
63
57
53
50
48
47
46
45
45
45
45
44
43
42
40
40
38
36
35
34
32
31
30
30
29
29
28
28
28
28
27
27
27
27
30
33
38
44
50
56
60
63
64
64
62
60
56
53
50
47
44
43
42
42
42
42
42
41
40
40
38
36
35
33
31
30
29
28
27
26
26
25
25
25
25
24
24
24
24
25
27
31
36
41
47
53
58
61
63
62
61
58
55
51
48
46
44
42
42
42
42
42
42
42
41
40
39
38
36
35
33
32
31
30
29
29
29
28
28
28
28
29
32
35
40
45
51
57
62
64
66
66
64
61
58
54
51
48
46
45
44
44
44
45
44
44
43
42
40
40
38
36
35
34
33
32
31
30
30
30
30
30
30
29
29
29
30
31
35
40
45
52
59
65
69
71
72
71
69
66
63
59
56
54
51
50
49
49
49
48
48
46
45
43
41
40
38
37
35
34
32
31
31
30
29
29
29
28
28
27
27
28
30
34
39
44
50
56
60
63
64
63
61
58
55
51
48
45
43
42
42
41
40
40
38
36
35
33
31
30
29
29
28
27
27
26
26
26
25
25
25
26
29
29
37
42
42
53
57
57
61
60
58
55
52
48
46
43
42
41
41
41
42
42
41
41
40
39
38
36
35
34
32
31
30
30
29
29
29
29
28
28
28
29
30
33
37
42
48
54
59
63
65
65
65
62
60
57
54
51
48
47
46
45
45
45
44
44
43
42
40
40
38
36
35
33
32
31
31
30
30
29
29
28
27
27
26
26
26
27
30
35
40
45
51
57
61
63
63
63
61
58
55
51
48
46
44
42
42
41
41
41
40
40
39
38
36
34
33
31
30
29
28
27
26
26
25
25
25
25
24
24
23
23
23
25
28
33
39
44
50
55
59
60
61
60
57
54
51
48
45
43
41
41
40
40
40
40
40
40
39
37
35
34
32
31
29
29
28
27
27
27
27
27
26
26
26
26
25
26
27
30
35
40
45
51
56
60
61
62
61
59
56
53
49
46
44
43
42
42
42
42
42
41
40
40
40
37
36
36
32
31
31
29
28
28
27
27
27
27
26
26
26
26
26
26
28
30
35
40
46
53
58
63
65
66
65
64
61
58
55
52
49
47
45
44
44
44
43
43
42
41
40
39
37
35
34
32
30
29
27
26
26
25
25
25
25
24
24
24
23
23
23
23
25
29
33
39
44
50
55
58
59
60
58
56
53
50
47
44
41
40
39
39
38
38
38
37
36
35
34
32
30
29
27
26
25
24
23
22
22
21
21
21
21
21
20
20
20
19
19
19
21
24
28
32
37
41
45
48
49
49
48
52
47
42
38
34
31
29
29
29
30
30
31
30
30
28
26
24
22
20
18
16
14
12
11
10
10
10
10
10
9
9
9
8
9
11
15
22
29
38
46
53
58
61
61
60
57
54
50
46
42
40
38
37
37
37
38
38
38
37
36
34
32
30
28
25
23
21
19
18
16
15
13
13
12
12
12
12
12
12
13
16
22
29
37
45
53
58
61
62
61
58
55
50
46
42
40
38
36
36
36
36
36
36
35
34
32
30
28
26
24
22
20
19
17
16
15
14
14
13
13
13
13
12
12
12
13
17
23
30
39
46
53
58
61
61
59
56
56
48
44
44
39
36
36
35
36
36
37
37
37
35
33
33
30
28
26
24
23
22
21
20
20
20
20
20
20
20
19
19
21
24
28
35
42
50
57
63
66
67
67
64
61
57
53
49
46
44
43
43
44
44
45
45
45
44
43
41
40
38
36
34
32
31
30
29
28
27
27
26
26
25
25
25
27
31
37
44
52
61
69
74
77
78
77
75
72
68
64
61
57
55
53
53
53
53
53
52
52
50
48
46
44
41
40
38
36
34
33
31
30
29
29
28
27
26
26
26
27
30
34
40
48
56
64
70
74
75
75
73
70
66
62
57
54
51
49
48
47
47
47
46
45
44
41
40
37
35
32
30
27
25
24
23
22
21
21
20
20
19
19
19
20
23
28
35
43
52
61
68
73
75
75
72
69
64
59
55
50
47
45
45
45
45
45
45
44
43
42
40
38
36
34
32
30
28
26
25
24
22
21
21
21
22
25
30
37
45
54
54
69
74
74
76
74
74
65
60
60
51
48
48
45
45
45
45
45
45
43
41
40
37
34
32
29
27
25
24
23
22
21
21
20
20
19
19
20
23
28
35
44
54
65
74
81
85
87
86
83
78
72
66
61
56
53
51
50
49
49
49
48
46
44
42
40
37
34
32
29
27
26
24
23
22
22
21
20
19
19
19
21
26
33
40
51
61
70
77
81
81
80
77
71
66
60
55
51
47
45
43
43
42
41
40
40
38
35
32
29
26
24
21
19
17
15
14
13
12
11
10
9
8
8
9
11
17
24
33
41
51
58
63
65
65
63
59
54
49
44
40
37
35
35
34
35
35
34
33
31
29
27
24
21
19
17
14
13
11
10
10
9
8
8
7
7
8
10
15
21
28
37
45
52
58
61
62
61
58
54
49
45
41
39
37
36
36
37
37
37
36
35
33
31
29
27
25
23
21
20
19
18
18
17
17
16
16
16
16
18
22
28
35
43
51
59
64
67
69
68
66
63
59
55
51
48
46
45
44
45
45
45
44
43
42
40
39
36
34
32
30
28
26
25
24
23
23
22
22
21
21
21
22
25
31
39
47
56
64
71
76
76
76
74
74
65
60
60
52
48
48
45
44
44
43
43
43
40
39
39
35
32
30
28
26
25
23
22
21
21
20
19
18
17
17
17
18
21
26
33
40
48
56
62
66
67
67
65
62
58
54
50
47
44
42
41
40
40
40
40
39
37
35
32
29
27
24
22
20
18
17
15
14
13
13
12
11
10
10
10
11
14
19
25
33
41
49
55
59
60
60
58
54
51
47
43
40
39
38
38
38
39
39
38
38
36
35
33
31
29
28
26
25
24
23
22
21
21
20
20
19
19
20
21
25
30
37
44
52
58
63
66
66
65
63
60
56
52
49
46
44
43
43
43
44
44
43
43
41
40
38
36
34
32
30
28
27
26
25
24
24
23
23
23
22
22
23
26
30
36
43
51
59
65
70
72
72
70
68
64
60
57
53
50
48
47
47
47
47
47
46
45
43
41
40
38
36
34
32
31
29
28
27
26
26
25
25
24
24
24
23
24
25
29
34
34
48
56
56
68
71
71
69
66
66
57
53
53
46
43
43
41
41
41
41
41
40
39
37
34
32
30
27
25
23
21
20
19
18
17
16
16
16
15
15
14
13
12
13
16
21
27
36
43
51
57
61
63
62
60
57
53
48
44
40
39
37
37
38
39
39
40
39
38
36
34
32
30
28
25
23
20
18
17
17
17
17
18
19
20
22
25
30
37
43
51
58
63
66
67
66
63
60
56
51
47
44
41
40
41
41
43
44
45
46
46
46
46
45
44
42
40
39
37
35
33
31
29
27
24
20
18
16
16
18
23
32
42
54
65
75
81
85
86
84
81
77
72
68
64
60
57
54
51
49
47
45
44
42
41
40
38
36
33
30
28
26
24
22
21
20
19
18
18
19
21
25
31
39
47
57
65
73
77
79
80
78
75
71
67
63
60
58
56
56
56
56
56
55
53
52
49
46
43
40
36
31
27
23
20
17
15
15
15
15
16
19
24
31
40
49
60
69
77
82
84
84
81
77
72
67
61
57
53
50
49
49
49
48
48
46
44
41
39
35
32
28
25
22
19
16
14
13
12
13
15
18
24
32
40
47
55
60
63
64
63
63
57
53
53
46
42
42
39
39
39
39
38
38
36
34
34
31
29
29
24
22
20
18
17
16
16
15
15
15
14
16
19
24
32
40
48
56
62
66
67
67
65
62
58
54
51
48
44
42
40
40
39
38
38
37
36
34
33
31
28
27
25
24
23
22
21
20
20
19
18
18
18
19
21
25
31
39
46
53
59
