Wave
39
39
39
39
39
39
39
40
40
42
43
44
45
45
45
45
45
45
45
45
45
45
45
45
44
44
44
44
44
44
43
47
46
45
44
44
43
42
42
41
41
41
40
40
40
39
39
38
38
38
38
37
37
37
37
38
40
41
44
47
49
51
52
52
53
53
53
53
53
53
53
52
52
52
51
51
50
50
49
49
48
56
54
53
52
51
49
48
46
44
43
42
40
40
39
38
37
36
35
33
33
32
32
32
34
38
41
47
52
56
59
60
60
59
58
57
57
56
55
55
55
55
54
55
55
54
53
51
50
48
46
45
43
42
40
40
39
37
36
35
34
33
32
31
30
29
28
28
28
29
32
36
40
43
47
49
49
49
49
56
54
52
50
49
47
46
45
43
42
40
39
37
34
32
28
26
23
21
19
18
17
16
14
13
12
10
9
7
5
5
6
10
17
26
35
43
50
54
56
56
55
54
54
53
52
51
50
48
46
46
45
45
44
43
43
42
41
40
38
36
34
32
30
29
29
29
29
29
29
29
28
28
30
34
40
48
57
65
72
76
78
77
78
77
77
77
76
75
72
70
67
64
62
60
58
57
54
52
49
46
43
41
40
39
38
37
36
34
33
32
31
30
29
27
25
24
23
25
29
37
45
55
64
71
76
78
80
81
83
85
86
87
87
87
85
83
81
79
77
75
73
71
69
66
52
50
47
45
44
41
40
38
36
34
33
31
29
27
25
24
22
21
21
23
29
38
48
60
71
80
85
88
90
91
92
93
94
95
94
91
89
86
83
81
59
58
58
57
56
55
54
53
51
49
48
46
45
43
42
40
40
39
38
36
35
34
33
32
31
30
29
28
28
26
25
25
25
26
29
33
38
43
49
53
56
58
59
61
62
63
64
65
66
65
64
63
62
60
59
58
57
56
55
54
53
51
50
48
47
45
44
43
42
41
40
40
39
39
36
35
35
32
31
31
29
28
28
27
26
26
26
28
28
38
43
43
55
59
62
63
63
63
64
64
65
65
64
63
63
62
61
61
60
59
59
58
56
55
53
51
49
47
45
44
42
41
40
39
38
37
36
35
34
33
31
29
28
28
29
31
35
40
46
52
56
59
60
61
61
61
62
62
62
61
61
59
58
57
56
55
54
53
52
50
48
47
45
44
42
41
40
39
38
37
35
34
33
31
30
29
27
26
25
26
28
32
37
42
48
53
57
59
61
62
62
63
64
63
63
62
61
59
58
56
56
55
54
53
51
49
48
45
43
41
40
38
36
35
33
32
30
29
28
27
25
24
23
22
21
21
23
26
31
38
43
49
53
56
58
59
59
60
60
61
60
60
59
57
55
54
52
50
49
47
46
44
42
40
39
37
35
33
32
30
28
26
25
23
22
20
19
18
17
16
15
14
14
13
13
13
15
18
23
28
33
37
39
40
40
40
40
40
40
41
40
40
39
37
36
34
33
32
31
30
29
28
27
26
25
24
23
22
21
20
20
19
18
17
16
16
15
15
14
14
13
13
12
12
12
13
15
18
23
27
32
32
37
38
38
38
38
38
38
38
38
38
37
37
35
34
34
33
32
32
31
30
29
28
27
26
25
25
24
24
24
23
23
23
22
22
22
21
21
20
20
19
19
18
18
18
18
19
21
25
29
33
38
40
42
42
42
41
40
40
40
40
40
40
39
38
37
36
35
35
34
34
33
33
32
31
31
30
29
29
28
28
28
27
27
26
26
26
25
25
24
24
23
22
22
21
20
20
22
24
28
33
37
40
43
44
44
44
43
43
43
43
42
42
41
40
39
38
37
36
36
36
36
36
35
35
34
33
33
33
32
32
32
32
31
31
30
30
29
28
27
27
26
26
26
28
31
35
39
42
45
47
47
48
48
48
47
47
47
47
47
51
50
49
47
47
46
46
45
45
44
43
41
40
38
36
33
32
31
30
29
28
27
26
25
24
24
25
30
36
44
53
63
70
74
77
78
78
79
81
83
84
85
86
85
84
82
81
80
80
77
76
76
55
53
53
50
48
48
46
44
44
42
41
41
40
39
39
37
37
36
35
35
37
40
43
48
54
59
62
65
66
66
66
67
67
67
67
66
65
64
62
61
60
59
58
57
55
53
51
50
48
46
45
44
43
41
40
40
38
37
36
35
34
33
32
32
31
30
29
29
30
31
35
40
42
47
50
51
51
51
51
51
52
52
52
52
51
50
59
57
55
53
51
49
47
45
43
40
38
36
34
32
29
27
25
22
20
18
17
15
14
12
11
10
8
6
5
4
3
2
4
9
15
24
33
41
48
52
54
54
53
54
53
53
54
53
52
50
47
45
43
41
40
37
35
33
31
29
27
25
22
20
19
17
16
15
14
13
12
11
10
9
8
8
7
6
5
4
3
3
4
7
13
22
31
40
46
51
53
52
51
50
50
50
50
50
50
49
48
47
46
46
45
45
44
43
41
39
37
35
33
31
29
27
26
25
23
22
21
20
18
16
14
13
11
10
11
15
21
29
37
44
49
53
54
54
53
52
50
50
48
47
45
42
41
40
39
38
38
37
36
34
32
30
28
26
24
22
21
19
17
14
12
12
9
9
9
9
10
10
19
26
26
43
52
52
61
62
62
60
60
60
61
60
58
56
53
49
47
46
45
45
44
43
41
40
38
36
34
32
31
29
28
26
25
23
22
22
21
20
18
17
16
15
15
17
23
31
40
51
60
67
71
74
75
76
77
78
80
80
80
78
77
75
73
72
71
70
68
66
63
61
59
56
53
50
47
44
42
40
38
36
34
32
31
29
27
26
24
22
20
18
16
16
20
26
35
46
57
66
73
77
79
79
79
80
81
82
82
81
79
76
72
69
66
63
61
59
57
54
51
47
44
41
39
36
33
31
28
26
24
23
21
20
19
18
17
15
14
13
11
9
8
8
11
18
27
37
48
56
62
64
65
64
63
63
63
63
61
60
56
53
50
46
45
45
44
43
42
42
40
37
36
33
30
28
26
25
23
22
20
19
17
16
15
14
12
11
10
9
8
8
9
13
20
29
39
49
60
66
69
70
70
69
69
67
66
66
63
61
61
55
53
53
50
48
48
45
43
43
38
36
35
34
33
32
31
29
26
24
23
22
20
19
18
16
16
17
21
28
35
43
52
58
63
65
65
63
62
61
60
59
58
56
55
53
51
49
49
48
47
46
44
43
40
38
36
34
31
29
27
24
21
19
17
15
14
12
11
13
18
25
35
45
55
64
69
71
71
68
68
67
65
64
63
63
61
59
58
57
56
53
52
50
48
45
41
39
36
34
32
31
30
29
28
26
25
24
23
23
22
22
24
29
37
47
59
71
81
88
92
93
93
93
93
94
93
92
89
85
61
59
57
56
55
54
53
51
50
49
47
46
46
44
43
42
41
40
39
38
37
36
35
33
32
31
31
31
32
35
40
44
51
57
61
64
65
65
65
65
65
65
64
63
62
61
60
58
57
56
55
54
52
51
49
48
46
44
43
42
41
40
40
39
38
37
36
35
34
33
32
31
29
29
27
27
27
29
33
38
43
49
54
57
58
59
59
59
59
60
60
60
59
57
55
53
52
51
50
49
48
47
45
43
41
40
38
36
35
33
32
31
30
29
28
28
28
27
26
26
25
25
25
23
22
22
20
22
22
29
35
35
47
52
55
57
57
57
58
59
59
59
58
58
57
56
55
54
52
51
50
49
48
46
44
43
41
40
38
37
35
33
32
30
29
28
27
26
26
25
24
23
23
23
26
30
35
40
46
51
54
55
56
55
55
55
54
53
52
51
50
49
48
47
47
47
46
45
44
43
41
40
39
38
36
35
34
33
32
31
30
29
28
27
26
25
24
23
23
24
27
32
37
43
50
55
59
61
62
62
63
63
64
64
63
63
61
60
59
58
57
56
55
54
53
51
50
48
46
44
41
40
38
37
35
34
33
33
32
32
32
33
32
32
31
30
29
28
30
33
38
44
51
57
61
64
65
65
66
66
66
66
66
65
64
63
61
59
58
58
57
56
55
54
52
50
48
46
44
42
40
39
37
35
33
32
30
28
27
25
25
24
22
22
20
20
19
19
20
24
30
36
42
49
54
58
59
59
61
61
61
63
63
63
61
60
60
57
56
56
54
53
53
49
47
47
43
41
39
37
35
34
32
30
29
28
26
25
24
22
21
20
19
18
17
16
15
15
16
18
23
28
35
40
45
49
51
52
52
52
52
52
52
51
50
48
47
46
46
46
46
45
45
44
42
40
39
36
34
32
31
29
28
27
25
24
23
22
21
20
19
18
17
17
17
20
23
28
33
38
40
43
44
44
44
44
44
43
43
45
42
40
40
37
36
35
34
33
31
28
26
23
20
17
15
13
11
10
8
8
7
6
4
3
1
0
0
0
4
11
20
31
41
50
56
60
62
63
63
65
65
66
66
65
63
61
59
58
57
56
54
52
49
47
44
41
38
35
32
30
29
26
23
22
21
19
17
15
13
11
9
7
6
8
13
21
31
42
54
64
71
76
79
80
82
84
85
86
87
86
85
82
80
58
57
56
54
53
51
49
47
45
44
42
40
40
38
37
35
34
33
32
31
30
29
27
26
25
24
23
22
22
24
27
32
37
41
45
48
50
51
51
51
51
51
51
51
50
48
47
46
45
44
43
43
42
41
40
39
37
36
35
33
32
31
31
29
28
28
26
25
25
24
23
23
22
21
21
20
19
19
18
19
19
24
28
33
37
40
42
42
42
42
44
45
48
46
44
41
40
38
36
35
34
32
31
29
26
24
22
20
18
16
14
14
11
10
10
8
7
7
5
4
4
2
2
2
1
3
3
13
22
22
37
42
45
47
47
47
47
47
47
46
45
42
40
38
35
33
32
31
30
28
26
24
22
20
18
16
14
13
12
10
9
8
7
6
5
4
3
2
2
4
9
14
22
29
36
40
41
42
41
42
41
40
40
39
37
36
34
30
28
27
26
25
24
22
20
16
11
8
4
1
0
0
0
0
0
0
0
0
0
0
0
0
0
0
0
0
0
0
0
11
31
49
62
70
74
74
72
71
72
73
73
72
71
69
52
51
50
50
49
48
47
46
44
41
40
38
35
33
31
29
26
24
22
20
18
16
15
14
13
13
12
11
10
9
7
6
6
11
20
20
39
47
47
56
56
56
53
51
51
52
53
53
55
54
54
53
52
51
51
51
51
50
49
47
45
43
40
38
37
35
34
32
31
29
28
26
25
24
22
21
19
17
16
14
12
11
9
9
10
15
22
32
41
51
60
64
67
68
68
68
69
70
70
70
69
67
65
63
62
61
60
59
57
56
53
51
48
46
43
40
39
37
35
32
30
28
26
24
23
22
21
20
18
16
15
13
12
11
10
11
15
21
30
40
50
59
66
70
72
72
72
72
72
72
71
70
68
67
65
64
64
63
62
61
59
57
54
51
47
44
41
39
37
34
33
31
29
27
25
23
21
19
17
14
13
14
18
25
34
43
53
61
66
68
69
68
68
69
68
68
66
65
63
61
59
58
57
56
54
52
50
48
45
42
39
37
34
31
29
28
26
24
22
21
20
18
16
14
13
12
13
18
27
38
50
62
73
80
84
86
87
88
89
91
92
92
91
89
87
84
82
80
78
76
74
56
54
52
50
48
46
45
43
42
40
40
39
38
37
36
35
34
33
32
32
31
30
31
33
37
42
49
55
61
65
68
69
70
71
72
72
72
73
72
72
70
68
68
65
64
64
62
60
60
57
55
55
51
49
49
46
44
43
41
40
39
38
37
35
34
33
31
30
28
27
25
25
27
30
35
41
48
55
60
63
65
66
67
67
68
69
69
68
67
66
64
63
61
60
59
58
57
56
54
52
50
48
45
43
42
40
39
37
35
34
32
31
30
28
27
25
24
23
21
21
22
25
30
35
41
47
52
55
57
58
58
58
59
59
58
58
56
55
53
51
50
49
49
48
47
45
43
41
40
38
36
34
32
31
29
27
27
25
24
23
23
22
21
21
22
25
29
34
40
45
50
52
54
54
54
54
54
54
53
52
51
50
49
48
47
46
45
45
43
42
40
39
37
36
34
32
31
30
28
28
27
26
25
24
23
22
21
22
24
29
34
40
46
51
55
57
58
59
59
60
60
61
60
59
58
56
54
53
52
50
49
47
46
44
42
40
40
38
36
35
34
32
31
29
28
26
25
25
22
20
20
18
18
18
21
26
26
39
46
46
56
59
61
63
65
65
67
68
68
66
65
63
62
60
59
57
56
55
53
51
49
47
45
43
41
40
38
36
35
33
32
30
28
27
26
25
24
23
21
20
19
18
18
18
21
26
32
39
45
52
57
60
62
64
65
66
68
70
70
69
69
68
66
64
62
61
60
58
56
54
52
50
48
45
43
41
40
39
37
35
34
32
31
30
28
27
26
25
23
22
21
19
19
20
23
28
34
40
47
53
57
59
60
61
62
63
64
64
64
63
61
60
59
58
57
56
55
54
52
50
48
46
45
43
41
40
40
38
36
34
33
31
29
27
25
23
21
20
19
21
25
30
36
41
47
51
54
55
56
57
58
58
58
57
56
54
53
51
50
49
48
47
45
44
42
40
38
36
33
31
29
27
26
25
23
22
21
19
19
18
16
16
16
19
23
29
35
41
47
51
54
56
57
58
59
60
61
61
61
60
59
57
56
55
54
53
51
50
48
45
42
40
39
38
37
36
35
33
31
28
25
22
19
17
15
13
12
10
9
9
10
12
16
22
29
36
41
45
48
50
51
51
53
53
54
54
53
51
51
47
45
45
43
42
42
40
38
38
35
33
33
29
27
26
24
23
22
21
20
20
19
17
16
15
14
13
12
11
10
9
9
11
14
19
24
30
35
39
40
41
41
41
42
43
43
43
43
44
41
39
37
34
33
32
30
28
26
23
19
16
12
9
6
4
2
0
0
0
0
0
0
0
0
0
0
0
0
0
0
0
0
0
0
0
9
19
28
35
39
40
41
41
40
41
42
42
42
41
40
39
39
39
38
37
36
33
31
26
24
22
18
17
14
14
12
11
9
7
6
3
2
1
1
0
0
0
1
4
9
16
24
33
40
46
49
49
48
46
45
44
43
41
39
36
33
30
27
26
25
25
24
23
22
21
18
16
13
11
10
8
6
6
5
4
3
2
1
2
1
1
4
9
17
25
35
43
50
53
55
55
54
54
54
54
53
52
50
48
46
44
43
42
42
41
40
39
38
36
34
32
32
28
26
26
24
22
22
21
20
20
16
14
14
10
9
9
15
22
22
41
51
58
63
65
66
66
66
68
67
68
68
65
64
62
61
59
58
57
56
54
52
50
48
46
43
40
39
37
34
32
30
27
26
24
22
21
20
18
17
15
13
14
17
24
33
43
55
65
73
78
80
81
81
82
83
83
83
82
80
77
74
71
68
66
64
61
59
56
55
52
48
47
44
42
40
39
37
34
31
28
26
24
23
21
20
18
16
14
12
11
12
17
25
34
43
52
59
62
63
62
61
60
60
60
60
59
57
55
52
49
47
45
43
41
40
38
36
33
31
29
27
25
24
22
21
20
18
16
14
13
11
9
7
5
3
2
3
6
12
21
30
39
46
50
51
50
48
47
46
45
43
41
40
38
35
33
31
30
28
27
25
23
21
19
17
15
12
10
9
8
7
5
5
4
3
3
2
1
1
2
6
13
21
29
37
41
44
44
43
42
41
41
40
40
40
38
35
33
31
30
29
29
27
27
25
23
21
19
17
16
14
13
13
11
10
10
9
8
7
7
6
5
5
5
5
8
14
22
31
40
48
54
56
56
55
54
53
52
52
52
50
50
46
44
44
40
40
40
38
37
37
35
33
33
28
26
25
23
22
21
21
20
18
18
17
16
15
14
13
13
12
12
14
18
25
34
43
52
57
60
60
59
58
58
58
59
59
58
57
55
52
50
48
47
46
44
43
42
40
39
36
34
32
31
29
27
26
25
25
24
23
23
22
21
21
20
19
18
17
17
19
23
30
38
45
53
58
61
60
59
58
57
56
56
56
55
53
51
48
46
45
44
43
42
41
40
39
38
36
34
32
31
28
26
25
24
23
22
21
20
18
17
15
14
13
12
11
11
8
9
12
16
25
34
42
51
56
58
58
57
56
55
54
53
53
52
50
49
47
45
44
43
42
41
40
39
37
35
33
31
30
29
27
25
25
23
21
21
20
19
17
17
16
15
14
13
13
13
17
22
29
38
46
53
58
60
60
59
59
59
58
58
57
55
53
51
49
48
48
48
48
47
46
45
44
42
42
38
36
36
31
29
29
26
24
24
22
22
22
21
20
20
25
30
30
46
55
61
66
66
65
64
63
62
61
61
60
58
56
54
52
51
50
50
50
49
48
46
44
40
39
37
34
33
31
30
29
27
26
25
23
22
21
21
21
24
29
38
47
57
66
73
77
79
79
79
79
79
80
80
79
78
75
73
71
70
69
68
67
65
63
60
57
54
52
50
48
46
43
41
40
37
36
34
33
31
30
28
26
25
25
27
35
43
54
66
77
85
90
92
93
93
94
95
95
95
94
93
90
87
85
82
80
79
77
75
56
54
52
50
49
48
46
45
44
42
41
40
39
38
37
36
35
34
33
32
31
31
32
35
39
44
50
56
61
64
66
66
67
67
68
68
68
68
67
66
64
62
61
60
59
58
57
55
54
52
50
49
47
45
43
42
41
40
39
37
36
35
34
33
32
30
29
28
27
27
29
32
37
43
49
56
60
63
65
66
66
67
67
67
67
67
65
64
62
61
59
58
56
54
53
52
50
43
42
41
40
39
37
36
35
33
32
31
30
29
28
27
27
28
31
35
40
47
54
59
63
65
66
66
66
67
67
67
67
67
65
63
63
61
60
60
58
57
57
53
51
48
46
43
41
40
38
37
36
35
33
33
32
31
30
30
30
32
35
40
46
52
58
62
65
66
67
68
68
69
69
69
69
68
66
65
63
62
60
59
57
55
53
52
49
47
45
43
41
40
38
36
34
32
31
29
28
28
29
33
38
43
49
55
59
61
63
63
63
63
62
61
60
59
57
56
56
55
54
54
53
51
49
47
44
42
40
37
35
32
30
28
27
25
23
22
22
24
28
33
40
47
53
58
61
63
63
64
64
63
63
62
61
59
58
56
55
54
52
51
49
47
45
43
40
39
37
35
33
32
30
29
28
26
25
25
27
31
37
43
51
58
64
68
71
73
74
76
76
76
76
74
73
71
69
67
66
64
62
60
58
56
53
51
48
46
43
41
40
38
36
34
32
30
29
30
32
36
41
48
56
62
68
71
74
75
77
79
79
78
78
76
73
71
68
68
63
61
61
56
54
54
48
45
45
40
38
38
33
31
31
27
24
22
21
19
18
18
21
25
31
38
43
48
51
53
53
54
55
55
55
55
53
51
49
47
45
43
41
40
38
35
33
30
28
25
23
21
19
17
15
13
12
10
9
7
6
5
4
4
4
6
10
15
20
26
30
33
35
35
36
36
36
37
37
36
35
34
33
31
30
29
28
26
25
24
22
21
19
18
17
16
15
14
14
13
12
12
11
10
9
8
8
8
10
13
17
21
26
30
31
32
32
33
32
32
32
31
30
28
27
25
24
23
22
21
20
19
18
17
16
15
14
14
13
13
12
12
11
11
11
10
10
10
10
11
14
18
22
27
31
35
36
37
36
36
36
36
36
35
34
33
32
31
31
31
30
31
30
29
29
28
27
26
25
24
23
22
22
22
21
20
20
20
19
19
18
18
18
18
21
25
29
34
38
40
41
41
41
41
41
41
42
42
41
40
40
39
38
37
36
36
35
34
33
32
31
31
30
29
28
27
27
26
26
25
25
24
24
23
23
22
21
21
21
22
25
29
34
39
42
45
46
47
46
46
46
46
46
45
45
44
42
42
40
40
40
39
38
38
37
36
36
34
32
32
30
29
28
28
27
27
26
26
26
25
25
24
24
23
23
24
26
30
34
39
42
45
47
47
47
46
46
46
46
46
46
46
49
48
46
44
43
43
42
40
40
38
36
34
31
29
27
25
24
23
22
21
21
21
21
19
18
17
15
15
15
18
23
32
41
50
58
63
65
65
64
62
61
61
61
60
60
59
57
55
54
53
52
52
51
50
49
46
44
41
39
37
36
36
35
36
36
35
33
30
28
25
23
22
23
28
36
44
53
61
67
69
69
68
66
64
62
60
58
57
54
52
51
50
49
47
47
46
44
42
40
39
36
33
31
29
27
26
25
23
22
20
19
17
17
19
26
35
44
54
64
71
74
76
76
76
76
77
76
75
73
71
70
68
67
66
65
63
60
58
55
53
50
47
44
41
38
35
33
31
29
27
25
23
22
20
20
23
30
30
50
63
63
86
92
92
98
99
99
100
100
100
100
99
99
94
90
90
86
83
81
59
57
54
53
51
49
47
46
44
43
41
40
40
39
38
36
35
34
33
33
35
39
44
51
58
63
68
70
71
72
72
72
73
73
72
71
69
67
64
63
61
60
59
58
56
53
51
49
47
45
43
41
40
39
37
36
35
33
32
31
29
28
27
26
26
27
31
36
42
49
56
60
63
64
64
64
64
64
64
64
63
61
59
57
55
54
53
52
51
49
47
45
43
41
40
38
36
34
32
30
29
28
27
25
24
23
22
22
21
21
20
20
22
25
30
37
43
50
54
57
59
59
60
60
60
60
60
59
57
56
55
53
52
51
50
48
46
44
42
40
39
37
35
33
32
31
30
29
29
27
26
25
24
22
21
20
19
18
19
21
26
32
39
45
51
55
57
58
58
57
57
57
57
56
55
53
51
50
48
47
47
46
45
44
42
41
40
38
36
34
33
31
29
28
27
25
24
22
21
20
19
21
24
29
35
41
47
51
54
56
56
56
56
55
54
53
52
50
49
48
47
46
46
45
43
42
41
40
40
38
36
35
33
31
30
28
28
26
24
24
22
20
20
18
18
18
23
28
28
42
50
50
61
64
64
66
66
67
68
68
68
66
65
63
61
59
58
57
55
54
52
50
48
46
44
42
40
39
38
36
35
34
33
32
31
30
28
27
26
25
26
29
34
40
48
56
63
67
70
71
72
73
74
74
74
73
72
70
68
67
65
64
62
61
59
57
54
51
49
47
45
43
41
40
38
36
35
33
32
31
29
28
27
25
23
22
23
26
32
39
47
55
61
66
68
70
70
71
71
72
71
70
69
67
65
64
63
61
60
59
57
55
53
51
48
45
43
41
40
38
36
34
33
31
29
28
26
25
23
21
20
19
19
21
25
31
37
43
48
52
53
54
55
55
55
55
54
53
52
50
48
46
45
44
42
41
40
39
37
35
33
31
28
26
25
22
21
19
18
17
16
15
14
12
12
12
14
17
21
26
30
34
36
36
37
36
36
36
36
35
34
33
32
31
31
29
29
29
28
27
27
24
22
22
20
18
18
17
16
16
14
13
13
12
11
10
9
10
11
14
19
24
30
34
38
40
41
41
42
42
43
43
42
43
41
39
36
34
32
31
30
28
27
25
22
19
16
13
11
9
6
5
3
2
0
0
0
0
0
0
0
0
0
0
0
0
3
12
22
33
40
46
48
49
50
50
51
51
51
51
50
48
45
43
41
39
38
36
34
33
31
28
25
23
20
18
16
14
12
10
8
7
6
5
4
3
2
1
0
0
0
0
0
0
0
0
0
8
18
29
39
46
52
54
54
53
53
53
53
53
52
51
49
47
45
43
42
41
40
39
37
35
31
29
28
24
23
22
21
20
19
18
18
16
15
13
12
10
8
7
6
4
3
5
10
18
27
37
46
53
57
58
57
57
56
55
54
51
49
46
43
41
40
40
39
37
35
33
30
27
24
22
20
19
17
16
15
13
12
11
9
7
7
5
4
4
4
7
12
20
30
40
49
55
59
61
61
61
61
62
61
60
58
55
52
50
48
47
46
45
44
43
41
39
36
34
31
29
27
25
23
22
20
19
18
17
16
15
14
14
11
10
10
9
13
13
30
41
41
63
70
70
77
78
78
81
82
82
83
82
80
77
74
72
70
68
67
65
64
61
59
55
53
50
47
44
42
40
38
36
34
32
31
29
26
24
22
21
20
18
16
15
17
21
30
41
54
67
78
85
89
90
91
92
92
93
94
93
92
89
86
83
80
78
76
74
73
70
53
51
50
48
46
44
43
41
40
39
38
37
35
34
33
32
31
29
28
27
26
26
26
27
31
36
41
48
53
57
60
60
60
59
59
59
57
57
56
54
53
51
50
50
49
48
48
46
45
43
42
40
39
37
37
35
34
34
33
32
31
30
28
27
26
25
24
25
27
31
35
40
46
50
53
54
54
54
53
53
52
51
50
49
48
46
45
44
43
42
42
41
40
39
38
36
35
33
32
30
29
28
28
27
26
25
24
23
22
21
21
23
26
31
37
42
48
52
55
56
56
55
55
56
55
55
54
53
52
51
50
49
49
48
47
47
44
43
43
40
38
38
35
33
33
30
29
29
28
27
27
26
25
24
23
23
24
27
32
38
45
51
57
61
62
63
64
64
65
65
65
65
65
64
62
61
60
59
57
56
55
53
51
49
47
46
44
42
41
40
39
37
36
34
33
32
31
29
28
27
26
25
24
25
27
32
37
43
51
58
62
65
66
67
67
68
68
69
68
68
66
65
63
61
60
59
58
57
55
53
51
50
47
45
43
41
40
39
37
35
34
33
31
29
28
27
25
24
23
22
21
20
19
18
18
20
24
29
36
43
51
57
61
63
64
64
64
64
65
65
64
63
62
60
58
57
56
55
54
52
50
48
46
44
42
40
39
37
35
34
33
31
30
28
27
26
24
24
21
20
19
18
17
16
17
19
24
30
38
45
51
56
59
60
61
61
61
62
62
62
61
60
58
57
56
55
54
53
52
51
49
47
45
43
41
40
39
37
36
34
33
32
31
30
29
28
27
26
24
23
22
21
20
20
19
18
18
20
24
30
37
44
50
56
59
61
61
61
61
61
61
60
59
58
56
55
54
53
52
51
50
49
47
47
44
41
41
38
36
36
32
31
31
29
28
28
26
25
25
22
21
21
19
19
22
26
32
38
45
50
55
57
58
59
59
59
58
57
56
54
52
50
48
47
46
46
45
44
43
41
40
38
37
35
33
32
30
29
27
26
25
23
22
21
20
18
17
17
16
16
17
21
27
34
41
49
55
58
60
61
61
61
61
61
61
60
59
57
55
54
52
51
50
50
48
46
45
43
40
39
37
35
33
32
31
29
28
27
26
25
24
23
22
21
20
19
19
18
18
18
21
26
32
40
47
55
61
65
67
68
68
68
68
69
69
69
68
67
65
62
61
59
58
56
55
53
51
49
45
43
41
39
38
36
35
34
32
30
29
27
25
23
22
21
20
18
17
16
15
15
17
21
27
34
41
48
53
57
58
58
58
58
59
58
58
57
56
54
53
51
50
49
47
46
44
43
41
40
38
36
34
32
30
29
27
26
25
24
23
22
21
21
19
18
18
16
15
15
13
13
13
18
23
23
36
42
42
51
52
52
51
51
50
50
49
49
47
46
45
43
42
42
41
41
40
40
38
36
34
33
31
29
28
27
26
25
24
23
22
22
21
20
19
20
20
20
21
24
28
32
37
40
43
45
46
45
44
43
43
42
41
40
40
38
37
36
36
35
35
34
33
32
31
30
29
27
26
25
25
24
23
22
21
20
20
19
18
18
17
18
21
25
31
37
43
48
52
54
55
55
55
55
55
55
54
53
52
51
49
49
49
48
48
47
46
45
43
41
40
39
37
36
35
33
32
31
30
29
28
27
26
25
25
24
23
23
25
28
34
40
47
53
58
61
63
64
64
65
66
66
66
66
65
64
62
61
60
59
58
56
55
54
52
50
48
46
44
42
41
40
38
37
36
35
33
32
31
30
30
29
28
27
26
26
28
31
36
42
49
56
61
65
66
67
67
68
69
69
69
68
67
66
64
62
61
59
58
57
56
54
52
50
48
46
44
42
40
40
38
36
35
33
32
31
30
29
27
26
25
24
23
22
23
25
30
37
43
50
57
61
64
65
65
65
65
65
65
65
64
64
61
60
60
57
56
56
54
53
53
49
47
47
42
41
41
38
37
37
34
33
32
30
29
28
27
26
25
24
23
23
26
31
38
45
53
60
64
67
68
68
68
67
67
67
66
64
62
60
58
56
55
53
52
51
49
48
46
45
43
42
40
39
38
36
34
32
30
28
26
24
23
21
21
22
25
30
37
43
50
56
60
62
63
63
64
63
63
62
60
59
57
55
54
53
52
51
50
49
47
45
43
41
39
37
34
32
30
28
26
25
24
23
22
21
20
20
20
21
24
30
37
45
53
61
66
69
71
72
72
73
74
74
74
74
72
70
68
66
64
62
60
58
55
53
50
47
44
41
40
37
35
33
30
29
27
25
24
22
20
18
17
15
13
13
14
18
24
31
39
46
52
56
59
61
62
63
64
66
66
66
64
63
61
59
57
55
53
51
49
47
45
42
40
38
36
34
32
30
28
26
25
23
22
20
19
18
16
16
14
12
12
13
16
16
29
37
37
50
55
55
59
60
60
62
62
62
62
61
59
57
55
53
52
51
49
48
46
44
42
40
38
36
33
31
29
27
25
24
23
22
21
20
19
19
18
17
16
15
16
18
22
28
35
42
50
55
59
60
61
61
62
62
62
62
61
60
58
57
55
54
52
51
49
47
45
42
40
37
34
31
29
27
25
23
21
20
18
17
16
15
15
15
16
19
24
31
38
44
50
55
57
58
58
58
58
57
56
55
53
52
50
49
48
47
47
46
44
42
40
39
36
33
31
29
27
26
24
23
22
21
21
19
18
18
18
20
23
29
36
42
49
55
58
60
61
61
61
61
61
60
59
58
56
53
52
50
48
47
45
44
42
40
38
35
33
31
29
27
26
24
23
22
21
20
18
17
16
14
13
12
14
17
23
30
38
44
50
55
57
58
58
59
59
60
60
59
58
56
54
52
51
49
48
47
45
43
41
40
38
35
33
31
30
28
27
25
24
23
22
21
20
19
17
16
14
14
15
18
23
29
37
43
48
52
55
56
56
56
57
57
57
56
54
53
51
49
47
45
44
42
40
39
39
36
34
34
30
28
28
24
23
23
20
18
18
16
15
15
14
13
13
10
9
9
9
11
15
21
28
34
40
43
45
46
46
46
46
46
47
46
45
44
43
41
40
40
39
38
37
36
35
33
31
29
28
26
25
23
22
21
20
19
18
17
16
16
15
14
14
13
12
12
12
14
18
23
29
35
40
44
46
46
46
45
51
51
51
51
50
48
46
43
41
40
39
37
36
34
31
29
26
24
21
18
15
12
10
8
7
5
4
3
2
1
0
0
0
0
0
0
3
11
21
32
42
51
55
57
57
56
55
55
54
52
51
48
46
43
41
40
39
38
37
35
33
30
27
25
22
19
16
14
12
9
7
6
4
2
0
0
0
0
1
8
17
27
38
46
52
52
52
52
49
49
48
47
46
45
44
42
40
40
39
37
35
33
31
28
26
23
20
18
15
13
11
9
8
7
5
4
3
2
0
0
0
1
5
13
23
34
44
53
59
59
63
63
63
64
63
63
62
61
61
57
55
55
51
50
50
48
46
44
42
40
37
35
32
30
27
25
23
21
19
18
16
15
12
11
9
8
8
12
19
29
40
51
61
68
71
73
73
73
74
74
74
74
73
71
69
66
64
62
60
58
55
52
49
46
43
40
38
36
33
31
29
28
26
23
21
19
18
16
15
12
11
10
11
16
22
33
44
55
64
71
76
77
77
77
77
77
75
74
72
70
68
65
63
62
60
58
57
54
51
48
44
41
38
36
33
31
30
29
27
26
25
24
22
21
19
18
16
16
19
25
35
45
58
68
77
81
84
85
85
86
86
86
85
83
82
80
78
77
76
74
73
72
69
53
52
50
49
47
45
44
42
41
40
38
36
35
33
31
30
29
30
32
35
39
44
50
55
59
62
63
63
63
63
62
60
59
57
56
54
53
53
52
51
50
49
47
45
43
41
40
38
37
35
34
33
32
32
31
30
29
28
29
32
36
41
48
54
59
62
64
65
65
65
65
65
65
64
62
61
59
58
57
56
54
53
51
50
48
46
44
42
40
39
37
35
34
32
31
30
28
27
26
25
25
25
29
34
34
46
52
52
60
62
62
63
64
64
64
64
63
62
60
60
56
55
53
52
50
48
46
43
41
40
37
35
34
32
30
28
27
25
24
22
21
20
19
18
16
16
17
19
24
29
35
40
44
47
48
49
49
49
50
50
49
48
47
45
43
42
40
40
39
38
36
35
33
31
30
28
27
26
24
23
21
20
19
19
18
17
16
15
14
13
13
12
11
11
11
12
15
19
25
30
35
39
41
42
43
43
43
44
44
44
43
45
43
40
38
36
33
32
30
28
26
24
21
18
16
14
11
9
8
6
5
4
2
1
0
0
0
0
0
0
0
0
0
0
0
0
0
2
11
22
32
40
44
46
46
46
45
45
44
44
43
42
40
39
37
33
32
31
28
26
25
23
21
18
17
15
13
12
11
11
10
10
9
8
7
5
4
2
1
0
0
0
6
13
21
32
40
48
51
52
51
50
49
46
44
43
41
38
36
36
34
33
33
33
33
33
31
28
28
24
21
21
18
16
16
13
12
12
8
7
5
4
2
2
5
11
20
31
41
51
58
62
64
63
62
62
62
62
61
60
58
56
54
52
51
50
49
48
47
45
44
41
39
36
33
31
28
25
23
21
20
18
17
15
12
10
8
7
5
6
11
18
28
40
52
62
70
74
76
76
77
77
78
78
78
77
75
72
69
66
64
62
60
58
56
53
50
47
44
41
39
37
33
30
27
24
22
19
18
15
15
10
7
7
7
13
22
33
45
57
68
74
77
78
78
78
79
79
80
78
76
74
71
67
64
62
60
58
56
53
50
47
44
41
39
36
33
31
29
26
24
21
20
18
16
14
13
11
10
9
7
6
10
17
25
37
50
61
70
75
77
77
77
77
77
78
78
77
75
72
69
66
64
63
62
60
58
55
52
49
46
43
40
37
35
32
29
27
25
23
22
20
17
15
13
10
8
9
13
21
31
42
54
63
69
72
73
72
71
70
69
68
65
62
60
58
56
55
54
54
53
51
49
46
44
41
38
35
32
29
26
23
21
19
17
15
14
12
10
8
8
8
12
12
31
44
44
71
81
81
89
91
91
92
92
92
91
89
89
85
82
80
78
76
74
73
55
53
51
49
47
45
44
42
41
40
39
38
37
35
34
33
32
31
30
28
27
27
27
30
35
41
48
55
61
66
68
70
70
71
72
72
72
72
71
69
67
66
64
63
62
61
60
58
56
54
51
49
47
45
43
41
40
39
37
36
35
34
32
31
30
28
27
26
25
26
29
34
40
47
55
62
67
70
72
73
74
75
76
76
76
76
75
73
71
68
66
65
63
61
59
57
54
51
48
45
42
40
38
36
34
32
30
29
27
26
24
23
22
21
20
19
19
21
25
31
38
45
54
61
66
69
71
71
72
73
73
73
72
71
69
67
66
64
63
62
61
59
57
55
52
50
47
45
42
40
39
37
36
34
32
29
27
24
21
19
17
16
18
22
28
36
43
51
58
63
65
67
68
68
68
68
67
65
64
62
60
59
58
57
56
56
52
50
50
46
43
43
39
37
37
33
32
32
29
28
28
26
25
25
25
28
33
40
47
56
63
68
71
73
75
76
76
77
76
75
73
71
69
67
65
63
62
60
58
56
53
50
47
44
41
39
36
34
32
30
28
26
24
23
22
20
20
18
17
18
21
27
35
44
54
63
71
76
79
81
83
84
86
86
86
85
83
81
78
75
73
71
68
66
63
60
57
54
51
48
45
42
40
38
36
33
31
29
27
25
23
22
20
18
17
16
17
22
29
38
47
57
66
72
76
79
81
82
84
85
85
84
82
79
76
73
70
67
65
62
59
56
53
49
46
42
40
37
34
31
29
26
24
22
20
18
17
15
13
12
10
9
7
7
8
11
17
26
36
45
54
61
66
70
71
73
74
75
75
74
72
70
68
64
62
60
58
57
55
52
49
46
42
40
36
33
30
27
24
22
20
18
17
15
13
12
10
9
8
7
8
11
17
25
34
42
50
56
60
62
63
64
64
64
63
62
59
57
54
52
51
49
48
46
45
43
40
39
36
33
30
28
26
24
22
21
20
18
16
14
13
11
9
9
11
16
23
32
40
48
48
59
61
61
63
63
63
62
60
60
56
53
53
49
48
48
45
44
44
40
37
34
31
29
26
23
21
19
17
16
14
13
11
10
9
8
7
9
13
20
28
38
48
58
65
69
72
73
74
75
75
75
74
72
69
67
64
62
59
57
55
53
51
48
45
42
39
36
33
30
27
25
22
20
18
16
14
12
10
9
7
6
5
5
7
13
21
31
42
53
62
69
74
77
78
80
81
81
81
80
78
76
73
70
68
65
64
62
59
56
53
50
46
42
40
35
32
30
26
24
22
20
18
16
15
13
11
10
8
6
5
4
6
10
17
27
38
49
59
67
72
75
77
78
79
79
79
78
76
73
70
67
65
62
60
58
56
53
50
47
43
40
38
35
32
28
26
23
20
18
16
14
12
10
9
8
7
5
4
3
3
6
12
20
31
42
53
63
69
73
76
77
78
79
79
78
77
74
71
68
66
63
61
59
57
55
52
50
50
43
40
40
34
31
31
25
22
22
18
16
16
13
11
11
7
6
5
7
11
18
28
40
51
62
70
77
80
81
81
81
80
79
77
74
72
69
66
63
61
59
57
54
52
49
45
42
39
36
33
30
27
24
22
20
18
16
13
11
10
9
10
14
21
31
41
51
61
68
72
74
74
75
74
72
71
68
65
61
58
56
55
53
51
50
47
44
41
38
35
32
29
25
23
20
17
15
13
11
9
7
5
5
6
11
18
29
40
53
65
74
80
83
85
86
86
86
85
83
81
58
57
55
53
52
51
49
48
46
44
42
40
39
37
36
34
33
31
30
28
27
26
26
25
24
23
23
23
24
27
32
38
44
51
56
60
63
64
65
66
66
66
65
64
62
61
59
57
55
54
53
51
49
47
45
43
41
40
38
37
35
33
32
30
29
28
27
26
25
24
23
22
21
21
22
24
29
34
40
47
52
56
59
60
61
61
62
62
61
60
59
57
55
54
52
51
49
48
47
45
43
41
40
38
36
34
33
31
30
28
27
26
25
24
23
22
21
20
19
18
18
18
19
22
27
32
39
45
51
55
58
60
61
61
61
61
61
60
59
57
57
54
52
52
50
49
49
46
44
44
40
39
39
35
33
32
31
29
28
27
26
24
23
22
21
21
21
23
26
31
37
42
48
52
55
57
57
58
57
57
56
55
53
51
49
48
46
45
44
43
42
41
40
38
36
35
33
32
30
29
28
26
25
24
23
22
22
21
21
21
23
26
31
37
43
49
55
59
61
63
63
64
64
63
62
61
60
58
56
54
53
51
50
48
47
45
43
41
40
38
36
35
33
32
30
29
28
27
26
25
24
23
22
21
21
22
25
30
37
43
50
56
61
64
65
66
66
67
66
66
64
63
61
59
57
55
53
52
51
49
47
45
43
41
40
38
36
34
33
31
30
29
28
27
26
25
24
23
22
21
20
21
24
28
34
40
47
54
59
62
64
65
65
66
65
65
64
62
60
58
56
55
53
52
51
49
48
46
43
41
40
38
36
34
32
31
29
28
27
26
25
24
23
22
21
21
20
21
21
29
36
36
49
55
55
61
63
63
63
63
63
61
60
60
56
54
53
52
51
49
48
47
46
44
42
40
38
37
35
33
32
30
29
28
26
25
24
23
22
22
23
27
31
37
43
50
55
59
62
63
64
64
64
64
64
63
62
60
59
58
57
56
55
53
52
50
47
45
43
40
39
37
35
33
31
30
28
27
26
25
23
23
22
23
25
29
36
42
49
55
60
64
65
66
67
66
66
66
64
62
60
58
56
54
52
51
49
47
46
44
42
40
38
36
34
32
30
29
27
26
25
23
22
21
20
19
18
18
18
21
25
31
39
45
52
57
61
63
65
65
65
65
65
64
62
60
58
55
53
52
50
48
46
45
43
40
39
37
35
33
31
30
28
27
25
24
23
22
21
20
19
18
17
17
18
21
26
32
40
46
52
57
60
62
63
63
64
63
62
61
59
57
55
53
51
49
48
47
45
44
42
40
39
37
35
33
31
29
28
26
25
24
23
22
21
20
19
19
18
19
22
26
32
39
45
51
56
59
60
61
61
61
60
59
58
56
54
52
51
50
49
48
47
45
44
42
40
38
36
34
34
31
30
30
27
26
26
24
23
23
21
21
21
25
29
29
41
47
47
55
57
58
58
58
57
56
54
53
51
49
47
46
45
44
43
42
40
40
38
36
34
32
30
28
27
26
24
23
22
21
20
19
19
20
23
27
33
40
46
53
57
61
63
64
64
64
64
63
61
60
58
55
53
51
50
48
47
45
43
41
40
38
36
34
32
31
29
28
27
26
25
24
22
21
21
20
21
24
28
34
40
47
53
58
62
64
65
65
66
66
65
64
62
60
57
55
53
51
49
47
46
44
42
40
38
36
34
33
31
29
28
27
26
24
23
22
20
19
18
17
17
18
21
26
31
38
44
49
54
56
58
59
59
59
59
58
57
55
53
51
49
47
46
45
43
41
40
39
37
35
33
32
30
28
27
25
24
23
22
21
20
20
19
17
16
16
16
17
21
25
30
36
40
45
47
49
50
51
51
51
50
49
48
47
45
44
42
41
40
40
39
39
36
34
34
31
29
29
27
25
25
23
22
22
20
19
19
17
16
16
18
21
25
29
34
38
40
41
42
42
43
42
42
41
40
40
39
38
37
36
36
35
35
34
32
31
30
28
24
23
23
22
21
20
19
18
18
18
19
21
24
28
33
37
40
43
45
46
46
47
47
47
47
46
52
50
48
46
44
42
40
39
37
35
32
29
27
24
22
19
17
15
13
11
9
7
6
6
3
1
1
0
2
10
17
26
34
42
48
52
55
57
58
59
60
61
61
60
59
57
55
53
51
50
48
47
45
43
40
38
35
33
30
28
25
23
21
18
16
14
12
11
9
8
6
5
5
8
12
20
29
38
46
53
58
62
64
65
66
67
68
67
66
65
62
60
57
55
54
52
50
48
46
43
40
37
34
31
29
27
25
23
22
20
18
17
15
13
11
10
8
7
8
11
17
25
34
43
52
58
63
66
68
68
69
70
69
68
66
64
62
59
57
56
54
53
51
49
46
43
41
39
36
33
30
28
26
24
22
20
18
17
15
13
12
11
13
17
24
33
42
51
59
65
69
71
72
73
73
72
70
68
68
62
60
60
56
54
54
50
47
47
42
39
39
33
30
30
24
22
22
17
15
12
10
8
7
9
13
20
28
38
47
55
61
65
67
68
69
68
67
66
63
60
58
56
53
51
49
47
45
43
40
38
35
32
29
26
23
20
17
15
13
11
9
8
6
5
5
8
14
23
34
45
56
65
72
76
79
81
82
82
82
81
78
76
73
69
66
64
61
59
57
54
51
47
44
41
39
36
33
30
28
25
23
21
19
17
15
13
11
12
15
21
30
40
52
63
71
77
81
83
84
85
85
85
83
81
78
74
70
66
63
60
57
53
50
47
44
40
37
34
30
27
24
21
19
16
14
12
10
9
7
5
4
3
4
8
16
26
38
49
59
67
72
75
76
77
77
76
75
74
71
68
65
62
59
57
55
52
50
47
44
41
38
34
30
27
24
21
18
16
14
12
11
10
8
7
5
4
5
8
14
22
33
44
54
63
69
72
72
74
74
72
71
69
69
64
62
62
57
55
55
52
50
50
44
41
41
35
31
28
25
22
19
17
15
13
10
8
6
4
4
7
13
21
32
42
53
62
68
71
73
74
74
73
72
70
68
65
62
59
56
54
52
49
46
43
40
36
31
27
23
20
16
14
12
10
9
7
6
4
2
1
1
3
9
18
29
40
51
60
66
70
72
73
73
73
73
72
70
67
63
60
57
55
52
50
47
44
41
39
35
31
28
25
21
18
16
13
11
9
7
5
4
2
0
0
0
4
11
20
32
45
57
67
73
78
80
82
82
82
82
80
78
75
71
68
64
61
59
56
53
50
46
42
39
35
31
28
24
22
19
16
14
12
10
8
6
4
2
1
0
0
4
11
21
33
44
56
66
73
77
79
81
82
82
81
80
77
74
70
67
64
61
59
56
54
51
47
44
40
37
33
30
26
24
21
19
16
14
12
10
8
6
4
5
8
13
22
33
43
53
62
67
70
71
71
71
69
68
65
62
59
56
53
51
49
47
44
42
39
36
32
28
25
22
19
16
14
12
10
8
6
4
3
1
1
3
8
17
27
39
50
60
60
73
76
76
77
77
77
74
72
72
65
61
61
56
53
53
49
46
46
39
36
32
28
25
22
19
16
14
12
10
8
7
5
4
2
1
2
6
13
23
36
49
61
71
78
83
85
87
88
88
87
85
82
59
57
55
53
51
50
48
46
45
43
41
40
38
36
34
33
31
30
28
27
26
25
24
24
23
22
21
20
20
20
23
27
32
39
45
51
56
59
61
63
63
64
64
63
62
61
59
57
55
53
51
49
48
46
45
43
41
40
38
36
34
32
31
29
28
26
25
24
23
22
22
21
20
19
18
18
17
17
19
22
27
33
40
47
53
57
60
62
62
63
63
62
62
60
59
57
55
53
52
50
49
47
46
44
42
40
39
37
35
34
32
31
29
28
26
25
24
22
22
21
20
19
18
18
17
17
19
22
26
32
39
45
51
55
58
59
60
60
60
59
58
56
55
53
52
50
49
48
47
46
45
43
41
40
38
36
34
32
32
29
27
27
25
24
24
22
21
21
20
21
21
28
33
33
45
51
51
58
59
59
59
58
57
55
54
52
50
48
47
46
45
44
43
41
40
39
37
35
33
31
30
28
27
26
25
24
23
22
21
21
20
19
19
20
23
27
33
40
48
55
60
64
66
67
67
67
67
66
65
63
61
59
56
54
53
51
49
48
46
44
42
40
38
36
34
33
31
29
28
27
26
25
24
23
22
21
20
19
19
20
23
28
35
42
50
56
61
65
66
67
68
68
67
67
65
64
62
59
57
55
53
51
50
48
46
44
42
40
38
36
34
32
30
29
27
26
24
23
23
22
21
20
19
18
18
18
20
23
29
36
43
50
57
61
64
66
67
67
67
66
65
64
62
59
57
55
53
51
50
48
46
44
42
40
39
37
35
33
31
29
28
26
25
24
23
22
22
21
20
19
18
18
19
21
26
31
39
45
52
58
62
64
65
65
65
65
64
63
61
59
57
55
53
52
50
49
47
46
44
42
40
39
37
35
34
32
30
29
28
27
26
25
24
23
22
22
22
24
28
33
40
46
52
57
60
61
62
61
61
60
58
56
54
54
50
48
48
46
45
45
42
41
41
38
36
36
32
31
31
27
26
26
23
22
21
20
19
19
20
22
26
32
40
46
53
59
62
64
65
66
66
65
64
63
61
59
56
54
52
51
49
48
46
44
42
40
38
36
34
32
30
28
27
26
25
24
23
22
21
20
19
18
19
20
24
30
37
44
52
59
64
67
69
70
70
70
70
68
67
64
62
59
56
54
53
51
49
47
45
43
41
40
38
36
34
33
31
30
28
27
26
24
23
22
21
20
19
19
20
23
28
35
42
50
57
62
66
68
69
69
69
69
68
66
64
61
59
56
54
52
50
49
47
45
43
41
39
37
35
33
31
30
28
27
26
24
23
22
21
20
19
18
17
16
17
19
23
29
36
43
51
57
62
64
66
66
66
66
65
63
61
59
56
54
52
50
48
47
46
44
42
40
39
37
35
33
32
30
28
27
26
25
24
23
22
21
20
19
19
20
23
23
34
40
40
53
57
57
60
60
60
59
58
58
54
52
52
49
47
47
45
44
42
41
40
38
36
33
32
30
28
26
25
24
23
22
21
20
19
18
17
17
18
21
26
32
40
45
51
55
57
58
58
58
57
56
55
53
52
50
48
46
45
44
43
41
40
39
37
35
33
31
29
27
26
24
23
22
21
20
19
18
17
17
16
16
17
19
24
31
38
45
52
57
61
63
64
64
65
64
64
62
60
58
56
54
52
50
49
47
46
44
42
40
38
36
34
32
30
29
27
26
24
23
22
21
21
20
19
18
17
16
16
17
19
24
30
38
45
53
59
63
65
67
67
68
68
67
66
64
62
60
57
55
53
51
49
48
46
44
41
40
37
35
33
31
30
28
26
25
24
23
22
21
20
19
18
17
16
16
15
14
14
15
18
23
30
38
45
53
59
63
66
67
68
68
68
68
66
64
62
60
57
55
53
51
49
48
46
44
42
40
39
36
34
32
30
29
27
26
25
23
22
21
20
19
19
18
17
16
15
15
14
15
18
23
30
38
45
53
59
63
66
67
67
67
67
66
65
63
61
58
56
54
53
51
51
48
46
46
42
40
40
37
35
35
31
29
29
26
25
25
22
21
21
20
19
18
17
16
16
16
18
22
28
35
42
50
56
60
62
63
63
63
62
60
58
56
54
52
50
49
47
46
45
44
43
41
40
38
36
34
32
30
29
27
26
25
23
22
21
20
19
18
17
17
17
18
22
28
35
42
50
56
61
64
65
65
65
64
63
61
59
57
55
53
51
49
48
47
46
44
42
40
38
36
34
32
30
28
26
24
23
22
21
20
19
18
17
16
16
15
15
15
16
20
26
33
41
50
58
64
68
70
71
71
71
70
69
67
66
63
61
59
57
55
54
52
50
48
46
43
41
39
37
35
33
31
29
27
26
24
23
22
21
20
19
18
17
17
16
15
15
16
20
25
33
41
50
58
64
68
70
71
72
71
71
70
68
66
64
61
59
56
54
53
51
50
48
46
43
41
39
37
34
32
26
25
24
23
21
20
19
18
17
17
16
17
19
23
30
37
45
53
59
63
66
67
67
67
66
65
63
61
59
57
55
54
52
51
50
49
47
45
43
41
40
38
36
34
32
30
29
27
26
25
23
22
21
20
19
20
23
28
35
41
48
54
57
60
61
61
61
60
59
57
55
53
51
49
48
47
46
45
44
43
42
40
39
37
35
33
31
29
27
26
25
23
22
21
20
19
19
18
20
23
28
35
42
50
58
63
66
68
69
69
69
68
67
66
64
62
60
57
55
53
51
50
48
46
44
42
40
38
36
34
32
31
29
28
26
25
24
23
22
21
20
19
18
18
19
23
29
36
43
51
58
63
67
69
69
70
70
69
68
67
65
62
59
57
55
53
51
49
47
45
43
41
40
38
36
34
32
30
28
27
25
24
23
22
21
20
19
18
17
16
16
16
19
24
30
38
46
54
60
64
67
68
68
68
68
67
66
64
62
60
57
55
53
52
50
49
47
45
43
41
39
37
35
33
31
29
28
26
25
24
23
22
21
20
19
18
18
18
21
26
32
40
47
54
59
63
64
65
64
64
63
61
59
57
54
52
50
48
47
46
45
43
43
40
38
38
34
31
31
27
26
26
22
21
21
19
18
18
17
16
16
16
18
23
29
37
44
52
58
62
65
66
66
66
65
64
62
60
57
55
52
50
48
46
45
43
42
40
39
37
35
33
31
29
27
26
24
23
22
21
20
19
18
17
17
16
15
15
16
19
24
31
39
47
55
62
66
69
70
70
70
70
69
68
66
63
60
58
55
53
51
49
47
45
43
41
39
37
35
33
30
28
27
25
24
22
21
20
19
18
17
16
16
15
14
13
13
14
18
24
31
40
49
57
63
67
69
69
69
69
68
67
65
63
61
58
55
53
51
50
48
47
45
43
41
40
37
35
33
31
28
27
25
23
22
21
20
19
18
17
16
15
14
13
13
14
16
21
27
35
43
51
58
62
65
66
66
66
65
63
62
59
57
55
52
51
49
48
47
45
44
42
40
38
35
33
31
29
27
25
24
22
21
20
19
18
17
16
15
14
14
19
25
25
40
48
48
60
63
63
65
64
64
62
60
60
55
53
53
49
47
46
45
44
43
42
40
39
37
35
33
31
29
27
25
23
22
21
20
19
18
17
16
15
14
15
18
23
30
38
47
55
62
67
70
71
71
71
70
69
67
65
62
60
56
54
52
50
49
47
45
43
41
40
37
35
33
31
29
27
25
23
22
21
19
19
18
17
16
15
14
13
13
13
15
19
26
34
43
52
60
66
70
72
72
72
72
71
70
68
66
63
60
58
55
53
51
50
48
46
44
41
40
37
35
33
31
29
28
26
24
23
22
21
20
19
18
17
16
15
14
13
12
13
15
20
27
35
44
53
60
65
68
69
70
70
69
68
67
65
62
60
57
55
54
52
51
49
48
46
44
41
40
38
35
33
31
29
27
25
24
22
21
20
19
19
18
17
16
16
16
17
20
25
32
40
47
55
61
65
66
67
66
66
64
63
61
59
56
54
52
50
49
48
47
46
45
43
41
39
37
35
33
31
29
28
27
26
24
23
22
21
20
18
18
18
20
25
31
38
45
51
57
60
61
62
61
60
58
57
55
52
50
48
46
45
44
43
43
41
40
40
37
35
35
30
28
28
25
23
23
21
20
20
18
18
17
16
17
19
24
31
39
47
55
61
65
68
68
68
68
67
66
64
62
60
57
55
53
51
50
48
47
45
43
41
39
37
35
32
30
29
27
26
24
23
22
21
21
20
19
18
17
17
18
22
27
35
43
52
59
65
68
70
71
70
70
69
68
66
64
62
59
56
54
52
50
48
46
44
42
40
38
36
34
32
30
29
27
26
24
23
22
21
20
19
18
17
16
16
15
15
17
21
27
35
43
52
59
64
67
69
69
69
68
68
66
64
62
59
57
54
52
50
48
46
45
43
41
39
37
35
33
31
29
28
26
25
24
23
22
21
20
19
18
17
16
15
14
14
14
15
19
25
33
41
50
57
63
66
68
68
68
67
66
64
62
60
58
55
53
51
50
49
47
46
44
42
40
39
37
35
33
32
31
29
28
27
25
24
23
22
20
19
18
17
17
19
23
23
36
43
43
56
60
60
63
63
63
61
59
59
55
52
52
48
46
45
44
43
41
40
39
37
35
33
30
28
26
25
23
21
20
19
18
17
16
15
14
13
13
12
13
16
21
28
37
46
54
61
66
68
69
69
69
68
67
65
63
61
58
55
53
51
49
48
46
44
42
40
39
37
34
32
30
28
27
25
23
22
21
19
18
17
16
15
14
13
12
11
11
13
16
23
31
40
50
58
65
69
71
72
72
71
70
68
66
64
61
59
56
54
52
50
48
46
44
42
40
38
36
34
31
29
27
25
24
22
21
19
18
17
16
15
14
14
13
12
11
10
10
12
16
23
32
41
51
59
66
70
72
72
72
71
70
69
67
65
62
59
56
54
52
50
49
47
45
43
41
40
37
35
33
31
29
27
25
24
22
21
20
19
18
17
16
15
14
13
13
12
12
14
19
26
35
43
53
61
67
71
72
72
72
71
70
68
66
63
61
58
56
54
53
52
50
49
47
45
42
40
38
36
34
31
29
28
26
25
24
23
22
21
20
19
18
18
19
22
28
35
42
50
57
63
66
67
67
66
64
62
60
60
55
52
52
48
47
47
45
44
44
41
40
40
36
34
34
30
28
28
24
23
22
21
20
19
18
17
16
17
20
25
32
40
49
58
65
69
71
72
72
71
70
68
66
64
61
59
56
54
53
51
50
48
46
44
42
40
38
36
33
31
29
27
26
24
23
21
20
19
18
17
16
15
14
15
18
23
30
38
47
56
64
69
72
73
74
74
73
72
71
69
66
63
61
58
56
54
52
50
48
46
44
41
40
37
35
33
31
30
28
27
25
24
23
22
21
20
19
18
17
16
15
15
16
20
25
33
41
50
59
65
69
72
73
73
72
72
71
69
67
65
62
60
57
55
53
52
50
48
46
44
42
40
38
36
34
32
30
29
27
26
25
23
22
21
20
19
17
16
15
14
14
17
21
28
36
44
52
59
64
67
68
68
68
67
65
63
61
58
56
53
52
50
49
48
46
45
43
41
40
37
35
33
30
29
27
25
23
23
21
20
20
17
16
16
14
15
15
23
30
30
46
54
54
64
66
66
66
66
64
63
61
58
56
53
51
49
48
47
46
44
42
40
39
37
35
32
30
28
26
25
23
22
21
20
19
18
17
17
16
15
14
13
13
14
17
23
31
40
49
58
65
70
73
74
75
74
74
72
71
68
66
63
60
57
55
53
51
49
48
45
43
41
39
37
34
32
30
29
26
25
24
22
21
20
19
18
17
16
15
14
13
12
12
12
14
19
26
35
44
54
62
68
71
73
74
74
73
72
71
69
67
64
61
58
56
54
52
50
48
46
44
42
40
38
36
34
32
30
28
27
25
24
23
22
21
20
19
18
17
16
15
15
14
14
16
20
26
34
43
52
60
66
70
72
72
72
71
70
68
66
63
61
58
56
54
52
51
50
48
46
43
41
39
37
34
32
30
28
26
25
24
23
22
21
20
19
18
17
16
16
17
21
27
35
42
51
59
64
67
69
69
68
67
65
63
61
58
56
53
51
49
48
47
46
44
42
40
39
36
34
32
30
28
26
25
24
23
21
20
19
18
17
16
15
14
13
13
15
18
24
31
40
48
56
62
62
67
68
68
68
67
67
65
62
62
57
55
55
50
49
49
46
44
42
40
38
36
33
31
29
27
25
24
22
21
20
19
17
17
15
14
13
12
12
11
10
10
10
13
17
23
31
38
45
50
55
57
58
59
59
59
59
58
56
55
53
50
48
47
45
44
42
41
40
38
36
34
32
30
28
27
26
24
23
22
21
20
19
18
17
17
16
15
14
13
13
12
11
11
11
13
17
23
29
36
41
46
50
52
53
54
54
54
54
54
53
52
51
49
48
47
46
45
44
43
41
40
39
37
35
33
32
30
29
27
26
25
24
23
22
22
21
20
20
17
17
16
17
20
23
28
34
40
44
47
50
51
52
52
52
52
52
51
50
48
47
45
44
44
43
42
42
41
40
39
37
35
34
32
31
29
28
27
26
25
24
23
22
21
20
19
18
18
18
19
22
26
32
37
44
48
51
52
53
53
53
53
53
52
52
50
48
48
46
45
45
44
43
43
41
40
40
37
35
35
32
31
31
29
28
27
26
25
24
24
23
22
22
21
20
20
20
20
23
27
32
38
43
49
54
57
59
60
62
63
64
64
64
64
63
62
60
59
57
56
55
54
53
51
49
47
45
43
42
40
39
37
36
34
33
32
30
30
29
28
27
26
25
24
23
22
23
25
29
34
40
47
53
58
62
64
66
67
67
67
67
67
66
64
62
60
59
57
56
55
54
52
51
49
47
45
43
41
40
38
36
35
33
32
31
30
29
28
27
26
25
24
23
23
24
27
31
37
43
50
56
60
63
65
65
66
66
66
65
64
62
60
58
57
55
54
53
51
50
48
46
44
42
40
39
37
35
34
32
31
29
28
27
26
25
24
23
23
24
27
32
38
44
50
55
58
60
61
61
61
60
59
58
56
54
52
50
49
48
47
46
45
43
41
40
38
36
35
33
31
30
28
27
26
25
24
23
22
21
21
22
25
30
36
43
50
57
61
65
67
68
68
68
68
67
65
63
61
59
56
54
53
51
50
48
46
44
42
40
38
36
34
32
30
29
27
26
25
24
24
22
21
21
19
19
19
24
29
29
42
50
50
61
64
64
67
67
67
67
66
64
62
59
57
54
52
50
48
46
44
42
40
39
37
35
33
30
29
27
25
24
23
21
20
19
19
18
17
16
15
14
14
15
18
23
29
35
41
46
49
52
53
54
54
55
54
54
53
51
49
47
46
44
43
41
40
39
37
35
34
32
30
28
27
25
24
23
21
20
19
19
18
17
16
16
15
14
14
13
12
12
14
16
21
26
31
37
41
44
46
47
48
48
49
49
49
48
47
45
44
43
42
41
40
40
39
38
37
35
34
32
31
30
29
28
27
26
25
24
23
23
22
21
21
20
19
18
18
17
17
19
22
26
32
37
40
44
46
47
48
48
48
49
48
48
54
52
49
46
44
43
42
41
40
39
37
34
31
28
25
22
20
18
15
13
12
10
9
8
7
6
4
3
2
1
3
8
15
24
34
43
51
56
59
60
61
62
62
62
61
61
57
55
55
50
49
49
47
46
46
41
39
39
33
30
30
25
23
21
19
17
16
14
12
10
9
8
6
5
4
3
1
0
1
3
9
18
28
40
50
59
65
70
72
74
75
76
77
77
77
76
74
72
70
67
66
64
62
59
56
53
51
47
43
41
38
35
31
28
26
23
21
19
17
15
13
12
10
8
6
4
3
3
5
10
18
29
41
53
64
73
78
82
84
85
86
86
86
84
82
80
58
57
55
54
53
52
50
49
47
45
43
41
40
38
37
35
33
32
31
29
28
27
27
26
25
24
23
22
21
21
22
24
28
33
40
45
51
56
59
61
62
63
63
63
63
62
61
59
58
57
55
54
53
52
50
49
47
45
43
41
39
37
35
34
32
31
29
28
27
26
25
24
23
22
22
24
27
32
38
44
51
56
59
61
61
61
61
60
59
57
56
54
52
51
50
49
48
47
46
44
43
41
40
38
36
34
33
31
29
28
27
26
25
24
23
22
21
20
20
21
23
28
34
41
49
56
61
65
67
69
69
69
69
68
66
65
63
60
58
56
55
53
51
50
48
46
44
42
40
38
36
36
33
31
31
28
27
27
24
23
23
21
21
21
20
22
22
32
39
39
53
59
63
65
66
67
67
66
65
64
62
60
58
56
54
52
50
49
47
45
44
42
40
38
36
34
32
31
29
27
26
25
24
23
22
21
20
19
18
17
17
18
21
26
33
40
47
53
58
61
63
63
63
63
63
62
61
59
57
55
53
51
50
49
47
46
44
42
40
39
37
35
33
31
30
28
27
26
25
24
23
22
21
20
19
18
18
20
22
27
33
40
47
53
58
61
62
62
62
61
60
59
57
55
53
51
49
48
47
46
45
44
42
40
39
37
36
34
32
31
29
28
26
25
24
23
22
21
20
20
21
24
29
35
41
48
53
57
59
60
60
59
58
57
56
54
52
50
49
47
46
45
44
43
42
40
39
37
35
33
31
30
28
27
26
24
23
22
21
21
20
19
19
21
24
29
36
43
50
57
62
65
67
68
68
68
68
67
66
64
61
59
59
55
53
53
50
48
48
44
42
42
39
36
36
33
31
31
28
27
27
24
23
22
22
21
22
24
28
33
40
47
54
60
64
66
67
68
68
68
67
66
64
61
59
57
54
52
51
49
47
45
43
41
40
38
36
34
33
31
29
28
26
25
24
23
22
20
19
18
18
18
21
25
31
37
43
48
52
55
56
57
57
57
56
55
53
51
49
47
45
43
42
40
39
37
35
33
31
30
28
26
25
23
22
21
19
18
17
16
15
15
14
13
12
12
12
14
18
22
27
32
37
40
41
43
43
44
44
44
44
47
45
42
40
38
36
35
33
32
29
27
24
21
18
16
13
11
9
7
5
3
1
0
0
0
0
0
0
0
0
0
3
11
19
27
32
36
38
39
39
38
38
37
35
33
31
29
28
26
25
25
23
22
20
18
15
13
11
9
7
5
4
2
1
0
0
0
0
0
0
0
0
2
9
16
23
28
32
34
35
35
35
35
35
34
33
32
30
29
28
28
27
26
26
25
23
22
20
18
16
14
13
12
10
9
8
7
7
6
5
5
4
4
6
9
15
22
29
36
41
45
46
47
47
48
48
48
48
48
48
45
43
42
41
40
40
38
37
37
34
32
32
28
27
27
24
22
21
20
19
17
17
15
15
13
12
12
12
15
19
26
33
40
46
50
53
54
55
55
55
56
56
55
55
53
51
49
48
46
45
44
43
41
40
39
37
35
33
31
29
27
25
24
22
21
20
19
18
17
16
15
14
13
13
15
19
25
32
40
46
51
54
55
55
56
56
56
56
55
54
53
51
49
48
46
45
44
43
42
41
40
38
37
35
33
32
30
29
27
26
24
23
22
21
20
19
17
15
14
14
14
17
22
30
37
44
50
54
56
56
56
56
56
55
55
54
52
50
49
47
46
45
43
42
40
39
37
35
32
31
29
27
26
24
23
21
20
19
18
17
16
15
14
14
16
21
27
34
41
47
52
55
56
56
56
56
55
55
54
53
52
50
48
47
47
46
45
44
43
41
40
38
36
34
32
30
28
27
25
24
23
21
20
19
18
17
16
16
14
16
16
26
34
34
51
58
58
66
68
68
69
70
70
71
70
69
67
65
64
62
61
60
58
57
54
52
50
47
44
41
40
37
36
34
32
30
29
27
26
24
23
21
20
19
18
18
21
26
34
43
53
62
69
74
76
78
79
79
80
80
80
79
77
75
73
71
69
68
66
65
63
60
57
54
51
48
45
42
40
38
35
33
31
29
27
25
23
22
21
20
18
19
21
27
35
44
54
64
73
78
82
84
84
85
85
84
83
81
79
76
73
71
69
67
65
63
60
58
55
52
49
45
42
40
38
35
33
30
28
26
24
23
21
19
17
16
15
16
20
27
37
47
59
69
76
81
83
85
85
86
85
84
82
80
77
74
72
71
69
68
66
64
61
57
54
50
46
43
40
37
35
32
30
28
26
24
22
20
19
20
24
31
40
51
61
71
77
81
82
82
81
79
77
74
71
68
64
61
59
57
55
54
51
48
45
42
39
35
31
28
25
23
21
19
17
15
13
11
10
11
14
22
32
43
55
67
76
82
86
87
88
88
87
85
83
80
76
73
69
67
64
62
59
57
53
50
45
41
38
34
30
27
27
22
19
19
15
13
13
9
8
8
15
23
23
47
61
61
83
90
93
95
96
96
96
95
92
89
62
60
58
56
54
52
50
49
47
45
42
40
39
37
35
33
32
30
29
28
26
25
24
23
22
22
22
24
27
32
39
45
51
57
61
63
64
65
65
65
64
63
62
60
58
55
53
51
50
48
46
44
43
41
39
31
30
28
26
25
24
23
22
21
20
19
19
18
18
19
21
26
32
40
46
52
57
61
62
63
64
64
64
63
62
60
58
56
54
52
51
49
48
46
44
42
40
39
37
35
33
32
30
29
27
26
25
25
24
23
22
21
20
20
21
24
29
35
41
47
53
57
60
61
62
62
62
61
60
58
56
54
52
50
48
47
46
44
43
41
40
38
36
35
33
31
29
28
26
25
23
22
21
20
19
18
18
17
19
21
26
32
40
46
52
56
59
60
60
60
60
59
58
56
54
52
50
48
47
46
45
45
42
40
40
37
35
35
31
29
29
26
24
24
22
21
21
20
19
18
17
16
16
16
17
20
24
31
39
46
53
59
63
65
66
67
67
67
66
65
63
61
59
56
54
52
51
49
47
45
43
41
39
37
35
33
32
30
28
27
25
24
23
21
21
20
19
18
17
17
16
16
17
19
24
31
39
46
54
60
64
66
67
68
68
67
67
66
64
62
60
57
55
53
52
50
48
47
45
42
40
39
37
35
33
31
29
27
26
24
23
22
21
20
20
19
18
17
16
16
16
18
22
28
35
42
51
57
62
65
67
67
67
66
66
64
63
61
59
57
55
53
52
51
49
48
46
44
42
40
38
36
34
32
30
28
26
25
24
23
22
21
20
19
18
19
21
26
32
39
46
53
58
62
63
64
63
63
61
60
58
56
54
51
49
48
47
46
44
43
41
40
38
35
33
31
29
28
26
25
23
22
21
20
19
18
18
17
16
16
17
21
26
34
42
50
58
64
67
69
70
70
69
69
68
66
64
61
59
56
54
53
51
49
47
45
43
41
40
37
35
33
31
29
27
26
25
23
22
21
20
20
19
18
18
17
18
20
24
24
39
47
47
63
68
68
72
73
73
72
71
71
68
66
66
61
58
58
54
52
50
48
46
44
41
40
38
35
33
31
29
28
26
25
23
22
21
20
19
18
17
16
16
15
15
17
21
27
35
43
52
60
66
69
71
72
72
72
71
69
68
65
63
60
57
55
53
52
50
48
46
44
41
40
38
35
33
32
30
29
28
27
26
25
24
23
22
21
20
19
18
17
16
16
17
21
27
35
43
52
59
65
69
70
71
71
70
69
68
66
63
61
58
56
54
52
50
49
47
45
43
41
40
38
36
34
32
30
29
27
26
24
23
22
21
20
19
18
17
17
17
19
23
28
36
44
52
59
64
66
67
68
67
66
65
63
61
58
56
53
51
50
49
48
46
45
43
41
40
37
35
33
31
29
27
26
24
23
22
20
19
18
17
17
18
21
26
34
41
49
56
61
64
66
66
65
64
62
60
58
56
53
51
49
48
47
46
45
44
42
40
39
36
36
32
30
30
27
26
26
23
22
22
21
20
20
18
18
18
22
28
35
43
52
60
66
71
73
74
74
73
73
71
69
67
64
62
59
56
54
52
50
49
47
45
43
41
39
37
35
33
31
29
28
26
25
24
23
22
20
19
18
17
17
18
21
26
33
40
49
57
63
67
69
70
70
70
69
68
66
64
61
58
56
54
52
50
48
46
44
42
40
39
37
34
32
31
29
27
25
24
23
21
20
20
19
18
17
16
15
14
14
16
20
26
33
40
48
55
60
63
65
65
66
65
65
64
62
59
57
54
52
50
49
47
46
44
42
40
39
37
34
33
31
29
27
26
25
23
22
21
20
20
19
18
17
16
16
16
18
21
27
34
40
48
54
58
60
62
62
62
62
61
60
58
56
54
52
51
49
48
47
46
44
42
40
39
37
35
33
31
30
28
27
26
24
23
22
21
20
19
18
18
20
23
28
35
41
48
53
57
59
60
60
60
60
58
57
55
53
51
49
47
46
45
44
42
41
40
38
36
33
32
30
28
26
25
24
22
22
21
20
19
19
18
17
17
17
19
23
29
36
43
51
58
62
66
67
68
69
69
69
68
66
66
62
59
59
55
53
53
50
48
48
44
41
41
38
36
36
32
31
29
28
26
25
24
23
22
21
21
20
19
18
17
17
19
23
28
36
43
51
57
62
66
68
69
69
69
69
68
67
65
62
60
57
55
53
52
50
48
46
44
41
40
38
36
34
32
30
28
27
26
24
23
22
21
21
20
19
18
17
17
16
16
16
17
21
26
33
40
48
55
60
63
65
66
66
66
66
65
63
62
60
57
55
53
51
50
49
47
45
43
41
40
38
36
34
32
30
29
28
26
25
24
23
22
21
20
19
18
17
16
16
16
18
21
26
33
40
46
52
56
58
60
60
60
60
59
57
55
53
51
49
47
46
45
44
42
41
40
38
36
34
32
30
28
27
25
24
23
21
20
19
18
17
16
15
14
14
13
14
16
20
26
33
40
47
53
57
60
62
62
63
63
62
61
60
57
55
53
51
50
48
47
45
43
41
40
38
36
34
32
30
28
26
25
24
24
22
21
21
19
18
18
16
16
16
14
13
13
14
17
17
29
37
37
51
57
62
64
65
66
66
66
65
64
63
60
58
56
54
52
50
49
47
45
43
41
40
37
35
33
31
30
28
27
26
24
23
22
21
20
19
18
18
17
16
15
14
14
13
14
16
20
26
33
41
50
57
62
66
67
68
68
68
67
66
65
63
61
58
56
55
53
52
50
49
47
45
42
40
39
37
35
33
31
29
28
27
26
25
24
23
22
21
20
19
19
18
17
18
21
25
32
39
46
53
59
62
64
65
65
64
64
62
61
58
56
54
52
51
50
49
48
46
45
43
40
39
37
35
33
31
30
28
27
25
24
23
22
21
20
19
19
18
20
23
28
35
42
50
57
63
66
68
69
69
68
67
66
64
62
60
57
55
54
52
50
49
47
46
43
41
40
38
35
33
32
30
28
27
26
25
24
23
22
21
20
19
18
17
16
17
19
23
30
38
46
54
61
66
70
72
72
72
72
71
70
68
66
63
61
58
57
55
53
52
50
48
46
43
41
40
38
36
34
32
30
28
27
25
24
23
22
21
20
19
17
16
15
14
14
15
17
22
28
37
45
54
61
66
66
72
72
72
72
71
71
67
64
64
58
56
56
52
51
51
47
45
45
40
39
36
34
32
31
29
28
26
25
24
23
22
21
20
19
18
17
16
15
14
13
13
15
19
25
33
41
50
58
64
67
69
69
69
69
68
67
65
63
60
58
56
54
52
51
49
48
46
44
41
40
38
36
33
31
30
28
26
25
24
23
21
20
20
19
18
17
16
15
14
14
16
20
26
33
41
50
57
62
66
67
67
67
66
64
63
61
58
56
54
52
50
49
48
46
45
43
41
39
37
35
32
30
28
26
25
23
22
21
20
19
18
17
16
15
15
18
22
28
36
44
52
59
64
66
67
67
66
65
64
62
59
57
54
52
50
49
47
46
44
43
41
40
37
35
33
31
29
27
25
23
21
20
19
18
17
16
15
15
14
13
13
14
17
23
31
40
49
58
65
69
72
73
73
73
72
71
69
67
65
62
60
57
55
54
52
50
48
46
44
41
40
38
35
33
31
29
29
26
25
25
23
22
22
20
19
19
17
16
16
16
18
18
30
39
39
56
64
69
72
73
73
73
73
71
70
67
65
62
59
57
55
53
51
50
48
46
44
41
40
38
35
34
32
30
28
27
25
24
23
22
21
20
19
18
17
16
16
16
18
22
28
37
45
54
62
67
70
71
72
71
71
70
68
66
64
61
59
56
54
53
51
49
48
46
44
41
40
38
36
34
32
31
29
28
26
25
24
23
22
21
20
19
18
17
16
16
18
21
27
35
43
52
59
65
68
70
70
70
69
68
66
64
62
59
57
55
53
51
50
49
47
45
43
41
40
37
35
33
32
30
28
27
26
25
23
23
22
21
20
19
18
17
18
21
26
34
41
50
57
63
66
68
68
67
67
65
64
61
59
56
54
52
50
49
48
46
45
43
41
40
38
35
33
31
29
27
26
25
23
22
22
21
20
19
18
17
16
16
18
22
28
36
44
53
61
66
70
71
72
72
71
70
69
67
64
61
59
56
54
52
50
49
47
45
43
40
39
36
34
32
30
29
27
26
24
23
22
21
17
17
16
17
21
26
34
42
51
59
65
69
71
71
71
71
70
69
67
64
61
58
55
53
51
49
47
45
43
41
40
38
35
33
31
29
28
26
25
23
22
21
20
19
18
18
17
16
15
14
13
13
14
17
23
34
42
51
58
62
66
67
67
67
67
66
64
63
60
58
55
53
51
49
48
46
44
42
40
39
36
34
32
31
29
27
26
24
23
22
21
19
18
17
17
16
15
14
13
12
11
12
15
19
26
34
42
49
56
60
62
63
64
63
63
62
61
59
57
55
53
51
49
47
46
44
43
41
40
38
36
34
32
30
29
27
26
24
23
22
21
20
19
18
17
16
15
15
14
13
13
14
18
23
30
38
45
53
58
61
63
64
64
64
63
62
61
59
57
55
53
51
50
49
47
46
45
43
40
39
37
35
33
31
29
28
27
26
24
23
23
22
21
20
19
18
17
17
20
24
29
36
43
50
55
58
60
61
61
60
59
58
56
54
52
50
49
47
46
45
44
43
41
40
39
37
35
33
31
29
27
26
25
23
22
21
20
19
19
18
17
17
15
16
16
25
32
32
47
55
55
64
66
66
67
67
67
66
64
64
60
58
56
54
52
51
50
48
46
44
42
40
38
36
34
32
30
28
27
25
24
23
22
21
20
19
18
17
16
16
16
19
23
30
38
45
54
60
64
67
68
69
69
69
68
67
65
63
60
58
55
54
52
50
49
47
45
42
40
39
36
34
32
31
29
27
26
25
23
22
21
20
19
19
18
17
16
15
15
17
21
27
34
42
50
56
61
64
66
66
66
66
66
64
63
61
59
56
54
52
51
49
48
46
44
42
40
39
37
34
32
31
29
28
26
25
24
23
22
21
20
19
18
17
17
19
22
28
34
41
48
54
58
60
61
61
61
60
59
58
55
53
51
49
47
46
45
44
43
41
40
38
36
34
32
30
28
27
25
24
23
22
21
20
19
18
17
17
16
16
18
21
26
33
41
48
55
60
63
64
65
65
65
65
64
62
60
58
56
54
52
51
49
48
46
44
42
40
39
36
34
33
31
29
28
26
25
24
23
22
21
20
19
18
18
17
16
17
19
23
29
37
45
53
59
64
67
68
69
69
69
68
67
65
63
61
58
56
54
53
51
50
48
46
44
44
40
38
38
34
32
32
29
28
28
25
24
24
22
21
21
19
18
18
16
15
15
19
24
31
39
47
55
61
65
67
68
69
69
68
67
66
64
62
59
57
55
54
52
51
50
48
46
44
41
40
38
36
34
32
30
29
27
26
25
24
23
22
21
20
19
18
18
20
24
30
37
44
51
57
62
64
64
64
64
63
62
60
58
56
54
52
50
49
48
47
45
44
42
40
38
36
33
31
29
27
26
24
23
22
20
19
18
17
16
16
18
22
27
35
42
50
56
61
64
65
65
65
64
62
60
58
55
53
50
49
47
46
45
44
43
41
40
37
35
33
31
29
27
26
25
23
22
21
20
19
18
18
17
17
18
21
27
34
42
51
59
65
69
71
72
72
72
71
70
69
66
64
61
58
56
54
52
50
48
46
44
42
40
38
36
34
32
30
28
27
25
24
23
22
21
20
19
18
17
17
18
21
26
33
40
49
56
62
66
68
69
70
70
69
68
67
65
62
59
57
54
52
52
48
46
46
42
40
40
37
35
35
31
29
29
26
25
25
22
21
21
19
18
18
17
16
15
14
15
17
22
28
36
44
52
59
64
66
68
68
68
67
67
65
63
61
58
56
54
52
50
48
47
45
43
40
39
36
34
32
30
29
27
26
24
23
22
21
20
19
18
17
16
16
15
14
13
13
14
17
22
30
38
46
54
60
64
66
67
67
67
66
65
63
61
59
56
54
52
51
50
48
47
45
43
40
39
37
34
32
30
29
27
26
24
23
22
21
20
19
18
17
17
16
15
16
19
23
29
37
45
52
58
62
64
65
64
64
62
61
58
56
54
51
49
48
47
45
44
43
42
40
38
36
34
31
29
27
25
24
23
21
20
19
18
17
16
15
14
14
16
20
26
34
41
50
57
61
64
65
65
65
64
62
60
58
56
53
51
49
48
47
45
44
43
41
40
37
35
33
30
28
26
24
23
21
20
19
18
17
16
15
14
13
12
12
14
18
24
32
41
51
59
65
69
71
72
72
71
70
68
66
64
61
59
56
54
52
50
49
47
45
42
40
38
36
33
31
29
27
25
23
22
20
19
18
17
16
15
14
13
12
11
11
12
15
21
29
38
38
57
64
64
72
73
73
73
72
72
69
67
67
61
58
58
53
51
51
48
46
44
41
40
37
35
32
30
28
26
25
23
22
20
19
18
17
16
15
14
13
12
11
11
12
16
22
31
40
50
59
65
70
72
73
73
72
71
69
67
65
62
59
57
55
53
51
50
48
46
44
41
40
37
35
32
30
28
26
24
23
22
21
20
19
18
17
15
14
13
13
15
19
26
35
43
52
60
65
68
70
70
69
68
66
64
62
59
56
54
52
50
48
47
45
44
42
40
38
35
33
30
28
26
23
22
20
19
18
17
16
15
14
13
12
12
11
12
14
19
26
35
44
54
63
69
72
74
74
73
72
71
69
67
64
61
58
56
54
52
50
49
47
45
43
41
39
37
35
32
30
28
26
24
22
21
20
18
17
17
16
15
14
13
12
11
12
16
22
30
40
49
59
67
72
74
75
75
74
73
71
69
67
65
62
59
57
55
53
51
50
48
46
43
41
39
36
34
32
29
29
25
24
24
21
20
20
18
17
17
15
14
14
13
15
15
25
33
33
51
60
66
70
72
72
71
70
68
66
64
61
59
56
53
52
50
49
48
46
44
42
40
38
36
33
31
29
27
25
23
22
21
20
18
17
16
15
14
13
14
18
23
31
40
49
57
64
68
70
71
70
69
67
65
63
60
57
54
52
50
49
47
46
45
43
41
39
37
34
32
30
27
25
24
22
21
19
18
17
16
15
14
13
13
13
15
20
27
36
45
55
64
70
74
76
76
76
75
74
72
70
67
64
61
58
56
54
52
51
49
47
45
42
40
38
36
33
31
29
27
25
24
22
21
20
19
18
17
16
16
16
19
24
32
40
49
58
65
69
72
73
73
73
72
71
69
66
64
61
58
55
53
51
49
48
46
43
41
40
37
35
33
31
29
27
25
24
23
21
20
19
18
17
16
15
15
16
19
24
31
40
48
55
62
66
68
69
69
68
67
66
64
61
59
56
54
51
50
49
47
46
44
42
40
38
36
34
32
30
28
26
25
23
22
21
20
20
19
18
18
19
23
28
35
41
48
54
59
61
62
62
61
60
58
56
54
51
49
47
45
44
43
42
41
40
39
37
34
32
30
30
27
25
25
22
21
21
19
18
18
17
17
17
23
30
30
44
51
51
61
63
65
65
64
64
63
61
59
56
54
51
49
48
46
45
43
42
40
39
37
35
33
31
29
27
26
24
23
22
21
20
19
18
17
16
17
19
24
30
38
45
53
59
63
66
68
68
69
68
68
66
64
62
59
57
54
52
51
49
47
45
43
41
40
37
35
33
31
29
28
26
25
24
23
22
21
20
19
18
17
16
16
17
21
26
34
41
49
57
62
66
68
69
69
70
69
68
66
64
61
58
55
53
51
49
47
45
44
41
40
38
36
34
32
30
28
26
25
23
22
21
20
19
18
17
16
15
14
13
15
18
23
30
38
46
53
59
63
65
66
66
66
66
64
62
60
58
55
53
51
49
48
47
45
43
41
40
37
35
33
32
30
28
27
25
24
23
22
20
19
18
17
17
18
21
26
33
40
47
53
57
60
61
61
60
59
58
56
54
51
49
46
45
44
43
42
41
40
39
37
37
33
31
31
27
26
26
23
22
22
20
19
19
17
16
16
19
24
24
38
45
53
59
64
66
68
68
68
68
67
65
63
61
58
55
53
51
49
48
46
44
42
40
38
36
34
32
29
28
26
24
23
21
20
19
18
17
16
15
14
14
15
19
25
31
39
46
52
57
60
61
62
62
62
61
60
58
56
53
51
48
46
44
42
41
40
38
36
34
32
30
22
21
19
18
16
15
14
13
12
11
10
9
9
9
10
14
18
24
30
36
40
44
46
47
48
48
48
48
48
46
45
43
41
40
40
39
37
36
35
33
32
30
28
27
25
24
23
22
21
20
19
18
17
17
16
15
14
13
12
12
11
10
11
12
16
20
25
30
35
38
40
41
42
42
42
42
42
44
43
41
40
38
36
35
34
32
31
29
27
25
22
20
18
15
13
11
9
6
5
3
2
0
0
0
0
0
0
0
0
0
0
7
16
24
31
37
40
41
42
42
41
40
40
39
37
35
33
32
31
30
30
30
28
27
25
23
21
19
17
16
14
13
11
10
9
8
6
6
5
4
4
3
2
2
5
9
16
24
33
41
47
52
54
55
55
56
56
56
56
54
53
51
51
47
46
45
44
43
43
40
39
39
34
32
32
28
26
26
23
21
21
18
17
17
15
14
12
11
9
8
7
6
6
9
15
22
32
41
50
57
63
65
67
68
69
69
69
69
67
66
64
62
60
59
58
57
56
54
52
49
47
44
41
40
37
35
32
30
28
26
25
23
22
20
19
17
16
14
13
11
10
9
10
14
21
30
40
50
60
67
72
76
78
80
81
82
83
82
81
79
77
75
73
71
69
67
65
62
59
56
53
49
46
43
40
38
35
32
29
27
25
23
21
19
18
16
15
13
11
9
7
7
9
14
23
34
45
57
68
76
82
85
87
89
90
90
89
87
85
82
80
59
58
57
56
55
54
53
51
49
47
45
44
42
40
39
37
36
34
33
32
31
29
28
27
26
26
26
28
31
37
42
48
54
58
62
63
64
64
64
63
62
60
59
57
55
54
53
52
51
50
49
48
46
44
43
41
39
38
36
34
33
31
30
29
28
27
26
25
24
25
27
31
37
43
43
56
61
61
66
66
66
66
66
66
64
62
62
58
56
56
53
52
52
49
47
45
43
41
40
37
35
33
32
30
29
27
26
25
24
23
22
21
20
19
20
22
27
34
40
49
56
62
66
69
71
71
72
71
71
70
68
66
64
61
59
57
56
54
52
50
48
46
44
41
40
38
35
33
32
30
29
28
26
26
25
23
22
21
20
19
19
21
25
31
39
46
54
60
65
67
69
70
70
70
69
68
66
64
62
59
57
55
53
52
50
48
46
44
42
40
38
36
34
32
30
29
27
26
25
24
23
22
21
20
19
18
18
18
21
25
31
39
46
53
60
64
66
67
68
68
67
67
65
64
62
59
57
55
54
52
51
50
48
46
44
42
40
38
36
34
32
31
29
28
26
25
24
23
22
21
20
19
19
20
23
27
33
40
47
54
58
61
63
64
64
63
62
61
59
57
55
53
51
49
48
46
45
44
42
40
39
37
35
33
31
29
28
26
25
24
23
22
21
20
19
18
18
19
22
27
33
40
46
52
56
59
61
61
61
61
60
59
57
55
53
51
49
47
46
45
44
42
40
39
37
35
33
31
30
28
27
25
24
23
22
21
20
19
18
17
17
17
17
19
19
30
37
37
51
57
57
63
64
64
64
64
64
62
60
60
55
53
53
49
47
46
44
42
40
39
37
35
33
31
29
27
26
24
23
22
21
19
18
17
17
16
15
14
15
18
22
29
35
41
47
52
55
57
58
58
58
58
57
56
54
52
50
48
46
44
43
41
40
39
37
35
33
31
29
28
26
24
23
22
21
20
19
18
17
16
15
14
13
13
15
17
21
27
33
39
43
47
49
51
51
52
52
52
51
50
49
47
45
44
43
42
41
40
39
38
36
35
33
32
30
28
27
26
24
23
22
21
21
20
19
18
18
18
20
23
28
33
37
40
43
45
46
46
46
46
46
50
48
45
42
40
38
36
35
33
31
29
26
24
21
18
16
13
11
9
7
6
4
3
1
0
0
0
0
0
3
10
18
27
36
41
46
49
50
52
52
53
52
51
50
48
45
43
41
40
38
36
35
33
30
28
25
22
20
17
15
13
11
9
7
5
4
3
1
0
0
0
0
3
3
16
25
25
41
47
47
53
54
54
56
57
57
56
55
55
51
49
49
46
44
43
41
40
37
35
32
30
27
24
22
20
19
17
15
14
12
11
9
8
6
5
5
5
9
14
22
30
39
45
51
55
57
59
60
62
63
63
62
61
59
56
54
52
50
49
47
46
44
42
40
38
35
33
30
28
26
24
22
20
19
17
16
14
13
12
10
9
8
8
10
14
20
28
37
45
52
58
61
63
64
66
66
67
66
65
64
63
61
60
59
58
56
55
52
50
47
44
41
39
36
34
31
29
26
24
22
20
18
16
14
12
10
9
9
12
17
24
33
41
49
56
61
64
65
67
67
67
67
65
63
61
58
56
54
53
51
50
48
46
43
40
38
36
33
31
28
26
23
21
20
18
16
14
12
11
10
10
14
20
29
39
48
58
65
71
74
76
78
79
79
78
77
75
72
69
67
64
62
60
59
56
54
51
48
44
41
39
36
33
31
28
25
23
21
19
16
15
13
11
9
7
7
9
15
23
34
45
57
67
75
80
83
85
87
88
88
87
85
82
79
57
56
54
53
51
50
48
47
45
43
41
40
38
36
35
33
31
30
29
27
26
26
25
24
23
22
22
21
22
22
28
33
33
43
48
48
55
56
56
58
58
58
57
56
56
53
51
51
48
47
46
45
43
42
40
40
38
36
34
33
31
30
28
27
26
25
24
23
22
21
20
20
19
20
22
26
31
37
41
46
50
52
53
53
53
53
53
52
51
50
48
47
46
45
44
43
42
41
40
39
38
36
35
33
32
31
29
28
27
26
25
24
23
22
21
22
24
27
31
37
41
45
49
51
53
53
53
53
52
51
50
49
47
46
44
44
43
42
42
41
40
39
38
36
34
33
32
30
29
28
27
26
25
23
23
22
21
22
23
26
30
35
40
47
52
56
58
60
61
62
62
62
62
61
60
58
56
55
53
52
51
49
48
46
45
43
42
40
39
38
36
35
33
32
31
29
28
27
26
25
25
26
29
33
38
44
50
55
59
62
63
64
64
64
64
63
62
60
58
56
54
53
52
50
49
48
46
45
43
41
40
38
36
35
33
32
30
29
28
27
26
25
24
23
24
26
31
36
42
48
54
59
59
62
63
63
62
61
61
59
57
57
53
52
52
49
48
48
45
44
42
40
39
37
35
33
32
30
28
27
26
24
23
22
21
21
21
23
27
31
36
41
45
48
50
50
50
50
49
57
54
51
47
43
41
39
37
36
34
32
29
26
23
19
16
12
9
7
4
2
0
0
0
0
0
0
0
0
0
3
12
21
30
37
40
42
43
43
43
42
41
40
39
37
34
32
30
28
27
26
24
22
20
17
15
13
11
9
7
5
4
3
1
0
0
0
0
0
0
0
0
6
13
22
31
38
42
45
46
47
47
46
46
45
44
42
40
39
37
36
35
34
33
31
30
28
26
24
22
21
19
18
16
15
13
12
11
10
9
9
8
7
7
8
12
18
25
33
40
46
50
51
52
52
51
51
50
49
47
46
45
43
42
40
40
39
38
37
36
34
32
30
28
26
25
23
22
21
20
19
18
17
16
16
15
14
15
18
23
30
37
44
50
54
57
57
57
56
56
55
54
52
51
49
48
46
45
44
44
43
42
41
40
38
37
35
33
31
29
28
27
25
24
23
21
20
19
19
20
23
29
35
42
48
53
56
57
57
57
56
55
54
53
52
50
48
48
47
46
46
45
43
43
40
38
38
34
32
32
28
27
27
24
22
22
20
19
19
17
18
21
27
34
42
50
58
64
68
70
71
72
73
73
73
72
71
69
67
65
63
62
61
59
58
55
53
50
47
45
42
40
39
37
35
34
32
30
29
27
26
24
23
23
25
29
36
44
53
62
70
75
78
81
82
84
85
85
84
82
80
78
75
72
70
68
66
64
62
60
57
54
51
48
44
41
39
36
33
30
28
26
24
22
20
18
16
15
16
20
27
36
46
57
67
74
79
82
84
85
86
85
85
83
80
77
74
71
68
66
64
61
59
56
53
49
45
41
39
36
33
30
27
25
23
22
19
18
17
15
13
33
43
54
64
72
77
80
81
81
81
79
77
74
71
67
64
61
59
56
54
52
50
47
43
40
37
34
30
27
24
21
18
16
13
11
8
6
4
4
6
12
20
31
42
53
63
70
74
76
76
76
75
73
70
67
62
59
56
54
52
51
49
47
44
41
41
35
32
32
25
22
22
16
14
14
10
9
9
5
4
4
3
6
6
21
33
46
59
71
80
86
89
91
91
91
90
88
85
82
59
57
55
54
52
51
50
48
47
45
43
41
39
37
35
33
32
30
29
27
26
25
23
22
21
20
20
20
22
25
30
37
43
50
56
60
62
64
65
65
64
64
62
61
59
57
55
53
52
50
49
47
46
44
42
40
39
37
35
33
32
30
29
27
26
25
24
23
22
21
20
19
19
21
24
29
35
42
49
55
60
63
64
65
65
65
65
64
62
60
58
56
55
53
52
50
49
47
45
43
41
40
38
36
34
32
30
29
28
27
26
25
23
22
21
20
19
19
21
24
29
36
43
50
56
60
63
65
65
65
64
63
61
60
58
56
54
53
51
50
49
48
46
44
42
40
39
37
35
33
31
30
28
27
26
24
23
22
21
21
20
22
25
30
37
43
50
55
60
62
63
63
62
61
60
58
56
54
52
50
48
47
46
45
44
43
41
40
38
36
34
32
30
29
28
26
25
24
23
21
21
20
21
24
28
34
41
49
55
61
65
66
67
67
67
66
65
63
61
58
56
54
53
51
50
48
47
45
43
41
40
38
36
34
32
30
30
28
26
26
24
23
23
21
21
21
25
30
30
45
53
53
65
69
69
72
72
72
71
70
68
66
64
61
59
57
55
53
52
50
48
46
44
41
40
38
36
34
32
31
29
28
27
26
24
23
22
22
21
22
25
30
37
43
51
58
63
66
68
69
69
69
68
67
65
63
60
58
55
53
51
49
47
45
43
41
40
38
36
34
32
30
29
27
26
24
23
22
21
20
19
18
17
18
21
25
30
36
41
46
49
52
53
54
54
54
53
52
50
48
46
44
42
41
40
40
38
37
35
33
31
29
27
26
24
23
22
20
19
18
17
16
14
13
13
13
14
17
21
26
30
34
37
39
40
40
40
40
40
39
38
37
35
34
33
32
31
31
30
29
28
27
25
24
22
21
20
19
18
17
16
15
15
14
13
13
12
13
14
17
20
23
27
30
32
34
35
36
37
38
39
39
39
39
38
38
37
36
35
35
34
33
32
31
30
29
27
26
25
24
23
22
22
21
21
21
21
20
20
20
19
19
19
22
25
25
32
36
36
41
42
42
43
43
43
44
43
43
42
41
40
40
40
39
39
38
37
36
35
34
33
32
31
30
30
29
28
27
27
26
26
26
25
25
25
25
24
24
23
24
25
27
30
33
36
39
41
42
42
43
43
43
43
43
42
41
41
40
40
39
38
38
38
37
37
36
35
35
34
33
33
32
32
31
31
30
29
29
29
28
28
27
27
27
27
28
29
32
34
38
39
42
44
45
45
45
44
44
44
43
42
42
40
40
40
39
39
38
38
37
36
35
34
33
33
32
31
30
30
29
29
28
28
27
27
26
26
26
26
27
29
32
35
38
40
41
42
42
42
42
44
43
42
41
40
39
38
37
36
36
35
34
33
32
31
29
28
26
25
23
22
21
20
19
18
17
17
16
15
14
14
13
14
17
22
28
35
42
48
52
55
56
56
57
57
57
57
57
55
54
53
52
50
49
48
47
46
45
43
41
40
39
37
35
34
32
31
29
28
27
26
25
23
22
21
20
19
19
21
26
32
39
46
53
58
61
63
63
63
64
64
63
62
61
59
57
55
53
52
51
50
48
47
45
43
40
39
37
35
33
30
29
27
25
24
23
23
20
19
19
17
16
16
17
21
21
33
40
40
52
55
55
57
56
56
56
55
55
53
51
49
47
46
44
44
43
42
40
39
38
36
33
32
30
28
27
26
24
23
21
20
19
17
16
15
14
13
13
14
17
23
30
37
43
48
52
53
53
53
52
51
51
50
48
47
45
43
42
41
41
40
40
40
38
36
35
33
31
29
28
26
25
24
23
22
21
20
19
18
17
18
19
23
29
36
42
49
54
56
57
56
55
54
53
51
50
49
47
45
44
43
43
42
41
40
40
38
36
34
32
30
29
27
25
23
22
20
19
18
17
17
16
18
22
28
35
42
50
56
59
61
62
62
61
61
60
59
57
55
54
53
52
51
50
50
49
48
46
44
42
40
39
36
34
32
31
30
29
28
26
25
24
22
22
22
25
30
38
46
55
63
70
74
77
79
80
81
82
82
81
80
78
76
74
72
70
68
67
65
63
60
58
55
52
50
47
45
42
40
39
37
35
33
32
30
29
29
28
30
30
40
48
48
67
76
76
85
87
87
88
88
88
87
86
86
82
79
77
75
73
71
68
67
64
61
58
55
52
49
46
44
41
39
36
34
32
30
28
26
23
22
23
26
31
40
49
60
69
77
82
84
86
86
86
85
83
81
78
75
72
70
68
66
64
63
60
58
55
51
47
43
40
38
34
31
29
26
24
21
19
16
15
14
16
20
27
37
46
57
66
72
76
78
79
79
79
77
76
73
70
66
63
60
58
57
55
52
50
46
43
40
37
34
31
28
25
22
20
18
16
14
12
9
7
6
6
9
15
25
37
49
61
71
79
83
87
88
89
90
89
88
85
82
59
58
57
55
54
53
52
50
48
46
45
43
41
40
38
37
35
33
32
30
29
28
27
26
25
24
23
24
26
30
35
40
47
53
58
61
63
64
64
64
64
64
63
61
59
57
55
53
51
50
48
47
45
43
41
40
38
36
34
33
32
30
29
28
27
26
25
24
23
22
21
20
19
19
20
22
25
31
37
42
48
52
55
56
57
57
57
57
56
55
53
52
50
48
47
46
44
43
42
40
40
38
36
34
32
31
29
28
27
26
25
24
23
22
21
20
19
18
18
18
18
22
26
32
37
41
41
48
50
50
51
50
50
49
47
47
44
43
43
41
40
40
40
39
38
37
36
34
32
31
30
28
27
26
25
24
23
22
21
20
20
19
18
19
22
26
31
37
42
47
51
53
54
55
55
55
55
54
53
52
51
49
48
47
46
45
44
43
42
40
40
38
36
35
33
32
30
29
28
27
26
25
24
23
22
21
20
20
19
19
20
22
26
32
38
44
51
56
59
62
63
64
64
64
64
63
62
60
59
57
55
54
53
51
50
48
46
44
42
40
39
38
36
35
33
32
31
29
28
26
25
24
23
22
22
21
21
20
20
20
22
25
29
36
42
49
55
60
64
66
67
67
67
67
66
65
63
61
60
58
56
55
54
53
51
50
48
47
45
43
41
40
38
37
35
34
32
31
30
29
28
27
26
25
24
23
22
21
21
21
22
25
30
37
43
50
56
61
64
65
65
64
64
63
61
60
58
56
55
53
52
51
50
49
48
47
45
43
42
40
39
37
35
35
32
31
31
28
27
27
25
24
24
22
23
23
29
35
35
47
53
53
60
62
62
61
61
59
58
56
54
53
51
49
48
47
46
45
44
43
42
40
39
37
35
33
31
30
28
27
26
25
24
23
22
21
20
20
20
22
27
33
40
48
56
62
67
70
72
72
72
72
71
69
67
65
63
60
58
57
56
54
53
52
50
48
46
43
41
40
38
36
34
32
30
29
28
26
25
24
23
22
21
21
21
23
27
33
40
48
56
63
68
71
72
73
73
72
71
70
68
66
63
61
58
57
55
53
52
50
48
46
43
41
40
37
35
33
31
29
28
26
25
24
23
22
21
20
19
18
18
18
20
24
30
38
46
54
61
66
69
71
71
71
70
69
68
66
64
61
59
57
55
54
53
52
50
48
46
44
41
40
38
35
34
32
30
29
27
26
25
24
22
21
20
21
23
27
33
40
47
54
59
63
65
65
65
64
62
61
58
56
54
51
49
48
46
45
44
43
41
40
38
36
34
32
30
28
27
25
24
22
21
20
19
18
17
17
17
17
20
25
32
40
48
56
63
67
70
71
72
71
71
69
67
65
63
60
58
56
54
52
51
49
40
38
36
34
32
32
29
27
27
25
24
24
22
21
21
19
18
18
23
28
28
42
51
51
65
69
71
72
73
72
72
70
68
66
64
61
58
56
54
52
51
49
47
45
43
40
39
37
35
33
31
30
28
26
25
23
22
21
20
19
18
17
17
17
18
22
27
35
42
51
59
65
68
70
71
71
71
70
68
66
64
61
59
56
55
53
52
50
49
47
45
43
41
39
37
35
33
31
29
28
26
25
23
22
21
20
19
19
21
24
30
37
44
51
58
62
65
66
66
65
64
62
60
58
55
53
51
49
47
46
45
44
42
40
39
37
35
33
31
29
27
25
24
22
21
20
19
18
17
16
16
16
19
24
31
39
47
55
62
67
69
71
71
71
70
69
67
64
61
59
56
53
52
50
48
46
44
43
40
39
37
34
32
30
29
27
25
24
23
22
21
20
19
18
17
16
17
19
23
30
38
46
55
62
67
70
71
72
72
71
70
69
66
64
61
58
55
53
51
49
47
46
44
41
40
40
36
34
34
30
28
28
25
24
24
21
20
20
18
17
17
16
18
18
27
35
42
51
58
64
67
69
69
69
69
68
66
64
62
59
57
54
52
50
49
47
46
44
42
40
38
36
34
33
31
29
28
26
25
24
23
22
21
19
19
19
22
26
32
40
47
53
58
62
63
63
63
62
61
59
56
54
51
49
47
45
44
43
42
41
40
38
36
34
32
30
28
27
25
23
22
21
20
19
18
17
16
15
16
18
23
29
37
45
52
59
63
65
66
66
66
65
64
62
60
57
55
52
50
49
48
46
45
44
42
41
40
38
35
33
31
30
28
26
25
23
22
21
20
19
18
17
16
16
17
20
25
33
40
49
57
63
67
69
70
70
70
70
69
67
65
62
59
56
54
52
50
48
46
44
42
40
39
36
34
32
30
29
27
25
24
22
21
20
19
18
17
16
15
14
14
15
18
24
31
40
47
55
61
65
67
68
68
67
66
65
63
61
58
56
54
52
50
49
48
46
44
43
41
40
38
35
33
31
29
27
25
24
22
21
20
19
18
17
16
16
19
23
30
38
45
53
59
63
64
65
64
63
62
60
57
54
52
49
47
46
44
43
42
41
40
38
38
34
31
31
27
25
25
22
21
21
18
17
17
15
14
14
16
20
20
33
41
41
57
62
66
67
67
67
65
64
62
59
56
53
51
48
47
45
44
42
41
40
38
35
33
31
29
27
25
23
21
20
18
17
16
15
15
14
13
12
12
14
17
23
31
40
49
58
65
69
71
72
72
71
70
69
67
64
61
59
56
53
51
49
48
46
44
42
40
39
36
34
32
30
28
26
24
22
21
19
18
17
16
15
14
13
12
11
11
11
13
18
25
34
43
53
61
68
71
73
73
73
72
71
69
67
64
61
58
56
53
51
49
48
46
44
42
40
38
36
33
31
29
27
25
23
22
20
19
18
17
16
15
14
14
13
12
11
11
10
10
11
16
22
31
40
50
59
65
69
71
72
71
71
69
67
65
62
59
56
54
52
50
49
47
46
44
42
40
39
36
34
32
29
27
26
24
23
21
20
19
18
17
16
15
15
14
15
18
24
31
39
47
55
60
64
66
66
65
64
64
61
58
56
53
51
51
47
46
46
43
42
42
40
38
38
33
31
31
27
25
25
21
20
19
18
17
16
15
14
13
13
13
15
20
26
35
43
52
60
66
69
70
71
70
69
68
66
64
62
59
56
54
52
50
49
47
45
43
41
40
37
35
33
31
29
27
25
23
22
20
19
18
18
17
16
15
14
14
13
13
15
19
26
34
43
52
60
66
70
72
73
73
72
71
70
68
65
63
60
57
55
53
52
50
48
46
44
42
40
38
36
34
32
30
28
26
24
23
22
21
20
19
18
17
16
15
14
13
13
14
18
24
32
40
49
58
65
69
71
72
72
71
70
69
67
65
62
59
57
55
53
51
50
48
46
44
42
40
38
36
34
31
29
28
26
25
24
22
21
20
19
18
18
17
16
15
14
14
14
16
20
27
35
44
53
61
66
70
71
71
70
69
68
66
64
61
59
56
54
53
51
50
49
47
46
44
41
40
37
35
33
31
29
27
26
25
23
22
21
20
19
18
17
16
16
16
18
22
28
36
44
52
59
64
66
67
67
66
64
62
59
57
54
52
50
48
47
46
45
44
42
40
39
37
35
33
30
28
26
25
23
22
20
19
18
18
17
16
15
15
15
17
17
28
36
36
54
61
61
70
72
72
72
72
72
69
66
66
61
58
56
54
52
51
49
47
45
43
40
39
37
34
32
30
28
26
25
23
22
20
19
18
17
17
16
15
14
13
14
16
21
28
36
45
55
63
69
72
74
74
74
74
73
71
69
66
64
61
58
56
54
52
50
48
46
44
42
40
38
36
34
32
30
28
27
25
24
22
21
20
19
18
17
16
16
15
14
13
13
15
19
25
33
42
52
61
67
71
74
74
74
74
73
71
69
67
64
61
58
56
54
52
50
48
47
44
42
40
38
36
34
32
30
28
27
25
24
22
21
20
19
19
18
17
17
16
15
13
13
13
15
20
27
36
45
54
62
67
71
72
72
72
71
70
68
66
64
61
58
56
54
53
51
49
48
45
43
41
39
37
34
32
30
28
26
25
23
22
21
20
19
18
17
16
15
15
15
16
20
25
33
40
49
57
62
66
68
68
68
67
66
64
61
59
56
54
52
50
48
48
46
44
44
40
39
39
35
33
33
29
27
27
24
23
23
21
20
20
18
17
16
15
15
16
20
26
33
42
51
59
65
69
71
72
72
71
71
69
67
65
62
59
57
54
53
51
49
47
45
43
41
39
37
35
33
31
29
27
26
24
23
22
21
21
20
19
18
17
16
16
16
17
21
27
35
43
52
60
65
69
71
72
72
72
71
70
68
66
64
61
58
56
54
52
50
48
46
44
42
40
38
36
34
32
30
29
27
26
25
24
23
22
22
21
20
19
18
17
17
17
20
24
31
39
47
55
62
67
69
71
71
71
70
69
68
66
63
60
58
55
53
51
50
48
46
44
42
40
38
37
35
33
31
29
28
26
25
24
23
22
21
20
20
19
18
18
17
16
15
16
18
22
28
36
43
51
58
63
65
67
67
67
67
66
65
63
61
59
57
55
53
52
50
49
47
45
43
41
40
38
36
34
32
31
29
28
27
26
25
24
23
22
21
20
18
18
18
20
24
29
36
42
48
53
55
57
58
58
58
57
56
54
52
50
48
46
45
44
43
41
40
39
37
35
33
32
30
28
26
24
23
22
21
20
19
18
17
16
15
14
14
14
16
19
24
30
37
42
47
47
53
55
55
56
56
56
55
54
54
50
48
48
44
43
43
40
39
39
35
33
32
30
28
26
25
23
22
20
19
18
18
17
16
15
15
14
13
11
10
9
9
11
14
18
24
31
37
41
45
48
49
51
52
52
52
52
51
49
48
46
45
43
42
41
40
40
39
37
36
34
33
32
30
29
28
26
25
24
22
21
20
19
18
17
16
16
15
15
15
14
14
14
15
17
21
26
31
36
40
43
45
46
47
48
48
48
48
48
47
46
45
43
42
41
40
40
39
37
36
34
33
31
30
28
27
26
25
24
23
22
21
20
20
19
18
18
17
17
16
15
15
14
14
14
16
19
23
27
32
35
38
40
40
40
40
40
40
39
39
38
37
36
36
35
35
34
34
33
33
32
30
29
28
27
26
25
24
24
23
22
22
22
21
21
21
20
20
19
19
18
18
18
19
21
25
29
32
36
39
40
40
41
40
40
40
40
40
40
39
38
36
35
35
34
34
34
33
33
32
32
31
30
30
29
29
29
28
27
27
26
26
26
25
24
24
24
23
23
22
22
23
24
27
30
34
37
39
40
41
41
40
40
40
40
40
39
39
38
38
37
37
37
37
36
36
35
35
34
33
32
31
30
29
29
28
28
28
27
27
26
26
25
25
24
24
25
26
29
32
35
38
40
40
41
40
40
40
40
39
38
37
37
36
35
35
35
35
35
35
34
34
33
33
32
31
31
30
29
28
28
27
26
26
25
25
25
25
25
27
29
29
36
40
40
44
45
45
45
45
45
44
44
44
44
47
46
45
44
44
43
43
43
42
40
40
38
36
34
33
31
30
29
28
27
26
25
25
24
24
23
22
22
21
20
20
21
25
31
41
49
55
59
62
62
62
62
62
62
63
62
62
61
60
59
59
58
58
57
57
56
54
53
51
49
47
45
44
42
40
39
38
36
35
34
32
31
30
29
28
29
31
35
40
48
56
63
69
72
74
74
74
74
73
72
71
70
68
66
64
63
62
61
60
58
57
54
52
50
47
45
43
41
40
38
36
35
33
32
30
28
27
26
27
30
35
42
51
61
70
77
82
86
88
89
89
88
86
83
80
77
73
69
69
65
63
63
61
59
59
56
54
54
50
47
47
42
40
40
35
33
33
28
26
26
23
22
22
25
31
40
50
62
73
82
89
93
96
98
99
99
99
98
95
92
88
62
60
59
57
56
55
54
52
50
49
47
45
44
42
40
40
38
37
35
34
33
32
31
30
29
28
29
31
35
40
45
51
56
61
64
65
66
67
67
67
66
65
64
62
61
59
58
57
56
54
53
52
50
49
47
45
43
42
40
40
38
37
36
34
33
32
31
30
29
29
30
33
37
41
46
52
56
59
61
61
61
61
61
59
58
56
54
52
51
49
48
47
46
45
43
42
40
39
37
35
33
32
31
30
29
28
27
26
25
24
23
23
25
28
33
39
44
50
54
58
60
61
61
61
60
60
58
57
55
53
51
49
48
46
45
44
42
41
40
39
37
35
34
33
31
30
29
28
27
26
25
24
23
22
21
21
23
25
30
36
42
49
55
60
63
65
66
66
66
66
65
64
62
60
58
57
55
55
52
50
50
47
45
45
41
40
40
36
34
34
31
29
29
27
26
26
24
24
23
22
21
21
22
26
30
37
43
50
56
61
64
65
66
67
67
66
66
64
62
60
58
56
54
53
52
50
49
47
45
43
41
40
38
36
34
32
31
29
28
27
25
24
23
23
22
21
20
21
23
26
32
39
45
52
58
62
64
65
66
66
65
65
63
62
60
58
56
54
52
51
50
48
47
45
43
42
40
38
37
35
33
31
30
28
27
26
25
24
23
22
21
22
24
28
34
40
46
51
55
58
59
59
59
58
57
55
53
51
49
48
46
45
44
43
42
40
39
38
36
34
32
30
29
27
26
25
23
22
22
21
20
19
19
20
23
27
33
40
46
52
56
59
60
61
61
61
61
60
58
56
54
52
50
49
48
46
45
44
43
41
40
38
36
34
32
30
29
27
26
25
24
23
22
21
20
19
19
19
20
24
29
35
42
49
55
59
62
63
64
64
64
64
63
61
59
57
55
53
51
49
48
46
45
43
41
40
38
36
34
32
30
29
27
26
25
24
23
22
21
20
19
18
18
18
20
24
29
36
43
49
55
59
61
63
63
63
63
62
61
60
58
56
53
51
50
48
46
46
43
41
41
38
36
35
33
31
31
29
27
27
25
24
24
22
21
21
19
19
18
18
20
23
28
35
41
48
53
58
60
61
62
62
62
61
60
58
57
55
53
51
49
48
47
46
44
42
40
40
38
36
34
32
31
29
28
27
25
24
23
22
21
20
19
19
20
23
27
32
39
45
50
54
57
58
58
57
57
55
54
52
50
48
46
45
43
42
42
41
40
39
38
36
34
32
31
29
28
26
25
24
23
22
21
20
19
18
18
20
23
28
35
41
49
55
59
62
63
63
63
63
62
61
59
57
55
53
51
49
48
47
45
44
42
40
39
37
35
33
31
29
28
26
25
24
23
22
21
20
19
18
18
17
18
21
26
33
40
48
55
60
64
66
67
67
67
67
66
64
62
60
57
54
52
50
48
47
45
43
41
40
38
36
35
33
31
30
28
27
25
24
23
22
21
20
19
18
18
18
19
23
28
35
42
50
56
60
63
65
65
65
64
64
62
61
59
57
54
54
50
49
49
46
44
44
41
40
40
35
33
33
30
29
29
26
25
25
23
22
21
20
19
19
21
24
29
35
41
48
53
57
59
59
59
59
58
57
55
53
51
49
47
46
44
43
42
41
40
38
36
34
32
30
29
27
26
25
23
22
21
20
19
18
17
18
19
23
28
35
41
48
53
57
59
60
60
59
59
58
56
54
52
50
47
46
44
43
42
41
40
39
37
36
34
32
30
29
27
26
24
23
22
21
20
19
19
18
18
18
21
25
31
38
45
53
58
62
64
65
65
65
65
64
63
62
60
58
56
54
52
51
49
47
45
43
41
40
38
36
34
32
31
29
28
26
25
24
23
22
21
20
19
18
19
21
25
30
38
45
52
58
62
65
66
66
66
65
65
63
62
60
57
55
53
51
50
48
47
45
43
40
39
37
35
32
31
29
27
26
25
23
23
22
21
20
19
18
18
17
19
21
26
33
40
48
55
60
64
65
66
66
65
64
63
61
58
56
54
52
50
49
48
46
45
44
42
40
39
37
35
33
31
30
29
28
27
26
24
23
22
21
20
20
23
27
33
40
47
54
59
62
64
64
64
63
61
60
57
55
52
50
48
46
45
44
44
42
40
40
37
35
35
31
29
29
26
24
24
22
21
21
19
18
18
19
23
29
36
43
52
58
63
66
68
68
67
66
65
63
61
59
56
54
52
50
48
47
45
44
42
40
38
36
34
32
30
28
26
25
23
22
21
20
19
18
17
17
16
18
22
28
35
43
52
60
65
69
71
72
72
71
70
69
67
65
62
59
57
54
52
51
49
47
45
43
41
39
37
35
33
31
29
27
25
24
23
21
20
19
18
17
16
16
17
20
25
32
40
49
57
63
68
70
71
71
70
70
68
66
64
61
58
56
53
51
50
48
46
45
42
40
39
36
34
32
30
28
26
25
23
22
20
19
18
17
16
15
14
14
13
13
15
20
26
35
43
52
60
65
68
70
70
70
69
68
66
64
61
58
55
53
51
49
47
46
44
43
41
39
37
35
33
31
29
27
25
23
22
21
20
19
18
17
16
15
14
13
14
15
19
25
33
42
51
59
65
68
70
71
70
70
68
67
65
62
62
57
54
54
51
49
49
46
45
45
41
39
39
35
33
33
29
28
28
25
23
22
21
19
18
17
16
16
17
20
26
33
41
50
57
63
66
68
68
67
66
64
62
59
57
54
52
50
49
47
46
45
44
42
40
38
36
34
32
29
27
26
24
22
21
20
18
17
16
16
17
20
25
32
40
48
55
61
65
66
66
66
65
63
61
59
56
54
51
49
48
46
45
44
43
41
40
38
35
33
31
29
27
26
24
23
21
20
19
18
17
16
17
18
22
29
37
46
55
62
68
71
73
73
73
72
70
69
67
64
61
58
56
54
52
50
49
47
45
43
40
39
36
34
32
30
28
26
24
23
22
20
19
18
17
16
16
17
20
25
33
41
50
58
64
69
71
72
72
71
70
69
67
65
62
59
57
54
52
50
48
47
45
42
40
39
37
34
32
30
28
27
25
24
22
21
20
19
18
17
16
15
15
16
19
25
32
40
48
55
61
65
67
68
68
68
67
66
64
62
59
57
55
52
51
49
48
46
44
42
40
39
37
35
33
31
30
28
26
25
23
22
21
20
19
18
17
17
19
22
28
35
41
48
54
58
60
61
61
61
60
59
57
55
53
50
48
47
45
44
44
42
40
40
38
36
36
32
30
30
26
25
25
22
21
21
19
18
18
17
18
20
25
31
38
45
51
55
58
59
60
59
59
58
56
54
52
50
48
46
44
43
42
41
40
39
37
35
33
31
30
28
27
25
24
23
22
21
20
19
18
17
17
18
22
27
34
40
48
55
61
64
66
67
67
67
66
65
63
61
59
56
54
52
50
49
47
45
44
41
40
38
36
34
32
30
28
27
25
24
23
22
21
20
19
18
18
18
21
25
31
39
46
54
60
64
66
67
68
68
67
66
65
63
60
57
55
53
51
49
47
46
44
42
40
39
37
35
33
31
29
28
26
24
23
22
20
19
18
17
16
16
16
17
21
26
33
40
48
55
60
63
65
65
65
65
64
63
61
59
50
48
46
45
43
41
39
37
35
34
32
30
29
28
27
25
24
23
22
21
20
20
19
20
22
26
32
39
45
51
56
58
60
60
60
60
59
57
55
53
51
49
47
45
44
43
42
41
40
38
36
34
32
30
29
27
25
24
24
21
20
20
17
17
17
20
24
29
36
42
48
53
56
58
58
58
57
56
55
53
51
49
47
45
43
42
41
40
39
38
36
34
32
30
28
27
25
23
22
21
20
19
18
17
16
15
15
15
17
21
27
34
41
48
54
58
60
61
62
62
62
61
60
58
56
54
52
50
48
46
45
43
41
40
38
36
34
32
30
29
27
26
24
23
22
21
20
19
18
17
16
15
15
16
19
24
31
38
44
51
55
58
60
61
61
61
61
60
59
57
54
52
50
48
46
45
44
42
40
40
38
35
33
31
29
28
26
25
23
22
21
20
19
18
17
16
15
14
14
13
13
15
18
23
29
36
41
46
50
52
54
55
55
55
55
54
53
51
50
48
47
45
44
43
42
41
40
38
37
35
33
32
30
29
28
28
27
26
25
24
22
21
20
19
18
18
19
22
26
31
36
40
44
47
48
49
49
49
49
48
54
51
48
45
41
40
38
37
36
35
33
31
28
25
21
18
15
12
9
7
4
2
0
0
0
0
0
0
0
0
6
15
26
37
46
53
57
60
60
61
61
59
58
56
53
51
49
46
45
43
42
40
38
38
33
30
30
23
20
20
15
12
12
8
7
7
4
3
3
1
0
0
1
5
13
23
35
47
58
67
74
78
80
81
82
83
82
81
79
75
72
69
66
63
61
58
55
53
49
46
42
39
36
33
29
26
24
21
19
16
14
12
10
9
7
5
3
2
3
7
14
25
37
50
62
72
79
83
86
88
88
88
88
86
84
80
58
56
54
53
51
50
49
47
45
44
42
40
39
37
35
33
32
30
29
28
27
26
25
24
23
22
21
20
20
20
22
26
31
38
44
51
56
60
62
63
64
64
64
63
62
60
58
56
54
53
52
51
50
48
47
45
43
41
40
38
36
34
33
31
30
29
27
26
25
23
22
21
20
21
24
28
33
40
46
52
56
58
59
60
59
59
57
56
54
52
50
48
47
45
44
43
42
41
40
39
37
35
33
31
29
27
26
24
23
22
21
20
19
18
17
17
18
21
25
32
39
47
54
60
64
67
68
68
68
68
67
65
64
61
59
57
54
54
51
49
49
46
44
44
40
39
39
35
33
33
30
28
28
25
24
24
22
21
20
20
19
19
20
22
27
34
41
49
56
62
66
68
69
69
69
68
67
66
64
61
59
56
54
53
51
50
48
46
44
42
40
38
36
34
32
30
28
27
25
24
23
22
21
20
19
18
17
16
16
17
21
26
33
40
49
56
61
65
66
67
67
67
66
64
62
60
58
55
53
51
50
48
47
46
44
42
40
39
37
35
33
31
29
28
26
25
24
23
22
21
20
19
18
17
16
16
18
22
28
36
43
51
57
61
64
65
65
64
63
62
60
58
56
54
52
50
49
47
46
45
43
42
40
38
36
34
32
30
28
27
25
24
23
22
21
20
19
18
18
21
25
31
38
45
52
58
62
64
64
63
62
61
59
57
55
53
50
48
47
46
45
44
42
41
40
38
36
34
32
30
28
27
25
24
23
22
21
20
19
18
17
17
18
20
25
32
40
48
56
63
67
70
71
71
70
70
69
67
65
62
60
57
55
53
52
50
49
47
45
42
40
39
36
34
33
31
29
28
26
25
24
23
21
20
19
18
18
19
21
26
33
40
49
57
63
68
70
71
71
70
69
68
66
64
64
59
56
56
52
50
50
47
45
45
41
39
39
35
33
33
29
27
27
24
23
22
21
20
19
18
17
17
16
17
20
24
31
39
47
55
62
66
69
70
70
69
68
67
65
63
60
58
55
53
52
50
49
47
46
44
42
40
38
36
34
32
31
29
28
26
25
24
23
22
21
20
19
20
23
27
34
41
49
56
62
66
67
68
67
66
64
62
60
60
55
53
51
50
48
47
46
44
42
40
39
36
34
32
30
28
26
25
24
22
21
20
19
18
17
19
22
27
34
41
49
57
62
65
67
67
67
66
64
62
60
58
55
52
50
48
47
46
44
43
41
40
38
36
33
31
29
27
26
25
23
22
21
21
20
19
18
17
17
18
22
27
35
43
52
60
66
70
72
73
73
72
71
69
67
65
61
58
56
53
51
49
48
46
44
42
40
38
36
34
32
29
28
26
24
23
22
21
20
19
18
17
16
15
14
14
16
20
26
35
43
52
60
65
68
70
71
71
70
70
70
66
63
63
58
55
55
51
49
49
45
43
43
39
37
37
33
31
31
27
25
24
22
21
20
19
18
17
17
16
15
14
14
15
18
24
31
40
48
56
62
66
68
68
68
68
67
66
64
62
59
57
54
52
51
49
48
46
44
42
40
39
36
34
32
30
28
27
25
23
22
21
20
18
17
16
16
16
19
23
29
37
44
52
57
61
62
63
62
61
60
58
56
53
51
48
46
45
44
43
42
41
40
38
36
34
32
30
28
26
25
23
21
20
19
17
16
15
14
14
16
20
25
33
41
49
56
62
65
66
67
66
65
64
62
60
58
55
53
51
49
47
46
45
43
41
40
38
36
34
32
30
28
26
24
23
21
20
19
18
17
16
15
15
15
17
21
27
35
43
52
60
66
70
71
72
73
72
71
70
68
65
63
60
57
55
53
51
50
48
46
43
41
39
37
35
33
31
29
27
26
24
23
21
20
19
18
17
15
14
14
15
18
23
29
37
45
52
58
62
64
64
65
64
64
62
61
59
56
54
51
49
47
45
43
42
40
39
37
35
32
30
28
27
25
23
22
21
19
18
17
16
15
14
14
13
13
13
16
20
26
32
39
44
48
51
52
52
53
53
53
51
49
49
46
44
44
41
40
40
39
38
38
35
33
33
30
28
26
25
24
23
22
21
20
19
18
17
16
16
16
17
20
24
29
35
40
43
45
46
46
47
46
46
51
48
46
43
40
38
36
35
33
32
30
28
26
23
20
17
15
12
10
7
5
3
1
0
0
0
0
0
0
0
0
0
1
10
20
32
42
50
56
60
62
63
64
64
64
63
61
59
57
54
52
50
48
46
44
42
40
38
35
32
29
26
23
21
18
16
14
12
11
9
8
6
5
4
2
1
0
1
5
12
21
32
41
50
57
61
63
64
66
67
67
67
66
65
62
60
57
55
54
52
50
48
46
43
40
38
35
32
29
26
24
21
19
16
14
12
10
8
7
5
3
2
0
0
0
2
6
13
23
33
41
49
55
59
60
61
62
62
62
62
60
59
57
55
53
52
51
50
48
47
45
42
40
39
37
34
32
30
27
25
23
20
18
16
14
13
11
9
9
10
13
19
27
27
44
51
51
59
61
61
62
61
61
59
57
57
52
50
50
47
46
46
44
43
40
39
36
33
30
27
25
22
20
18
16
14
12
10
9
7
6
5
6
9
15
23
33
42
52
59
64
68
70
71
73
73
73
72
70
68
66
63
61
59
58
56
53
51
48
45
41
39
36
34
31
29
26
23
21
19
17
15
13
11
10
8
6
4
4
6
11
19
29
40
51
61
69
74
77
79
80
81
82
81
80
77
74
71
68
65
63
61
59
56
53
50
46
42
38
35
31
28
25
22
20
18
16
14
12
10
9
7
5
3
2
2
5
11
20
31
42
54
63
70
74
77
79
80
80
79
78
75
72
69
66
64
62
60
58
55
52
49
45
42
39
35
33
30
27
24
22
20
18
15
13
11
9
6
4
3
3
6
12
21
32
42
53
61
67
70
72
73
73
72
71
69
67
64
61
59
57
55
54
51
49
46
43
40
37
34
31
27
24
21
19
16
14
11
9
7
5
4
4
8
14
23
34
44
54
61
66
68
69
69
68
67
65
63
60
57
54
52
50
48
47
45
43
40
38
35
32
29
26
23
20
18
15
13
11
9
7
6
4
2
2
3
7
15
24
36
36
57
65
65
74
76
76
78
78
78
75
73
73
66
63
63
58
55
55
51
48
45
31
28
25
22
19
16
13
11
9
8
6
4
4
5
9
16
25
36
46
56
63
69
72
74
75
75
75
74
72
69
66
63
60
57
54
52
50
47
44
42
39
36
33
30
27
24
21
18
16
13
11
9
7
5
3
1
0
0
1
4
11
20
30
40
48
54
58
60
60
61
60
59
58
56
54
51
49
47
45
43
42
40
38
36
33
30
27
24
21
18
16
14
12
10
8
5
3
1
0
0
0
0
3
9
17
25
32
38
41
43
44
44
44
44
43
42
40
39
37
35
34
33
32
31
30
28
26
23
21
18
16
14
12
10
8
7
6
4
3
2
1
0
0
0
2
6
12
19
28
36
41
45
48
50
51
52
53
53
53
52
51
49
47
46
45
44
43
42
40
39
37
34
31
29
26
24
22
20
18
17
15
14
13
12
11
10
9
8
8
11
16
24
32
41
41
56
60
60
64
64
64
65
65
65
63
62
62
57
56
56
52
51
51
47
45
42
40
38
35
33
31
29
26
25
23
21
19
18
17
16
14
14
13
12
14
18
24
31
40
49
56
61
64
65
66
66
66
66
65
64
62
60
58
57
55
54
52
51
48
46
43
41
39
36
34
32
30
28
26
24
22
21
20
18
17
15
14
14
14
17
23
30
38
45
52
57
60
61
60
60
60
59
58
56
54
52
50
48
47
46
45
44
42
40
39
36
34
31
28
26
23
21
19
15
11
8
4
1
0
0
0
0
4
10
17
26
33
39
41
43
43
43
43
43
42
41
40
39
37
35
33
32
31
31
29
28
26
24
22
20
18
16
15
13
12
11
10
9
8
7
7
6
5
5
4
4
6
10
16
24
32
39
44
48
49
50
49
49
48
48
47
46
44
42
41
40
39
38
38
36
35
34
32
30
28
26
25
23
22
20
19
18
17
16
15
14
14
13
12
12
11
11
11
13
17
23
30
38
44
48
51
52
52
51
51
51
50
49
47
46
44
43
42
41
40
40
39
38
37
35
34
32
30
29
27
26
25
24
23
22
20
19
18
16
15
14
14
13
13
13
16
16
26
34
34
47
53
53
56
56
56
55
54
54
53
51
51
47
45
45
43
43
43
42
41
40
39
37
36
34
33
31
30
28
28
27
27
26
26
25
24
23
22
21
21
22
25
29
34
40
45
50
53
54
54
54
53
52
52
51
49
48
46
45
45
45
45
44
44
42
41
40
38
37
35
34
32
31
30
28
27
27
25
24
23
22
21
22
24
28
34
41
48
55
61
65
66
67
68
69
69
69
68
66
65
63
62
61
60
59
58
57
56
54
51
49
47
45
43
41
40
38
36
34
33
31
29
28
27
26
24
25
25
29
35
41
50
58
65
70
74
75
76
76
77
77
76
75
73
71
69
67
66
65
63
62
60
58
55
52
48
45
43
40
38
36
34
31
29
28
26
24
23
21
19
17
16
14
14
17
22
28
36
42
49
53
55
57
57
58
58
59
58
56
55
51
49
47
45
44
42
41
39
37
35
32
29
27
25
23
21
20
18
17
16
14
13
12
11
10
9
9
7
6
6
9
13
13
26
33
33
42
44
44
45
45
45
45
45
45
42
41
40
39
38
37
36
36
35
34
33
31
30
28
26
26
24
23
21
20
19
19
18
17
16
15
15
14
15
18
22
28
34
39
43
46
47
47
46
50
49
47
45
43
40
38
35
33
31
30
29
27
24
21
18
15
12
9
7
4
2
0
0
0
0
0
0
0
0
0
0
0
0
8
19
32
43
51
56
58
59
59
58
58
57
56
54
51
48
46
45
43
42
41
40
39
36
33
29
26
23
20
17
15
13
11
9
7
5
3
1
0
0
0
0
0
0
1
10
23
37
50
62
70
74
76
77
78
79
80
80
79
75
56
54
52
51
50
49
48
47
45
44
42
40
39
38
36
35
33
32
30
29
27
27
26
25
24
23
22
22
21
21
23
27
32
39
46
53
58
61
63
63
64
64
64
63
63
62
60
59
57
56
55
54
53
52
51
49
47
45
43
41
40
38
37
35
34
32
31
30
29
27
26
25
24
22
21
22
24
29
36
42
50
57
62
65
66
66
66
67
66
66
65
63
62
60
59
58
57
56
56
55
53
51
49
47
44
42
40
38
36
35
33
31
30
28
27
27
24
23
23
25
29
29
42
50
50
63
66
66
69
69
69
68
67
67
65
63
61
60
59
58
57
57
55
53
51
48
46
43
41
39
37
35
33
31
29
28
26
25
23
22
20
20
20
23
29
37
45
55
63
70
74
77
78
79
80
80
80
79
77
75
72
70
67
66
64
62
60
57
54
51
47
44
40
38
35
31
27
24
22
20
19
19
18
18
16
13
12
12
15
20
28
37
45
52
57
60
62
63
64
64
65
64
63
61
59
56
54
51
49
47
46
44
41
40
37
34
30
28
26
24
22
20
20
18
16
14
13
12
10
9
8
6
5
5
7
11
17
25
33
40
45
48
50
50
51
50
50
50
49
47
46
44
42
40
40
39
38
37
36
34
32
30
28
26
24
22
20
19
17
15
14
13
12
11
11
10
10
8
8
7
5
5
5
6
8
12
19
26
34
40
46
50
52
52
52
52
52
51
50
49
48
47
45
44
44
43
43
42
40
40
38
36
34
33
31
31
28
27
27
24
23
23
22
21
21
19
18
18
16
15
15
15
18
18
30
37
44
51
55
56
58
58
57
56
55
54
52
51
49
48
47
46
45
45
44
43
42
40
39
37
35
33
31
30
29
27
26
25
23
22
21
20
18
17
16
16
18
22
28
35
41
48
53
56
57
56
56
56
55
54
53
52
50
49
48
47
47
46
46
44
43
41
40
38
36
34
32
31
29
27
25
24
23
22
21
21
20
19
19
18
18
19
22
28
36
45
54
61
67
70
72
73
73
74
74
74
73
72
70
68
66
65
63
62
61
59
57
55
52
50
48
46
44
42
40
39
37
34
33
31
29
28
26
26
25
23
22
22
24
28
35
43
53
62
69
74
76
78
78
79
79
79
79
77
76
74
72
70
68
67
66
64
62
59
57
54
50
47
44
41
40
37
35
32
30
28
27
25
24
22
21
20
19
18
18
19
23
30
38
48
58
66
73
77
79
79
80
80
79
78
77
75
72
69
67
65
64
62
61
59
57
54
51
48
45
42
40
37
34
32
29
27
25
23
21
19
17
16
15
17
21
28
37
46
55
62
67
70
71
71
71
70
69
67
65
62
60
58
57
56
55
53
52
50
48
48
43
40
40
36
33
33
29
27
27
23
21
21
18
17
17
14
15
18
25
33
43
54
65
73
79
82
84
86
86
86
86
85
84
81
78
75
73
70
68
66
63
60
57
53
50
46
43
40
37
34
31
29
26
24
22
20
18
16
14
12
10
9
10
13
20
29
39
48
57
63
67
70
71
71
71
71
70
68
65
62
59
55
52
50
47
45
42
40
36
33
30
27
24
21
18
15
13
11
8
6
5
3
2
1
0
0
0
0
0
0
2
8
15
23
31
37
41
42
43
43
43
43
42
41
40
39
37
35
34
33
32
31
30
28
27
25
24
22
20
19
17
16
14
13
12
10
9
8
6
5
4
3
2
2
2
3
6
11
17
24
30
35
38
38
38
37
36
35
34
33
31
29
27
25
25
24
24
23
23
22
21
19
18
17
15
14
13
12
11
10
10
9
9
8
8
8
7
7
7
9
13
18
24
30
35
39
40
40
40
40
39
39
38
37
36
35
35
33
32
32
31
30
30
29
28
28
25
24
24
22
21
21
20
19
19
18
18
18
18
17
16
16
15
14
14
15
18
23
29
35
40
45
47
48
48
47
46
46
46
45
44
43
42
41
40
40
40
39
38
37
36
34
33
31
30
29
28
27
26
26
25
25
24
23
23
22
22
21
21
20
19
18
18
18
21
25
31
38
43
48
50
52
52
51
51
50
50
50
49
48
47
45
44
44
43
43
42
41
40
40
39
37
36
34
33
32
31
30
29
28
28
27
27
26
26
25
24
23
22
21
20
20
21
23
28
33
40
45
51
54
56
57
56
56
56
56
56
54
54
53
52
51
50
50
48
47
46
44
43
41
40
40
38
37
36
35
33
32
31
30
29
28
27
26
26
27
30
35
40
46
53
58
62
64
64
64
63
63
63
62
61
60
59
58
57
56
56
55
55
54
52
50
48
46
43
42
40
39
37
36
35
33
32
31
30
30
29
28
27
26
25
25
27
31
38
45
53
61
67
71
73
75
75
76
76
76
76
75
73
72
70
69
67
66
65
63
61
59
57
55
52
50
48
46
44
42
40
39
38
36
35
34
32
31
30
29
28
26
25
25
25
28
28
40
48
48
65
71
71
76
77
77
78
78
78
77
76
76
73
71
69
67
66
65
63
61
59
56
54
51
49
47
44
42
40
38
36
34
32
30
29
27
26
25
23
22
21
19
18
17
18
21
26
33
40
49
56
61
64
65
66
66
66
65
65
64
62
61
59
58
56
55
54
53
51
49
47
44
42
40
37
35
33
31
29
27
26
25
24
22
21
19
18
16
15
13
13
15
19
25
32
40
46
51
54
55
55
54
53
52
51
50
48
47
45
44
43
43
42
41
40
38
36
33
32
29
27
25
24
22
20
19
17
16
16
15
15
14
14
14
13
13
13
16
20
26
34
40
47
53
56
57
58
58
58
58
58
57
56
55
54
52
51
50
50
49
48
46
46
44
42
40
39
36
34
32
30
28
27
26
25
24
23
22
21
19
18
17
16
15
15
15
18
22
28
36
43
51
57
61
63
64
64
64
64
64
64
63
62
60
58
56
55
54
52
51
49
47
44
44
40
39
39
35
33
33
28
26
26
22
21
21
18
18
18
16
15
15
14
13
12
11
12
15
19
26
34
41
49
54
58
59
60
60
61
61
61
61
60
59
57
56
54
54
53
53
52
50
49
47
45
42
40
39
37
35
34
32
31
30
28
27
26
25
24
23
22
21
20
20
19
19
22
26
31
38
45
52
58
62
63
64
64
63
63
63
62
60
59
57
55
53
52
51
50
49
48
46
45
43
41
39
37
35
34
32
30
29
27
25
24
23
22
20
19
18
16
16
17
21
26
33
40
48
55
59
61
63
63
63
63
63
63
62
60
59
57
55
54
54
53
52
52
51
51
51
50
49
48
46
44
41
39
36
34
32
30
28
27
25
23
21
20
18
17
17
19
24
31
39
48
57
65
70
73
75
76
77
78
78
78
77
76
74
71
69
67
65
63
61
59
56
53
51
48
45
42
40
38
36
34
32
30
28
27
26
25
24
23
22
20
19
18
16
16
17
21
28
36
45
54
62
67
71
72
74
74
75
75
75
74
72
70
67
65
63
61
59
57
55
53
50
47
44
41
40
37
34
32
30
28
26
25
23
21
20
19
18
16
15
13
12
10
9
9
10
10
20
29
29
47
55
55
64
65
65
66
66
66
66
65
65
62
60
60
56
54
53
51
49
47
44
42
40
38
35
33
30
28
26
25
24
23
22
21
19
18
16
15
14
13
12
14
17
22
29
38
45
52
57
61
62
63
63
63
63
62
60
59
56
54
52
51
50
49
47
46
44
42
40
38
36
33
31
30
28
27
26
25
23
22
22
21
20
19
18
17
17
18
22
28
36
43
51
57
61
63
64
65
65
66
66
66
65
64
63
60
59
57
55
54
53
51
48
46
43
40
37
34
31
28
27
25
23
22
20
19
18
16
15
14
13
12
11
10
9
9
10
13
19
27
36
46
55
63
68
71
73
74
75
76
76
76
75
73
71
69
66
64
63
61
59
58
55
52
49
47
44
41
39
36
34
31
29
27
25
23
22
20
19
17
16
14
13
12
10
9
8
8
9
12
19
27
37
48
57
65
70
73
74
75
76
76
76
76
74
73
70
68
66
64
62
60
58
56
53
53
46
44
44
38
36
34
32
30
30
25
23
23
19
17
17
14
12
12
5
1
0
0
0
0
6
16
27
39
47
55
59
61
62
62
61
61
60
58
56
54
52
50
48
47
46
45
43
41
39
35
32
28
24
21
18
16
14
12
10
9
9
8
7
7
6
5
4
5
8
13
21
30
40
49
56
61
64
65
66
66
66
66
65
63
62
60
58
56
54
53
52
50
47
45
42
40
38
35
32
30
27
25
23
22
20
19
17
16
15
13
12
11
10
9
8
9
12
18
26
36
46
56
64
69
72
74
75
75
76
76
75
73
71
69
66
63
61
59
57
54
51
48
45
42
39
36
33
30
28
25
23
20
18
16
15
13
11
10
9
7
6
5
4
3
3
5
10
17
24
33
40
44
47
48
48
47
47
47
46
45
43
41
40
38
36
35
34
33
32
30
29
27
25
23
21
20
19
17
17
16
15
14
13
12
11
10
9
8
7
6
5
5
5
8
12
18
24
30
36
39
40
41
41
40
40
40
40
39
38
36
35
34
33
32
31
31
30
29
28
26
25
24
23
22
20
19
18
17
16
15
15
14
14
13
12
11
11
12
15
19
24
29
34
37
39
40
40
39
38
38
36
36
36
33
31
31
29
29
29
29
28
28
26
25
25
22
21
21
19
19
19
18
18
17
17
17
17
16
16
16
16
16
18
22
26
32
37
41
44
45
46
45
45
45
44
44
44
43
42
41
40
39
38
37
36
35
34
33
32
31
30
29
28
28
27
26
26
25
24
24
23
23
22
22
21
21
20
19
18
18
18
20
24
29
34
39
42
44
45
45
44
44
44
44
44
44
43
42
41
40
39
38
38
37
37
36
35
33
32
31
30
29
28
27
26
25
24
23
22
22
20
20
20
19
19
18
18
17
16
15
14
14
14
14
17
21
25
31
35
39
40
41
40
40
40
40
40
40
38
36
36
33
32
32
31
30
29
28
26
24
22
21
18
16
14
13
12
10
10
8
6
6
4
3
2
1
0
0
0
0
0
0
0
0
0
1
8
16
26
34
40
43
43
42
40
38
36
35
33
32
30
29
27
26
25
25
25
24
23
22
20
17
15
13
10
9
9
6
5
5
3
2
2
1
0
0
0
0
0
0
0
0
0
3
3
19
29
39
45
50
52
53
53
53
54
54
53
52
51
49
47
47
47
47
47
47
46
45
43
41
40
38
36
34
32
30
28
27
26
24
23
24
23
22
22
21
19
18
17
16
15
13
13
15
20
28
39
50
61
71
76
79
79
79
79
79
79
79
79
77
75
73
71
69
67
65
62
60
57
54
51
48
45
42
40
38
35
32
30
28
26
24
23
22
20
18
17
15
14
12
11
9
8
6
6
8
14
24
34
45
55
63
67
68
67
66
65
65
65
64
63
61
59
56
54
52
50
48
46
45
43
40
38
35
32
30
27
25
23
21
20
18
16
15
13
12
10
9
7
6
5
3
3
2
1
0
0
3
9
17
28
39
48
55
58
59
59
58
57
57
58
57
56
55
53
51
50
49
48
48
47
45
43
40
38
35
32
30
28
26
24
22
21
19
19
18
17
16
15
14
14
13
12
12
12
12
16
22
31
41
52
61
67
70
71
70
68
66
65
63
61
60
57
55
54
53
52
50
49
47
44
41
39
36
33
30
27
24
22
21
20
18
16
15
13
11
9
8
6
7
9
14
21
21
40
50
50
61
63
63
63
62
62
62
61
61
58
56
56
53
53
53
52
51
50
49
46
44
42
40
38
35
33
32
30
28
27
26
25
24
23
22
21
20
19
19
23
29
38
48
59
68
75
79
81
81
81
82
83
83
83
81
79
76
73
71
69
68
66
64
62
59
56
52
49
46
43
41
40
37
35
32
31
29
27
26
25
23
22
21
19
17
17
19
23
31
40
51
61
69
74
76
77
77
77
78
78
78
77
75
73
70
68
66
63
61
59
56
54
51
49
46
44
41
38
36
34
30
28
26
24
22
21
19
18
16
14
12
10
9
7
6
8
13
21
31
40
49
56
60
62
63
63
63
64
64
64
62
60
57
54
52
50
48
47
45
43
41
39
36
34
31
29
27
25
23
20
18
17
15
13
12
11
9
8
6
4
3
3
5
10
18
26
35
42
47
49
49
48
47
46
45
44
43
41
40
38
36
35
35
34
33
29
27
25
21
13
13
11
9
6
4
2
1
0
0
0
0
0
0
2
8
16
25
33
39
41
42
41
40
40
40
39
38
36
33
31
30
28
27
27
27
26
25
23
21
19
17
15
14
13
11
11
10
9
9
8
8
8
8
7
6
5
4
2
4
8
13
22
32
40
48
51
52
52
51
51
51
51
51
49
48
46
43
41
40
40
40
40
39
37
35
33
31
29
27
25
24
22
21
20
18
17
16
15
15
14
13
13
12
11
10
10
13
18
26
35
44
54
61
65
68
67
65
64
64
63
62
60
58
56
53
51
50
49
48
47
46
45
43
40
39
37
35
33
31
30
28
27
26
26
25
24
23
23
22
20
19
19
18
18
19
22
29
38
48
57
64
69
71
70
69
69
69
70
69
68
67
66
63
62
60
60
59
59
58
56
54
51
48
46
44
41
40
38
35
33
31
29
28
26
25
23
21
20
18
19
22
28
37
47
56
63
68
70
70
70
69
69
69
68
66
64
61
59
57
56
55
55
54
52
50
48
45
42
40
37
35
33
31
30
28
26
25
24
22
21
20
19
17
16
15
15
19
27
37
48
61
72
79
84
86
86
86
86
87
87
86
85
83
81
78
58
57
56
55
55
53
52
52
49
47
47
44
43
43
40
40
40
37
36
36
34
33
33
31
30
29
28
27
27
29
32
37
43
50
56
62
65
67
67
68
68
68
68
68
67
66
65
63
62
61
60
59
58
57
55
54
52
49
47
45
43
42
40
40
38
37
36
34
33
32
31
30
29
28
27
26
25
25
26
30
35
41
48
56
63
67
69
71
71
71
71
71
71
70
69
67
65
64
63
62
61
61
59
58
56
55
53
51
49
47
45
44
42
40
40
38
37
36
34
33
32
31
29
28
28
28
31
36
41
49
56
62
66
68
68
68
68
68
67
67
65
64
62
61
59
58
57
56
55
52
51
49
47
45
42
40
39
37
36
34
32
31
29
28
27
25
24
23
23
24
28
33
40
46
53
59
63
64
64
64
63
63
62
61
60
58
57
55
54
53
52
51
50
49
47
45
43
41
40
37
36
33
32
30
29
27
27
26
25
25
24
23
22
22
24
28
34
40
48
56
61
65
67
68
68
69
69
69
69
68
68
64
63
63
59
58
58
55
53
53
49
46
46
42
40
39
37
35
33
31
30
28
27
26
25
24
23
22
20
20
21
24
29
36
42
49
55
58
61
62
63
63
63
63
62
61
59
57
55
53
52
51
50
49
48
46
44
42
40
39
37
35
33
31
30
29
27
26
25
24
22
22
20
19
18
17
16
17
19
24
30
37
43
48
52
54
55
56
56
56
56
56
55
53
52
51
49
49
48
47
45
44
43
41
40
38
35
33
31
30
28
27
26
25
23
22
21
20
19
18
18
17
17
19
23
28
34
40
44
48
49
50
50
49
49
48
47
46
45
44
42
41
40
40
40
39
38
37
35
33
31
29
27
26
25
24
23
22
22
21
20
19
18
18
17
16
18
21
25
31
37
42
47
49
50
51
50
50
50
50
49
48
47
45
44
43
42
41
40
40
39
38
37
35
34
32
31
30
28
27
26
25
24
23
23
22
21
20
19
18
17
19
22
27
33
39
45
50
53
55
56
56
57
57
57
57
56
55
53
52
50
49
48
47
45
44
42
40
39
38
36
35
34
33
31
30
30
28
27
26
26
24
23
21
17
13
10
9
10
13
20
27
34
40
40
45
47
47
50
52
52
54
55
55
53
52
52
51
51
51
50
50
49
47
46
44
42
40
40
38
37
36
35
34
33
33
31
30
29
28
27
27
28
31
35
40
44
48
51
52
52
51
51
51
51
50
59
56
51
47
43
40
38
35
32
29
26
22
19
15
11
8
5
3
1
0
0
0
0
0
0
0
0
0
0
1
10
19
28
34
37
38
37
36
36
35
35
34
32
30
28
26
25
24
23
22
21
19
17
15
13
10
9
7
5
3
2
0
0
0
0
0
0
0
0
0
0
2
10
20
31
40
47
50
49
49
48
46
46
46
46
45
43
41
39
38
35
34
33
32
31
29
26
23
21
19
17
15
14
12
11
10
9
8
7
6
5
4
3
2
2
4
10
17
26
35
42
47
49
49
48
47
46
47
47
47
46
45
43
41
40
38
37
36
35
33
30
29
26
24
22
20
18
17
16
15
14
13
12
11
10
10
9
8
7
6
7
9
14
22
32
32
51
58
58
63
62
62
60
60
60
58
56
56
51
48
48
45
45
45
43
41
40
38
34
32
29
27
25
24
23
21
20
18
16
12
10
8
5
4
4
7
13
21
29
38
44
47
48
47
46
44
44
43
42
41
40
39
37
36
35
35
34
34
33
31
29
27
26
24
22
20
19
17
16
15
14
13
12
12
11
10
9
10
13
19
28
39
49
59
67
71
72
72
72
74
74
73
74
73
72
69
67
66
64
63
62
61
59
57
54
51
48
44
41
40
37
35
33
31
29
28
27
25
24
23
21
19
19
20
25
33
43
55
67
76
83
86
87
87
87
88
88
88
87
85
83
80
77
75
73
71
69
67
64
61
57
54
51
49
46
43
40
38
36
33
31
29
26
25
23
21
19
17
15
13
11
11
15
22
32
44
58
70
80
85
88
89
89
88
88
88
86
84
81
59
57
56
55
54
53
52
50
49
47
45
43
41
40
38
36
35
34
33
32
31
31
30
29
28
27
27
26
25
24
24
23
23
24
28
33
40
46
53
59
63
64
65
64
64
64
63
63
62
61
59
58
57
56
55
55
54
53
52
50
48
46
44
42
40
40
39
37
36
35
33
32
31
30
29
29
29
27
26
26
26
28
28
37
43
43
55
58
58
60
60
60
58
57
57
55
54
52
51
50
49
48
48
47
46
45
43
41
40
39
37
36
34
33
32
30
29
28
27
26
25
24
23
22
23
25
29
35
42
50
57
62
65
67
67
67
67
67
66
65
65
64
62
61
60
59
58
57
56
54
52
50
47
45
43
41
40
38
36
35
33
32
31
30
29
29
28
27
26
25
26
30
35
41
49
57
63
68
71
72
73
73
73
73
73
72
71
69
68
66
65
64
63
62
60
58
56
54
52
50
46
45
43
40
39
38
37
35
34
33
32
31
29
28
27
27
29
33
39
46
55
62
69
73
75
76
77
77
77
77
76
75
74
72
71
69
68
67
66
65
63
61
58
56
53
50
48
45
43
41
40
38
36
35
33
32
30
29
28
28
30
35
40
47
55
62
67
70
71
72
72
72
71
71
69
68
66
63
61
60
58
57
55
53
51
49
46
44
41
39
36
34
31
31
28
26
26
23
21
21
18
17
17
19
24
24
37
43
43
55
59
59
61
61
61
61
60
59
58
56
54
52
51
50
49
48
46
44
42
40
37
35
33
31
29
28
26
25
23
22
21
19
18
17
16
15
15
18
23
29
37
44
51
56
59
61
62
62
63
63
63
62
60
59
56
54
53
51
49
48
46
44
42
40
38
36
34
31
29
27
26
25
23
22
21
20
18
17
16
14
13
12
13
15
20
26
32
39
44
48
50
52
52
52
52
52
52
51
49
48
46
44
42
41
40
39
38
36
35
33
31
30
28
26
25
23
22
21
20
19
18
17
16
15
14
13
12
12
13
16
21
26
32
38
42
46
47
48
47
47
47
47
47
46
46
44
43
42
42
41
40
40
40
39
37
35
34
32
31
29
28
26
25
24
23
23
22
21
20
20
19
20
22
25
30
36
40
45
49
50
51
50
50
49
49
57
54
52
48
46
43
41
40
40
38
36
34
31
27
24
21
18
15
13
10
8
6
3
1
0
0
0
0
0
1
9
19
31
42
51
58
62
63
63
62
62
62
62
61
59
57
55
53
51
50
49
48
46
44
40
38
35
32
29
26
24
22
20
18
17
16
14
13
13
10
9
9
12
19
19
39
51
51
71
77
77
81
82
82
84
84
84
82
80
77
75
72
70
68
66
64
61
57
54
51
47
44
42
40
37
34
32
29
27
25
23
21
20
18
16
13
12
13
17
25
36
47
60
71
79
83
86
86
87
87
81
79
79
55
54
54
51
50
50
47
46
44
43
41
40
39
37
36
34
32
31
30
29
28
27
26
25
24
24
26
29
33
39
44
49
52
54
55
55
55
55
55
54
53
52
50
49
47
46
45
44
43
41
40
39
36
34
33
31
29
28
27
26
26
25
24
23
22
21
20
19
21
24
28
33
38
41
44
45
45
45
45
49
49
47
45
42
40
38
36
35
34
33
32
30
28
25
22
20
18
15
13
11
8
7
4
2
0
0
0
0
0
0
0
0
1
10
20
32
40
47
51
52
52
53
54
54
54
54
53
51
48
46
44
43
41
40
39
37
34
31
28
25
21
18
16
14
12
11
10
8
8
6
5
5
3
2
2
1
5
5
21
33
33
54
61
61
66
66
66
66
67
67
67
66
65
62
58
56
54
52
51
49
48
46
44
41
40
37
35
32
30
28
26
24
22
20
18
16
15
13
11
10
10
14
21
30
41
52
63
69
73
75
75
75
75
76
75
74
72
70
67
64
62
60
58
56
53
50
47
43
40
37
33
30
27
26
24
21
19
17
14
10
8
6
6
9
15
24
35
45
55
63
67
68
69
69
69
68
67
65
63
60
58
56
54
53
52
51
48
46
43
40
37
34
31
28
25
23
20
18
16
14
12
10
8
6
5
4
8
17
27
40
54
66
76
81
83
84
84
84
84
83
82
80
78
57
56
55
54
53
52
51
50
48
46
44
42
40
40
38
36
34
33
32
30
30
29
28
27
26
25
25
26
28
33
39
45
51
56
60
62
62
63
63
63
63
63
62
60
59
57
55
53
52
51
49
48
46
44
42
40
39
38
36
34
33
32
30
29
27
26
25
24
23
22
21
21
23
26
31
37
42
47
50
52
53
52
52
51
51
51
50
48
47
45
43
42
42
41
40
40
39
38
36
34
32
30
29
28
26
25
24
22
21
20
19
18
17
17
18
18
24
29
29
40
42
42
45
45
45
50
49
49
46
44
44
40
38
38
36
35
34
32
30
27
24
22
19
16
13
11
9
6
4
3
1
0
0
0
0
0
0
0
5
14
26
38
48
56
60
62
63
63
64
64
64
62
61
58
56
53
50
48
46
45
44
41
39
36
33
29
26
23
21
19
17
15
13
11
10
9
7
6
4
2
1
0
3
9
19
31
43
56
64
70
72
74
74
74
75
75
75
73
71
68
66
63
61
59
58
56
53
50
47
45
42
40
37
34
31
28
26
24
22
20
19
18
16
14
13
11
10
11
14
22
32
45
58
69
78
83
85
86
86
86
86
86
85
82
80
77
74
71
70
68
65
63
60
57
54
50
47
44
40
38
35
31
28
26
21
19
17
13
10
8
9
12
18
28
40
52
62
71
77
79
79
79
79
78
76
74
71
68
64
62
59
58
56
55
53
50
47
44
40
37
33
31
28
25
23
20
17
15
13
10
8
6
6
9
15
15
39
53
53
78
86
86
92
93
93
93
93
93
91
88
88
61
60
60
58
56
55
54
52
50
47
45
42
40
39
37
35
33
32
30
29
28
27
26
25
24
23
24
27
32
39
46
54
61
67
70
72
72
73
73
74
74
73
71
70
67
65
63
62
60
59
57
54
52
49
46
43
41
39
37
35
33
32
30
28
27
25
24
23
22
20
20
19
21
25
31
39
46
54
61
65
67
68
69
69
69
69
68
67
65
62
60
58
57
56
54
53
51
49
46
43
41
39
37
35
33
31
29
27
26
24
23
22
20
19
19
17
17
20
24
30
38
45
53
58
62
64
65
65
65
65
64
63
61
59
57
55
53
52
51
49
47
45
43
40
39
36
33
31
29
27
25
24
22
21
19
18
17
16
14
14
16
19
25
32
40
46
52
56
58
58
58
58
57
56
54
52
51
48
47
46
45
45
44
43
42
40
39
36
34
32
30
28
27
25
24
22
21
20
18
17
16
15
16
19
24
31
40
48
55
61
65
67
68
69
70
70
70
69
68
67
64
62
61
59
58
56
54
52
49
47
44
41
40
37
34
32
30
28
26
25
24
22
21
20
18
17
17
18
22
28
36
36
54
62
62
71
74
74
76
76
76
76
75
75
70
68
68
63
61
61
57
55
52
50
47
44
41
39
36
34
32
29
27
25
23
22
20
18
17
15
14
13
14
17
23
30
38
46
53
58
61
62
62
62
62
61
61
59
57
55
53
51
49
47
45
44
42
40
38
36
33
31
28
26
25
23
21
20
18
17
15
14
12
11
10
9
9
11
14
20
26
33
40
44
46
47
47
47
46
46
45
43
42
40
39
38
37
36
35
35
33
32
30
28
26
24
22
20
19
17
16
15
14
13
12
11
10
9
9
10
14
19
25
31
37
40
42
43
43
44
43
40
39
37
35
32
29
27
26
25
25
23
22
19
16
13
10
7
5
2
0
0
0
0
0
0
0
0
0
0
0
0
0
0
9
22
37
47
55
60
62
62
62
62
63
62
61
59
57
54
52
50
48
47
45
43
41
38
35
32
29
27
24
22
20
17
15
13
11
9
8
6
5
3
1
0
2
7
16
28
41
41
68
76
76
83
83
83
84
83
83
80
78
78
56
54
54
51
50
50
48
47
45
44
42
41
40
39
38
36
35
33
32
31
30
29
28
27
26
25
24
24
24
26
30
36
42
49
55
59
61
62
62
62
62
62
62
61
60
58
57
55
54
53
52
50
49
48
45
44
42
40
39
37
36
34
33
32
31
30
30
29
28
27
27
26
25
26
28
32
38
44
51
56
60
62
63
62
62
61
60
59
58
56
54
52
50
50
49
49
48
47
45
44
42
40
39
37
36
35
34
33
32
31
30
29
28
27
26
25
26
28
32
38
43
50
55
58
59
60
60
59
59
58
57
55
54
52
51
50
49
49
48
47
46
44
43
41
40
38
36
34
33
31
30
29
28
27
26
25
24
23
23
24
27
32
39
45
53
59
64
66
68
69
69
70
70
69
68
67
65
63
62
60
59
58
57
56
54
52
50
48
46
44
42
40
39
37
36
34
33
32
31
29
28
27
26
25
24
26
30
36
42
50
58
65
69
72
73
74
74
75
75
74
74
72
70
68
66
64
63
61
59
58
56
53
51
48
45
43
40
39
37
35
34
32
30
29
27
26
25
24
22
21
20
19
18
18
18
25
32
32
49
57
57
68
70
70
71
71
71
71
70
70
66
64
64
60
58
58
56
54
52
50
47
45
42
40
38
35
33
31
29
27
25
24
22
21
20
18
17
16
15
14
12
11
10
9
10
12
17
25
34
43
52
60
64
67
68
68
68
68
67
67
65
63
61
59
58
56
55
54
53
52
50
48
45
43
40
38
35
32
30
28
26
25
23
22
21
20
19
18
17
15
14
13
14
17
22
30
39
47
54
60
62
63
63
62
61
60
58
56
54
52
50
49
47
46
46
44
43
41
39
37
34
32
30
28
26
24
22
21
19
18
16
15
14
13
12
11
11
14
19
27
35
44
53
60
65
67
68
68
68
67
66
64
63
61
58
56
55
54
53
52
51
49
47
44
41
39
36
33
30
28
26
23
22
20
19
17
16
15
14
13
12
11
11
13
18
25
35
45
55
63
70
74
76
77
78
79
79
78
77
75
73
70
68
66
65
63
61
59
57
54
51
48
45
42
40
37
35
35
30
27
27
24
22
22
19
17
17
13
12
12
12
16
16
30
40
49
57
63
67
69
70
71
71
71
70
69
67
65
62
60
58
57
55
53
51
49
46
43
40
37
34
32
29
26
24
22
20
18
17
15
14
13
11
10
9
9
8
8
10
14
20
28
37
44
51
56
59
60
61
61
61
61
60
59
57
55
53
51
49
48
47
46
45
43
41
40
37
35
33
30
28
26
24
22
20
18
17
16
15
14
13
11
11
10
11
13
18
25
33
42
49
54
59
60
61
61
60
60
59
57
55
54
52
50
49
48
47
46
45
43
41
40
37
35
33
30
28
27
25
24
22
21
19
18
17
15
14
13
13
16
20
26
34
41
49
54
57
59
60
60
60
59
58
56
55
53
51
50
49
48
47
46
45
43
41
32
30
29
27
25
23
22
20
19
18
17
16
15
14
14
16
21
27
36
44
53
60
66
69
71
72
73
73
73
73
71
70
68
65
63
61
60
58
56
54
52
50
47
44
41
39
36
34
31
29
27
26
24
22
21
18
17
15
14
13
12
12
13
17
23
30
38
45
52
56
59
61
61
62
62
63
62
61
59
57
55
53
51
49
48
48
44
42
42
37
35
35
29
27
27
23
22
22
18
17
17
14
12
12
10
9
8
7
6
5
5
4
5
8
13
20
27
35
40
45
48
49
50
50
50
50
50
49
49
47
45
44
43
42
41
40
40
38
37
35
33
31
30
28
27
25
24
23
22
21
20
20
19
18
17
16
16
15
14
13
13
13
14
17
21
27
34
40
45
49
50
51
50
50
50
50
49
48
47
45
44
43
42
41
40
40
39
38
36
34
32
30
28
27
26
24
23
22
21
20
19
18
18
17
16
15
15
14
15
18
22
28
35
40
46
49
51
52
52
52
51
51
50
49
48
46
45
44
43
43
42
42
41
40
39
38
36
34
32
31
29
28
27
26
25
25
24
23
22
21
21
20
19
19
18
17
16
15
15
18
23
28
36
43
49
54
57
58
59
59
60
60
60
60
59
58
57
56
55
54
53
52
51
50
49
47
45
43
41
40
38
38
36
34
33
32
31
30
29
28
27
26
26
24
23
23
22
21
21
19
19
19
25
31
31
46
55
55
66
69
69
70
71
71
71
71
71
70
68
66
65
63
63
62
61
60
58
56
54
52
49
47
45
44
42
40
39
38
37
35
35
33
32
31
30
29
28
26
25
24
23
22
21
21
22
27
34
41
50
59
67
71
74
76
76
77
77
77
76
75
74
72
70
68
67
66
65
63
62
60
57
55
52
50
47
45
43
41
40
38
36
34
33
31
30
28
27
26
25
23
22
20
19
19
20
24
30
39
47
56
64
70
73
74
75
75
75
74
73
72
71
69
68
66
65
64
63
62
60
58
56
53
51
48
45
43
40
39
37
35
33
32
30
29
27
26
24
23
22
20
20
21
25
31
39
48
57
65
71
74
76
78
78
78
79
78
76
74
72
69
67
66
64
63
62
60
58
55
52
49
46
43
41
39
37
35
33
31
29
28
26
25
23
22
20
19
18
19
22
28
36
45
55
65
72
77
80
81
82
83
83
83
82
80
78
75
72
69
67
64
62
59
56
53
50
46
43
40
37
34
31
28
25
23
21
19
17
16
14
12
11
9
7
6
6
9
13
20
28
36
42
47
50
52
52
52
52
52
51
50
49
47
47
43
41
41
38
37
37
33
31
31
27
25
25
21
19
19
16
14
14
12
11
10
9
8
8
7
6
5
4
3
3
4
8
14
20
27
33
38
40
41
41
41
40
40
40
40
40
38
37
35
34
33
33
32
31
31
30
29
27
26
24
23
21
20
19
18
18
17
17
16
16
15
15
15
14
13
14
15
18
23
28
34
39
41
43
43
43
42
41
41
40
40
38
37
35
34
33
32
32
31
31
29
28
27
25
24
23
22
21
20
19
18
18
17
17
16
15
15
14
15
16
20
24
29
35
39
41
42
42
41
40
40
40
39
37
36
35
34
33
32
32
31
31
30
29
28
27
25
24
23
23
22
22
21
21
20
19
19
19
19
19
18
18
18
20
24
29
34
39
43
46
47
47
45
44
44
43
42
42
41
40
39
38
37
36
36
35
35
34
34
33
32
30
30
29
28
27
26
26
25
26
25
24
24
24
23
22
22
22
22
23
27
32
37
41
45
48
48
48
48
48
47
47
47
46
45
45
43
42
42
40
40
40
40
39
39
37
36
36
33
32
31
30
29
28
27
26
25
24
23
22
22
21
20
20
20
20
22
25
30
35
40
44
46
48
48
47
47
53
53
53
52
51
50
48
47
45
45
44
44
43
41
40
38
36
34
32
30
29
27
25
24
23
21
20
19
18
16
14
13
12
14
18
25
33
42
52
58
62
63
62
61
59
57
56
54
52
50
48
46
43
43
43
41
40
39
37
34
31
29
26
23
21
19
17
16
15
13
11
10
9
7
7
9
14
22
32
42
52
61
66
68
69
69
68
68
68
67
66
64
63
61
59
58
58
57
56
54
52
49
47
44
41
39
37
34
32
30
28
27
27
25
23
23
21
19
18
20
25
34
45
58
70
81
88
92
94
96
97
98
99
99
98
96
93
91
87
62
61
60
59
58
57
55
53
51
49
48
46
44
43
41
40
39
37
36
35
34
33
32
31
29
29
29
31
35
40
47
53
59
62
64
65
66
66
66
66
66
65
64
63
61
59
58
56
55
54
52
51
49
47
45
43
41
40
38
37
35
33
32
31
30
29
28
27
26
24
24
23
22
21
21
24
27
33
38
44
44
52
54
54
54
53
53
52
52
52
50
48
48
46
45
45
44
43
43
40
40
38
36
35
34
32
31
30
29
28
26
25
24
22
21
19
18
17
17
18
21
25
30
35
40
43
44
45
44
47
45
44
42
40
37
34
31
29
27
26
26
25
23
22
19
16
13
11
8
6
4
2
1
0
0
0
0
0
0
0
0
0
0
0
7
18
30
41
49
54
56
56
56
56
55
55
54
52
50
48
46
43
42
41
40
39
37
35
32
29
26
24
21
19
17
15
13
11
10
9
7
6
5
3
1
0
0
0
4
12
23
36
47
58
66
70
72
73
72
72
72
71
69
67
65
62
60
58
57
55
53
50
48
44
40
37
34
31
28
25
23
21
19
17
16
14
12
11
11
9
8
7
5
2
2
6
11
21
33
45
56
64
68
71
72
72
72
73
73
72
70
70
68
64
64
62
59
58
56
53
50
47
43
40
38
34
31
28
25
23
20
18
17
16
14
12
11
11
9
9
9
18
26
26
48
58
58
72
74
74
72
71
71
67
65
65
60
57
57
53
53
52
51
49
45
42
39
36
32
29
26
23
20
18
16
15
14
11
10
8
6
4
4
5
10
17
27
39
49
58
63
65
66
65
65
64
63
62
61
59
56
54
52
50
49
47
46
44
43
40
39
37
33
31
27
25
22
19
18
16
14
12
11
9
7
6
4
5
9
16
27
39
52
65
72
78
81
83
83
83
83
83
82
79
77
75
73
71
70
69
67
65
63
60
56
52
49
44
41
38
35
32
30
28
26
24
22
20
17
15
14
12
12
14
20
30
42
56
69
80
89
94
96
97
97
98
98
98
96
94
91
89
86
83
83
81
79
76
56
54
52
50
48
46
44
42
40
40
38
37
35
34
33
32
31
30
28
27
27
28
30
35
41
48
56
62
67
70
71
72
72
72
72
71
70
69
67
66
64
63
62
61
59
58
56
54
52
50
48
46
43
42
40
39
37
36
35
34
32
31
29
28
28
28
31
35
40
47
54
59
62
63
63
63
61
60
59
57
55
53
51
50
48
47
46
45
43
41
40
38
36
34
32
30
28
26
25
24
22
21
20
19
18
17
17
19
23
23
34
40
40
49
51
51
52
51
51
51
50
50
48
46
46
42
41
41
40
40
38
37
35
33
31
29
27
26
24
23
22
21
19
18
17
16
15
14
13
14
15
19
24
31
37
43
47
50
51
52
52
52
52
52
52
51
50
48
47
45
44
43
42
41
40
39
37
36
34
32
31
29
28
27
25
24
23
22
21
20
20
19
18
17
17
19
22
27
34
40
45
50
53
55
56
56
56
56
56
56
55
54
52
51
49
48
47
46
46
44
43
41
40
39
38
36
35
33
32
30
29
28
27
26
25
24
23
23
22
21
21
21
24
28
34
40
47
52
56
58
59
59
59
59
59
58
57
56
54
53
51
51
50
49
48
46
44
42
40
40
38
36
35
34
32
31
30
29
28
27
25
24
22
21
20
19
21
25
31
37
43
49
53
54
56
56
55
56
55
55
54
52
51
49
48
46
46
45
45
44
42
41
40
38
36
34
33
32
31
30
28
27
26
26
24
23
23
22
22
22
28
34
34
47
53
53
60
61
61
62
62
62
61
60
60
57
56
56
53
52
51
50
49
48
46
44
42
40
38
31
29
28
27
26
24
23
22
21
20
21
23
28
34
41
49
56
61
65
67
68
69
70
70
71
70
69
68
66
65
63
62
60
58
56
53
50
46
43
40
38
36
35
33
32
31
31
30
29
28
27
25
24
23
21
20
20
21
24
30
37
44
52
59
64
66
68
68
68
68
68
67
66
64
62
60
58
56
55
54
53
52
50
47
45
42
40
39
37
34
32
30
29
27
26
25
23
22
21
20
19
18
17
16
16
18
22
28
35
42
49
54
58
60
60
60
61
60
60
59
57
56
54
52
51
49
49
48
47
46
44
42
40
39
37
35
34
32
31
29
28
26
25
23
22
20
19
18
18
20
25
31
38
44
50
54
57
58
58
57
57
56
55
54
53
51
49
48
47
47
46
46
45
43
41
40
38
35
33
31
30
28
27
25
24
23
21
20
19
18
18
20
25
31
38
45
53
59
63
66
67
68
69
69
68
67
66
64
62
60
58
56
55
54
52
50
48
46
44
41
40
37
35
33
31
29
28
26
25
23
22
21
19
19
19
21
21
33
40
40
57
63
63
70
71
71
72
72
72
72
70
70
66
64
62
61
59
57
56
53
51
48
46
43
41
39
36
34
32
29
28
26
24
23
22
20
19
17
16
16
17
21
27
34
41
48
54
58
60
61
61
61
60
59
58
56
54
52
49
47
46
44
42
40
39
37
34
32
30
28
26
24
23
21
20
18
17
16
15
14
12
11
11
12
14
19
24
31
36
40
42
42
42
42
41
40
40
39
37
35
33
32
31
30
30
29
28
27
26
24
22
20
19
17
16
14
13
12
11
11
10
9
9
8
8
8
10
14
19
25
30
34
37
39
39
38
37
37
37
36
35
34
33
32
31
30
30
29
29
28
27
25
24
23
22
21
20
19
18
17
17
16
15
15
14
13
13
12
12
13
16
21
26
32
37
40
41
42
42
42
42
42
42
41
40
40
39
37
36
35
35
34
33
32
31
30
29
28
27
26
25
24
23
23
22
21
21
21
20
20
20
19
19
19
19
20
20
28
34
34
43
47
47
49
49
49
56
56
56
53
51
51
47
45
42
43
41
40
39
37
35
33
31
28
26
23
21
20
18
17
16
16
15
14
13
11
9
8
7
7
9
15
23
33
42
52
60
63
64
63
60
58
56
55
53
50
48
45
43
41
40
40
39
37
35
33
30
27
25
23
21
19
16
14
12
11
9
8
6
5
3
2
1
4
10
18
28
37
45
51
53
52
50
49
47
45
43
41
39
37
34
33
32
31
31
30
29
27
24
22
19
17
15
14
13
11
10
9
8
7
7
6
5
4
3
3
6
12
20
31
41
51
57
61
62
60
59
59
59
58
58
57
54
52
49
48
47
46
46
45
44
41
39
36
33
31
28
26
24
23
22
21
21
21
21
20
20
20
19
18
18
21
28
37
46
57
65
71
74
74
73
73
74
74
74
74
74
72
71
69
67
66
66
65
63
62
59
56
53
50
48
45
43
41
40
38
37
35
33
31
29
27
25
24
23
26
32
41
52
65
77
85
90
92
92
91
90
90
89
87
86
83
81
78
76
75
74
73
71
70
53
52
50
48
46
45
43
42
41
40
40
39
38
37
36
35
34
34
37
40
40
50
56
56
63
64
64
64
63
63
60
59
59
56
54
54
52
52
52
51
50
49
47
45
43
41
40
38
37
35
34
32
31
30
29
28
27
26
28
31
36
41
47
54
59
62
64
64
64
64
64
63
62
60
59
57
56
54
54
53
53
51
50
48
46
44
42
40
39
38
36
35
33
32
30
29
28
26
25
25
26
29
34
40
46
52
56
59
60
61
61
60
61
61
60
59
58
56
55
53
52
50
49
47
45
43
41
40
38
36
34
32
30
29
27
26
25
24
23
22
21
19
18
18
19
23
27
33
39
43
47
49
50
50
50
49
49
48
47
46
45
43
42
41
40
39
38
37
36
34
32
30
29
27
26
24
23
22
21
19
18
17
17
16
15
14
14
13
13
15
18
22
27
32
37
40
41
42
42
42
42
41
41
40
39
37
35
33
31
29
28
27
26
24
22
20
17
15
12
10
8
6
5
4
3
2
2
0
0
0
0
0
0
1
7
16
26
26
44
49
49
51
49
49
45
44
44
40
38
38
36
34
34
33
32
29
27
24
22
19
16
13
10
8
6
4
3
1
0
0
0
0
0
0
0
4
13
22
32
40
44
46
46
46
45
45
45
44
43
42
40
39
37
37
36
35
34
32
30
28
25
23
21
19
18
16
15
13
11
10
10
9
7
7
5
5
7
13
21
32
42
52
60
65
68
68
68
68
69
68
67
65
63
61
59
57
56
54
54
53
51
49
47
44
42
40
37
35
33
31
29
27
25
23
22
20
18
17
16
17
22
29
40
51
62
72
79
83
84
85
84
84
85
84
82
80
80
77
74
73
71
70
66
64
62
59
56
53
49
47
44
42
40
37
35
33
30
28
26
24
22
20
18
18
20
26
35
46
58
69
78
84
86
86
86
85
85
84
82
80
78
75
73
71
69
68
66
64
60
56
54
50
47
44
41
39
37
33
31
28
26
24
22
20
17
15
14
16
21
30
40
50
59
65
68
67
65
63
61
58
55
53
50
47
44
42
40
40
39
37
35
32
29
26
22
19
16
14
13
11
9
7
6
3
1
0
0
0
1
6
14
24
36
45
53
58
60
59
58
57
56
55
54
51
49
47
44
44
41
40
40
37
34
34
29
27
27
23
21
21
18
16
16
14
13
13
10
9
8
7
7
9
15
24
34
45
56
64
69
72
72
71
72
71
71
70
68
66
63
60
58
56
55
54
52
50
47
44
41
39
35
32
29
27
25
22
20
19
18
16
15
14
13
11
10
11
15
23
33
44
56
66
73
76
77
78
79
79
80
80
79
77
74
71
68
66
64
62
60
57
54
52
49
46
43
40
38
35
33
30
28
26
24
23
21
20
18
16
14
12
11
12
15
22
33
44
57
68
77
82
84
84
84
83
83
83
81
79
76
73
71
69
67
65
63
61
58
55
52
48
45
42
40
36
33
30
28
26
23
22
20
19
17
15
13
11
11
13
19
28
39
50
60
69
74
75
74
70
70
68
64
63
61
59
56
54
52
51
50
48
46
44
41
39
35
32
29
26
23
21
19
18
17
15
13
12
9
8
6
5
7
12
20
31
43
56
66
73
78
80
80
80
80
80
80
75
72
72
67
65
65
63
62
62
60
57
57
50
47
47
40
37
37
29
26
24
21
19
17
16
14
12
10
8
5
4
6
11
20
33
46
61
73
82
87
90
92
92
93
94
93
92
89
87
83
60
58
57
56
54
53
51
49
47
45
43
41
40
38
36
35
33
31
30
29
28
28
26
25
24
23
22
21
20
20
22
25
31
38
44
52
58
62
64
64
65
64
64
64
63
62
61
59
58
56
55
54
53
51
50
48
46
44
42
40
39
37
35
33
32
30
29
28
26
25
24
23
22
20
19
18
18
20
23
28
35
41
47
51
54
54
54
54
53
53
52
51
49
48
46
44
44
43
42
41
40
40
38
36
34
32
30
29
28
26
24
23
22
21
20
19
18
17
16
16
17
20
25
30
37
42
47
50
51
51
50
50
50
49
49
48
47
46
44
44
44
43
42
42
40
40
38
37
35
33
32
30
29
27
26
25
25
24
23
23
22
21
20
19
19
21
25
31
38
44
51
55
58
60
60
60
61
61
61
60
59
58
56
55
54
52
51
50
49
48
46
44
42
40
40
38
36
35
33
32
30
29
28
28
27
26
25
24
23
22
23
26
30
36
42
49
49
60
63
63
66
66
66
67
67
67
65
63
63
59
58
58
55
54
54
51
49
46
44
42
40
39
37
35
34
32
31
29
28
27
25
24
23
22
21
21
21
24
28
34
40
45
50
53
55
55
56
55
55
55
54
53
52
50
48
47
45
44
43
42
41
40
38
36
34
32
31
29
28
26
25
24
23
22
21
20
18
17
16
17
19
22
27
32
36
40
42
42
42
41
40
40
39
38
37
36
35
34
33
33
33
29
28
27
25
23
22
20
19
19
18
17
17
16
16
16
15
15
17
20
24
29
35
40
43
45
47
47
47
47
47
47
46
50
47
44
42
40
40
38
37
35
32
29
26
23
20
18
16
14
13
11
10
8
7
6
4
2
1
0
0
1
6
15
25
36
46
55
60
62
62
62
61
61
61
61
60
59
57
54
52
50
49
47
46
45
43
40
38
35
32
29
26
24
22
20
18
16
15
14
13
12
11
9
7
7
10
16
25
36
47
57
57
67
69
69
67
67
67
66
65
65
61
59
59
55
53
53
50
47
47
43
40
38
35
33
31
28
26
25
23
21
20
18
17
15
13
12
11
10
13
18
27
38
48
58
66
70
71
71
70
69
68
68
67
65
62
59
57
55
53
52
50
51
48
45
43
40
38
35
32
29
27
24
22
21
19
16
14
13
11
10
11
17
24
34
44
54
61
64
65
63
62
60
59
58
56
54
52
49
47
45
44
43
42
40
39
36
33
30
27
25
22
21
19
17
16
15
13
12
11
9
7
7
10
16
25
36
47
58
66
71
74
74
74
74
75
74
73
71
69
66
64
62
60
58
57
55
53
50
47
45
42
40
38
36
34
32
31
29
27
25
24
22
20
19
19
21
27
36
46
58
69
78
83
86
87
88
88
89
89
88
86
82
79
75
71
69
67
65
63
61
58
55
51
48
44
41
38
35
32
30
27
24
22
21
19
16
15
13
12
12
16
24
33
43
54
63
68
70
71
70
69
69
68
67
64
62
59
56
53
51
50
48
47
44
42
39
36
32
29
26
23
21
18
16
15
13
12
10
9
7
5
3
2
1
1
5
12
21
31
41
49
54
56
56
56
53
51
51
48
46
46
41
39
39
37
37
37
35
33
33
28
25
25
20
18
18
13
11
10
8
7
5
4
3
1
0
0
3
9
16
26
35
41
46
48
47
45
43
41
39
37
35
33
30
28
26
25
24
24
23
22
20
17
15
13
10
9
7
5
4
2
1
0
0
0
0
0
0
4
11
20
29
38
44
49
50
50
49
48
47
47
46
44
42
40
39
37
36
36
35
34
32
30
27
25
23
21
19
18
16
14
12
11
10
9
8
7
6
5
6
11
18
27
38
47
53
58
61
60
60
60
60
61
61
60
58
56
54
51
50
49
48
47
45
43
40
38
36
33
32
30
28
26
24
22
20
19
17
16
14
13
15
17
22
32
41
51
60
67
71
72
72
71
70
69
69
68
65
63
60
58
56
54
53
52
51
49
46
43
40
38
36
33
31
30
28
27
26
25
24
23
22
20
18
17
19
23
29
38
48
58
67
73
75
75
75
74
73
73
70
68
66
62
60
59
60
59
59
57
56
56
49
47
47
41
39
39
35
33
33
29
27
27
24
22
20
19
21
26
34
42
53
63
71
76
77
77
76
74
72
70
67
64
61
58
56
55
54
53
52
50
47
45
41
39
36
32
29
26
26
24
22
22
20
19
17
16
17
22
30
39
50
60
69
74
76
77
77
76
75
74
72
70
68
65
63
61
60
58
57
55
52
49
47
43
41
38
35
33
30
28
26
24
22
19
17
15
14
17
23
32
42
53
64
71
75
77
77
76
75
74
73
71
67
64
60
57
54
52
50
48
46
44
40
38
34
31
28
25
23
20
18
16
13
11
10
8
7
5
4
4
8
15
23
33
42
51
56
58
58
57
56
56
56
55
53
51
49
47
45
43
41
40
38
35
31
28
25
22
18
16
14
11
10
9
8
7
6
4
3
1
0
0
0
0
5
12
21
31
40
46
50
51
50
49
48
48
47
46
44
43
41
39
38
37
37
36
35
33
31
28
24
21
18
16
14
12
10
9
8
7
6
6
5
4
4
7
11
18
28
37
44
50
52
52
50
47
45
43
40
37
34
31
28
26
25
25
23
22
21
19
17
15
13
12
10
9
8
6
5
3
3
2
1
1
0
1
1
10
18
18
35
41
41
46
45
45
43
42
42
40
39
36
34
32
30
29
29
28
27
26
24
23
21
18
17
15
13
12
11
10
10
9
9
8
7
6
5
5
7
12
20
29
38
46
53
56
56
56
55
54
53
52
51
49
47
46
44
43
42
41
40
40
38
35
33
30
27
25
23
21
20
19
18
17
16
15
14
13
12
11
11
11
12
17
24
33
41
50
56
59
59
58
58
57
57
57
56
54
52
49
47
45
44
44
43
43
41
40
38
36
33
28
26
24
20
19
18
17
16
15
14
13
12
10
8
7
7
8
13
21
30
40
49
56
60
60
60
58
58
57
57
57
55
53
50
48
45
44
42
41
40
39
37
35
33
31
29
27
26
25
24
23
23
22
20
19
18
17
16
16
15
14
15
19
25
34
42
51
58
62
63
62
60
59
58
57
56
55
52
50
48
47
47
47
47
47
45
43
41
39
37
35
31
30
28
27
26
26
25
24
24
22
20
20
17
17
17
28
35
35
51
57
57
61
59
59
56
54
54
50
48
45
43
42
42
42
42
42
42
40
39
37
35
32
30
28
26
24
23
21
19
18
17
15
14
13
13
16
20
30
39
48
59
67
71
73
73
72
71
70
69
67
66
63
61
59
57
56
55
55
53
51
50
47
45
42
40
38
36
34
32
31
30
28
27
26
25
23
22
22
25
30
38
47
57
66
73
78
79
79
79
79
80
79
79
77
75
72
70
68
67
66
65
63
61
59
56
53
50
48
45
42
40
39
36
35
33
32
31
30
29
28
27
27
31
38
46
57
68
78
84
88
89
89
88
88
86
85
83
80
78
74
72
70
68
67
65
64
62
59
56
53
51
48
45
43
41
40
38
34
32
30
26
23
21
20
22
27
35
43
54
64
72
75
76
76
74
73
71
69
67
65
63
61
60
58
58
57
56
54
51
47
45
41
38
34
31
28
25
22
20
18
16
14
12
10
10
12
18
26
36
45
55
61
65
66
65
64
63
63
62
60
59
57
55
53
51
50
49
48
46
43
41
39
36
33
31
28
25
23
21
19
17
16
14
13
11
11
14
19
27
38
49
60
60
74
77
77
77
77
77
77
76
76
73
70
70
65
64
64
60
58
58
53
50
47
43
40
37
34
31
30
28
26
25
23
21
19
17
16
16
19
25
35
45
57
67
75
80
81
82
82
83
83
82
81
79
77
74
71
69
67
65
63
61
58
55
51
47
44
41
38
35
32
29
26
24
22
20
19
17
16
15
15
18
24
33
43
55
66
75
80
81
82
82
81
81
81
79
77
75
72
69
67
65
63
61
59
56
52
49
45
41
39
35
32
29
26
23
21
18
15
13
11
9
6
10
16
23
34
44
54
60
63
63
62
61
61
59
58
55
52
49
46
44
42
41
40
39
39
36
32
31
27
24
20
18
15
13
10
8
6
5
3
2
2
3
6
14
24
35
46
56
63
67
68
68
67
67
67
65
63
61
60
57
55
54
52
50
48
46
43
40
37
34
30
27
24
22
20
18
17
15
14
12
11
10
8
9
12
17
26
38
48
60
68
74
77
78
79
79
80
79
78
78
74
71
71
65
63
63
58
56
56
50
47
47
40
38
38
31
28
28
23
21
19
17
15
13
11
9
9
10
14
22
32
43
54
63
69
72
72
72
71
70
70
68
66
64
61
60
58
55
55
53
50
47
43
40
36
32
28
25
22
19
17
15
13
11
9
7
5
3
2
2
4
10
18
27
37
44
49
51
52
51
49
48
46
45
43
40
39
36
34
33
32
30
29
27
24
