0.0006319683381509054,-0.005677780590358514,-0.010536138344828635,-0.013004202857797388,-0.01296788555988312,-0.011073072096697723,-0.008357567257938465,-0.0057809614018810036,-0.0038842466736292718,-0.0027137897132566,-0.001987406586136659,-0.0013619962461087314,-0.0006426468066938022,0.0001565093606853223,0.0008875629166422623,0.0013979745670473793,0.0016243853156998652,0.001607045728025712,0.0014397048050037414,0.0012044010300472658,0.0009362207622593419,0.000632450168186915,0.00028927571084625694,-6.381348371194097e-05,-0.00035421844476715963,-0.00048555067171510754,-0.00037491691929356086,1.0279539893682035e-05,0.0006335390125921294,0.0013989021213166556,0.002187154674521537,0.002901917295441644,0.0034996444728234554,0.003983281450346036,0.004361194994239497,0.004598545126388969,0.004598470185967865,0.004234720088816149,0.0034235870965427925,0.002193443724542987,0.0007061951605799113,-0.0007888424357623595,-0.002048284986944841,-0.002927548349259455,-0.0034265089466439555,-0.0036665764528696827,-0.0038120210891090522,-0.003976028039165916,-0.004161136087407503,-0.004267717236673135,-0.00416717290450699,-0.0037971684018939214,-0.0032194744079481535,-0.0026008634632641017,-0.0021242320538589973,-0.0018814901077939036,-0.0018131109089580873,-0.0017327409258799473,-0.0014245340882886922,-0.000756029846472734,0.00026100954026051816,0.0014951798284024232,0.002779608120434404,0.003988282182360195,0.0050479331015768954,0.005886437499350565,0.006376605738212681,0.006343119226539065,0.005649770548568661,0.004312609562122814,0.00255100650329591,0.0007246272061248588,-0.0008152707011400513,-0.0018703354935983617,-0.002450083711994027,-0.0027145189058700144,-0.0028516677282388247,-0.002967742742866289,-0.0030471284012532586,-0.0029905744322723743,-0.0026963789959411786,-0.0021332789583479164,-0.0013676077003389733,-0.0005376490687042101,0.0002036955444732428,0.0007448118809808843,0.0010442327708897912,0.0011260941851468816,0.0010537122587648902,0.0008994987798515235,0.0007242203837380073,0.000568556290079967,0.0004530775320868703,0.0003818871537755119,0.0003470202069100468,0.00033142575672775836,0.00030853058812232883,0.00023948735722776558,7.492329567837346e-05,-0.00023018918601007453,-0.000688013593031653,-0.0012496640882856257,-0.0017994542587201525,-0.00218490653343157,-0.002273758324752228,-0.002009920402032064,-0.001438508635158649,-0.0006868447410029233,8.784773584349969e-05,0.0007568897804886864,0.0012568391737818496,0.0015903349987330985,0.0017967313966950884,0.0019131630255567252,0.0019497792426898892,0.0018929391298874898,0.001732003633189286,0.0014886526167007703,0.0012236254217959765,0.0010100385591039465,0.000887636655236015,0.000829823085036638,0.0007492302505903571,0.0005407239825595015,0.0001347589144881829,-0.00046985233059184013,-0.0012058938784768767,-0.0019604287965069352,-0.002603157316122185,-0.003011874312773993,-0.003096560116802839,-0.0028238092891300884,-0.002234947124203277,-0.0014449192043945378,-0.0006133884993106602,0.00010647714430563315,0.0006212474693102479,0.0009268443002439263,0.0010977890653749184,0.0012392977620824697,0.0014262219259466723,0.001661972699724849,0.0018805761697004808,0.001989746206250541,0.0019271794562026301,0.0016933756324985152,0.0013399721515900058,0.0009240418015248688,0.00046410032951783625,-6.708617070707754e-05,-0.0007051715556657169,-0.001438277272473657,-0.002173182043369454,-0.0027508560787545843,-0.0030074228001153403,-0.0028486221420557893,-0.002297101347307401,-0.0014862167478062339,-0.0006029441161268336,0.00019001933667797915,0.0008121718880195007,0.0012746478847552808,0.0016409325295194972,0.0019661608487978872,0.002252825229201959,0.0024481346517574703,0.002480746044635976,0.002309710003748334,0.001952316638394448,0.0014738193577255468,0.0009489114752963402,0.000423100877962592,-0.00010047753638882883,-0.0006430623210905305,-0.0012166171878539205,-0.001798195645077671,-0.0023278693982426296,-0.0027296904292570083,-0.002942071697559632,-0.0029400309334461166,-0.002737382689754933,-0.002369223113205166,-0.0018679654193035705,-0.0012511886388235924,-0.0005309537285577576,0.00026338118444140494,0.001069405271663093,0.0017994596953008783,0.00237006413284883,0.0027331110813337755,0.002886529573628864,0.0028578176306249072,0.0026754803142894374,0.0023529882933824913,0.0018985796130235944,0.0013410455345351222,0.0007461325150773289,0.00020338218166510028,-0.00021477894802828906,-0.0004973628947747232,-0.000711121600774161,-0.0009711657198282375,-0.0013752478630363746,-0.0019354955230879967,-0.002548140285015594,-0.0030247790496007714,-0.0031752732057612645,-0.0029010739419554244,-0.002248172490984834,-0.001388767926470412,-0.0005398303266598115,0.00013759728135648834,0.0006035590118640445,0.0009347163804250661,0.0012564419256644122,0.0016535119339712969,0.002111755054304899,0.0025225227030283588,0.0027438118104402918,0.0026795849474320413,0.0023311049455098003,0.0017937265165035917,0.0012055123402592266,0.0006797270891565356,0.00025814904219515974,-9.352477772485283e-05,-0.000451636521148408,-0.0008843925346574475,-0.0014118400671076989,-0.0019915619724017158,-0.0025300761641877745,-0.0029100145038483856,-0.0030224119904676983,-0.0027975058666629016,-0.0022297895384887976,-0.0013910447927390343,-0.0004222104100809922,0.0005017637572922632,0.0012271007177172043,0.0016736423198824965,0.0018567033285409838,0.001864494089420523,0.0018033952099314647,0.001743153094416519,0.001692511725437646,0.0016138283807242406,0.0014593832455943177,0.0012015899039549867,0.0008403552306063816,0.0003917892335394635,-0.00012487689581731752,-0.0006890326115498054,-0.0012689293248320265,-0.0018101720689619192,-0.002233474775872653,-0.002447724514877102,-0.002377101447674922,-0.0019932551718498262,-0.0013378580503565166,-0.0005218985401687325,0.00030199061839831663,0.0009841748442028083,0.0014214028091496579,0.001582762428533441,0.0015110895446204006,0.0013020309224080334,0.0010687644498594854,0.0009031236614770611,0.0008449539489945634,0.000870177754009922,0.0009022692090208737,0.0008426082885367748,0.0006079852835404684,0.0001630879837372219,-0.0004599924053088957,-0.0011604968094735494,-0.0017907984288861051,-0.0022012104912240834,-0.0022946034644729697,-0.0020647570684371908,-0.0015946382361033897,-0.0010127421342587212,-0.0004330824991494172,8.480325144478296e-05,0.0005352023968465534,0.0009340412551652907,0.0012839758912160384,0.0015613001544626803,0.0017284620873270222,0.0017579508296534658,0.0016501168562018556,0.001436091807423608,0.0011669210783771151,0.0008947571858816493,0.0006522490317066924,0.00043603114846932394,0.00020142214286623163,-0.00012405686209814246,-0.0006055862108311537,-0.0012540217316957662,-0.0019908321857475494,-0.0026521740914288235,-0.003042399895936608,-0.003016756691609255,-0.002549886704602208,-0.0017501101789412499,-0.0008098389049462772,7.972105506671772e-05,0.0008013303730632793,0.0013341132070328018,0.0017208003276659254,0.0020084432091621463,0.002203878674985513,0.002270792585921729,0.002165265384701621,0.0018816188015752392,0.0014754553287633619,0.0010471332622654643,0.0006948302273654893,0.0004653448965925771,0.00033134172224482094,0.00020663928185092438,-1.0741407125423581e-05,-0.00039012283177097254,-0.0009345840384997606,-0.0015729706127480356,-0.002178968041833816,-0.0026112539235114947,-0.002761559363976098,-0.0025923659549651474,-0.0021479649405305983,-0.0015336817894000153,-0.0008731728854966404,-0.0002639572404437106,0.00024907223307149367,0.000672440752378056,0.0010390664171966689,0.0013741040958568443,0.0016703987247452113,0.0018877654654054009,0.0019775804281449098,0.0019181595072748523,0.0017372346332378684,0.0015042487519292562,0.001294843079381356,0.0011485889205222455,0.0010447783946160654,0.0009089026476124429,0.0006453400863232601,0.00018098349346970164,-0.0004971308289960399,-0.0013233700261124626,-0.002161675649133256,-0.0028402812148574995,-0.0032033415574157995,-0.0031614821446144786,-0.0027217548364485483,-0.0019852145701491396,-0.0011134658383562214,-0.00027740039631847155,0.0003927460393386889,0.0008386184901011285,0.0010773077469073006,0.0011796696632858416,0.0012346250737423274,0.0013136189982608532,0.0014470910713093696,0.0016193129450216893,0.0017806701619542302,0.0018694852005473627,0.0018327903649172175,0.0016394220897600076,0.0012858270743152465,0.0007979307751960444,0.00022873397960925844,-0.0003531169073219861,-0.0008853589014460445,-0.0013352179144184137,-0.0017058892158956485,-0.002015745433444367,-0.0022611706847912704,-0.002392457905736976,-0.0023280815003629855,-0.0020046629686260803,-0.0014298082714217619,-0.0006987202734983,4.051494779522312e-05,0.0006525716479631825,0.0010710213858196834,0.001312960338155063,0.0014482746913686783,0.001546855007942103,0.0016365857090475445,0.0016939459393211559,0.0016674681362008653,0.0015161290482482348,0.0012390993473367462,0.0008806088577405567,0.0005079670311242164,0.00017455467523501276,-0.00011221095998223467,-0.00039801851755161277,-0.0007540026209384615,-0.0012231471614807636,-0.001769178887195578,-0.0022629708275502124,-0.0025253327040935004,-0.0024115378706809337,-0.001892731768742317,-0.0010847722864880554,-0.0002027114852396648,0.000536600517689758,0.0010090138845384364,0.0012217863596788348,0.001279210887813516,0.0013032759034580157,0.001362003088492246,0.0014465575467227988,0.0015011903516096432,0.0014749516205019649,0.0013546351451443153,0.0011583317774630359,0.0009012024902146489,0.0005657574922786918,0.00010460493009463421,-0.0005209133424105727,-0.0012898203078070508,-0.0020934397686721137,-0.0027540635799190314,-0.0030874201313279364,-0.002979539554571294,-0.002438003462644129,-0.0015895580996570422,-0.000624546588108724,0.0002824809120680052,0.0010338867862313239,0.0016205518414161304,0.002081702780650277,0.0024420610875145244,0.0026700306021693316,0.0026871051047725088,0.002423728055253837,0.0018838380523378906,0.0011726023808341485,0.00046449400126554233,-7.414121276797447e-05,-0.0003663102847177918,-0.0004647043227347103,-0.0005277235363663857,-0.0007406011087308809,-0.001218277471860658,-0.0019355870077285807,-0.002718340194072256,-0.003302897393479726,-0.003442464616431425,-0.0030159463889185365,-0.0020893129180039774,-0.0008965368078278576,0.0002558819647315127,0.001116706254737935,0.0015865500130280694,0.0017356451772903973,0.0017388178538477385,0.0017684676555893538,0.0019053003995253106,0.0021108861246135957,0.0022682812683413028,0.002259906919077139,0.002035194777803211,0.0016312459889610427,0.0011399541723617996,0.0006466198483266461,0.0001800442157235939,-0.0002953047554717223,-0.0008415712253422352,-0.0014887223463107718,-0.0021912854159182624,-0.00282713391430817,-0.003239914761376134,-0.0033024017491163626,-0.002968276835352641,-0.0022887849568819594,-0.0013909394688772384,-0.00043225903516377217,0.0004460849608555389,0.0011507410390433422,0.0016456998823184037,0.0019424741686557548,0.0020788329900543663,0.0020961929327251677,0.0020252936117045764,0.0018851588161230212,0.001691827381570533,0.0014660230111693672,0.0012293900403581271,0.0009885406796371573,0.0007185759457802867,0.00036302096476699126,-0.00014049610814218243,-0.0008164021034478906,-0.0016121377615318476,-0.002390100838273634,-0.0029638633292442956,-0.0031681480326170726,-0.0029302782011201684,-0.0023055583814588997,-0.0014561202950044167,-0.000582973184029165,0.0001542054163253593,0.0006899118202140383,0.0010547955433341367,0.0013309381397898792,0.0015889596806221151,0.0018432875323288111,0.002048728455976086,0.0021355111878454762,0.0020572452527561355,0.0018201265195530434,0.0014752002747569438,0.001080285566495027,0.0006591739880584906,0.00018891288596362664,-0.0003725547059404797,-0.0010352483289514684,-0.001738338010091804,-0.002353310829345262,-0.0027311834761559006,-0.002766926538631287,-0.002444217265213305,-0.0018377398308079477,-0.001076835617191565,-0.0002947986182649861,0.00040934714323259626,0.0009830335728757062,0.0014099095344841826,0.0016908490574969928,0.0018296537988929983,0.0018298428522730255,0.001700641241156084,0.0014651892241239375,0.001163509388190715,0.0008454525680404852,0.0005531671054302496,0.0002988320770728199,5.0530468453819456e-05,-0.00025865179936409276,-0.0006930468697890038,-0.0012632853595327797,-0.0018928496640808435,-0.0024296547226336416,-0.0027041226142099713,-0.0026043307548753235,-0.002125940401324174,-0.001369880868680247,-0.0004932349531332906,0.00035469322054415065,0.0010758215902811116,0.0016299022288801697,0.002013050521236699,0.0022309455747566405,0.0022861808460174185,0.0021845781139335327,0.0019503022122610925,0.0016335131856870548,0.001300060307216481,0.0010056564369681528,0.0007678831176572419,0.0005517923908377372,0.0002791468189898528,-0.0001384960797594432,-0.0007533862262507137,-0.0015411012525500315,-0.0023871208524191894,-0.00311267631081537,-0.0035340601437127213,-0.0035309184519541226,-0.003090976101778056,-0.0023085528526244885,-0.0013392569348536058,-0.0003386500996965638,0.0005798272695557729,0.0013496816439798438,0.001930244261406245,0.002288530056770998,0.0024046906878178722,0.002295552265163197,0.0020302586765498353,0.001715318872944645,0.0014507416492052921,0.0012839036427546924,0.0011925290576019806,0.0011085160352568703,0.0009653483397645445,0.0007352925339164666,0.000430907065612726,7.303569252706862e-05,-0.0003454115384987033,-0.0008646984504543181,-0.0015191890224862188,-0.002276214794842785,-0.0029985848998928463,-0.0034685885885176277,-0.0034745018532005238,-0.002918180042665971,-0.001883225135423311,-0.0006215175090116215,0.0005398242442753336,0.0013270119616130625,0.001623743065196767,0.0015057080665846897,0.0011935527381451625,0.0009478028410117255,0.0009532316307938079,0.0012437209739779396,0.0016992664664353763,0.002112148728778428,0.0022867489615177286,0.0021241866988541457,0.001654430533877745,0.0010064028947258297,0.00033607681039679626,-0.00024921497740792276,-0.000732167249100371,-0.0011727291591491426,-0.0016493458376730574,-0.0021868351659825886,-0.002712336313185937,-0.00306838143661908,-0.003082121831333471,-0.0026562405362077586,-0.0018306355954053645,-0.00077792017230595,0.00026656978349059925,0.0011021712398598489,0.0016357223024637008,0.0018942505063212194,0.001977214368322133,0.0019816587450466267,0.001947051557228028,0.0018515312268021574,0.001655808784046389,0.001357631338106372,0.001012356722777047,0.000700526384410574,0.0004641269394411181,0.0002603811418503897,-2.5197873063628875e-05,-0.0005040849584226153,-0.0011922932897654752,-0.0019638631814885552,-0.002589237800341006,-0.0028426510561378607,-0.002616097163803357,-0.001972527423015498,-0.0011101039302997724,-0.0002636419298266518,0.0003977336839388568,0.0008236007127407157,0.001067548581232432,0.0012251243749013354,0.0013660575655390955,0.001498358055816434,0.0015780515141060583,0.0015495998508510836,0.0013856733594093669,0.0011003264971563866,0.0007316221267160581,0.00031225002660542026,-0.0001459609679697949,-0.0006403820284259233,-0.0011486606742683774,-0.0016080441465821213,-0.001923709451024984,-0.0020053139796393326,-0.0018098731328619376,-0.001364389124232557,-0.0007555828328753783,-9.516486857001332e-05,0.0005176374727786812,0.0010170364461465201,0.0013706522455420138,0.0015692866111171305,0.0016209924341536366,0.0015535472532129232,0.0014153457229855021,0.0012615646418587324,0.001124953680541552,0.0009882161668949131,0.0007811484486806953,0.0004129352903531567,-0.00017347103757546416,-0.0009547739476349825,-0.0018162265917402256,-0.002584061465892233,-0.003085553325158262,-0.0032069360215102333,-0.002922904050813376,-0.002289363909413103,-0.0014120315208198313,-0.00041369829584430077,0.0005840764387157942,0.0014665893044874083,0.0021328062589750924,0.0025131555747326074,0.002592405991624934,0.0024201829753042613,0.002095865992481534,0.0017314307494904011,0.0014110323889491914,0.001167319272497639,0.0009814376916133136,0.0007983748900265275,0.0005449589228543445,0.00014661050635063084,-0.00045057239801076215,-0.0012474560378035375,-0.002159660079714161,-0.003010705876798464,-0.0035720671582609165,-0.003645717193015093,-0.0031529898632925287,-0.002180718844877026,-0.0009545283700174191,0.00025036089794990945,0.0012146138015687881,0.0018425773623833453,0.0021629861495070873,0.0022729597376583517,0.0022650207262458312,0.002179670622814033,0.0020048530865024775,0.0017138620089066207,0.0013115071181037238,0.00085501718760611,0.0004328026920329159,0.00011210239580927987,-0.00011086571428896156,-0.00032235557674568525,-0.0006491650943161481,-0.0011806822480978315,-0.0018970473815845617,-0.0026475817034328658,-0.0031994150940443376,-0.003337130915149446,-0.002962602018890383,-0.002141152170906218,-0.0010699803814287574,1.0876351395044514e-05,0.0009145926556877919,0.0015622267161325431,0.0019771469888224683,0.002235489888805616,0.002407995738526323,0.0025240949837167727,0.0025693346138383768,0.0025071674015241458,0.0023068625606011677,0.0019624225495862985,0.001496732217332343,0.0009532526817382057,0.00038106059678018854,-0.00018084762932810334,-0.0007147085147592841,-0.0012258565763029429,-0.0017325258054411265,-0.0022457832695832102,-0.0027480866316530656,-0.003181961601618933,-0.003456955436640159,-0.003474887394229427,-0.0031647709728401677,-0.002513544842430754,-0.001579359430567344,-0.0004808640349753184,0.0006340778185982406,0.0016280720759215906,0.0024061216139046864,0.002926343210164552,0.003186264048685739,0.0031965101253133266,0.0029639954928117173,0.002501091777212566,0.0018554287426227724,0.0011329861281066643,0.00048518443732315625,5.4007139000629596e-05,-9.82189085963741e-05,-3.06287738996503e-05,9.40396362052497e-05,8.31338100112022e-05,-0.00019446029442773147,-0.0007476315863956731,-0.0014626817172607115,-0.0021585899214399246,-0.0026650519083678353,-0.00288271865676789,-0.0027995730301686303,-0.0024645792580031715,-0.0019432731770245592,-0.0012858096198885443,-0.0005243031045790112,0.00030561661903626906,0.0011394521445270804,0.0018760475029634266,0.0023972675385866486,0.0026090243132081588,0.002484978706568354,0.0020902323989417317,0.0015684950901778021,0.0010913387312952868,0.0007874983245990141,0.0006847223899786257,0.0006959530717434811,0.0006614967202999433,0.0004284147479358102,-7.324785335797605e-05,-0.0007954970185386805,-0.0015924213553338412,-0.002279685528495155,-0.002701863097742175,-0.0027789044917978347,-0.002517920064266919,-0.001992884179731309,-0.0013068926476359325,-0.0005570224889129124,0.00018180895075812413,0.0008510472784227844,0.0013941805156172467,0.0017536584726488026,0.0018882010153437026,0.0017999657974544507,0.0015490743530989235,0.0012391041231280928,0.0009765748693225836,0.0008253109319184806,0.0007802117963588624,0.0007730510094379429,0.0007049979543149493,0.0004886792549102488,8.231269981435742e-05,-0.0004936764699903138,-0.001158746768988067,-0.0017901663186122713,-0.0022529957779602113,-0.0024364598920813474,-0.0022870016716723756,-0.0018259281020532021,-0.0011433640123746278,-0.0003701041390759017,0.0003607882210440905,0.000947037565492296,0.0013343668748299377,0.0015169939706233774,0.0015275309745433152,0.001422919052857859,0.0012692516609423192,0.0011252972439358606,0.001024976694150288,0.0009620004486293452,0.0008832862178934414,0.0006998138854846368,0.00032062947253714506,-0.00029600050148044743,-0.0010971545237434322,-0.0019265670794051523,-0.0025699545168124892,-0.0028392477072634458,-0.0026518325985046966,-0.0020599959089725485,-0.0012167665214554342,-0.0003044839723667526,0.0005292975081924607,0.0011990795903274705,0.0016736598004106068,0.0019551010247498947,0.0020630177792546555,0.002027329670033029,0.0018830399406226902,0.0016634422368742188,0.0013951726741503732,0.0010988825797753523,0.0007924667955209771,0.0004891337110875425,0.00018754741088783172,-0.0001379057388736244,-0.0005330643016411797,-0.0010392198550653745,-0.0016561705461327811,-0.002314481172959097,-0.00287806917321864,-0.0031833020102633685,-0.0031000980499423982,-0.002587171553725128,-0.0017154905486954422,-0.0006491138297606892,0.000408395961608306,0.0012799174034653785,0.0018666461024352352,0.0021653173416975925,0.002245234014485579,0.0021990127625398656,0.002094586531204108,0.001953856865963812,0.0017653543126731868,0.0015161419287535362,0.0012170435270217027,0.000902206275881089,0.0006036276484492484,0.00032004572855349317,5.079930429877631e-06,-0.00041187559161324805,-0.0009797648972607934,-0.0016805045837861934,-0.0024121069502969212,-0.003013358358899273,-0.003320531628629925,-0.0032302108333950013,-0.00274002955470008,-0.001949749540364548,-0.0010222985448962814,-0.00012133741235629235,0.0006472306724643823,0.0012626040113456135,0.0017715025667294816,0.002234556279258249,0.0026665438101185776,0.0030065731183865885,0.0031391684601101083,0.00295754093800894,0.002433871887488795,0.001655086675635203,0.0008003382952640508,6.768461006207544e-05,-0.0004149172140288642,-0.0006491503321555253,-0.0007638685252599078,-0.0009479944919284014,-0.0013495629460950425,-0.001991209556062643,-0.0027458343384325467,-0.0033852215903726647,-0.0036761508928873574,-0.0034755685292504846,-0.0027815809182712265,-0.0017244987644465769,-0.0005122753374407163,0.000640084629729341,0.0015700624514256157,0.002199973061485407,0.0025368438847225396,0.0026444034088090006,0.002601707245496814,0.002468691167173097,0.0022739258515001894,0.0020249636553031614,0.0017274537132065675,0.0013961073420712857,0.0010494603304643936,0.0006935689031209899,0.0003086929905955223,-0.00014713251437329213,-0.0007131904934684703,-0.0013897611587968667,-0.0021113863741312553,-0.0027502309741658294,-0.0031555095645119336,-0.0032132278345017124,-0.0028953851949359197,-0.0022712090034259893,-0.0014749374609039452,-0.0006507158753217559,9.349836328208664e-05,0.0007020217693475254,0.001159486968810413,0.0014695968507607848,0.001643051658587163,0.0016993310387122883,0.0016728500786668404,0.0016106804157734332,0.0015573673063142583,0.0015339149913045688,0.0015236103255007252,0.0014742116535096067,0.0013175542785848126,0.0009990007708270863,0.0005041472057247996,-0.00012928955484681074,-0.0008201703523673073,-0.001469112793947796,-0.0019875875037815185,-0.002316748103836519,-0.0024289620665496783,-0.0023169860983812693,-0.0019843445737907613,-0.0014485988782233124,-0.0007566527756260532,3.122745430519328e-06,0.0007104433265169856,0.0012489011485282426,0.0015502286863518413,0.0016178679946393492,0.001512846007448883,0.0013125537394755385,0.001072422132284034,0.0008146562039024539,0.0005433451669386899,0.0002645354002408988,-9.111212712122453e-06,-0.0002701837053780122,-0.000528034947016437,-0.000802684706474629,-0.0011003160073326688,-0.0013879031098557827,-0.0015894456413184186,-0.0016134916933424155,-0.0013996601240393338,-0.0009562066562592416,-0.00036353251549426356,0.0002604596092145833,0.0008122306650474824,0.0012397933196633174,0.0015445459246519121,0.0017520928476794015,0.0018765895822322868,0.0019041247571253428,0.0018034750654145843,0.0015521878943948071,0.001157776926489287,0.0006611323349657047,0.00012288150443881651,-0.0003976943540178066,-0.0008608464530342797,-0.001254685191277775,-0.0015902886790562518,-0.0018845090569026245,-0.0021374642707219426,-0.0023167211928734814,-0.002359151300278305,-0.002193127756190697,-0.0017727353854731327,-0.0011084843234507136,-0.0002792296936956504,0.0005827144972221828,0.0013296569895348902,0.001844895077129359,0.002077545267441502,0.0020515165209743376,0.0018476744468550487,0.001570760170830346,0.0013159959042397182,0.0011439058519229614,0.0010637227416810965,0.0010251667424871346,0.0009255687784058146,0.0006428839689957657,9.388243194136621e-05,-0.0007053449265209367,-0.0016135151703535774,-0.002399219927840093,-0.0028300658841710264,-0.0027742649118903664,-0.002260845276963866,-0.0014649189496154917,-0.0006256350375870622,5.899140216387515e-05,0.000506490353953685,0.0007606103565797281,0.000941016358319636,0.001163571324642744,0.0014720946583312395,0.001813028025715471,0.002063261953548944,0.002096185649962912,0.0018511156792828908,0.0013676929142111892,0.0007650954040267437,0.00017795616376403462,-0.0003125461216174142,-0.0007105674757833028,-0.0010816946757385355,-0.0014899877372173249,-0.0019379519993746727,-0.0023495667497614742,-0.002607565832087518,-0.002618930275890646,-0.0023636079753769747,-0.001895518484008173,-0.001301131876312804,-0.0006504409674435836,2.440894994765442e-05,0.0007133174914936974,0.001394633809706559,0.0020137526101180366,0.0024920058276013926,0.002760849450560782,0.00279788973125341,0.0026390824780033336,0.0023573192473714767,0.0020213168034061177,0.0016628815506073446,0.0012736871213088095,0.0008297134595974224,0.000321001078873343,-0.00023712139530310234,-0.0008171574100199436,-0.001400745642312493,-0.001984551307329827,-0.0025606328797849543,-0.003084723393527146,-0.0034603594747617287,-0.0035600142625034463,-0.003280215857558841,-0.0026027144639094463,-0.0016252566571183904,-0.0005394500965948024,0.0004386047318729806,0.0011529131278170937,0.0015653639723076022,0.0017565882561722183,0.0018686656550939013,0.002019980667671376,0.0022389233271831645,0.002452981635830744,0.002537344491780503,0.0023920075092507005,0.002001000294203553,0.0014409732590336414,0.0008383973577610575,0.000303447345918267,-0.00012193575179470038,-0.00047572461567739434,-0.0008436031988147292,-0.001300701564904242,-0.001856819505763849,-0.0024326462984405727,-0.0028799163190923096,-0.0030380667374440124,-0.0028030593357650005,-0.0021777285189174484,-0.0012798034046438889,-0.00030154665072143597,0.0005625848705147855,0.0011868027312415454,0.0015487427741264102,0.0017120404017690358,0.0017702308303093324,0.0017876790556177944,0.0017727349208425806,0.0016949954498312572,0.0015280953648175335,0.0012824991630117687,0.0010014229151150769,0.0007221824559085423,0.000434414934193176,7.314475072228168e-05,-0.0004387289165683458,-0.0011217051533619709,-0.0018918783341942867,-0.002571995832922238,-0.002961786509312743,-0.002928491313026904,-0.0024652874150589517,-0.0016870445974669092,-0.0007725731055089696,0.00010853760113169169,0.0008458832064210936,0.001398933952134908,0.0017776898502643089,0.0020138922830680076,0.0021386039337057097,0.0021705797568337265,0.0021126560101945293,0.0019540372886736133,0.0016797290178797528,0.0012865274802890698,0.0007970208011060546,0.0002584099336684405,-0.00027857195662375116,-0.00078745371807591,-0.001276790099385033,-0.0017700009957875126,-0.0022650626380861646,-0.0027038572724417858,-0.0029775132785170417,-0.002969856298715858,-0.002614761538160331,-0.0019341460214524616,-0.001036247200246633,-7.721737623807485e-05,0.0007929127310744245,0.0014746274196055702,0.0019368654118272748,0.0022062541694242164,0.002338123881858193,0.0023849958825413135,0.0023752821831367855,0.002307704145540228,0.002160129159084801,0.0019072657600232561,0.0015392091774468861,0.0010713744570649247,0.000538077059482183,-2.9434809167444695e-05,-0.0006260528928909947,-0.0012747678160966063,-0.001995507635462295,-0.002755271958511561,-0.0034366648553197706,-0.0038585131065091262,-0.003849803098779914,-0.0033387508210803813,-0.0024026477893539042,-0.0012451143778755207,-0.00011165211926300784,0.0008090438560061055,0.0014456909985631758,0.0018413462916863001,0.002098349402149513,0.002307381857929479,0.002498199229840654,0.0026329937888689234,0.002639981046622316,0.0024650946040088344,0.002111419070371581,0.0016434265048791163,0.00115348918400699,0.0007104914832476901,0.00032111908887931436,-7.291207870702219e-05,-0.0005587687044488779,-0.0011957859628883272,-0.0019671457146483162,-0.0027648472079273836,-0.0034168994182720304,-0.003746079791677498,-0.0036354900287506684,-0.0030733870688641252,-0.002159156651340313,-0.0010693745570735458,4.135183131156236e-07,0.0008939590273019633,0.0015309302474951114,0.0019114386834679544,0.0020922957458153397,0.0021497439399493098,0.0021462585299625897,0.002113266620058348,0.0020516332327337825,0.001943631135815803,0.0017673346256015358,0.0015065231090577028,0.001153764228545467,0.0007087412858618501,0.0001761698125574484,-0.000432736900787733,-0.0010936482671542527,-0.0017594765796738895,-0.0023543801792730345,-0.0027804487215485874,-0.0029416535895256234,-0.0027780718256089215,-0.0022928859038390424,-0.0015558555282916729,-0.000681400081306888,0.00020418005773197088,0.0009878700875245742,0.0015806886810731092,0.0019223475023162934,0.001991029710267294,0.0018173337646662966,0.001487805577705975,0.0011239918017345693,0.0008388643369965455,0.0006901460502290234,0.000655071380268443,0.0006406688783426532,0.0005260824549657252,0.0002189479517061855,-0.0002981501370122692,-0.0009515951884076067,-0.001599449660353522,-0.002084217977368157,-0.0022918215837587795,-0.00218885180975083,-0.001821604555399178,-0.001282122303617564,-0.000664726208154907,-3.851144302194167e-05,0.0005539485355616979,0.001081353846092968,0.001510676042203656,0.0018081813910753974,0.0019513920703359373,0.001939719572951934,0.001794728534436335,0.0015512484952053985,0.0012466419282370796,0.000912507681103563,0.0005674196588275853,0.00021013784341078072,-0.0001807071447211892,-0.0006326100102951339,-0.0011522578991413218,-0.0017004695314787527,-0.0021881494147570867,-0.002501774825660448,-0.00254816193020996,-0.0022948803822938468,-0.0017843703429123935,-0.0011152133553750743,-0.000402337736916384,0.00026221489695682547,0.0008293149086217994,0.0012873214249232406,0.0016395498714985458,0.0018821013476412957,0.0019978695322775096,0.0019703254139327117,0.0018054313474220101,0.0015427400731237249,0.0012435229677084584,0.0009603033802627078,0.0007064999147293002,0.0004467248811998758,0.00011651667108579842,-0.0003373004598750714,-0.0009172292785901268,-0.0015588762100325606,-0.0021477942674072554,-0.0025610626729659102,-0.002712121616300634,-0.0025770999812758637,-0.0021927060696943987,-0.0016316492232185597,-0.0009720774157630026,-0.00027739369461480303,0.00040657671095063367,0.001042047456259069,0.0015891840528862418,0.0020053526715169997,0.0022552531517660086,0.002325053795113329,0.0022307100287057104,0.002014453000517281,0.0017306211642932087,0.0014274723459324762,0.0011324041996292706,0.0008452932123809599,0.0005415017365471671,0.0001836741835561207,-0.00026098086763956497,-0.0008032992451990307,-0.0014201695089816906,-0.002051517536270552,-0.0026074790255444986,-0.002985126798118741,-0.0030923720489504044,-0.00287461239027098,-0.0023373461534961573,-0.0015556738169225101,-0.0006617320536569331,0.00019219619262902964,0.0008835474339245932,0.0013587921416663145,0.0016398746154854993,0.0017934076506702834,0.0018818077632279987,0.001927138945464542,0.0019089006419917413,0.001793348707346586,0.0015712512769786113,0.0012768255560904871,0.000974063120164826,0.000717998334431058,0.0005150731796304915,0.00030965727221607907,1.067961879370658e-05,-0.000451279791504461,-0.001067562870851601,-0.0017316653945361772,-0.0022738661418470665,-0.0025354657488053482,-0.0024419128941712705,-0.0020331921216329243,-0.001435649246697032,-0.0007949734174465823,-0.00021188468308639584,0.0002834168081015674,0.0007097835323421211,0.001088993980422853,0.0014105157114159717,0.0016311284874616942,0.0017066421518190133,0.0016299326404910141,0.001445297538677513,0.001225625950763221,0.0010247726621825928,0.0008361588316000467,0.0005879772324015332,0.0001847150898945919,-0.0004247437320923506,-0.0011925997340756446,-0.001968122683208821,-0.0025528032806950273,-0.002786208578741453,-0.002613576793206319,-0.0020981178322105123,-0.0013769089847120324,-0.0005926417949958051,0.00015787840864604438,0.0008349944390422362,0.0014313091832286462,0.0019345723163771045,0.002305360132081601,0.0024841765878295986,0.00242305260263726,0.0021213038034607057,0.0016425831948525761,0.001101290668686456,0.0006226502535395734,0.0002926881896792376,0.00011845201138624455,1.688116848959603e-05,-0.00015674322050807316,-0.0005445551796151259,-0.0012090724695783147,-0.0020797118037422743,-0.0029551534633228214,-0.003569992180172258,-0.003700836907999872,-0.0032627205812814425,-0.0023472314187585955,-0.0011819476509964373,-3.2149025211066396e-05,0.0009038238299560837,0.0015533336104547528,0.001958967687331268,0.002215444396473555,0.002396815407619706,0.0025151617860252997,0.002527302444904878,0.0023768625684996137,0.002042562600492554,0.0015650880981282823,0.001038782498302472,0.0005720208284325702,0.00023499101881227936,2.102680181115355e-05,-0.00015628751097326648,-0.00042392302418803036,-0.0008837035985382164,-0.0015517317526639073,-0.0023339749913354026,-0.0030507988110537064,-0.003498541295992658,-0.0035202464925564924,-0.0030579240457409905,-0.002171037589064645,-0.0010202561306800098,0.00017561928729792082,0.0011984009918344948,0.0018912747365097894,0.0022035114765718285,0.0021996282940798828,0.0020232116156440414,0.001827209171327304,0.0017039557626416144,0.0016527043563729965,0.0016028771108829573,0.0014775184625168138,0.0012546136098843873,0.0009830749193239117,0.0007396135715657978,0.0005558218609000491,0.0003711183955151591,5.3943853203509994e-05,-0.0005133701699838781,-0.0013381463887099897,-0.00227473776806379,-0.003070356778748749,-0.003479155228304411,-0.003380471467221653,-0.0028323298256326145,-0.0020298695702771763,-0.0011968166998780646,-0.00047811773718835465,0.00010358885402057615,0.0006109730255989625,0.0011105996985502973,0.0016064956736247485,0.0020298614317797153,0.0022842270234078423,0.002310348113824715,0.0021275239123177934,0.0018274729544343626,0.0015271125669938477,0.0013086162574254578,0.001178884957639324,0.0010677612126167193,0.0008638741417854767,0.0004692660073019789,-0.00015300196208220074,-0.0009575351830277861,-0.0018259685189065081,-0.00259833699937471,-0.0031134637273112957,-0.003248084967399761,-0.002947903436818362,-0.0022448150170428717,-0.0012550579784987147,-0.00015594085547166928,0.0008553551140157413,0.0016107345787795642,0.0020135232103610143,0.0020605776750411294,0.0018364248792268718,0.0014803139686389486,0.0011359431613634603,0.0009008740041325489,0.0007953319931627042,0.000764230676328139,0.0007114260272031913,0.0005486801327859572,0.000234858946195222,-0.0002112910387966156,-0.0007252328421597661,-0.001225228000924687,-0.0016400368864617574,-0.0019249881487425119,-0.00206292754854468,-0.0020534987362499932,-0.0018994139850916992,-0.0015996416425463418,-0.0011548902316211498,-0.0005819823395028045,7.382401707627631e-05,0.0007400914206505444,0.0013358326623710143,0.0017995797430611527,0.0021106455645306444,0.002288780238974807,0.002369892103773045,0.0023726016851688386,0.0022798776255487973,0.00205191536054191,0.0016631964296184361,0.001135187083892144,0.0005358542503483294,-5.8064263594922506e-05,-0.0006088381451338304,-0.0011371103393364086,-0.0016939939920212776,-0.002302841103598696,-0.002912037609105601,-0.003394958593557734,-0.0036021236545292885,-0.0034352422611634028,-0.0028976000399675347,-0.0020909810929520775,-0.0011649874290951736,-0.0002540049959822739,0.0005608407284884532,0.0012510297908040222,0.0018154823644912278,0.0022559801012861057,0.002568361980998941,0.00274707691657461,0.0027913366227386898,0.002705419369463077,0.0024959515837080174,0.002173390370489678,0.001759200782989509,0.0012912720406702484,0.0008181136714991208,0.0003802544423715472,-1.155433441455073e-05,-0.0003865533379741274,-0.0008026027579266981,-0.0013145103081575926,-0.001934667412768007,-0.00260504957651125,-0.0031982750411606318,-0.003554405861676513,-0.003541698570452694,-0.0031132164418971467,-0.002329773434522711,-0.001337069779169406,-0.0003102491853988914,0.0006048710743363322,0.0013271348291441793,0.0018414334883312502,0.0021736844112791513,0.0023574089851207286,0.0024101399396404422,0.00233024964377262,0.002113455205270632,0.001777360884903364,0.001376191406370252,0.0009908093107716684,0.0006929711545129056,0.0005017236784835811,0.00036068977071381674,0.0001570577450752922,-0.00022093332857028012,-0.0008159618462746342,-0.0015602598103123325,-0.0022858947989528085,-0.0027848792582366565,-0.002891329650539963,-0.002547532631682071,-0.0018257679270342964,-0.0009002393043047823,1.5221701959061348e-05,0.0007374997933764974,0.0011676758350142387,0.0013112557451619438,0.0012602814306002705,0.0011451337461937168,0.001075580042330439,0.0010963583680779479,0.001176775667178167,0.0012368376467718693,0.0011933732150085329,0.0010003280744272204,0.000663419070883642,0.0002262564132103045,-0.00025774634859857546,-0.0007462061253822614,-0.0012074658562488579,-0.0016032038441176387,-0.0018737718048691518,-0.001946580242826202,-0.001770348515944567,-0.001354837897836578,-0.0007858187038460832,-0.00019822931241831373,0.00028185193026551,0.0005937749397376707,0.0007638188507458541,0.0008783004874440385,0.0010234626999432901,0.0012273889085946768,0.0014394748173167796,0.0015621278747621951,0.001517225464547667,0.0013049040590859377,0.0010126198894737214,0.0007624096228110213,0.0006266521464443778,0.0005677420172672701,0.0004452400730506033,9.209430022655393e-05,-0.0005822598728825008,-0.0015214195914751063,-0.002525012584886429,-0.0033244350338478123,-0.003691525976495232,-0.00352578027876666,-0.002881147804816034,-0.0019269220949048845,-0.0008691517245153049,0.00012594062547254916,0.0009721088130971531,0.0016558501419180185,0.0021969830954222526,0.002606551077158433,0.0028672688708033466,0.002943547423249551,0.002808875575833968,0.0024701969653028815,0.0019750163867354965,0.0014000063830516163,0.0008294353049349266,0.0003329102947243109,-5.2334237738360374e-05,-0.000332636832927341,-0.0005593509863079747,-0.0008144424892538673,-0.0011767995257392907,-0.0016772470349498843,-0.002264031955678296,-0.002803749533992766,-0.003127447760938897,-0.0031044945551993003,-0.002705934838168198,-0.0020207118481840435,-0.0012134503442279346,-0.0004463001053387461,0.00019144713918005927,0.0007069397989690517,0.0011695890373937725,0.0016427462590967458,0.002124830195728784,0.002536643666163631,0.002762352906107994,0.0027183114185499587,0.002407254309487926,0.0019251095548304844,0.0014165795994124154,0.0010049529157592804,0.0007340363896454157,0.0005509310947066301,0.00033607959653541924,-3.514311419169935e-05,-0.0006276019254709223,-0.001406641586325101,-0.0022405892691240306,-0.0029446556661170227,-0.0033471559188227736,-0.0033490531817922794,-0.002952102924906615,-0.0022476228221083184,-0.001377238047146063,-0.0004871459238905466,0.00030615792904904526,0.0009324793991709112,0.0013701888869646645,0.001639114867217405,0.0017856461806110677,0.0018605129996641248,0.0018945574500239789,0.0018843562281298848,0.00179921594795667,0.0016094602698986612,0.001319050916906624,0.0009770636263437336,0.0006528956930112726,0.00038616521842318736,0.00014628352176991504,-0.0001620604193479901,-0.0006390090684135176,-0.0013067786187974104,-0.002058605843729477,-0.0026806498382909395,-0.0029446739462983137,-0.002723549865175906,-0.0020633127942606996,-0.0011670951544778014,-0.0002958678947128625,0.0003599529274528815,0.0007644733042288512,0.0010264109759666317,0.001302357866486159,0.0016752141611775756,0.0020862536084102295,0.0023643592073609317,0.0023324321240444476,0.0019214783168575755,0.001219621388181988,0.000426714640125973,-0.000254629580426316,-0.0007229523091137192,-0.0010147269915996597,-0.0012554630834025527,-0.0015584939807066023,-0.001934827845119778,-0.0022697179428727765,-0.00238111176842287,-0.002125204927096311,-0.0014852717528768195,-0.000590717893185847,0.0003427795407510974,0.001113248057934939,0.001612924341200486,0.0018475460177436644,0.0018945599638585473,0.0018372534633093354,0.0017203560346479444,0.0015499962443654323,0.0013252665932081483,0.0010662762099925651,0.0008103105003833965,0.0005774819644946661,0.0003363071962492034,4.710676478232915e-06,-0.000502013400361354,-0.0012010720237521644,-0.0019968749249058516,-0.002697648237341907,-0.003092909795812074,-0.0030497767304601595,-0.002572077198358033,-0.0017902006821798717,-0.0008935251844703843,-4.861282746531967e-05,0.0006540458405929412,0.0012061576329519617,0.0016481289050001688,0.0020182195167582385,0.002310960811413675,0.0024680188553671285,0.002410582049632874,0.0020978249558335077,0.001574252846886714,0.0009690318948765744,0.0004388610259106323,8.527403344750002e-05,-0.00010158406972179371,-0.00023497758261324339,-0.00046251647699306484,-0.0008778674199357954,-0.0014650206390885803,-0.0021028868912571844,-0.0026194725523459948,-0.0028599501098640814,-0.0027360013194236655,-0.0022450694645945956,-0.0014654723595492532,-0.0005352207902949045,0.00038279750945913605,0.0011450705106702814,0.0016678544637640292,0.0019454951692771385,0.0020364861050895123,0.002024037286176693,0.001971993566423838,0.001898720246415124,0.0017801737672189647,0.0015762210183417821,0.0012619479961047835,0.0008449198450417296,0.00035943789116790693,-0.00015635202347374035,-0.0006830478178719513,-0.0012234690659287813,-0.0017799985634461806,-0.0023187176395972906,-0.0027485876369324515,-0.0029408941613111306,-0.0027893305588668777,-0.0022783530308897694,-0.00151202541375301,-0.0006748484346953427,5.8505447387079894e-05,0.000608499790854336,0.0010139290935744871,0.0013768903068614256,0.001768025195176074,0.0021587775303878653,0.0024284802044108145,0.002441761320423965,0.0021434766795026027,0.0016073701003255438,0.0010067784861224043,0.0005267869809892632,0.0002717163379676982,0.00021895378349480728,0.0002378429136817743,0.00015693457899464646,-0.00015475639369634474,-0.0007251233224252494,-0.0014570784445270143,-0.0021572615870545583,-0.0026095520766352704,-0.0026672137520396457,-0.0023212172787108057,-0.0017055756075614794,-0.0010303899842800013,-0.00047618368976710127,-0.00011009154677504461,0.00012681042618779056,0.0003566702403890189,0.0006701505131723887,0.0010615172793874003,0.0014325797243418294,0.0016584592595669497,0.0016694691898493216,0.0014959184972627194,0.0012490010628882844,0.0010519034613204843,0.0009641261541834902,0.0009430919219576878,0.0008638472978894929,0.0005861984182177371,3.5653112449927915e-05,-0.0007411293686834714,-0.0015743268376445,-0.00222762160415329,-0.002492533632756148,-0.0022792834770787034,-0.0016598426021813748,-0.0008385912607773092,-6.207719337688873e-05,0.0004877462113850235,0.0007628827092506918,0.0008473023767342482,0.0008876964781999671,0.0009967105721279809,0.0011831150491720907,0.0013486344108629728,0.00135313077324607,0.0011089903091647483,0.0006467663182602829,0.00011041916433285483,-0.0003173701589417333,-0.0005173466041937531,-0.0005040019533651515,-0.00042180411200884986,-0.0004655589131077876,-0.0007654050595336765,-0.0012988193902140894,-0.0018808740712662228,-0.0022437913010909284,-0.0021678693843105983,-0.0015951620385622539,-0.0006638117822180532,0.00035658437382103154,0.0011928106444006109,0.0016879053943113743,0.0018488061159973282,0.001802731935151476,0.001698154643907068,0.0016160609328091666,0.001544013778242484,0.0014194579512459768,0.0012014166584231327,0.0009133522356633088,0.0006251267797021034,0.0003898276412660869,0.00018654620928086813,-8.268496232014303e-05,-0.0005320841207943248,-0.0012038562248849521,-0.0020106350205292053,-0.0027500639239357747,-0.0031891078725587627,-0.003172835612767601,-0.0026974605378501416,-0.0019089691929478395,-0.0010315102797882312,-0.0002664302825752176,0.0002864568714661664,0.0006503603948323053,0.0009318650332904142,0.0012458764823138698,0.0016461517806327147,0.0020964335126773806,0.002492985561416703,0.002720634153265354,0.0027082986370864804,0.0024550621119385913,0.0020186896135447716,0.001480572320312524,0.000910905766126999,0.00035145960728990655,-0.00018234163686368173,-0.0006904936922087912,-0.0011793776811926996,-0.0016562127730990962,-0.002120983749453868,-0.002552525288816181,-0.0028961534412249622,-0.0030672863559229554,-0.0029791788065762046,-0.002585699211637992,-0.0019154505319486598,-0.0010741112949467302,-0.00020875009656778822,0.000549611838360586,0.0011347967218047635,0.0015583290350355342,0.0018787774363932513,0.0021462521733789106,0.0023578486159821694,0.002454995135327263,0.002366706111356019,0.0020697508123012453,0.0016216238422525682,0.0011389556884225654,0.0007329576218315823,0.0004456328532581945,0.00023019047695909919,-1.3397995093907726e-05,-0.0003749535063492695,-0.0008843313462746171,-0.0014998633865977063,-0.0021295100099889904,-0.0026616783864218153,-0.002987702815620368,-0.0030152420759937087,-0.0026834645021940468,-0.0019872460747500614,-0.001002630579684392,0.00010749930735972171,0.0011266688095110822,0.0018550573129600028,0.002186894955844336,0.0021522588289619522,0.0018960688975466187,0.0016029258977910935,0.0014084307482715391,0.001344354981929462,0.0013428984560756151,0.0012897214205848811,0.0010895786413433928,0.0007073887294332709,0.00016917965242727593,-0.00046518424504087935,-0.0011307904673685254,-0.0017670497867035809,-0.002306718554655607,-0.0026628061762409604,-0.002735903532650758,-0.0024499622952565297,-0.0018009076784136868,-0.0008869826613639727,0.00010525760272223831,0.0009616207765175157,0.0015217417302408158,0.0017401284106860822,0.0016934282352378096,0.0015288718703789239,0.0013820451966111886,0.0013098503973000026,0.0012748944892858622,0.0011860733911843143,0.0009663789515692702,0.0006038448447394965,0.0001543525450085856,-0.0003020516950951748,-0.0007173960884936986,-0.0011010003953046486,-0.0014917765946117789,-0.0018957169888824644,-0.002236685627611628,-0.0023649437048854248,-0.0021301005404399023,-0.0014783507082890552,-0.0005111736000084508,0.000537948630946337,0.001401836985072068,0.0018981981035910386,0.0020012540314317587,0.0018296988297621323,0.0015653694694489839,0.0013544426777873902,0.0012456342709604713,0.0011914012191510137,0.0010994685008743088,0.0008959878425758266,0.0005613390401042362,0.00012302071591787674,-0.00037885651949525314,-0.0009205348067277353,-0.001493210428972256,-0.002073323804448014,-0.0025914817964790113,-0.002930808961934139,-0.0029653292906389028,-0.002619861606025405,-0.0019161346468228124,-0.0009765505735028542,1.8605069898612928e-05,0.0008988844512533142,0.0015620107909324948,0.0019947880163759873,0.0022500373132284374,0.0023978183235397834,0.002481971752334688,0.002505018613734161,0.0024421855741189784,0.0022666258885919843,0.001966319194816358,0.0015460926913993642,0.0010213112056703495,0.0004120107709506628,-0.00026021751933315307,-0.0009748385047408175,-0.0017134772659482959,-0.00245340953843181,-0.003150784077081473,-0.003723689123216639,-0.004054475219107072,-0.004023091569666673,-0.00356054278339809,-0.002692267407747175,-0.001543116299189355,-0.0002985752228867901,0.0008567834850501493,0.0017917986880069323,0.0024502415696775162,0.002840481135701594,0.0030093560527780982,0.0030187476453014074,0.002932124230159589,0.002804835186672515,0.002669286630162456,0.0025171725323041667,0.0022939915342918495,0.001920251905677673,0.0013356285479216782,0.000541409129382479,-0.00038757112007214707,-0.001331571754138054,-0.0021770787195294055,-0.0028566051253788626,-0.0033525027509870853,-0.003667271149836423,-0.003787060863149622,-0.003668317797678418,-0.003259065831749969,-0.0025415286895362934,-0.001568709991878897,-0.0004708399111765043,0.000576083341443339,0.001407690248145787,0.0019292251255411366,0.002147646218157671,0.002162094158622702,0.0021145499308621936,0.002120790028447921,0.002213804434719193,0.0023295572495378343,0.002344677711066666,0.002146079923263355,0.0016926800622242165,0.001034346310260309,0.0002806412631319272,-0.00045688097417811275,-0.0011109009905176277,-0.001666228822733214,-0.0021299375731619143,-0.0024894442498337643,-0.002691152999955322,-0.002657306584919191,-0.0023322148808284805,-0.0017285787371096584,-0.0009432668459032339,-0.00012964819480693935,0.000561327587207654,0.0010411593695549511,0.0013131143849124578,0.001454533523853939,0.001561216330980122,0.0016849286400590798,0.0018003438702533991,0.001821359308369768,0.001656829686008167,0.0012706491443367227,0.0007082626085170088,7.431259071349937e-05,-0.0005213520913956446,-0.0010130487343737104,-0.0013946410225989573,-0.0016965099655293753,-0.0019434990326564331,-0.0021218691593389736,-0.00217550873953074,-0.0020341425691884816,-0.0016575881071264752,-0.0010691055172747594,-0.000355340747533531,0.00036931751085598347,0.0010117816998917945,0.001530301774457225,0.0019266717347564304,0.002210240304986094,0.00236486553405866,0.0023473080716355397,0.002120243477915238,0.0016943631099764177,0.0011444318748079288,0.0005820206208660814,9.980059102300954e-05,-0.0002759435427672764,-0.0005927191067749073,-0.0009338046003322522,-0.0013579067082522826,-0.0018517351978277307,-0.0023213882721293097,-0.002625855898469264,-0.0026346412710408352,-0.0022828367348262835,-0.0016023382396304939,-0.0007196616673826307,0.00017869360875250796,0.0009041854033873894,0.0013299508588808916,0.001436240768989878,0.001315672370762808,0.0011312013033663822,0.001041968207381526,0.0011299358417274238,0.0013624081859008462,0.001609170359848017,0.0017060196077320865,0.0015334342316714244,0.0010722245432350705,0.00041014515994534386,-0.00030181308139356263,-0.0009192721003102955,-0.0013631034355309573,-0.001636743156739498,-0.0017963711297432575,-0.0018950495736452652,-0.0019357633848869791,-0.0018621975095102642,-0.001594028425137437,-0.0010869443107480287,-0.00038088248416169525,0.0003958509776042637,0.0010738358731371572,0.0015167100030942732,0.0016801578659135505,0.0016222222850869946,0.0014607543647005092,0.0013048980695202145,0.0012011443852017953,0.0011229924798092834,0.001004605604330082,0.0007917111006062051,0.0004750250551006656,8.748585032986457e-05,-0.0003255370830396257,-0.000735134744289944,-0.0011332570791395629,-0.0015117881831820993,-0.0018373187577542009,-0.002046188639854119,-0.0020680428761570115,-0.00186377490610149,-0.0014525531117000568,-0.0009101089682894744,-0.0003395673868637898,0.000167918267470555,0.0005627673190219044,0.0008459159207559921,0.0010575035996411603,0.0012518878887876226,0.001467547732532496,0.0017026403257262923,0.0019087143351200673,0.002010171941381319,0.0019429239677821418,0.0016902823528591716,0.00129146691878864,0.0008148785465490345,0.0003144631943821787,-0.00019806891010893621,-0.0007433573794578072,-0.0013337162740814203,-0.0019321658617001375,-0.0024425266779402005,-0.0027410445538295983,-0.002733087858288214,-0.002402546683296717,-0.0018252165545900175,-0.0011378964412735101,-0.0004801167659210807,5.9775827681128255e-05,0.00046697637369559473,0.000784042440603569,0.0010711532032530748,0.001367431201421421,0.0016714250749771222,0.0019441274377138213,0.0021265949814575475,0.0021616280779266288,0.0020119353786903563,0.0016705322538480684,0.0011614362333698732,0.0005317269165504903,-0.00016005913127825811,-0.0008523374089062007,-0.0014819513361899947,-0.0019821633260223757,-0.002286090133435878,-0.002341912903467547,-0.002135451374971296,-0.0017054248827856307,-0.0011371456062281063,-0.0005331255170936326,2.4881981839456778e-05,0.0005004746119449784,0.000898969576283256,0.001238512806559501,0.00151639507488276,0.0016958851543819242,0.001725612280134445,0.001579384927722381,0.0012865386530492898,0.0009263830337898286,0.0005849321690320947,0.00030094142307657686,3.957623274344576e-05,-0.0002841167400486833,-0.0007431094116035807,-0.0013358879071536918,-0.001963312791168551,-0.002460073103602139,-0.002663153173934861,-0.002480480844065567,-0.0019270185975339533,-0.0011161262692140584,-0.00021609471211837383,0.0006060760398375266,0.0012319477517062694,0.001616763203781626,0.0017889313540320078,0.0018269718575041932,0.0018213961521175613,0.0018340756081878923,0.0018717763410098258,0.001887342139390632,0.001808523290176572,0.0015777093720145154,0.0011786142260566028,0.0006354694685477974,-9.258103764594626e-06,-0.0007167671193334884,-0.001453802758367868,-0.00217424090157981,-0.002800295604270771,-0.0032265211319256726,-0.0033529938412207,-0.0031308862723075062,-0.0025919128651491646,-0.00184122364062737,-0.0010155958906693922,-0.00023020699306661153,0.00045637164532365255,0.0010417016450489562,0.0015484068101923095,0.0019851661216663792,0.0023261081189162357,0.0025229320571507844,0.002542272219426292,0.002401263726940362,0.002171057626889785,0.0019376914371511656,0.0017421585157492464,0.00154290341843659,0.0012342416674867897,0.0007161042797890194,-2.8710737887579314e-05,-0.0009028197552129841,-0.0017316535341909529,-0.0023471819791079577,-0.002665973155905406,-0.0027165649444091315,-0.0026055733775443343,-0.0024482134996782192,-0.0023051712809499737,-0.002158767621361179,-0.0019364465790210747,-0.001563596225072076,-0.0010134208325428933,-0.0003258297660963194,0.00041236206938349894,0.0011095430241573898,0.0017053201466330726,0.002179819301357602,0.0025362775986529458,0.002774633727697118,0.0028770138598789184,0.00281499149076562,0.002572557184867301,0.002168178179028574,0.001659517831868197,0.0011243898068317396,0.0006260317538190269,0.0001822699552934326,-0.0002411459843105171,-0.0007059896080213111,-0.0012587004983547333,-0.0018940513313371276,-0.0025449069235802166,-0.003100971590089121,-0.0034450635870756025,-0.003490971218490201,-0.0032096853243613567,-0.0026358231294040984,-0.0018526679667235529,-0.0009630067383828353,-6.007201195106654e-05,0.0007878393081452455,0.0015351569336357475,0.002146959949444524,0.002589580682864654,0.002831829001833772,0.0028556784839910768,0.0026689236111280363,0.002312088688972719,0.0018552195576289326,0.001382870787903046,0.0009677475409530649,0.0006392440482713942,0.0003624677928149311,4.703482246070094e-05,-0.0004070401779421121,-0.0010438030934907783,-0.0018036739617543537,-0.0025281559728272812,-0.003022606970510939,-0.0031450468850201104,-0.002868944168214801,-0.002282385306150207,-0.0015276472195504234,-0.0007250784366420244,6.638500680684585e-05,0.0008297995113442464,0.0015358062022537266,0.00210440258036512,0.0024213125351758144,0.0024036998107946944,0.0020684178723898014,0.0015490341304803192,0.0010417303671662386,0.0007091599004127179,0.0005990313746687248,0.0006231922539916861,0.0006057187922312551,0.0003720550314466615,-0.00016503092650096193,-0.0009602862231723973,-0.001848017610384309,-0.00260286956882396,-0.0030219372843986784,-0.0029946310749921134,-0.0025347988955532045,-0.0017668487634840237,-0.000875218804236617,-3.804682277431723e-05,0.000630181226406964,0.0011054390686847616,0.0014399022877090446,0.0017140251003259894,0.0019799986089957117,0.0022276391717708562,0.0023916078234919647,0.00239423621950108,0.0021964087216711616,0.0018240649252568943,0.0013533050656137416,0.0008634927653157163,0.00038872924574479635,-0.00010012479462973196,-0.0006697648009820939,-0.0013694986209491758,-0.0021794950589366555,-0.0029925377276841746,-0.003640228705107224,-0.003950926985569721,-0.0038122138593783108,-0.003211327227536348,-0.002239584015169407,-0.0010630370695546214,0.00012630931226901258,0.0011604132061928299,0.0019314342761820188,0.002406796280529315,0.0026226327109009667,0.002660108270557175,0.0026122369095634094,0.002550544018066364,0.0025007811316863503,0.0024349722220465622,0.002283946862898248,0.001969176706453136,0.0014438320873930042,0.0007239485700085242,-0.00010989254545413314,-0.0009460300969915501,-0.0016931539710518155,-0.0023168122726859586,-0.0028342812732446107,-0.0032688745287029627,-0.003595906446310794,-0.003723083374586253,-0.0035272508250571476,-0.0029296506008991727,-0.0019614861006008824,-0.0007740805618265795,0.0004169664497655005,0.001421238515431129,0.002143800265236025,0.0025985663057446085,0.0028644635422466523,0.003017598344922056,0.00308196763759135,0.0030243759917257473,0.00278999130902349,0.002351782274455121,0.00174163327909805,0.0010436591487122148,0.0003529042626467905,-0.00027620029569585863,-0.000858212467658527,-0.0014586535698071848,-0.002133917432302277,-0.0028636260547025773,-0.0035212699664809266,-0.00390979204044374,-0.0038490620209027685,-0.0032680098301706107,-0.0022489254646672683,-0.0009990880126033255,0.00023276129992359947,0.00124828563513691,0.001954235908693952,0.0023616294093639395,0.0025430891229652457,0.002579058687098209,0.0025204859760549307,0.002380230334213072,0.002149017672050396,0.0018210535306414336,0.001411613493239001,0.0009545779544597392,0.00048087306136883703,-6.499082510129378e-06,-0.0005386699501867814,-0.0011554142683800847,-0.001857038034774967,-0.002563604890968547,-0.00311494435288964,-0.0033243731592169277,-0.0030647180613571304,-0.0023398315254991716,-0.0012981919237283735,-0.00017772232655002872,0.0007887864642787366,0.0014573574007998276,0.0018058641966226725,0.0019086147806119686,0.0018758964453367436,0.001794864367357706,0.0016997279285417082,0.0015785231791955608,0.001403581569994727,0.0011625862080737312,0.0008705134594195114,0.0005568750185627082,0.00023911770000322293,-9.754567327667187e-05,-0.00049641833023935,-0.0009983559892930106,-0.0015987258634291776,-0.002219247845731363,-0.0027169351762549683,-0.0029315742612286352,-0.002749861063984644,-0.0021548041014557546,-0.0012384099333752328,-0.00017486715523318806,0.000832609844549426,0.001611491271395354,0.0020671914903607606,0.0022035070307267718,0.002109500097236447,0.0019169322176220663,0.001743961960331947,0.0016477712340538108,0.001606244796710197,0.0015364448002616262,0.0013404040453279887,0.0009551432527891155,0.0003819532997524202,-0.0003175307427490504,-0.00105101891825554,-0.0017297642994169593,-0.0022881330920506517,-0.0026843558461314434,-0.002892273030204168,-0.002895763336974131,-0.0026893530303538967,-0.002281414217311697,-0.0016967643147051195,-0.0009787938869796615,-0.00019039009485639934,0.0005910287972692877,0.0012884020473594416,0.0018455664922905118,0.0022407864185064,0.0024826901748929505,0.002591217177357689,0.002578729966185024,0.002446068021623516,0.0021949595443013104,0.0018438050200081954,0.0014307100938331905,0.0009980415706876548,0.000568175868703403,0.00012860078803288757,-0.0003602347435938568,-0.0009356065544551891,-0.0015975748026972243,-0.0022892147369977574,-0.0029050751019615803,-0.003324938271353375,-0.0034552553816542325,-0.003256887020699144,-0.0027482334852511553,-0.001989991774442798,-0.001067681824561077,-8.263912021766744e-05,0.0008522626303480369,0.0016243393109132936,0.0021463470494173377,0.00238633791693562,0.002382789840278509,0.002229377397275041,0.0020309393566759963,0.0018526804641692974,0.0016936259755324326,0.001502895162097266,0.0012285360261282126,0.000863794259048074,0.00045576059803847696,6.91981975948878e-05,-0.00026635467991531476,-0.000583431580018846,-0.000953008774914402,-0.0014236931626496212,-0.0019656347286651377,-0.0024598230384844095,-0.002744152829123339,-0.002691318535003446,-0.0022738817579348,-0.0015797738146607321,-0.0007707395098923491,-8.786204308679018e-06,0.0006074551137641072,0.0010629639561596505,0.0013977279248175187,0.0016537035100031015,0.0018343405530594056,0.0019017863750747128,0.0018099582143815533,0.0015483614776783594,0.0011660777580818872,0.0007591732135446201,0.00042793254100593385,0.00022849905139060928,0.00014601500144043023,0.000102756962717732,-4.607601231226268e-06,-0.0002570437688091741,-0.0006740057669049197,-0.0011968990775022322,-0.0017015291631705103,-0.00203765520449016,-0.00208394933261567,-0.0017981608446195508,-0.001240572356699033,-0.0005571202735050998,7.486985834387924e-05,0.0005168356066912493,0.0007225975916176438,0.0007484232663940722,0.0007144538877762922,0.0007389073329449259,0.0008804264842156242,0.001116430881028075,0.0013625427642820881,0.0015160934228801344,0.0014987403101475055,0.001280824914914323,0.0008838135372903816,0.0003663174238409646,-0.0001988193102855127,-0.0007489557691569209,-0.0012483556031485693,-0.001687264014392426,-0.0020602883473638785,-0.0023354101567862073,-0.0024372706989359057,-0.0022657795319854118,-0.001749912963613194,-0.0009089642367289021,0.00011970239505781726,0.0011132593952876495,0.0018482068968199072,0.0021951922584526416,0.0021716789041231668,0.0019223814369425088,0.0016387081413180907,0.0014628754538731704,0.0014282719788291875,0.001462762848330159,0.0014435509350296564,0.0012653781676491,0.0008833428844508501,0.0003145548180475396,-0.0003883992419406097,-0.0011645304928300662,-0.00195202220452321,-0.002677536816369416,-0.003245777794897346,-0.0035482971768854956,-0.0034949758820706466,-0.003052707746680845,-0.0022681547837749613,-0.001260122890719575,-0.0001845088995424238,0.000811425895006437,0.0016252291472677552,0.002211917617672564,0.002571625907884267,0.002724342138227444,0.0026908863103198635,0.0024932255730213447,0.0021701810723520933,0.0017890802966098545,0.0014337192950035081,0.0011667317425433548,0.0009875786084395108,0.0008171752224844952,0.000527124647692303,3.874561988507987e-06,-0.0007845320625283967,-0.001754112734723169,-0.0027209964844506452,-0.0034613456637337106,-0.0037895501321257566,-0.003622300004670361,-0.0030030042337581323,-0.0020789638918528057,-0.0010448939604807508,-7.937457139601373e-05,0.0007012300033427591,0.001259763510269079,0.0016276910123854769,0.001875143192038798,0.0020717030249631434,0.0022497416957123328,0.0023842757264548797,0.002401711536200706,0.0022197566664295242,0.0018029766972081777,0.0012026867235560587,0.0005505864684739046,-5.700867264598383e-07,-0.0003604901826832265,-0.0005579475579722152,-0.000729395954023924,-0.0010379515278379375,-0.00156565167174468,-0.0022426351443917444,-0.002859437937911892,-0.003161808776945202,-0.0029785230798135727,-0.0023116571363941936,-0.001339393251964209,-0.0003310222940473651,0.00047800838879202265,0.0009839060109313395,0.001236562668200544,0.001381100508693476,0.0015584910868215005,0.001824304589016144,0.002128412157733792,0.002357845241764205,0.00240747879057109,0.0022328177387551666,0.0018588721458355577,0.0013508472365037127,0.0007736547825273248,0.00016733317189148204,-0.0004509730967193499,-0.0010673221561725368,-0.001652133041032241,-0.002156033489964575,-0.0025210454240099257,-0.002697305867251325,-0.0026548308886966097,-0.0023869398464712328,-0.0019093774298859945,-0.00126072708119041,-0.0005048139860821191,0.00027070448045812953,0.0009668590662198568,0.0014977107580188118,0.001816591719139218,0.0019288214908284005,0.0018817390627472402,0.0017376836542279995,0.0015468336167723561,0.001334447995829672,0.0011035940640792832,0.0008433543632442031,0.0005340545588664605,0.00015138285115525504,-0.00032263481484284514,-0.0008795995169999281,-0.0014656834396825982,-0.001980120215296724,-0.002301196042596488,-0.0023330763097865683,-0.002051036489981138,-0.0015191363410633051,-0.0008674522559332346,-0.00023867110222288422,0.00026862850811305784,0.0006317687156208686,0.0008974939124363286,0.0011436871941941462,0.0014294262300895118,0.0017568085045626771,0.002062215850932293,0.0022423632985966594,0.002204427427898675,0.001915642328890963,0.0014245646984934195,0.0008390090537478929,0.00027002454684307007,-0.00022660434945844427,-0.0006751010371764115,-0.0011526078455671742,-0.0017236861628733406,-0.002375003933884385,-0.0029909832993303925,-0.003388264285911025,-0.003392983413983594,-0.0029210927110127063,-0.002021950116997008,-0.0008666018914407293,0.0003106018804882461,0.0012900894647248917,0.0019339835712568051,0.002218931562458098,0.0022264320291419545,0.002097690665368148,0.0019712913624889876,0.001926498340379164,0.001953261626363241,0.001962092314411937,0.00183169474157466,0.0014727154793748882,0.000874017800251096,0.00010621384441535236,-0.0007157474177635949,-0.0014826681756411558,-0.0021208931128054347,-0.0025890655083325173,-0.0028565536924505704,-0.0028903131372579297,-0.0026652239562759764,-0.0021892477850635125,-0.0015201093553395863,-0.0007563679777820449,-5.634359534326268e-06,0.0006511823702587945,0.0011795316850686489,0.0015860970025551211,0.0018946280664372578,0.002118071762023749,0.002243482468700023,0.002238683852798973,0.002076852148305953,0.0017636153587095309,0.0013479061475140666,0.0009061724363921585,0.0005062101794753849,0.0001714349739182512,-0.00013198978450391067,-0.00047583958982852075,-0.0009273148995362949,-0.0015040661687628094,-0.0021480770033121123,-0.0027315900950810384,-0.003095324592236084,-0.003105308211556677,-0.002705455004405228,-0.0019442135186206772,-0.000964986666171535,3.5508428911573534e-05,0.0008665984032661777,0.001402118115160023,0.0016188401096057068,0.001599130311298077,0.0014926039815529256,0.001448933834108209,0.001550090422749768,0.0017738381164617372,0.0020063877210455537,0.0020973220142875195,0.001928456297036219,0.0014628276626906668,0.0007535488007767982,-8.416062541447523e-05,-0.0009162976964743347,-0.0016255571417206735,-0.0021286742564266634,-0.002380244007290143,-0.002372421288048332,-0.0021335597354545516,-0.0017211813217823928,-0.0012055647478428526,-0.0006493008309799139,-9.52120226662108e-05,0.00042911705542905015,0.0008953376542538228,0.0012625728837783435,0.0014828687885482033,0.001522434436883301,0.0013837018939009105,0.0011121538054635546,0.000783084815471579,0.00047605374282646575,0.0002486784992194703,0.00011714835414439593,4.69629086288094e-05,-4.092415313749646e-05,-0.00024175078566540296,-0.0006179137746192855,-0.001149077127097975,-0.001714130021080835,-0.002127564689535157,-0.0022198631514177072,-0.0019186967733307774,-0.0012827287562083528,-0.0004691912711233294,0.00034145188232589333,0.001016814521198506,0.0015026099992848931,0.0018060952097853752,0.0019572169770231355,0.001979813429419798,0.0018895992845467818,0.001710290283630351,0.0014839949756919096,0.0012584567323209355,0.0010559275308842692,0.000847601502615086,0.0005576248850863226,0.00010159053632252115,-0.0005590913286624823,-0.001376950170349396,-0.0022157818477936265,-0.002890444809107796,-0.0032338335460297173,-0.003162395645917217,-0.002710350909238634,-0.0020152175980017437,-0.0012592641519369703,-0.0005933031157046076,-7.94643579358536e-05,0.00031862630314129594,0.0006942481614190393,0.0011289056715398712,0.0016361072352952242,0.0021485900355135775,0.002552853755272268,0.0027472201229349264,0.002688836914377914,0.002405887432776356,0.0019743928100230813,0.0014785092436150902,0.000977687468006163,0.0004939189453345515,1.7954700147672923e-05,-0.0004745201825025369,-0.0010047699755206586,-0.001574479600303976,-0.002152702752403843,-0.002670448863657142,-0.003029091510587995,-0.003126010674146088,-0.0028926566362601318,-0.002330347210669482,-0.001524215917461037,-0.0006221601920931674,0.0002162993384406901,0.0008767923066853715,0.0013223273497301358,0.0015855518513007932,0.0017309301352601122,0.0018138985716610505,0.0018612118927678562,0.0018775550794529272,0.0018635041485522792,0.001824167855677929,0.001759617673739498,0.0016467797259112104,0.0014322460291638682,0.0010488043064049927,0.00045101802289067815,-0.0003496582445796202,-0.001271327191577731,-0.0021784325268543615,-0.00292016267889032,-0.0033707016974901323,-0.0034538789161734354,-0.003148302093554995,-0.002483121852132646,-0.0015370754580864307,-0.00044156357643398406,0.0006266549922680665,0.0014794999541366716,0.00197707614193643,0.0020859243487204616,0.0018979099297162052,0.0015886365097280283,0.0013319219125834455,0.0012181113904931658,0.0012234652911256511,0.0012442738587915179,0.0011678111426792882,0.0009332334720515778,0.0005500495405284243,7.472290376295515e-05,-0.00042850964453517804,-0.0009138262536091159,-0.0013547398958347321,-0.0017277222486035782,-0.0019964469128645177,-0.002110251323751644,-0.0020182230246750432,-0.0016904276892694406,-0.0011359677711747802,-0.00041160199921189047,0.0003814582919595931,0.0011138458747058525,0.0016573196152992395,0.0019217610102213783,0.0018874515632823947,0.0016171543216693166,0.0012378246210771936,0.0008938211522993948,0.0006867484537913806,0.0006261107171411413,0.0006158551868276804,0.0004915329282699187,0.0001008810530216521,-0.0006055191494860407,-0.001521437944689473,-0.002406179028093503,-0.0029782087898579403,-0.0030370449633292315,-0.0025502053567596217,-0.0016609461690310448,-0.0006172239270314485,0.0003364273233742468,0.0010484966913535496,0.001492943796759503,0.0017395465922807885,0.001888056172600871,0.0020054079425733734,0.0020964408834479725,0.0021148771833739482,0.001998412241232323,0.0017036383700440635,0.001225004152288365,0.0005964087972752777,-0.00011791107758383861,-0.0008375420432005273,-0.0014828225669856763,-0.001991793188971141,-0.002331372731004289,-0.002496917407309552,-0.002499651189922227,-0.0023488911661975337,-0.00204027198343177,-0.0015592354964099019,-0.0009010761083417101,-9.78573741483054e-05,0.0007653302639519843,0.0015598843649730961,0.002149986826362745,0.0024396529047140026,0.0024073632735183217,0.002112777015510078,0.0016751712417876997,0.0012342748706389072,0.000906110438272616,0.00074386245545337,0.0007136774030375361,0.0006978983083708763,0.0005353676835149954,9.30028616845731e-05,-0.0006596140334321175,-0.0016128901576110723,-0.0025444683793084885,-0.003204042811800445,-0.003414129760573764,-0.00313440639020886,-0.002459182949121649,-0.0015581280397868888,-0.0006013352413561051,0.0002895765022689501,0.0010488907080804175,0.0016469362505566374,0.002068527645963342,0.002305749849565291,0.002363909381990654,0.0022687897548892646,0.002064244077229549,0.001797866005190723,0.0015018679897378674,0.001180488302075951,0.000812129607309843,0.0003662678883064448,-0.0001729641913466184,-0.0007880851554667564,-0.0014233933113236823,-0.0019961510451842373,-0.0024189482547463657,-0.002623984729392139,-0.002579962052185627,-0.002296302436952373,-0.001815439165910036,-0.0011988535058031536,-0.0005138224862169796,0.00017492494290907758,0.0008090105125314869,0.001338851830125421,0.0017271858950591945,0.001953482189272309,0.002017513730023027,0.0019403142636817395,0.0017604261606832324,0.001523019648002004,0.0012622992461829598,0.0009842415347789781,0.0006616753728301875,0.000250354736075092,-0.00027731618039662407,-0.0008976550451396418,-0.0015223047670619924,-0.002019985198762492,-0.002267890840695048,-0.002207512024271825,-0.0018733521480552343,-0.0013765519328003853,-0.0008515699612121712,-0.00039590818543906926,-3.600441901211463e-05,0.0002646053953916063,0.0005640975779601313,0.0008951586992412347,0.0012394500627370903,0.0015362084538073667,0.001716157710966152,0.0017372636222972692,0.0015997514986351388,0.001333429283063113,0.0009699292142492087,0.0005223957605776804,-1.1201641667487987e-05,-0.0006226322672385526,-0.001263977432735344,-0.0018370064761237571,-0.002214107280386448,-0.002284958023044393,-0.0020067750505844617,-0.0014311614757470403,-0.0006907649962726478,5.015640488737784e-05,0.0006567647973291427,0.0010649898742785468,0.00128461601068556,0.0013696134500656458,0.0013791832426600153,0.0013524261390526592,0.0013038618129816721,0.0012311252989011057,0.0011220352137388835,0.0009556054561288934,0.0007014546244298781,0.000326185355070385,-0.00018869997198690656,-0.000822272763122839,-0.0014974069833747572,-0.0020882757991701898,-0.0024580901661377785,-0.0025129697265628328,-0.0022422153613090054,-0.001719333007025076,-0.0010626817049637148,-0.00038149294782016874,0.00025939139200903665,0.0008392299695475574,0.0013540722516460295,0.0017859587353197216,0.002090056931759164,0.002208231204598418,0.002102566509062765,0.0017903147573434986,0.00135663907966148,0.0009289230725423405,0.0006174981739053004,0.0004521175563168662,0.00035353595002671933,0.00016452106774903597,-0.0002683088824830327,-0.001001138198267384,-0.001937528915866821,-0.002844129100940247,-0.003436321293081989,-0.0034969270890512607,-0.0029720389641705934,-0.001996555059210655,-0.0008359282215585401,0.00022636414830892087,0.0009982261213758927,0.001432558074360935,0.0016070338452782063,0.001653806948937062,0.0016854209051732102,0.0017546350171110871,0.0018562653972376126,0.0019520265045237005,0.001993615461116464,0.0019341574328110415,0.0017353692893195493,0.0013800905710734416,0.0008872884508394163,0.00031489676442573533,-0.00026065137271503633,-0.000781320065849627,-0.00123665753406337,-0.001661304099054321,-0.0020976514357621224,-0.0025470361417320505,-0.002943565298546437,-0.003170256672936459,-0.003109165932620471,-0.0026969795520654706,-0.0019575884730453127,-0.0009988806410651879,2.0989297392088615e-05,0.0009418126287033086,0.0016456633026547987,0.002082593285117157,0.002270724668740426,0.0022741252509682116,0.0021706612081924042,0.002024392367610608,0.0018718354572177147,0.0017226993636264478,0.00156935618147072,0.0013980523170205649,0.0011969330746954485,0.000958345551245698,0.0006751344914203946,0.00033431713503483487,-8.433404588269406e-05,-0.0005977796542589038,-0.001198827894457321,-0.0018378309549177425,-0.0024230055462446435,-0.0028448504823617585,-0.0030134408473393402,-0.0028884705683064078,-0.0024878326006462564,-0.0018752414585797765,-0.0011383360328732824,-0.00036871151260270223,0.00035187331041010197,0.0009604994162553017,0.0014186333116178104,0.0017133175445331052,0.0018536618839895356,0.0018651491817801493,0.0017847733265521299,0.0016565212039234007,0.0015234070656849638,0.0014139096248833266,0.0013265725939217597,0.00122149402186566,0.001027109751499855,0.0006648603533155929,8.595791343422225e-05,-0.0006928599431857135,-0.0015709946531267467,-0.00237637289672327,-0.0029114141816387364,-0.003020262170089716,-0.0026518082262137572,-0.0018896075483837763,-0.0009301154648602431,-1.250247963616196e-05,0.0006722517629460761,0.0010515044128862434,0.001186205880049496,0.0012240135269638282,0.0013143515693404427,0.0015275780948406895,0.0018171230604242794,0.002042353138589833,0.0020407740754940637,0.0017132833072913173,0.0010780595010204432,0.0002641462648716415,-0.0005508869524757706,-0.0012220354719887745,-0.0016887364784407227,-0.0019702322213785805,-0.002116438465721248,-0.0021555107379637364,-0.0020761192247719983,-0.0018510483322376698,-0.0014761103264247673,-0.0009901087226320817,-0.00046077572352978515,5.0443703941037085e-05,0.0005171784636221404,0.0009498313279499834,0.0013701841280337745,0.0017778069377435825,0.0021322325512284288,0.002364006415380789,0.0024088086584803286,0.002243838323747568,0.0019034624173307547,0.0014629706084785267,0.0009981325886510401,0.0005429645799252087,7.024052059035455e-05,-0.0004918299951244626,-0.0012112113273478435,-0.002092543217563999,-0.0030355860545549273,-0.003838185377433392,-0.0042548134078219625,-0.0040946625285079,-0.0033157843915064852,-0.0020634654784255826,-0.0006246872634672936,0.0006838056002634171,0.0016378748661177403,0.0021775594736560314,0.0023967921717117703,0.0024649511358490403,0.0025267006794885837,0.00263231193116191,0.0027303116493771645,0.0027195908033072463,0.002525643900576431,0.0021523785740104125,0.0016764821559104664,0.0011888396719223853,0.0007239473301598638,0.00022838544574294343,-0.0004056497917804188,-0.001259913029604398,-0.0023132495039225615,-0.0034166597149479358,-0.004335478737773314,-0.004834946685379628,-0.004766052381382987,-0.004115439257815569,-0.0030049924236390134,-0.0016479721229727996,-0.00028130872696749214,0.0009018406208165237,0.0017968839304394258,0.002395528071860248,0.0027564699440537424,0.002955792881390679,0.0030438302596385493,0.0030304855169871383,0.0029024098011545102,0.0026547379312594275,0.002311420064091166,0.0019171893079080913,0.0015046565827358225,0.001059353199036855,0.0005120615587189968,-0.00022453095640366072,-0.001185514275825402,-0.002288819886476109,-0.0033234262138959903,-0.00401525757137304,-0.004148592396501505,-0.003678795035560954,-0.002766222846224127,-0.0017023455692014868,-0.0007654514588998722,-9.060203478460029e-05,0.00036831937149697856,0.0007654845233446301,0.0012315600655809817,0.0017723061024367882,0.002262563762418756,0.0025348581728226426,0.0024982617635499285,0.002204650787814086,0.0018173868671998877,0.0015044262205486918,0.0013275638603446104,0.0011997500376752584,0.0009367723792285787,0.00037133638577117834,-0.0005368250732906199,-0.0016553714959940677,-0.0027212957226140496,-0.003446967345024763,-0.003635664949035029,-0.0032511207644282895,-0.002414238524575546,-0.0013402230602172897,-0.00025571048037043324,0.0006657889405824201,0.00133296734776811,0.0017342618679879159,0.0019161668872800758,0.0019528298531714563,0.0019147274211430503,0.0018442745488118305,0.0017454555896952726,0.0015896948690281225,0.0013335033117784902,0.0009396090515763822,0.0003939728789481309,-0.00028525869988057476,-0.0010464513073722092,-0.0018077163970850769,-0.002462807966869225,-0.002892617038648,-0.0029883849341349198,-0.002687671077568539,-0.002010670851301569,-0.0010734038771659442,-5.954456716350266e-05,0.0008434959250468566,0.0015120591692614313,0.0019182141126867702,0.002108777149714556,0.00214983196748662,0.0020779985226331704,0.0018913935581786414,0.001580656497706864,0.001169452679260013,0.0007276020420402024,0.00034142557489681203,5.866045646748584e-05,-0.0001529967567344573,-0.00039868158908027665,-0.0007944928786853835,-0.0013823445757127299,-0.0020741778943433667,-0.0026665914000784234,-0.0029266720492590985,-0.002705348417783381,-0.0020151020721216597,-0.0010280083504019808,4.037850971441075e-06,0.000861644489160023,0.001442460774265288,0.001776796933545358,0.0019726372860812535,0.0021262520166233255,0.0022523620702583147,0.0022757582570048385,0.0020886319191789618,0.0016352648148883072,0.0009664384243338639,0.00022555742877685585,-0.00042537278561012516,-0.0008919933314507366,-0.001191894907013462,-0.001431307850001288,-0.0017298393903815137,-0.002137068057759711,-0.0025865311587801284,-0.00291142386596879,-0.0029155094604475062,-0.0024664651093285095,-0.0015674119135830411,-0.00037101427521945776,0.0008725283841260196,0.0019089911278402957,0.0025696669212108224,0.00281620373981981,0.0027266888440479553,0.002439657998267498,0.0020893233519857,0.0017614892827463864,0.0014820522749349624,0.0012314853013639273,0.0009696302672759351,0.0006574836776095264,0.0002705791387224053,-0.00019519964483947968,-0.0007226574306908381,-0.0012753365156901507,-0.0018021191662425974,-0.002244460815606846,-0.002545632721517954,-0.002660241633286245,-0.002561998483648464,-0.0022484574762431497,-0.0017426109903449793,-0.0010921090383849044,-0.00036656969754381955,0.00034851563573177607,0.0009644972796102223,0.0014099228777182521,0.001652701101446801,0.0017121309213669735,0.0016509636241545766,0.0015489732785129828,0.001471307126211861,0.001446626384667788,0.0014608635388006165,0.0014624455669763,0.0013736973238994339,0.0011091817219759086,0.0006045636384748885,-0.0001474990797349406,-0.0010697696244498416,-0.002000775567278505,-0.0027325129282935786,-0.003075692984412681,-0.002927080193382785,-0.0023107236580663638,-0.0013752220100253626,-0.0003462269549418023,0.000549607218170728,0.001160512813369684,0.001453125090295054,0.0015025906098720268,0.0014343392357363824,0.0013508520547627103,0.0012863168388197758,0.0012123590896618375,0.0010821182738058209,0.0008753911311250077,0.0006122421895083479,0.0003300301979313931,4.674651584172596e-05,-0.0002576354224389239,-0.0006246652700433835,-0.0010752750505560794,-0.0015715793675957982,-0.0020116348266232724,-0.00226497471557411,-0.002229617853568965,-0.0018773119691029975,-0.0012623617752247657,-0.000493440179922317,0.00031003431184506187,0.0010496088049246938,0.0016535112014961016,0.0020644611909662403,0.002232196251235717,0.0021280348895453354,0.0017761890468554792,0.0012745669982331075,0.0007768691823733594,0.00043261043796781495,0.0003146886455639736,0.0003785712302892422,0.00048027290607611844,0.00044442899854514915,0.00014538349773081372,-0.00043852635808451187,-0.0012172856181476145,-0.0020228187294296096,-0.002664301978074559,-0.0029848800592798645,-0.0029048632595685703,-0.0024411362369699337,-0.0016972344532630494,-0.0008270905852499698,1.3885476751439156e-05,0.0007113113815447805,0.001213370845395511,0.0015278151211491162,0.0017006299439760882,0.0017870454990982815,0.001825983296817497,0.001827235296864359,0.0017759609613537605,0.0016510262602664645,0.0014457842923675547,0.0011780055478040593,0.0008824927732099117,0.0005913630575733297,0.0003149212177826356,3.5217711260018234e-05,-0.0002835997930991739,-0.0006732676844683331,-0.0011384534228959264,-0.0016439929106186405,-0.0021190987334661167,-0.002477664061881904,-0.002645853564177335,-0.002584416026460547,-0.002296316730357995,-0.0018184877320216735,-0.0012045708155673574,-0.0005090858175417555,0.0002188169594759693,0.000930559214592556,0.0015688368175233779,0.0020654373411667397,0.00235555888281553,0.0024068800105558727,0.002246747342517706,0.0019641322843135327,0.0016744543992791771,0.0014611205127454583,0.0013287175188064278,0.0012001111109008844,0.0009622034354749198,0.0005326237476650811,-9.327618197554118e-05,-0.0008400070841198591,-0.0015878682401565115,-0.002218764445440169,-0.0026456122767181856,-0.0028197372782826895,-0.0027289295567714655,-0.002398469625005546,-0.0018923276522510313,-0.0013009014680076618,-0.0007091795493568648,-0.00015964097144885317,0.0003623980742321635,0.0009025451697945334,0.0014803374912860474,0.0020389105209987807,0.0024424851682265407,0.002536141961051479,0.0022400165821662484,0.0016201602509750498,0.00088401575810456,0.000290743948608823,2.052826526510081e-05,7.68354036076984e-05,0.0002802361564927104,0.000360632885127132,9.898591028338773e-05,-0.0005565970857605914,-0.0014587768967292095,-0.0023245471167243448,-0.002858186710070083,-0.0028733121890537256,-0.0023610420411102053,-0.0014804217767841023,-0.0004822560523173457,0.0003955476109014477,0.0010135933130561608,0.001361887155402446,0.0015283793078592239,0.001628090940567756,0.0017331812800068206,0.00183988516273639,0.0018849354153999884,0.0017951277479063457,0.0015359495040887109,0.0011293818856113614,0.000633962434485119,0.00010593455859783158,-0.00042900912267708393,-0.0009744859960663702,-0.0015361802550124758,-0.0020896831888709715,-0.002566408260086204,-0.002867936158335787,-0.0029018167660855784,-0.002620317763128394,-0.002042959603986264,-0.0012526857140969282,-0.0003687427394210513,0.0004902215662955467,0.0012367969290654872,0.0018282725752061051,0.002260144515530504,0.002544397545188578,0.0026840960530287433,0.0026605519398628513,0.0024457534526005228,0.0020367167106406328,0.0014880265528036966,0.0009116068839171588,0.0004298989398629732,0.00010245850873562225,-0.00012678133060504168,-0.00041646452488329076,-0.0009402299077793041,-0.0017665288074383315,-0.0027783842194127268,-0.0036907779518911814,-0.004167586643150087,-0.003978290602783579,-0.00310882880995717,-0.0017684090515097928,-0.0002947252918726087,0.0009869265216220745,0.001879489368780036,0.002356482729421831,0.0025237939375913946,0.002532100139207945,0.002490648957662719,0.002426074058899854,0.002299813422839149,0.0020621824157461164,0.0017023499465115557,0.0012615970378202248,0.0008043839852911293,0.0003699061227808437,-6.038637220300556e-05,-0.0005535725059085588,-0.001175576136791466,-0.0019301396538488806,-0.0027258592376673495,-0.0033952002630923536,-0.0037576745938736346,-0.003692773276848243,-0.0031844906621671023,-0.0023192514880641217,-0.0012469979056826796,-0.00013165361510520068,0.0008860734780709685,0.0017061838310658227,0.002273477731881808,0.0025773992412078898,0.0026503827938745656,0.0025600063153834464,0.0023892902447792985,0.002206681739580191,0.002037767418920277,0.0018560594817189232,0.0016033396240708415,0.0012318188122683307,0.0007421778608053169,0.00018920943840568098,-0.0003529988672370688,-0.0008432420721865047,-0.0013016573829151227,-0.0017863840108098775,-0.0023288222076577217,-0.0028736538402010887,-0.0032729125280538405,-0.003348051909582822,-0.0029856347644188607,-0.002207533454151533,-0.0011728849794492096,-0.0001122945449030194,0.000766477725764901,0.0013513076990932414,0.0016455517001330866,0.0017353812028432615,0.0017304607511161529,0.0017113266264976888,0.0017062782572716594,0.0017002594383007399,0.0016603303168578184,0.0015572042346628718,0.0013715409958689603,0.0010887614733040083,0.0006952930024520616,0.0001861280003126087,-0.0004184057090403084,-0.00105965872349557,-0.0016448608640629598,-0.002070893357002266,-0.0022564693468411427,-0.0021666436742201543,-0.0018204371911260029,-0.001283284356296735,-0.0006507897080085699,-2.7389444381188373e-05,0.0004990615938679837,0.0008815502369237209,0.00112507814608718,0.0012742416140972893,0.001380028161897456,0.0014643151955341274,0.0015043146566495144,0.0014465019300979394,0.001240194342536103,0.0008695407016095195,0.0003661125475391327,-0.0002021154006437396,-0.0007561450690652461,-0.001230845031345067,-0.0015878912161044207,-0.0018136666996928672,-0.0019071517014132887,-0.0018670810417179213,-0.0016867677883721506,-0.001359946738711091,-0.0008943424556030875,-0.00032460583407974874,0.0002845187221337477,0.0008494828250530716,0.0012905057749668038,0.0015553768135953235,0.001633244499754254,0.0015529866122363854,0.0013695054683248707,0.0011461878821804555,0.0009397158161828551,0.0007881426429701806,0.0007010307345497245,0.0006534256833105663,0.0005890129552693552,0.0004363123492504661,0.00013504480604553047,-0.0003367270045921471,-0.0009455596778396499,-0.001602844386126829,-0.0021832565855267904,-0.00255631885783026,-0.002621708825683521,-0.00233782352554169,-0.0017352471223677577,-0.000911083331346074,-5.370521475470428e-06,0.0008339169886367097,0.0014868605362451937,0.001887626420242117,0.002033220673499732,0.0019737075242142075,0.0017883160525380974,0.001555692671460513,0.0013282054346064795,0.0011191249992931955,0.0009071464954398759,0.000655865972430005,0.0003389227445812059,-4.2090624348797324e-05,-0.0004569350003885853,-0.0008631507692916302,-0.0012275985105279462,-0.0015371613640884386,-0.0017916271636039783,-0.0019865322157834237,-0.0021010564972070754,-0.0021001762740924285,-0.0019481700460522102,-0.0016236614533143923,-0.0011291357054384983,-0.0004947343331986585,0.000221228629371933,0.0009359848634545654,0.0015546698658942732,0.0019931687712635092,0.002205544269049726,0.002203389301604338,0.002054263305894104,0.0018544429970969657,0.0016848950047426239,0.00157151471968845,0.0014723108978381308,0.0013014132172694233,0.0009786559034348553,0.0004772913566598163,-0.00015760727535254213,-0.0008301970261708931,-0.0014404498468002583,-0.00192704438170855,-0.0022809006927381704,-0.0025238171634861355,-0.002669798578080824,-0.002697167488159901,-0.002551068910637232,-0.0021756696470781505,-0.0015569732242012432,-0.0007505767083825078,0.00012407909144908998,0.0009238803116081354,0.0015373785514205991,0.0019247605316863319,0.002119182515153907,0.002190040925992057,0.002193330578725837,0.0021414215026007,0.002009081118471367,0.0017661799025157536,0.0014095049624710874,0.0009689908331074559,0.0004849509937327848,-2.300869594924751e-05,-0.0005660158287425517,-0.0011604126518885392,-0.001781741865731575,-0.002335516664762373,-0.002676998745510656,-0.0026787434350229546,-0.0023056625889341384,-0.0016448576935097366,-0.0008659179318137752,-0.00013731205413272684,0.0004442808363973637,0.0008683418664523832,0.0011709816074522846,0.0013826510145648022,0.0015056481127337807,0.0015315548489518408,0.001472938606757702,0.0013739545163649711,0.0012861855811061654,0.0012285545584295224,0.0011653493658290814,0.0010221283549577444,0.000728843593067105,0.00025931836877852505,-0.00035782457033607933,-0.0010569808139799107,-0.0017611950301295197,-0.0023941325748081934,-0.0028751180259854437,-0.003113478288367807,-0.0030217997225383546,-0.0025516860988520932,-0.0017331211192916642,-0.0006882204302370173,0.0003980021802075229,0.001340023505582693,0.002014538064226319,0.0023896377756345223,0.002508724954525512,0.002446422631187924,0.0022685153346519446,0.0020188809229408113,0.0017318231461279996,0.0014477139841317902,0.0012090338118650344,0.0010326717381919826,0.0008778518965962899,0.0006395355917184786,0.00018611815745209312,-0.0005670862326546378,-0.0015848701725717743,-0.0026857367523655156,-0.003589634969234352,-0.0040273915585808135,-0.003860524459136974,-0.003147400476220836,-0.002116261873046749,-0.001056351513302378,-0.0001861499303631281,0.00042836889018780936,0.0008641429588387868,0.001256108309156931,0.001696656861269447,0.0021800966115309716,0.0026149188030099653,0.0028816863362402124,0.0028939854374655056,0.0026317244021869645,0.0021421549381717706,0.0015206905189671341,0.0008826874802748147,0.00032948634297085585,-8.809119718902107e-05,-0.00039580499550084943,-0.0006915211834405616,-0.0010991872620973512,-0.001694840150825647,-0.002441854160652224,-0.0031760889207574257,-0.0036586237247094424,-0.003676575788777915,-0.0031435701776839067,-0.0021484652577836395,-0.0009260229599876193,0.00023750104518262716,0.0011184393414487121,0.0016350877705164847,0.0018564976798351829,0.001941017818144819,0.0020403081776356746,0.002220501867278122,0.002439713817114892,0.002587198309777732,0.0025545090278237,0.0022942749093060673,0.0018354641770275556,0.0012544042340167489,0.0006271736269419392,-4.812835968327528e-06,-0.0006385713639237006,-0.0012868710570485115,-0.0019471572101925705,-0.0025803150966560357,-0.0031087491308874433,-0.0034334902980421543,-0.0034635539369997116,-0.003147522012743426,-0.002496531895041671,-0.0015899362814120464,-0.0005601034639620011,0.00044022130648684716,0.0012780552838381103,0.0018738236894116577,0.0022153003956068835,0.002346162361933064,0.0023356536294895803,0.0022453649844540844,0.0021088278182858893,0.0019297589611526659,0.001693376586838621,0.0013804176892405883,0.0009767665618654118,0.0004781483942627383,-0.00010651815200146784,-0.0007502319628780994,-0.0014027265044742956,-0.001990037132002037,-0.0024240488215597255,-0.0026230382366943293,-0.0025375968051506697,-0.002171036031284433,-0.0015832541102961902,-0.0008736033797367722,-0.00014900626254957364,0.0005074927872113899,0.001051642670681724,0.0014699042719822403,0.0017574693270000967,0.0019019867175611447,0.001888188188338327,0.0017203593806200824,0.0014414651764270276,0.001125782798258064,0.0008401919979145024,0.0005957251768643163,0.00032594120988375637,-8.153694582755817e-05,-0.0007071204527550875,-0.0015182239618414973,-0.0023413001726993793,-0.0029176793399720087,-0.0030220078513011695,-0.0025782141941840886,-0.0017046420146436911,-0.0006613884462115356,0.00026948625672387685,0.0009046310111187661,0.0012202778552586084,0.0013296416656369751,0.0013967951560845547,0.0015359085394946778,0.0017487240812349512,0.0019316859889549533,0.001946142036297299,0.0017089440687229362,0.001247985013346389,0.0006880322643361282,0.00017586309042483413,-0.00020707372906718336,-0.0004876196982938881,-0.0007714089594530928,-0.001160411037205111,-0.0016713533405681086,-0.0022070733544731895,-0.002597497120528572,-0.0026832282756840175,-0.002391628663555228,-0.0017652988092546787,-0.0009351809041438688,-6.151500121914891e-05,0.0007226294335488586,0.001340775486388765,0.0017716136889908934,0.0020292015980467866,0.0021409381078719694,0.002133084503134068,0.0020255988170576095,0.0018338494427868092,0.0015734526953397798,0.0012633587521929178,0.0009221525184984895,0.0005565471441552575,0.0001493420622226662,-0.0003393811407692633,-0.0009476425342763507,-0.0016690793446815467,-0.0024168841631119703,-0.0030246435114210063,-0.0032985303489478923,-0.003103420358884593,-0.0024384790585072385,-0.001456427388759582,-0.00040927342161792106,0.00045536384644358376,0.0009953364835973279,0.0012222693942723596,0.0012751359264825493,0.001334651729158386,0.0015220430209827737,0.0018326398373995514,0.0021382164833256808,0.002258380357723434,0.002064625655717574,0.0015596330378414808,0.0008839614818869433,0.00024208388125294207,-0.0002109351856140534,-0.00045326335300754765,-0.0005969703287194293,-0.0008033790926175333,-0.0011664512694502932,-0.0016399058698269207,-0.0020563234485096275,-0.0022259357779932988,-0.002049890761991112,-0.001574703986837715,-0.0009569086449216289,-0.00036815862702370265,9.288791682737123e-05,0.0004277115532170463,0.0006972143848015218,0.0009525942339272653,0.001190879397045418,0.001363222222681911,0.0014221638856987285,0.0013665271337828498,0.00124729700436105,0.0011288649588611812,0.0010341886845013726,0.0009156794517071562,0.0006767012614699702,0.00023354534722223622,-0.00042031177638398334,-0.0011878699317631612,-0.0018969948009181917,-0.002368679960823252,-0.0024894914552216893,-0.00225220386008638,-0.001747011580492556,-0.0011121897174132729,-0.0004731933396695155,9.814154829188666e-05,0.0005878759435037305,0.0010138198486224193,0.001390573659186661,0.001707662505259778,0.0019302730909237747,0.0020172347050886968,0.001943085523050974,0.0017126681342480984,0.0013631997005182416,0.0009543704344974753,0.0005496799203395577,0.00019395349544644436,-0.00010520069738315552,-0.00038217855651304176,-0.0006975767233162773,-0.0011043601121316828,-0.0016099935187084398,-0.0021543959588458065,-0.0026184303324119497,-0.0028627339631968505,-0.0027803776222616646,-0.002339282994592755,-0.0015960438517929358,-0.0006775420928517023,0.0002587251896659106,0.0010680458955075723,0.0016510888345664786,0.00196970214667943,0.0020472152905484627,0.001956417692326888,0.0017966521639896991,0.0016618412329303517,0.0016067564581244084,0.001625243375334548,0.0016533977206960326,0.0015995559968467283,0.0013875544288838586,0.000991082650988933,0.000441768944771407,-0.00019107103274623299,-0.0008350197413105922,-0.001442026632919165,-0.0019924970765925537,-0.0024750648228845044,-0.0028583275461610555,-0.003078552812311125,-0.003057986895281098,-0.0027461805584685973,-0.0021576929494907335,-0.0013793259256447807,-0.000539925983342534,0.0002393905137682588,0.0008856289191814446,0.001385032915871346,0.0017648941706342755,0.0020617366486438944,0.0022948243417871606,0.002456383154102154,0.0025186380572686127,0.002449851575396029,0.002230386685580955,0.001863380553414035,0.0013778272678665897,0.0008224053598664109,0.0002495176767945523,-0.0003052870112788253,-0.0008357846051946574,-0.001356482044156189,-0.0018727927885917942,-0.002348532862746786,-0.0026974663788434886,-0.0028124906567733813,-0.002618750895310251,-0.002117078034208317,-0.001389570129482915,-0.0005666324435954864,0.00021924060004404721,0.0008652641283764812,0.0013078663169211668,0.0015218407683907505,0.0015222641974786605,0.00136782812341556,0.0011524117188826274,0.0009758461375739754,0.0009016054725557879,0.0009240597564469285,0.0009680058799464674,0.0009262595949206984,0.0007172204402429887,0.0003297791577036193,-0.00017108395477925765,-0.0006808281134195554,-0.0011103033093755334,-0.0014236450387942708,-0.0016351872655044329,-0.0017700730697574436,-0.0018199042873640746,-0.0017294370521469264,-0.0014278057394075234,-0.0008841626314860948,-0.00014851455935671414,0.0006519859866150001,0.0013611471272286114,0.0018581154211020317,0.0021019965401505303,0.002134566971197671,0.0020427187470792945,0.0019024856920489231,0.0017353071866427323,0.0015013588598547175,0.001134672728623375,0.0005984142434429802,-7.702304004208538e-05,-0.000800515275055733,-0.0014664487239545128,-0.00200564356122554,-0.002403489109807271,-0.002675536927370646,-0.002824571325810648,-0.002815264164281411,-0.002586034013332349,-0.002089301905175709,-0.0013331881196754368,-0.0003993442398437055,0.0005730713685319751,0.0014300947317205854,0.0020539332590323064,0.002400818274757479,0.0025092916258887734,0.002473976079187451,0.002394729240803339,0.002324083742030526,0.0022402360310066517,0.0020627934296006427,0.001705338919282317,0.0011349487505137243,0.00040130115437765667,-0.0003846542091950752,-0.0011095065563638843,-0.0017141374341524823,-0.002208621896726968,-0.002634232212466236,-0.00300055812681313,-0.0032466192457391856,-0.003260093691993642,-0.0029467946199744715,-0.0023032409769810952,-0.0014386307830854855,-0.000525894252703678,0.0002878300167546454,0.0009502150493010811,0.0015047484808666228,0.002025639158262551,0.002537035384723581,0.0029772813690167746,0.0032333836683159163,0.003217732216506285,0.0029294790336791936,0.002457386899296392,0.001924825782407469,0.0014162990903142532,0.0009328289160516453,0.00040092168207908147,-0.0002736417715459873,-0.0011390786073923426,-0.002152545210443692,-0.003176592722634087,-0.004015751550911478,-0.004475886016324694,-0.004424073181225672,-0.003830950397598868,-0.0027849083680335164,-0.0014743131948080207,-0.00014042571835992364,0.0009882648601646335,0.0017607631244501163,0.0021433985826598465,0.002216994162041626,0.002131113984236817,0.002035743988017442,0.002021739074806226,0.0020952667153097074,0.0021921307480849486,0.0022174409479286967,0.0020866203769218713,0.0017496431358125474,0.0011959954545092786,0.00045097525707669375,-0.00042541439336360025,-0.0013369031124497266,-0.002157920645962851,-0.0027590875915436746,-0.0030466187249607755,-0.002995765904487296,-0.002657170645444797,-0.0021303140850356304,-0.0015186275450136421,-0.0008914990559044545,-0.0002729084479253382,0.00034061434599599167,0.0009474956608607494,0.001516274461524997,0.0019840539113393793,0.0022785126145178,0.002349764701602323,0.002193854700612807,0.001855717894718867,0.0014109103725595236,0.0009354184512418392,0.0004771249037299395,4.105537352215674e-05,-0.0004043459124807811,-0.0008997213035537583,-0.0014552810757532371,-0.002017984974077491,-0.002467051359804035,-0.002649083481529977,-0.0024426124602687093,-0.0018221019315916515,-0.0008878034581079791,0.00015636104610521677,0.001069696338115666,0.0016591143468337054,0.0018463757363465308,0.0016898395170272997,0.0013503821135193153,0.001016042873405875,0.0008205831023036794,0.0007942479866657076,0.0008667873244576617,0.0009144960778722171,0.0008226451122660175,0.0005327752803337279,5.809116586465556e-05,-0.000531327318978184,-0.00113887899409862,-0.0016703268323089739,-0.002050938480612604,-0.0022304396100879917,-0.0021816159420117473,-0.00189885703694456,-0.00139992435993648,-0.0007305552304701277,3.204717932300642e-05,0.0007836510622992541,0.0014116204506661387,0.0018270059006530994,0.0019978285332121638,0.0019637536412578037,0.001817812143840292,0.0016590863480652263,0.0015398919326602904,0.0014376156472250626,0.0012687543910842093,0.0009377897067785121,0.0003926104359261171,-0.00034416223036171914,-0.001180986256088395,-0.0019896192161905682,-0.002641066892524068,-0.0030293735917184834,-0.003083627047307233,-0.00277831908165746,-0.00214739614516107,-0.0012938793997717896,-0.0003785816468733919,0.0004218257416339846,0.0009771603811727994,0.0012565803173936352,0.0013392790697082228,0.001370852267966576,0.001485328962300891,0.0017345424729968938,0.002062299512110809,0.0023339990520025527,0.0024017031077767834,0.0021696037543417995,0.0016314471439306264,0.0008702335813612796,2.6942127627530466e-05,-0.0007475746075794271,-0.0013417924865658888,-0.0017176564459797357,-0.001915486268158162,-0.0020245210875069228,-0.002129961208744343,-0.002261894847764458,-0.0023736577299305677,-0.0023630011934654407,-0.0021260652336597807,-0.0016153580369826525,-0.0008703075670254904,-4.531561077688123e-06,0.0008412991228297993,0.0015531813110972845,0.0020745886828273537,0.0024011841837767774,0.002549906793530179,0.002528593735080433,0.002329866354359192,0.0019539939637821823,0.001442211297435232,0.0008904010538235001,0.0004229135142342691,0.00013364346580375312,2.856489062330142e-05,9.821936875716464e-06,-8.124041703095252e-05,-0.0003815784432950019,-0.0009290799990414952,-0.0016321809959008997,-0.00230232535057398,-0.002733246834940832,-0.002788994869146247,-0.002458441312316894,-0.001849804964548266,-0.001129874310105952,-0.0004439322392515995,0.0001370747328941831,0.0006157735859670871,0.0010248816771892245,0.001378076955829949,0.0016495252970618235,0.00179094199077208,0.0017686316086275144,0.0015930110329786863,0.0013219395388190597,0.0010368600145707339,0.0008053755265380646,0.0006492734789034593,0.0005335171774548135,0.00038234602538089686,0.00011654288825115971,-0.00030453327227368803,-0.0008559127357247023,-0.0014480632705823901,-0.0019554067450438077,-0.002258587885110213,-0.00228147633247896,-0.0020087519922865693,-0.0014814105922065952,-0.0007784780883088058,2.907861188627454e-06,0.0007618651282559123,0.001404207045243584,0.0018546387782778775,0.0020716577061588143,0.0020580799262837216,0.0018582708484006037,0.0015403430844872072,0.001171341867169084,0.0007975271596562352,0.00043788477099014384,9.069206090960469e-05,-0.00025403105680880185,-0.0006048488098202022,-0.0009657828768515174,-0.0013359278565709615,-0.0017046231947282523,-0.002040176079002375,-0.0022804052064132095,-0.002338910803338031,-0.0021343937449825666,-0.0016338592976786802,-0.0008859078010001232,-1.9931450182229083e-05,0.0007960453101035014,0.0014213158261767603,0.0017977690577651536,0.0019630201051948513,0.0020129593763114637,0.0020354439152250213,0.0020548757462871955,0.002020667057116822,0.0018451981699934344,0.0014669141821250682,0.000899979933132633,0.00024027629514536297,-0.0003774644003795376,-0.0008482718393286717,-0.0011514229362924648,-0.0013563176607937176,-0.0015725835038366048,-0.0018719481478815141,-0.002229235583318992,-0.0025202969683633595,-0.0025809439764940844,-0.002294493745177574,-0.0016588094183950892,-0.0007958706121765394,0.00010038812377916929,0.000848644037643742,0.0013524299465463548,0.0016253268582009468,0.0017615911989292909,0.0018722884024656348,0.002021046977394719,0.0021901977127107585,0.0022919717594769642,0.002218094045206123,0.0019022157854655646,0.001361497568892157,0.0006927833473905648,2.3514383019241465e-05,-0.0005548921845547804,-0.0010303678197374627,-0.0014611033588584942,-0.0019168839499183734,-0.0024072814446908755,-0.0028456994153924194,-0.003078142338343306,-0.002963349866092156,-0.0024554145535659925,-0.0016374545739231052,-0.000687288700759899,0.00020113665788294916,0.0008939208181105781,0.0013533985725854053,0.0016254717250980192,0.0017951846801575063,0.001937045708566544,0.002080877990699911,0.002202838064001367,0.0022416534724663756,0.0021324223946764405,0.001843124045108962,0.001395311990474827,0.0008560783105478611,0.00030397162172371314,-0.0002114899378561306,-0.0006911653214881791,-0.0011738090149324748,-0.0016961171866308026,-0.0022488279780068605,-0.0027551094887821458,-0.003085516985069062,-0.003105094119904085,-0.002732179134829833,-0.0019820159956281448,-0.0009741540744573453,0.00010153888277761574,0.0010469149211169235,0.001719856188808373,0.002074184323642262,0.002159264362463577,0.0020815176943248742,0.0019479506073421472,0.0018200331904019607,0.0016986242011561648,0.0015410809497457662,0.00129392498555795,0.0009207899470047491,0.00041567209367424085,-0.00019576390105583818,-0.0008597675606216968,-0.0015004188552291866,-0.0020303776483445537,-0.0023681127886784866,-0.0024582357238574805,-0.0022879474575092087,-0.001892683403512674,-0.00134676489130767,-0.0007398285203274488,-0.00014694872392707832,0.0003935164428252086,0.0008811776678554023,0.0013314801491616363,0.0017431057772506467,0.002077008529343634,0.0022639613148878177,0.0022397145755221354,0.001987507214074349,0.0015595184798625054,0.001058598337974631,0.0005853288133316598,0.00017967625114930435,-0.00020457499296073212,-0.0006692038001004101,-0.0012946750473515171,-0.0020603749797597362,-0.002815687340657425,-0.003330366324163592,-0.003403186697331533,-0.002966759594398627,-0.0021248099094186286,-0.0010996660014683194,-0.0001232765666810183,0.0006635144517423919,0.0012492710759830176,0.0017144190496368955,0.0021480523360657396,0.002572064520802683,0.002917306783261466,0.003062946951870839,0.002911138310859518,0.002448802203445952,0.0017596370942660356,0.0009831715212882835,0.00024937627117878173,-0.0003728742169121239,-0.0008888734306816387,-0.0013517946145464718,-0.0018152285095042076,-0.0022899715941718623,-0.0027256329790741915,-0.003024332992593419,-0.0030786246764229618,-0.0028160974079586903,-0.0022322581799447613,-0.0013990119759947277,-0.0004449144859791697,0.0004858174929948185,0.0012778072598738555,0.0018709243367540512,0.0022567280272538987,0.0024529250384903007,0.002478568391157546,0.002348594968640504,0.002086057520767689,0.0017328014999678086,0.001341188629989626,0.0009488002614558151,0.0005562368523368661,0.00012834992023793058,-0.00037808665229662516,-0.0009766079931962895,-0.0016257924930694735,-0.0022301613976732177,-0.002666205972023181,-0.0028221243140992185,-0.0026368791107593877,-0.002125886745527812,-0.0013839112641191255,-0.0005606371465773374,0.00018697144096003763,0.0007496026551673745,0.0011031822650396854,0.0013076451447097603,0.0014636973426514761,0.001649309027671871,0.001872245326818685,0.0020664960123505656,0.0021331352222655952,0.0019988224078198026,0.0016559414664511112,0.0011615495780118272,0.0005983944313353491,2.4871461628896878e-05,-0.0005517773083219071,-0.0011591114856676122,-0.00180914126519532,-0.002448722330928209,-0.002949098920365615,-0.0031497219397744964,-0.0029355901069229666,-0.002303466250049711,-0.0013769493443967502,-0.000360111660603103,0.0005451728735716932,0.0012133889592178147,0.0016231912833287547,0.0018299275662319763,0.0019069860703086795,0.0018965576609599624,0.001799686120149122,0.0016049388905889556,0.001326191168292747,0.0010140725543080094,0.0007275821955425217,0.00048609826038126746,0.00024166838276242397,-9.880991922281348e-05,-0.0006063423983740996,-0.0012578877714474997,-0.0019113948883939472,-0.002355158161050855,-0.00241105210902832,-0.00203175373472287,-0.00133086297143384,-0.0005257143442271221,0.0001719237012918792,0.000650718821038874,0.0009268829019732427,0.0010963241045326923,0.0012507295480153095,0.0014133024939389299,0.001530994337842608,0.001521670502048821,0.0013412590155623208,0.0010253755614023385,0.0006761412212009841,0.0003985176928426417,0.00022372562931835083,7.126617225347803e-05,-0.00021573477627891905,-0.0007703087976273518,-0.0015913855190370363,-0.0024958544999084346,-0.003175344018221759,-0.00333656139875914,-0.0028486858763368283,-0.0018135340402777012,-0.0005200292865800796,0.0006876075086372465,0.0015528264436966738,0.001988206094613005,0.0020664044825392603,0.001944809829275557,0.0017771218222039148,0.0016566296061875042,0.0016040223719595132,0.0015846582414644132,0.0015340680787490047,0.0013818385708038404,0.0010751932793148676,0.0006024286982967693,6.954520929868457e-06,-0.0006211033845156121,-0.0011787056430509165,-0.0015941970860080558,-0.0018562336620888027,-0.0020077013857753064,-0.0021059776388233633,-0.00217350362649922,-0.0021716401357995273,-0.002018379336219101,-0.0016424331773217933,-0.0010401595785153222,-0.00029654419300693166,0.0004469852050169561,0.0010600084631176743,0.0014835455853796327,0.0017452105287365971,0.0019208607967213251,0.0020699234059026656,0.0021883750079497964,0.0022106026018625597,0.002058001934009115,0.0017006904397097993,0.0011900360482731648,0.0006390427158252561,0.00016148699669997816,-0.00019299934362642193,-0.00046763825692905543,-0.000771510006197804,-0.00120924518563992,-0.0018051058382084714,-0.002464262527011567,-0.002995877806628202,-0.003190432027893955,-0.0029148048404650764,-0.0021784858286717414,-0.0011381245197451637,-3.805944124404218e-05,0.0008842924206623871,0.0014834565204193905,0.0017439393574483946,0.0017590997561986255,0.0016671956763172073,0.0015787304266254233,0.0015299349672730973,0.0014825589576136539,0.0013666024572065363,0.001139795651986142,0.0008269520304360425,0.000512147998253336,0.0002849106599323761,0.00017293349231653948,0.00010740091413992013,-4.9161020926089026e-05,-0.00042109310553238057,-0.001029556439707769,-0.001750752406112391,-0.0023543651129280417,-0.0026075590091149186,-0.002389279281983165,-0.001750763729641344,-0.0008880444667423591,-4.338850605826739e-05,0.0006065818690888529,0.0010133451768224494,0.0012400241214101783,0.001386311746973812,0.0015093955630254435,0.001592344268127595,0.0015738718715181772,0.0014088363632459475,0.001109834935638655,0.0007396963988866674,0.0003656181730299072,1.5305254546797882e-05,-0.00032878971423797216,-0.0006941886850376168,-0.0010735617871274294,-0.0014095917802065356,-0.0016238875760044699,-0.00166745388779483,-0.0015518903471485096,-0.001335933521796998,-0.0010783308984231334,-0.0007951911376228311,-0.0004559548626763742,-2.1082830635799034e-05,0.00050810855818282,0.0010660855832893544,0.0015446854817565072,0.0018453786358227572,0.0019270342633785301,0.0018189293743335303,0.00159389550783181,0.001322493498894218,0.0010380874553282179,0.0007312868439746773,0.0003716088484905273,-6.104649229819343e-05,-0.0005548840346717125,-0.001065343225413195,-0.0015318635268121124,-0.0018994710156257913,-0.002132195373109937,-0.002213605224221421,-0.0021391248061801886,-0.001908497302430947,-0.0015241042898151962,-0.0009956881566230461,-0.00034800608404861875,0.00037337600159725035,0.0011016934556933831,0.0017553446756945743,0.002251048621289397,0.0025229167094572135,0.0025434424665272464,0.0023371128317919323,0.0019753570353538063,0.0015490227611514086,0.0011294644849527908,0.0007399101520503571,0.0003541975258772102,-7.763295429780176e-05,-0.0005938533566549513,-0.0011953198710012013,-0.0018384819779627428,-0.0024435119953716755,-0.0029098987048882755,-0.0031364018612959686,-0.003046500457717652,-0.0026169129203685746,-0.0018978479383674996,-0.0010095184993659655,-0.00010774243766441797,0.0006706750508231645,0.0012565738620362388,0.001663978942995664,0.001962195045128973,0.0022192217873622947,0.0024491204732539802,0.0025951754972273625,0.002560793549037577,0.0022714824364169547,0.0017305401287944855,0.0010325524766764196,0.00032385486444597286,-0.0002677229341010836,-0.000692492174416113,-0.0009936229898828627,-0.001269502964053175,-0.0016056620155549392,-0.002013970394535158,-0.0024118172155019016,-0.0026519682915207934,-0.0025873211846876155,-0.0021383834402629327,-0.0013327994328768118,-0.0003022228880611457,0.0007585926508102043,0.0016521707083669407,0.002235590557457349,0.002455187735186534,0.002347849534442676,0.002011391282987991,0.0015603130321581136,0.0010889700925412165,0.0006559084031084537,0.00028614889677206173,-2.2805103989119056e-05,-0.00030033425813215235,-0.0006009721315764241,-0.0009862588366905773,-0.0014847547974818091,-0.002047850962116819,-0.0025352080543940268,-0.0027547984579488274,-0.0025491294843869357,-0.001883566579696531,-0.0008828125424218064,0.00021174505623126395,0.0011443157293389002,0.0017512947402598036,0.0020149923769492563,0.0020396944705008396,0.0019709091049068483,0.0019094378838726785,0.001869460643658059,0.0017971805245135472,0.0016267218602376374,0.0013300642049933736,0.0009292837814967991,0.00047043837025993805,-1.4796863924275297e-05,-0.0005282905946747746,-0.0010903534493176732,-0.0017004429647297322,-0.0023014892733195505,-0.0027755907637234695,-0.002980825196911129,-0.0028133407998953055,-0.002261612065509973,-0.0014224340495692929,-0.0004694689700709691,0.0004092394465249797,0.00107441990555109,0.001472726940945599,0.001636651228592386,0.0016529029204272688,0.0016164457502575431,0.0015906814550261331,0.0015891734487202527,0.0015826871012272576,0.001522620495863239,0.0013652418215965513,0.001084367910354332,0.000670542556994656,0.00012515929587515593,-0.000538773619485513,-0.0012842549836605127,-0.0020342779667358204,-0.0026696358949127074,-0.0030541884493911105,-0.0030832419147870027,-0.00273052496708811,-0.0020640099091544795,-0.0012179076412579507,-0.0003367254766808781,0.00047449313805552154,0.0011664785367951976,0.0017275996256000898,0.0021542083656946836,0.0024351535766711165,0.0025581862676415297,0.00252513798709991,0.0023571868405115387,0.002083927026650839,0.0017269256771118222,0.0012938386892088895,0.0007886437065648719,0.00022779926135666287,-0.00035370672677885917,-0.0009129869929497378,-0.001417296407750304,-0.0018526805001976693,-0.0022143903665566996,-0.0024872252298290794,-0.002634983075737791,-0.0026121295533952787,-0.002391234495781865,-0.0019839374954732877,-0.0014369772116619908,-0.0008062552350716507,-0.00013178239972533822,0.0005639202334567228,0.001252290647144879,0.0018719554173636734,0.0023265516325957367,0.0025179575321735335,0.002398921208340702,0.0020121648085225305,0.0014873425849044604,0.000989928532375157,0.0006443773961536513,0.00047198994130120796,0.00038017096505246095,0.00021372898187569387,-0.00015588764281774292,-0.0007503947173002168,-0.0014574647358429182,-0.0020729721559453783,-0.0023922402627010193,-0.0023034292909142554,-0.001835158086931762,-0.0011359359328071887,-0.00040014331435048845,0.00021787424896836682,0.0006577683451022475,0.0009520865231567258,0.001177503895408927,0.0013903634646949864,0.0015852014558705538,0.0016997922932279702,0.0016607654576929972,0.0014376352065942329,0.0010678562696364976,0.0006356950073140343,0.00021956997353309601,-0.000156058127661283,-0.0005311673352320595,-0.0009741128704669573,-0.0015193865944587038,-0.0021167187442242713,-0.0026250241024373968,-0.002861722567289595,-0.0026873634840864657,-0.0020827413315971117,-0.001174364401339736,-0.00018851260183411689,0.0006466303406756102,0.0011999654471783762,0.0014839192033735595,0.0016235943631920193,0.0017678620843936707,0.0019945059321289115,0.0022637473935884843,0.002444796024927516,0.002396542679651251,0.002052575772110249,0.0014606149819161782,0.000756048063773546,8.917505411765378e-05,-0.000448766020796422,-0.0008589992664477184,-0.0012135012689359983,-0.0015957073719730587,-0.002038868648778143,-0.0024939568454569253,-0.002841228060598753,-0.002938692053154588,-0.0026854224064546415,-0.0020722260882257005,-0.0011974469553262808,-0.00023912034805841808,0.0006080206862377727,0.001205940489021551,0.0015237289948651827,0.0016384274623411758,0.0016833871988462628,0.0017707927365576996,0.0019309033805050633,0.0021009095770838835,0.002166726124568293,0.002030588519061671,0.0016646672346977602,0.0011224493455844477,0.0005063886651557217,-8.507071892952921e-05,-0.0005994648610731607,-0.0010397540629519134,-0.0014404091349755584,-0.001828179143832339,-0.002192360865840051,-0.002480773221689714,-0.0026199790437473813,-0.002544525821003207,-0.0022194163648036665,-0.0016498477587578559,-0.0008813381580446574,5.343913659589059e-06,0.0009036030442050053,0.0016959078879796058,0.0022738389346590865,0.0025608001416869922,0.0025332733851275244,0.0022339992790430937,0.0017676148284595668,0.0012711788219955575,0.0008631487367595991,0.0005908911408364379,0.0004064888164035913,0.00019213684772276805,-0.00017001847773719212,-0.0007185070061838828,-0.0013707780064781184,-0.0019489699453001505,-0.002264054380128731,-0.002212430493912927,-0.0018292354859568215,-0.0012675340171426465,-0.0007167772293336673,-0.0003090650010252725,-6.581241022699598e-05,9.035096320888212e-05,0.000273283890270498,0.0005615285834624562,0.0009568617864444398,0.0013898910858084804,0.0017605385609706498,0.0019836504918223277,0.0020127686199624567,0.0018351224170955719,0.0014533893976311503,0.0008776786712226474,0.00013871403405354738,-0.0006888963347766317,-0.0014778435144429546,-0.0020721998770532896,-0.002341190473214446,-0.002236964559541581,-0.0018226832137605024,-0.0012501558651527125,-0.0006937434076155829,-0.00027352804136939715,-9.276521679166564e-06,0.0001696982349244135,0.00036653245466103726,0.0006469777534822527,0.0009991465887211298,0.001342931672938113,0.0015773747613818713,0.0016339660573011238,0.0015061416861211839,0.0012437641843752274,0.0009208716666178787,0.0005949365801932024,0.00027631700103820326,-7.73666190180735e-05,-0.0005341349234763049,-0.0011333964129638789,-0.0018293220063228463,-0.0024695378615520983,-0.0028365988121507742,-0.0027437074775957873,-0.002135856128218964,-0.0011345013546942174,7.40484347520865e-06,0.0010190573328414164,0.0017295593716973323,0.002122132723754333,0.0022974587810936607,0.0023763717426648714,0.0024088073291643254,0.002347750258629035,0.002100166806430664,0.001613592268370241,0.0009334821669903631,0.0001887976375608859,-0.0004841410959148841,-0.0010244597372950997,-0.0014762553420703398,-0.0019428739464241766,-0.002496012147650982,-0.0030993033943198622,-0.003595934993746297,-0.003770417966287707,-0.0034521223036403305,-0.0026062845127329272,-0.0013657961731910542,1.284550719047109e-05,0.0012491986210648293,0.002146666412400088,0.0026559556739341383,0.002863918898939131,0.002918014706875974,0.002932906669242408,0.0029341003458068027,0.0028673073541328163,0.002658695871634563,0.0022798446421920778,0.0017725644493498524,0.0012200768770843301,0.0006891728915254748,0.00018629939982614405,-0.00034201227278539783,-0.0009658789269328948,-0.001715106075359177,-0.002543575416319813,-0.003333759803824181,-0.003935412414914926,-0.004215697695458916,-0.004097669432609228,-0.00357637103365426,-0.002715416043358905,-0.0016320591880114028,-0.00047531478968442236,0.0006023604028936277,0.0014770334199698766,0.002079617171682801,0.002405063993629567,0.0024999675829992774,0.002435598347658296,0.00228002455512454,0.002080638500969482,0.001861075156452521,0.0016298295451296805,0.0013934099613554741,0.0011642904928884834,0.0009555700733032018,0.0007629227709118154,0.0005469211053380069,0.0002351004549103891,-0.0002454155859143857,-0.0009151204124081399,-0.00169949839670841,-0.0024292307839198367,-0.00289473523461575,-0.0029331924586492937,-0.0025030960453981763,-0.0017057382168538034,-0.0007428804129502401,0.00016511949841533779,0.0008585389864596966,0.0012797709465760141,0.0014650692296078998,0.0014986301406163596,0.0014557435288896428,0.0013639775101098198,0.0012016589449652406,0.0009334305266023341,0.0005602177632531933,0.00014851762964629943,-0.0001867608129499823,-0.00034246691701326874,-0.0002962593664870192,-0.00014017107828300215,-5.226214300291731e-05,-0.00021426882826037293,-0.0007133549256013054,-0.0014770066172761736,-0.0022776722266697382,-0.0028130155717444195,-0.002830770561350595,-0.002241492703103954,-0.0011637230057852505,0.00012269132390013422,0.0012929982439468424,0.0021055238055572682,0.002478512193327668,0.0024837408386048964,0.0022731347203767786,0.0019900971262422303,0.0017165935371229097,0.001473001871385859,0.0012487700276510427,0.0010280586825619123,0.0007918726336309223,0.0005065022989250471,0.00012202653723334777,-0.0004049392529500549,-0.0010724918869128497,-0.0018038773124718574,-0.0024516080781779416,-0.002841881194126166,-0.0028421128195711813,-0.002419269951677991,-0.001659462547012968,-0.0007385128629019486,0.00014235422147736596,0.0008259648957970836,0.0012446070945829279,0.0014256248858660599,0.0014590625906861082,0.0014441788814498363,0.0014397216069648496,0.001440627983218973,0.001390681837553553,0.0012222177410474914,0.0009000638562047479,0.000445276688929921,-7.42064479336594e-05,-0.0005799953402571036,-0.0010243368988591965,-0.001408931208480185,-0.0017665067243795422,-0.002114228099391317,-0.00241001637132385,-0.0025462510944659904,-0.0023941767394868923,-0.0018787864840763074,-0.0010404473720930544,-4.217608774185512e-05,0.0008902487714959051,0.001569376854169395,0.0019344763253107454,0.002074221577761949,0.0021647379759527044,0.002354815063971899,0.0026659950348559246,0.002970065526910376,0.0030601485978933307,0.002772879127320089,0.002086628227899302,0.0011359614472390865,0.0001356807726096446,-0.0007355626521627661,-0.001418464923739505,-0.001973677875425488,-0.0025056627585717415,-0.0030643527905723548,-0.0035894479508031484,-0.003930009684919266,-0.003922558158389027,-0.0034777977195742716,-0.002627556344639887,-0.0015127098664236647,-0.00032716499990929416,0.0007484700138393064,0.0015936465485224282,0.0021628213813442545,0.0024736758289357072,0.002581743997894821,0.00255375616928077,0.0024474703158256254,0.0023008639482959507,0.002129058000900396,0.0019248054953786243,0.0016601038818810498,0.0012915437384245164,0.0007750092241312322,9.11460088285057e-05,-0.0007272557997140026,-0.0015828358012197573,-0.002329927377836453,-0.002818308353262039,-0.0029461250326262576,-0.0026966484350816567,-0.0021416476253439554,-0.0014118977551349882,-0.0006510606805507262,2.6260435955604254e-05,0.0005583433123746793,0.0009387934020697718,0.0012013530425660469,0.00139328908434182,0.0015458379521462126,0.0016538332485821932,0.0016766719519354914,0.0015634273348401652,0.0012888362819524928,0.0008761643964712205,0.0003890238034284581,-0.00010409334109061456,-0.0005669840412439348,-0.00100527450425914,-0.0014386331647679841,-0.0018553418946225303,-0.0021851862491912657,-0.002316099794218149,-0.0021495644385572618,-0.001661445610235925,-0.0009288498556186645,-0.00010385342714885816,0.0006519259837114758,0.001233480476143992,0.0016210646290186978,0.0018581732910659223,0.001998809036129722,0.0020624794670969166,0.002026727598440458,0.0018580713649804235,0.0015538604969695148,0.0011600009430335063,0.000748333502041865,0.00036895957242494217,1.3300415094328808e-05,-0.0003823464967769633,-0.0008907442623658441,-0.0015323234597651692,-0.0022367069372792947,-0.0028524140865041772,-0.003202176995783057,-0.003155912669726078,-0.00268518551739887,-0.0018750303775314588,-0.0008916223523483193,7.631197801070532e-05,0.0008764980955987174,0.0014308321583098346,0.0017423255849032325,