-8.893211172660607e-05,-0.0040160743419970085,-0.007070031144596714,-0.008660388624012319,-0.00865201555906421,-0.007371281103065598,-0.00545456821825023,-0.0036103157278196754,-0.0023865771502652663,-0.002016430857247297,-0.0023773797519178463,-0.0030683348988944006,-0.0035793226966496852,-0.003498393931161602,-0.0026762470981235315,-0.0012752852151834823,0.0003218222157174988,0.0016987949943126548,0.0025923706038833393,0.002985957516461907,0.003070618774490469,0.003105815234188177,0.0032627728309853454,0.0035367121265445587,0.003771266971448462,0.0037731671817796963,0.003443280202217479,0.002841829214953089,0.0021480324259532738,0.001542603953873239,0.0010913309244615574,0.0007058821149872763,0.00020649451484001068,-0.0005536112904112834,-0.001578103043158927,-0.0026956391279031873,-0.0036228195373215564,-0.004086903546786234,-0.0039451637811832654,-0.003244277626351733,-0.0021962536542779066,-0.0010878673151777356,-0.00016888515380017975,0.00043085333158145514,0.000723574299633805,0.0008235691480086207,0.0008720104095399075,0.0009668239038161429,0.0011300970380126304,0.0013212142899724257,0.0014776086522801561,0.0015530805589415975,0.0015325980629592837,0.0014236443831857838,0.0012402454577464044,0.000995058610248448,0.0007009154730203028,0.00037124529671759025,1.1279839636700768e-05,-0.00039367485305259265,-0.0008758175157805885,-0.001457787931953781,-0.0021123064870996926,-0.002738475616408964,-0.003180974851521564,-0.00329116685185262,-0.002998231103791435,-0.0023480018462463904,-0.0014855101162695229,-0.0005912125612151206,0.00019253537141032022,0.0008053101692168398,0.0012639690009494202,0.001620607734621196,0.001914775747176634,0.0021507505767722115,0.0023095563178216604,0.00237892607953411,0.0023725246109959465,0.0023217332440034215,0.0022483901872225242,0.0021432046586324274,0.001969109861687647,0.0016880178554459185,0.0012910433762984717,0.0008095026492076326,0.00029732614170231817,-0.00020461635675391408,-0.00069776742135943,-0.001225182256118291,-0.00183499032989335,-0.0025276557147170865,-0.0032227554171042495,-0.003772830857822588,-0.004021752229125323,-0.003874452605477782,-0.0033374375657781474,-0.002510239342923956,-0.0015398509079988035,-0.0005690948849371071,0.00029573256660376314,0.000993795056722009,0.001507466121673561,0.0018595136166082444,0.002106258334815855,0.0023150656103776875,0.0025250078825127097,0.0027114019954680643,0.0027852550372774046,0.0026410416926184914,0.002229911921314455,0.0016099652968651016,0.0009341092443469767,0.0003752366532184478,3.05078880109375e-05,-0.0001369318004997434,-0.00027973487661080566,-0.0005766542204880089,-0.001120280228723576,-0.0018479433892802425,-0.002558386056132381,-0.0030064259531758413,-0.003022275878171355,-0.0025900882573518655,-0.0018468053355506382,-0.0010083693587377863,-0.0002679455368764594,0.000279225380129754,0.0006496536512027335,0.0009259035891731083,0.0011853055417970133,0.0014473585954588553,0.0016682097826891372,0.0017793869420675153,0.0017410553711138307,0.0015736365388235544,0.001348252758181648,0.0011438489727277545,0.0009988431522125105,0.00088642541306075,0.0007269360168452638,0.000429324415204537,-6.106590323874325e-05,-0.0007320137497410194,-0.0015028791338592418,-0.002247555999518592,-0.0028280841232803614,-0.003126836282552447,-0.0030726173007068177,-0.0026597223073442098,-0.0019558954554670474,-0.001091627896792393,-0.00022725093742746727,0.0004945635388067964,0.0009932050074390663,0.001272129859245527,0.0014073179856357572,0.001505533364753026,0.0016506621540634068,0.0018640218249019167,0.0020986803663229155,0.0022696239862735686,0.0023013065365007942,0.0021648350256437254,0.0018850005021908397,0.0015171384907510543,0.0011124202956426217,0.0006956108760157614,0.000267756643477916,-0.00017451598644954106,-0.0006250583608888834,-0.0010749404355083802,-0.0015319735723247413,-0.00202661643476117,-0.002584846562587259,-0.0031791811689182237,-0.003696819853280491,-0.003961274744869851,-0.003808536929394253,-0.0031771084561423484,-0.0021559277941211857,-0.0009577740421121998,0.0001688742124315388,0.0010409976505387584,0.0016027616578203532,0.0019215036526498731,0.002128534399317622,0.0023412935152098205,0.002607044552376255,0.0028913840871451196,0.003108672339147551,0.0031706704665538108,0.0030251353172839612,0.0026686789302058766,0.0021373193124980053,0.0014896408282114477,0.0007946282694014824,0.000124361699273488,-0.00045711693979021834,-0.0009144186469908864,-0.0012629710566155724,-0.0015725852084388968,-0.0019358124722885935,-0.0024073942444394186,-0.0029487801717344875,-0.0034198223318128427,-0.0036353469183734747,-0.003460495681711621,-0.0028875890702726057,-0.002044545664919927,-0.0011282277960708515,-0.0003054470925287697,0.000355781008229525,0.0008861416513558287,0.0013568783479401113,0.0018115920384098854,0.002234510567656561,0.002567434328223523,0.0027511159976269066,0.002756267777694405,0.00258764913758191,0.0022706398846236396,0.0018394931976120346,0.00133521113296436,0.0008046566025366841,0.00028954255124842673,-0.00019321224532381802,-0.0006635611480245893,-0.0011656240806286087,-0.001728843637577157,-0.0023232138440779054,-0.0028395508849612654,-0.0031160661686166183,-0.003006402375895783,-0.0024570795418807907,-0.0015511123420379927,-0.0004884087376003854,0.0004926905036770922,0.00121326826143265,0.0016178899227140733,0.0017710283399473654,0.0017939321180451945,0.0017861244140696857,0.0017804922668993466,0.0017523497290569132,0.0016638892503829366,0.00150474407396515,0.001299222783658286,0.001079909037569895,0.0008521961637777062,0.0005780343603908539,0.0001909678046003209,-0.00036652556619749094,-0.0011039204727457267,-0.0019606821035491728,-0.0028110103535605112,-0.0034941549199081286,-0.0038602137519891107,-0.0038153553738520655,-0.0033496461725612495,-0.0025373853954402045,-0.0015121431757214331,-0.0004291422523185098,0.0005707180885175213,0.0013869282621628456,0.00197326992297337,0.0023386433648392656,0.002533864278821493,0.0026270073135328293,0.0026758758843934962,0.0027086681772422387,0.002719562566103944,0.002677872917507672,0.0025436508020337894,0.0022824365035310663,0.0018757290876271753,0.0013273275549860078,0.000665847684239579,-5.855754989401578e-05,-0.0007856781209308577,-0.001463067867995459,-0.002061849411190968,-0.002579728262380965,-0.0030265082519180166,-0.0033995371969745966,-0.0036657894793059947,-0.0037648754261295873,-0.003633173344072131,-0.003234431609260041,-0.00257898500344689,-0.0017236529694443343,-0.0007569629719931406,0.00022102703132819432,0.0011184933927550493,0.0018690178560079383,0.002442723790330068,0.0028454615385531978,0.0031032920926795955,0.003238761019285927,0.003253067136678008,0.0031263692644940477,0.0028371817213221143,0.002388789484851136,0.001824769855166391,0.0012210743335412913,0.0006557415107303561,0.0001712815352505723,-0.00024894170314908445,-0.0006740977860918531,-0.0011871412560143023,-0.0018291473977875825,-0.00255398607763064,-0.0032208076067276204,-0.003637118752302368,-0.0036393471490443674,-0.003173241276373791,-0.0023297664473967577,-0.0013119857388350167,-0.0003462279758443458,0.00041569207768747804,0.0009490679816421805,0.0013348739626982038,0.0016796816435904606,0.002028627349228086,0.002327812066436521,0.0024604711789815215,0.0023317367368651896,0.001942916953526855,0.0014025356835264732,0.0008650009086836499,0.0004384470540723782,0.00012475351893387386,-0.00016831282311456224,-0.000553232164345744,-0.00107863102991477,-0.0016898665168218927,-0.002255141712492444,-0.0026332838712574743,-0.002736128427221155,-0.002550359221080209,-0.0021173612955814516,-0.001497708246641518,-0.0007499764423627652,6.624907048645781e-05,0.0008771231396857018,0.0015934022603208903,0.002131438934989395,0.0024448127254371407,0.0025430389301505513,0.0024815620430178108,0.002328406574983059,0.002129919048156893,0.0018973926965914888,0.001619425462308752,0.0012861302849499021,0.000905398750124972,0.0005006739722368079,9.428899781229274e-05,-0.0003106902464452216,-0.0007375007822819335,-0.0012253548667154079,-0.001803857511696955,-0.002462329456905876,-0.0031297597409344104,-0.0036803322231625476,-0.003969244076153325,-0.003886646089803241,-0.003404005622520359,-0.002587894460698301,-0.0015732996100987356,-0.0005119079877569717,0.00047550525727377583,0.0013192720108206211,0.0019911937492017727,0.0024825902849519624,0.00279145342734258,0.002926500500923756,0.0029178427101050715,0.002817149672808876,0.0026795321775211324,0.0025360832595372135,0.002376021095526125,0.0021526500174231826,0.0018116400295186508,0.0013254732058780277,0.0007147296516211056,4.5661589034013414e-05,-0.0005939355856267438,-0.0011298948491075093,-0.0015336012322001002,-0.0018356579057321187,-0.002109786735459588,-0.002427405525812761,-0.002802391900368648,-0.0031594588267626392,-0.0033530600342949633,-0.0032348708850023777,-0.0027347801353423723,-0.001907898104698182,-0.0009186358731348165,3.0072111637062353e-05,0.0007830939200753337,0.0012886743235000424,0.0015967842568671052,0.001807569678208327,0.002004483974568611,0.0022110691460161345,0.0023905128307619393,0.0024782865788207133,0.0024208468830182774,0.002197451514354272,0.00182031538531937,0.0013239141702418291,0.0007557865078695243,0.00017122477855051874,-0.00037477476331394593,-0.0008429961794678119,-0.0012263476043097026,-0.0015517022226762985,-0.0018569809258888238,-0.002151843271910246,-0.0023882761010522,-0.0024675780146033617,-0.0022883772557755625,-0.0018103685714773653,-0.0010929178913037844,-0.00028008028742128137,0.0004627888749155737,0.0010235781706067096,0.0013838819787852041,0.0016023466951071846,0.0017555849423004266,0.0018788295722099305,0.0019462682226788202,0.0019002675052966263,0.0017024022988364933,0.0013653588476558723,0.0009432710535000127,0.0004922091998384667,3.4378222769939514e-05,-0.0004462605053294133,-0.0009749846823301265,-0.0015463339643742495,-0.0021017227592051557,-0.002539721141663561,-0.002752883486496399,-0.0026708048628865787,-0.0022888855784857897,-0.001672115850876673,-0.0009341465742516112,-0.000199278907079842,0.00043954495723581204,0.0009490817846610119,0.0013544751118111924,0.0017062612576182678,0.0020345928486458446,0.002320706817754887,0.0025049026306900083,0.002524457997673196,0.0023543016369953432,0.002023098581797322,0.001596079879581668,0.001138751189208288,0.0006866108076533854,0.00023865543024550247,-0.0002263461275154608,-0.0007269777078729051,-0.0012660373624855835,-0.0018304394911703124,-0.002394401859850987,-0.0029158007572941394,-0.0033280415255423417,-0.0035417963214907236,-0.003468569505008457,-0.0030610363785815234,-0.002347763562168674,-0.0014376280193965963,-0.00048518125579400566,0.0003680455327462391,0.001045299568051497,0.0015509234548326156,0.0019432043454644808,0.0022820281697205564,0.0025847101236578353,0.0028167629436561393,0.0029203324638307033,0.0028582998706305346,0.0026434360142819314,0.002334122612121836,0.0020013171075365264,0.0016897770885276318,0.0013987385836918462,0.0010926255364993127,0.0007309269135321483,0.00029319289034377446,-0.00021911411491177575,-0.0008004368094616016,-0.001455129905392387,-0.002185411074021401,-0.0029560109506169717,-0.003666363507310429,-0.004164736620448058,-0.004309470672293599,-0.004042353503585647,-0.0034228744333603058,-0.0025964570247242864,-0.0017172423453345681,-0.0008784770826673352,-9.506532986768449e-05,0.000658102733399654,0.0013877639053888583,0.002048595189915914,0.002556275194514058,0.0028355816075465255,0.0028698897840128694,0.00271925927516505,0.0024945738512640115,0.002301980369676805,0.002189639198700105,0.0021274087788829632,0.0020305387254881584,0.0018127103644047958,0.0014374112691280699,0.0009386809648335633,0.00040017108302316696,-9.54210108362794e-05,-0.0005177382797271394,-0.0009096379721458332,-0.0013604499318615542,-0.0019410407400801163,-0.002636056806656215,-0.003316917787428549,-0.003779865579688407,-0.003835184706878945,-0.0034006882878760167,-0.0025474126518824423,-0.0014722495810302533,-0.0004135115894276025,0.00044468655570173226,0.0010313785392719454,0.0013872594734030087,0.0016127676516970802,0.0017999291334038214,0.001985305554116329,0.0021444758766824617,0.002222790858899767,0.0021776675123680615,0.0020050765873713145,0.0017371671547784097,0.0014183782865044448,0.0010795663619918953,0.0007262928260930324,0.0003436604168117561,-9.127407591879845e-05,-0.0005985782253696861,-0.0011864686090370842,-0.001838442690364832,-0.0024956004647722196,-0.0030464762078017443,-0.0033438925751999955,-0.0032566463452695375,-0.0027370554468916,-0.0018645886674171028,-0.0008314709920320014,0.00013130159680864846,0.0008513366728319862,0.001282914183751765,0.0015091217019459514,0.0016791640659297455,0.0019174218373248033,0.0022535874309196954,0.0026083040847169796,0.002837346495841294,0.002807898433813861,0.0024673733092617804,0.0018724237507595038,0.0011669256288428034,0.0005212909064301191,6.10920446063719e-05,-0.00018447548462863244,-0.0002935045865015845,-0.00041776419686472455,-0.0007178094884906165,-0.0012915044955500482,-0.002123148361575309,-0.003073542078709187,-0.003917092226409741,-0.0044147343206257655,-0.004397059421813234,-0.003826214558366555,-0.0028111986482095824,-0.0015685797411700174,-0.0003438839322078,0.0006725183773992076,0.0013983569296489506,0.0018610206488630298,0.0021543006699343958,0.002377630849979854,0.0025885345484357608,0.00278647160985603,0.002928053109759263,0.0029595962416665974,0.002848303233296367,0.002598155499078083,0.0022467666984905856,0.0018483666274460395,0.0014514948251768591,0.0010789547593264917,0.0007159556854988303,0.0003116034079076533,-0.00020325264275883423,-0.0008845476879926513,-0.0017401629626235037,-0.0027063029759414165,-0.003647281728172167,-0.004382793105014252,-0.004736775089793758,-0.004593558073952371,-0.003942125176286621,-0.0028900906862493014,-0.001637552531766436,-0.0004165155958310998,0.0005820533476008467,0.0012638088163466573,0.0016467987977470575,0.001834029503339882,0.0019587081650858516,0.0021266889281801953,0.0023768248810439813,0.002670040391353154,0.0029084424334196316,0.0029776072790043562,0.0027968033270562714,0.0023560310400943083,0.001721874789393404,0.0010083775025165275,0.000327292014895377,-0.0002570842638553036,-0.0007461005797199273,-0.0011899861166112771,-0.001646095125408543,-0.002134396418861419,-0.002613080272680105,-0.0029864167694685665,-0.003141018297139228,-0.0029936294084233544,-0.002528944104817711,-0.0018105614201846842,-0.0009596301629767985,-0.00010993914767899477,0.0006401142842839427,0.001254813915918886,0.0017524944116894575,0.00216523511551914,0.002492094489378409,0.002679209887190793,0.0026455972422219738,0.0023421288248749155,0.0018039323232009615,0.001154922197565425,0.0005520230564015013,9.843964791436438e-05,-0.00021850290281576678,-0.0005193740626139419,-0.0009520574210364859,-0.0015852115654419775,-0.002343102779594052,-0.003025090210690192,-0.0033996116251206274,-0.0033163785971991227,-0.0027724985092470876,-0.0019012088323785887,-0.00090035570146175,5.152743823941635e-05,0.0008474285586519198,0.0014573968479687685,0.0019025782422758691,0.0022239128406951994,0.002461463346399087,0.0026432034201980537,0.0027746124864006464,0.002827608399854694,0.0027396800820918004,0.0024366070246846974,0.0018779350246872317,0.001102058215802866,0.00023662857453201567,-0.0005454083360853786,-0.0011084687141138816,-0.0014282365237450693,-0.0016072870178946755,-0.0018159715588776863,-0.0021891672488435956,-0.002738462968297601,-0.0033310534439745998,-0.003747362366552003,-0.003784701015442385,-0.0033507295600247273,-0.0024998838737867795,-0.0014002335886304257,-0.0002561668894529367,0.0007679250205475932,0.001586062460267266,0.002182898232685375,0.0025800468668700583,0.0028063743910971815,0.0028887997495204063,0.0028578487535039377,0.0027502510255711355,0.0025978726354831064,0.002409843716890573,0.0021657487730009283,0.0018313038640840216,0.0013889172909512183,0.0008605830715775976,0.0003035145422357006,-0.00022145318008671755,-0.0006874866399354285,-0.001117831163806298,-0.0015662977041758816,-0.0020722765678029696,-0.0026186307201972424,-0.0031204682669549546,-0.003453631607654566,-0.003506845458157762,-0.003228238677224327,-0.0026435614406480025,-0.001842543236914994,-0.0009462736039729527,-7.276723074206454e-05,0.0006878794960452671,0.0012852237449295083,0.0017084753607544286,0.0019778281903924835,0.0021303549233815545,0.0022036078062804133,0.002220627590147453,0.002181338835517586,0.0020656132742110614,0.0018500109503604796,0.001532443953856257,0.001150026304376342,0.0007728342151037831,0.0004673749699699429,0.0002461439347582635,3.859068302277201e-05,-0.0002846868837821959,-0.0008338594816941667,-0.0016084498315427627,-0.002453625623734285,-0.003104439050027481,-0.0033048236369852746,-0.002937289780164389,-0.002087562213625219,-0.0010057974465226107,1.2241698739711348e-05,0.000755506292743991,0.001169952999180952,0.0013431177282725304,0.0014229882522323383,0.001524581408437604,0.001674491137064316,0.0018147394385010854,0.001852978229754284,0.0017243360977070037,0.0014292200215960118,0.0010289293073184958,0.0006061746109644298,0.0002163868208003732,-0.00014138117862699418,-0.0005178279585074748,-0.0009749951794789911,-0.0015371066281247648,-0.002157681857649991,-0.0027217117702401598,-0.003083282653190093,-0.0031209331718401964,-0.002785319534306086,-0.002119052827474924,-0.001242052314561862,-0.00031037155438252165,0.0005336987627982649,0.0012008725807848238,0.0016704113053515482,0.0019791580811999187,0.002190966303236495,0.002360096797356422,0.002504116821749007,0.0025975743576844117,0.002588184533799627,0.002426991098550797,0.002097889760281993,0.001632108084050397,0.0010996601635223572,0.0005810182620886945,0.00013341402281282248,-0.00023044007178900383,-0.0005415174833934164,-0.0008554698954529328,-0.0012276062784095782,-0.001691810807025795,-0.0022461036648613033,-0.002844038265519837,-0.0033937695085739486,-0.003770239550048027,-0.003844450124963597,-0.0035259574762608577,-0.0028044776525754564,-0.001770600423415272,-0.0006001823570871862,0.0004973693813963422,0.0013477584116151527,0.0018678767187251298,0.0020848158303558764,0.0021106287552408822,0.0020856259007128145,0.0021161766016051073,0.002234112724276571,0.002393911050870906,0.0025057942806840632,0.0024859924351217644,0.002298115928768391,0.001966056764657734,0.001555419036290198,0.0011371049347777456,0.000753470388351366,0.0004019594688447895,3.967620642669371e-05,-0.0003961080051588619,-0.0009585406950580475,-0.00165949507179382,-0.002444757689608756,-0.0031896807089356514,-0.003727111709899897,-0.003905227672328447,-0.0036518209951749685,-0.0030099085622058695,-0.002120829078625003,-0.001161749924148877,-0.00027351683176760587,0.00048026710606170124,0.0011048200866017048,0.0016307309560123539,0.0020686944848832206,0.002391178319838821,0.002548947299252713,0.0025079367584983827,0.002280539699870461,0.0019302296787393907,0.001545611251626341,0.0011984367408385665,0.0009089259070540385,0.0006371593324844631,0.0003056354663251452,-0.00015712582501884538,-0.0007721372279937341,-0.0014857877925060767,-0.002178273462484308,-0.0027018770182225225,-0.0029321131692197993,-0.0028087583852495885,-0.0023499033293068287,-0.001637433226139102,-0.0007872239078896106,7.854119552284971e-05,0.00084867712830794,0.00143490708700964,0.0017871152135482606,0.0019105694791816546,0.0018705551271941377,0.0017698332036995704,0.0017019113963682463,0.0017043653247687876,0.0017416181168259676,0.0017293031712248847,0.0015854575775992546,0.0012771128547632725,0.0008349187726204309,0.0003290130982650673,-0.00017706298830445403,-0.000664834101800898,-0.0011671783951024437,-0.0017372826145959448,-0.0023974165882864017,-0.0030972505461868537,-0.0037076443863164185,-0.004057718616449183,-0.003999766174999026,-0.00347081248264741,-0.002521283756946438,-0.0012998605562198795,-6.426346145271648e-06,0.0011634647315946997,0.0020636394767456793,0.002624172654403714,0.002858703953019334,0.0028506692778680356,0.00271846118776541,0.0025684912432726624,0.002455569491557697,0.002370173336597303,0.002258203342973543,0.002060122426787102,0.0017468483948265847,0.0013351182292084104,0.0008788081043175624,0.0004437685930905047,7.703281207398693e-05,-0.00021947471710750195,-0.0005001466274600068,-0.0008610958035888094,-0.0013960898517417842,-0.0021360592045119656,-0.003002475922828476,-0.0038070980708377064,-0.0043099423496401265,-0.004314006122230006,-0.0037515360508162117,-0.0027191630662033086,-0.001445584695905062,-0.00020801037939409178,0.0007653622455844159,0.0013670070126711527,0.0016293719838730183,0.0016879784559017538,0.0017080762917625037,0.0018095918351732727,0.002023840259598152,0.0022975053842922044,0.002533883776289665,0.0026433077734738233,0.002575082603792676,0.0023205275918895493,0.0018970746876769476,0.0013321365864284492,0.0006585759872767397,-8.039118471707017e-05,-0.0008276092050954535,-0.001517652381939751,-0.002089910167675728,-0.00250031687103325,-0.0027249833144625587,-0.0027568809361443905,-0.002601676890055979,-0.002276096939023022,-0.0018066893762167457,-0.001226635887794452,-0.0005732659894116679,0.00010941253580276948,0.000765314405023984,0.0013275481416004944,0.0017335346109697176,0.001948879669232537,0.001984327698942301,0.001892004045509041,0.0017405294752217111,0.0015826313933068289,0.0014333145974486639,0.001269396674203187,0.0010479102274943994,0.000730133624574412,0.00029690229981074864,-0.0002495404118544002,-0.0008895688060777459,-0.0015853933638311601,-0.00227418615559069,-0.0028653883652303624,-0.0032535123083190093,-0.0033468827222302554,-0.0030997521373882404,-0.0025304976620180043,-0.0017157172347119839,-0.0007645745426317641,0.00021058265278074174,0.0011121970847398244,0.0018619632180876492,0.0024023479382181785,0.002705368651775548,0.0027860413688885937,0.002706171371805774,0.0025560653498547655,0.0024170532903122193,0.0023238904485595514,0.0022494664756025494,0.0021213383461530008,0.001859813032702226,0.0014150867352603455,0.0007843056828003864,4.281467680134496e-06,-0.000869407883690854,-0.0017803078738126872,-0.0026746842892869122,-0.0034919279702927946,-0.004154083181109147,-0.004568470299236198,-0.004647618311233671,-0.004337581073340471,-0.0036403177197068494,-0.0026211684077976777,-0.0014010322568306,-0.00013633247911380461,0.0010113120583736279,0.0019126683616406011,0.002506089036884719,0.0028141932010842573,0.0029283838880408333,0.0029620512054766984,0.00299262515260798,0.0030234157408417844,0.0029884682289157425,0.002799482261868264,0.002407809718509341,0.0018444722123509448,0.0012144244264445483,0.0006485127667269166,0.00023925505710627323,-7.67234496545917e-06,-0.00018404834426649527,-0.0004455622984673133,-0.0009435968581974867,-0.0017459871554100252,-0.002780247327762788,-0.0038308608886224436,-0.004603017387397362,-0.00483370682638437,-0.0044031936021867455,-0.003392934199630781,-0.0020576035397685327,-0.0007205887934190246,0.0003578358340054092,0.0010756031745947545,0.0015026146206171787,0.0018112686956824097,0.0021641361807614866,0.002619036814874042,0.00309957260656399,0.0034416943619132857,0.0034852545445626278,0.0031581563518548795,0.0025107812877323897,0.0016897122680765682,0.000870655035532533,0.00018532856965806097,-0.00032551076952295555,-0.000714369391254623,-0.001084929058172849,-0.0015252585078979633,-0.0020488709571324696,-0.0025744243242215824,-0.0029563590618617436,-0.003051780516220808,-0.002788745244277663,-0.0022005417126722566,-0.0014103033265982405,-0.0005776571991243703,0.00016295996950066615,0.000743162908033958,0.0011663558869355844,0.0014820799565755925,0.0017449088828788142,0.001977685089630867,0.0021557277978931696,0.002219673742492748,0.002111072376010102,0.0018115453861942993,0.001361795052785442,0.0008467629904543051,0.00035340959278331295,-7.516551439961207e-05,-0.00046246156909238113,-0.0008833253069757043,-0.0014150896149562916,-0.002077055820877325,-0.002789534330121,-0.0033792193917919237,-0.00363742801328656,-0.0034087749061720756,-0.0026669685581178983,-0.0015372907311455178,-0.0002528249749448005,0.0009330014020201883,0.0018336888943416112,0.0023775436123004102,0.0026020653553639975,0.0026092230050135364,0.0025112412264545227,0.0023922595703928006,0.0022941097508566025,0.002218615976167125,0.0021353006227578693,0.001991559473884934,0.0017306457979065775,0.0013195502450786098,0.0007751038925252957,0.00016706772269738665,-0.0004141178891240811,-0.000911844971423302,-0.0013443432668878924,-0.0017974664418212876,-0.002363763657689702,-0.0030613442842687697,-0.0037859310607282976,-0.004333247614852419,-0.004485619720430749,-0.00411556174454953,-0.003248143392281508,-0.002049832063854234,-0.0007554217717036404,0.00042319335643244084,0.001360579303675185,0.0020314046833749353,0.0024816455865158543,0.002782553009901879,0.002992040658398368,0.0031355746610203495,0.003205743987186597,0.0031739912983097954,0.003008350646942676,0.002692189108180626,0.0022384025004458753,0.0016929565591758794,0.001123737149601027,0.0005963159348516065,0.00014573740182806524,-0.00024150438706401465,-0.0006230938755555964,-0.0010717739228435852,-0.0016323736149971369,-0.0022853587518125657,-0.0029371938929507245,-0.0034466285199619357,-0.0036781019582753215,-0.0035580246826861007,-0.00310594488510753,-0.002423927742077325,-0.0016490514987274052,-0.0008944948788887542,-0.00021154239387835978,0.0004080378258343516,0.000995138767547382,0.0015586936538545336,0.002062536034867663,0.0024370625194435813,0.0026164926720719985,0.0025776436327815504,0.002356741287352614,0.0020349219931038295,0.001701269770656745,0.0014136396664202488,0.0011765332340856153,0.0009444619978853973,0.0006463406742630765,0.000218441149448205,-0.0003672482568829005,-0.0010873550915283957,-0.001865506413093128,-0.0025825773223878802,-0.0030979866284872263,-0.003282882998599721,-0.003061376255722551,-0.002445668045693969,-0.001545191354444079,-0.0005380673638590756,0.00038723821520491447,0.001094718005237313,0.0015397629055859965,0.0017685109601423693,0.0018808821311339671,0.001975514195909776,0.0021007235520773947,0.0022324659431036094,0.002289225366186839,0.0021770818622065444,0.0018423185086802847,0.0013034546342879693,0.000644981678698631,-2.3743673144308313e-05,-0.0006217476952427262,-0.001132657371689609,-0.0016035423482653743,-0.002105114119067959,-0.002672533568556072,-0.0032583826247150425,-0.0037261040057078466,-0.0038930929287307363,-0.0036069217737758376,-0.0028200941214288253,-0.001627801714833428,-0.00024888357751999936,0.0010452782055873934,0.0020258313535504785,0.002584854255441117,0.002761831381855694,0.0027063023912156136,0.002595874856626914,0.0025508546131715686,0.002586767570949534,0.002624293290467066,0.0025461744115788574,0.002268983787713989,0.0017929759639003116,0.0012051575434026602,0.0006337444822747723,0.0001774522346354862,-0.00015178191618391685,-0.00043937182598415383,-0.0008235808474094031,-0.0014178372966315465,-0.0022394948832198695,-0.00318072193060752,-0.004035601650556381,-0.004570920554118397,-0.004609789056338008,-0.004094430692613663,-0.003105861500330103,-0.001836303093322872,-0.0005268723729472372,0.0006065136667797711,0.0014334986899026065,0.0019355512873813767,0.00218968506879586,0.0023172787857711715,0.002420795065502374,0.002538025037482571,0.0026359052172269274,0.0026451954624340497,0.002514175533770281,0.0022483910083111397,0.0019121039081055322,0.0015906022735040469,0.0013363170407710105,0.001131258694755717,0.0008886579435903601,0.0004947501050065775,-0.00012977514462701603,-0.0009793337692710854,-0.0019494755006376184,-0.002866969579392201,-0.0035497273011495228,-0.003868053528295381,-0.003779913310710617,-0.0033287270484602957,-0.0026131419810708316,-0.0017511745961552429,-0.0008573228897856231,-3.410135479394946e-05,0.0006354243293299426,0.001105224392244807,0.0013872349210687037,0.001553869295274008,0.0017060446806224673,0.0019158334030207852,0.002177140456817004,0.002399563833543995,0.002455542871002735,0.002255355895122086,0.001803058434143442,0.0011953575054296274,0.00056175651583844,-1.4501296936393377e-05,-0.0005387316570939951,-0.0010780775625312575,-0.001683278199871214,-0.0023159736498388674,-0.0028366691873172476,-0.0030655358380378165,-0.0028769566380309752,-0.0022676231358009537,-0.0013600617171650317,-0.0003477157494656513,0.0005803426364630858,0.0012960223171533173,0.0017526592345417354,0.0019740480757612948,0.0020260386472554437,0.0019833186699318326,0.0019008630085290306,0.001797857474167111,0.0016589073633259696,0.0014511057487898334,0.001148174060537593,0.0007485131101256328,0.00027647463412403634,-0.00023356943633728096,-0.0007581644686553121,-0.001293651696764752,-0.001844318077853596,-0.0023969168825880537,-0.0028993477166195537,-0.003259222762780515,-0.003366074496909674,-0.003128419731349247,-0.0025112365373309437,-0.0015609635538882892,-0.00040912458893007156,0.0007509789810994981,0.0017148921874528744,0.002334251875511275,0.002575347887381848,0.0025367237327069874,0.0024057887477448242,0.0023653561679245084,0.002494063712437747,0.0027169949090891463,0.0028415955403179186,0.0026665385247429613,0.0021039662943551415,0.0012405629604489684,0.00029586138456513355,-0.0004999628290295238,-0.0010341284976499948,-0.0013661332017567435,-0.0016770241933925824,-0.0021457998999293505,-0.002827570156655106,-0.00360322481069905,-0.004226085909859447,-0.004436881298058658,-0.004085290445974457,-0.0031986679323002132,-0.0019697026735422786,-0.0006751043872287348,0.00043312686414680754,0.001214882878739333,0.001673119087248647,0.0019222380295034272,0.0021146788431689752,0.0023622324740498347,0.0026863508560800485,0.003015515025880048,0.0032266781463442546,0.0032101622219729824,0.002928114574986172,0.0024383265648561304,0.0018689979145786718,0.001353601632247316,0.0009588607966357982,0.0006473992682139823,0.00029947052380254087,-0.0002171038934835383,-0.0009692597172132164,-0.0019163969687347518,-0.002921729825177878,-0.0038032604426554073,-0.004393399703712486,-0.004581837303704344,-0.004333616813409778,-0.0036876043516365473,-0.0027428303514931167,-0.0016365502819599442,-0.0005162853369382904,0.0004896554486836704,0.001296485740736062,0.0018759057001647712,0.0022537131941405904,0.002491232923998501,0.0026552899875988117,0.0027882744759389465,0.0028919285431088394,0.0029314919272951387,0.0028552693479749055,0.002617865530576223,0.002196971147982424,0.0015994340965108217,0.0008572607286241451,1.7077583955365833e-05,-0.000871300740683362,-0.0017601425517613416,-0.002597535302629807,-0.0033116655876303473,-0.0037988840193746063,-0.003934500986452686,-0.003615811327308519,-0.0028234780069171022,-0.0016658129399534306,-0.0003699707763712057,0.0007895071439221653,0.0015959651318737163,0.001976178214785386,0.002018940339256164,0.001914324251996932,0.0018451096330613956,0.001889709856498712,0.001990578819881441,0.002004651432489662,0.0018035688585542704,0.0013607467017028995,0.0007701185458331785,0.00018469378276475014,-0.0002846495673917873,-0.0006424836502527774,-0.0010029595241059302,-0.0015035882490560134,-0.0021901081068813294,-0.0029462326611071725,-0.0035195420174802474,-0.0036388959013692506,-0.0031614922912065802,-0.0021641520287494823,-0.0009206586242906413,0.00022825446913029082,0.0010411398135741086,0.0014829487950200541,0.001711012426955353,0.0019506052252003456,0.0023385449267850807,0.002832515824437472,0.003240692138076539,0.0033479889495120025,0.003053899630023363,0.0024334323880712454,0.0016874207967811589,0.001021459581120532,0.0005340645277587871,0.00018018597861341158,-0.000178414648752286,-0.0006784999786835207,-0.0013773251567842438,-0.0022286534813707303,-0.00310879192410365,-0.0038621765231162735,-0.004339942432102433,-0.004426660114945007,-0.0040646616753358174,-0.0032791694005759177,-0.0021907694330632163,-0.0009952431417451775,9.494749685402587e-05,0.000926883030131441,0.0014626387212039905,0.0017817314191118858,0.0020267931249330984,0.002321138927971846,0.0027021753111837743,0.003103937853455293,0.0033940104848058095,0.003442381334275976,0.003186535404003002,0.0026620415799379214,0.0019860214814811316,0.0013030441811227873,0.0007198849869534276,0.0002604584415052671,-0.00013733450791902384,-0.0005815885977159392,-0.001163499233411731,-0.0019025362653888908,-0.002724577004445917,-0.0034803081621088416,-0.003993677568597113,-0.004120935730788223,-0.003800026842213254,-0.003074025717809613,-0.002079635444160893,-0.001003520292194399,-2.3096174877468853e-05,0.0007438087667356636,0.0012613547846023155,0.0015666309229773582,0.0017397582541086266,0.0018677674590454642,0.0020125880796290543,0.0021888723455457636,0.0023567042255810376,0.0024345943200822814,0.002333704106516651,0.0020031544740827557,0.0014646846614199483,0.0008138173189349153,0.00018012290085176586,-0.0003358230682054555,-0.0007134812710721159,-0.0010191629685556585,-0.001359873269133595,-0.0018060735273073775,-0.002326001463829287,-0.0027728885124870266,-0.002941157881656454,-0.0026693467811323567,-0.001936797886094181,-0.0008978945517127951,0.00017256093557111655,0.0010003563761802098,0.0014363865265699328,0.0015157882920648139,0.0014185899245639938,0.0013567209219296542,0.0014554872517143253,0.0016972987553369233,0.001952603950674899,0.0020682546633760423,0.0019536211370737707,0.0016157802123473721,0.0011338771595975781,0.0006004486191582487,7.10299657373922e-05,-0.00045080242100357503,-0.0009929026425128946,-0.001578468548100011,-0.0021966429390125036,-0.002791162407447809,-0.00326688338002013,-0.0035101772121090107,-0.003420425668699996,-0.0029477134894473262,-0.0021238973310169747,-0.0010690928578644377,3.676202566519368e-05,0.0010091889054123949,0.0017175725573505382,0.002121386004753627,0.0022705086548652264,0.0022718494569315766,0.002237636079852874,0.0022378621315787424,0.0022777651800646092,0.0023090489497786613,0.002265372983091188,0.0020998801828124767,0.0018047042272524795,0.0014072075462683515,0.0009522866800738607,0.00048325839222645745,2.6881463280652985e-05,-0.00041774466212955204,-0.0008836229723856476,-0.0014244092543847899,-0.0020805606531124894,-0.00283283710175171,-0.0035712430828827284,-0.004109411203909118,-0.004251657315831022,-0.0038844865870652973,-0.003041696794647113,-0.0019019332655713745,-0.0007163300956011282,0.0002940837318772516,0.0010157707064907821,0.0014598797382987898,0.00172328723535301,0.0019255792289498976,0.0021551728893412433,0.0024401036120798346,0.0027425120405474056,0.0029721695084291263,0.0030182517551598795,0.0027967529242077746,0.0022987503950006446,0.0016132590231023734,0.0009032444341030337,0.00033709162301041667,6.0805030142792055e-06,-0.00012793439028057146,-0.00022142202060768638,-0.00047287064479914395,-0.0010157265141297852,-0.0018358830314670976,-0.002760277254830099,-0.0035264783857219253,-0.0038982387765460528,-0.003765989800435137,-0.003180930686430101,-0.0023107321696916906,-0.0013491750293287918,-0.00043451901490039924,0.0003800961987397506,0.0010976967383052876,0.001721393044669833,0.00221666192306493,0.0025190082213043794,0.002578055407348856,0.0024027740586151157,0.002073444969074603,0.0017101938749717826,0.0014164075317946979,0.0012294025351789791,0.0011041394924452695,0.0009361714316308681,0.000611063346382513,5.8699853491201706e-05,-0.0007075190999505592,-0.0015801555382706587,-0.0023818875901703233,-0.0029203449722070398,-0.0030561746059697753,-0.002756143096565953,-0.0021055864691154518,-0.0012733967667205382,-0.000447141117664459,0.00023075752326568165,0.000700010518019337,0.0009835074809345307,0.0011589894004527606,0.0013160791798845512,0.0015149558592987614,0.00176062515436488,0.0020013261165254207,0.002151343052915678,0.0021290948047033567,0.0018942468401238948,0.0014664447963855024,0.0009151013178787398,0.00032315326673279906,-0.0002571283151094611,-0.0008293338774400105,-0.0014381817090629559,-0.0021171879044218703,-0.0028301761657558867,-0.003450526331272922,-0.0038021786641998,-0.003743559551212723,-0.0032418195475421843,-0.002388920722683076,-0.0013519691056338658,-0.00029540889838108365,0.0006734484352716434,0.0015095535698438733,0.002199682864130527,0.0027310082408392305,0.0030829019873930825,0.0032401747624345154,0.003208663928319944,0.0030170304260841246,0.0027043455830826316,0.002305655487653528,0.001847378871078885,0.00135387981797767,0.0008561761335877938,0.0003916182526344163,-9.785871889501788e-06,-0.00034602156351766787,-0.0006565578414516629,-0.0010150447876519195,-0.001497630733364114,-0.0021382086502672428,-0.0028925592616285307,-0.0036324074353624516,-0.004177644484782684,-0.004356931686003992,-0.0040723805365289875,-0.0033400182658604636,-0.0022870553991943153,-0.0011064420157783984,1.0237490402027652e-05,0.000930425658969503,0.0016051095581668345,0.0020569532147339713,0.002347944742509181,0.0025473267281100357,0.0027108347279781375,0.002869385025211557,0.0030210715976782196,0.003126413110340233,0.0031146802908789935,0.002908474963244565,0.0024622500213537677,0.0017967277474095992,0.0010072968654272515,0.0002354689082624898,-0.00038755428180915687,-0.0007990596470844108,-0.0010345858184756117,-0.001211467509389941,-0.001471413745664995,-0.0019085828589014962,-0.0025170891269557316,-0.003182330672898187,-0.003720241654338677,-0.003947550161913808,-0.0037527719116870993,-0.0031372709801972282,-0.002209502151215459,-0.0011383408794756458,-9.137870748034387e-05,0.0008112366595361995,0.0015106540449544587,0.001996114407460487,0.002283816396723847,0.0024041371303489397,0.0023995147915838004,0.0023232827126799718,0.0022288925896165757,0.002148933906447912,0.0020760002983313103,0.0019622535080320884,0.0017453823923351507,0.0013895357942878782,0.000914499969559974,0.000389299181323935,-0.00011031054185034434,-0.0005525937261665326,-0.0009703548033097875,-0.0014313176888506203,-0.0019745578164959182,-0.0025558946697248675,-0.0030419409892987084,-0.003261524566975084,-0.0030866381230325955,-0.0024974788999429284,-0.0015971552889667956,-0.000571352375679749,0.0003833775322085063,0.0011272817083425278,0.0016127511719143154,0.0018772858918931097,0.0020031825310476065,0.0020656528799367527,0.002093760289967048,0.002061634831369411,0.0019134270402153238,0.0016084764069553843,0.0011601484114082978,0.0006418376313329163,0.00015129323861788472,-0.000248099983135836,-0.0005713868784663664,-0.000908233336856748,-0.0013653095446136453,-0.001982869024156879,-0.0026739951100177932,-0.0032291544739697963,-0.003396690525092413,-0.0030060199484273136,-0.0020689435510170724,-0.0007979985047593372,0.00047673282535097236,0.0014518390436305487,0.0019775250948307305,0.0020993692164881007,0.0019993079386313945,0.0018789080128254402,0.00185521427414028,0.001922426623631976,0.0019880146009041227,0.00194943982926303,0.0017606652797463379,0.00145203219212869,0.001100567056906959,0.000777454938133244,0.0005070065343070334,0.00025654357230996746,-4.4956581959378224e-05,-0.0004735561354025663,-0.001075505020270889,-0.0018386886239511939,-0.00267736767060026,-0.00343989375985247,-0.003946464753357815,-0.004050182772385325,-0.0036962418263416126,-0.0029470303094626233,-0.0019561481414538595,-0.0009046750894620751,6.370237444551033e-05,0.0008745644761790879,0.0015133021579563767,0.0019934800641274505,0.0023306019940624216,0.0025360775050582915,0.0026265546855058345,0.002632787005470835,0.002595101679365476,0.0025446583813873965,0.0024823465746665195,0.0023721093453594384,0.0021580987517971994,0.0017985064391091612,0.001294728971611636,0.0006948571747179371,6.700944368238892e-05,-0.0005405895908235216,-0.0011251630143828684,-0.0017210003215457027,-0.002359867736866403,-0.003025102118384018,-0.0036308618580484057,-0.004043284386736202,-0.004133735744205496,-0.0038344352419826255,-0.003166874471268094,-0.0022317386436291357,-0.0011710584856891714,-0.00012455577693853747,0.0008015766584219765,0.0015472638088983128,0.0020964738077879795,0.0024669746320531262,0.00269546489987483,0.0028197509223458956,0.002862229698216521,0.0028224335788708073,0.002684563276534823,0.0024371332087371276,0.0020917517160910833,0.0016854797068854921,0.0012605872571665117,0.0008321903164926797,0.00036681035421920667,-0.00020681340770942815,-0.000950995583016179,-0.0018577154533743275,-0.002810606283781133,-0.003602987893650321,-0.004014822549535765,-0.003912884462039849,-0.0033176367598543185,-0.0023955614197986555,-0.0013798944418867212,-0.00046614656523715316,0.0002583261722741426,0.0008163289140747353,0.001283900674957915,0.0017173936748635552,0.0021109089407464992,0.0024053059615644326,0.0025353077081852696,0.002479024916970332,0.002276080417853543,0.002002920846253943,0.0017222482859097187,0.0014404310235768833,0.0011017195484219113,0.0006241920335153725,-4.46067556650919e-05,-0.0008860798939839037,-0.0018059387710922174,-0.0026653096855317237,-0.003326928135303467,-0.0036925859266649904,-0.003718914392867376,-0.0034128644812302525,-0.002816975737271431,-0.0019954251775926492,-0.0010269989361768885,-3.747790578739155e-06,0.000972064037545038,0.0018007414780814729,0.002408567623248469,0.0027714649415472078,0.002922281461570146,0.0029314431483867956,0.0028677150426502577,0.0027615151944629687,0.0025946004806888497,0.0023237703655441195,0.0019229128666569512,0.0014140872170222553,0.0008646683962252528,0.0003497505425159551,-9.770165982473346e-05,-0.0005165771935144387,-0.0010040943470650513,-0.001659407245388734,-0.002510542390957068,-0.00346538679908287,-0.004320580365252631,-0.0048332315069895045,-0.00482303760019567,-0.0042507186546864905,-0.0032305051713189367,-0.0019740810380539865,-0.0007029703696827744,0.0004217172541131196,0.0013235616849161416,0.001993530615244631,0.002456785670869819,0.0027482034461382195,0.0029048471377922883,0.002967288858507271,0.002976762257455505,0.0029624846900518286,0.002925228020421382,0.002829901737873096,0.002617153915593909,0.00223367777796975,0.0016684127888767454,0.000973816347632173,0.00025428811276370904,-0.0003800386951284655,-0.0008729677399387347,-0.0012588976834509802,-0.001646390040253364,-0.0021483406781749904,-0.002795301580008321,-0.0034866013833378573,-0.004016716685539054,-0.0041691888876286805,-0.0038260836163040474,-0.003028678876088991,-0.001955097455237073,-0.0008328506053717978,0.00015819027272235246,0.0009390948930289216,0.0015237515544262966,0.0019704895034858877,0.0023302441170316318,0.002617568547489414,0.0028101757102825644,0.0028678051405764252,0.0027566126448231795,0.002467587195912175,0.002022652838980093,0.0014678519256985576,0.0008579019092421222,0.0002394082755623289,-0.00035946697502524144,-0.0009275079867998284,-0.001457373960554033,-0.0019285202899837386,-0.0022983221056061703,-0.002510576777284858,-0.002519157468870711,-0.0023118977091784896,-0.0019171662978181452,-0.0013881370733151693,-0.0007783701356248802,-0.0001296414153772306,0.0005195825968135994,0.0011182084285143545,0.001601638895423639,0.001914903894859658,0.0020440826422132787,0.0020282162764915005,0.0019368368315255242,0.0018255873574794523,0.0017010519789529017,0.001520635611856794,0.0012281984847095709,0.0007998767330675969,0.0002663711825953061,-0.0003053433341393057,-0.0008573726883171926,-0.0013777322377638227,-0.00189750041711189,-0.0024465538885805782,-0.0029988199853893263,-0.003448779277875777,-0.0036411731644210308,-0.0034398508048016753,-0.0027956474625539613,-0.0017753328129402016,-0.0005403191085349729,0.0007069186603279037,0.0017796712683138484,0.0025474595256252753,0.0029559454355092057,0.0030293579035346073,0.002856826858846843,0.002562489513140571,0.0022641476560354957,0.002033583576200989,0.0018752752704772058,0.0017341946725958001,0.0015299276407424204,0.001201095473834555,0.0007384947901837883,0.00019061668101627487,-0.0003611155662855246,-0.0008443684103664975,-0.0012324136654556887,-0.0015544481009531653,-0.0018728203055902142,-0.0022385775466772194,-0.0026492496202811825,-0.003032483570602909,-0.0032663219397540684,-0.0032283912634878953,-0.0028512873736182354,-0.002157350409046978,-0.0012553572176771692,-0.0003004780759415292,0.0005626793035790427,0.001246563320771192,0.0017367114596189837,0.002074192974332558,0.002317352079347562,0.0025032820575255584,0.0026273492361445733,0.002650033763564815,0.0025271215309528453,0.002245766057579834,0.0018429782826106062,0.0013920716456913731,0.0009635141139148142,0.0005847324066316095,0.00022467509218261704,-0.00018681213459496892,-0.0007151794600762962,-0.0013756157186588175,-0.002107927229178135,-0.002783794409953789,-0.003244432924106356,-0.0033545322315918285,-0.0030516272824804036,-0.0023712637793516424,-0.0014381594030793714,-0.0004282817177231383,0.00048191423453409284,0.0011612570063227535,0.0015529592103454668,0.0016819396557786652,0.0016388094684196904,0.0015429266957712683,0.0014946917803408443,0.001535267451521392,0.0016320886231039585,0.0016971916158501307,0.0016283847165024868,0.0013519910011723887,0.0008479443368401445,0.00015113004606150484,-0.0006629540691140881,-0.0014947499510258881,-0.002232279739362158,-0.002762574382337504,-0.0029928162184911958,-0.002881745503870906,-0.0024645332239271052,-0.0018475856368780161,-0.0011654522421099738,-0.0005202305149402017,5.9365608806102995e-05,0.000612233555585519,0.0011958096520317775,0.0018256984546796938,0.0024427834550100527,0.0029280342159035875,0.003155517054499484,0.0030533131001998417,0.002640856409132446,0.002025610710952631,0.0013609955123566005,0.0007832263537009874,0.0003541562366312388,3.719998361453305e-05,-0.0002794162621325501,-0.0007207523536605604,-0.001354205294881339,-0.0021444889327624575,-0.0029557567057682463,-0.0035984586621555497,-0.003898903421544501,-0.0037622641721300376,-0.0032049229936758163,-0.0023452620019029785,-0.0013585646002898764,-0.0004162288718761669,0.0003646529494447396,0.000942430875693576,0.0013404852270366423,0.00161833270207701,0.0018413507409068808,0.0020586506861174207,0.0022890068849202696,0.0025128822256917068,0.0026742632394117123,0.002699168232001072,0.0025300356267957125,0.002160957376200826,0.001651625161661624,0.001106981220576568,0.0006297564236843905,0.0002698816878151997,-2.743032089701648e-06,-0.0002873006702838062,-0.0007057403970459787,-0.0013391439560699724,-0.0021732876527845468,-0.003079427772868191,-0.003844901359536099,-0.004246680338965649,-0.004138072737228793,-0.003508541933883426,-0.0024882212321038167,-0.0012965794403907178,-0.00016167271193838283,0.0007530515097285776,0.001386621395947921,0.0017751080175116432,0.0020125114890217235,0.0021963313547940467,0.002378238614732673,0.0025392641185220974,0.0026026230256086967,0.0024815148582999847,0.0021384993894116664,0.0016218596053011584,0.001054451443076762,0.000578064690638326,0.0002833540146495475,0.00016395276897570704,0.00011870686070223206,-1.0649845671748746e-06,-0.0003241020791952987,-0.0009013196057521267,-0.001677646931298196,-0.0025003379047722103,-0.0031611370545646207,-0.003462707071984447,-0.0032904128779274295,-0.0026613610885885064,-0.001723858395228358,-0.000699584019896949,0.0002083994540404405,0.0008948844665345069,0.0013742893718748437,0.001732644971754023,0.0020424226879893377,0.0022992751301969643,0.0024255927448746167,0.0023376990105873838,0.0020255978442979402,0.001582937049990823,0.0011598782866701898,0.0008672939532323299,0.0006967689282860314,0.0005128736310142817,0.00012897811696932615,-0.0005747054219194753,-0.0015598511615460327,-0.0026207443308033382,-0.0034649742571705223,-0.003840058434723009,-0.003637687880125623,-0.002925049510258642,-0.0018980391070780086,-0.0007923842636667308,0.00019859988110851963,0.0009674997563315951,0.001493407788584878,0.001815594669116834,0.002000435189192234,0.0021142546715474725,0.002204873018597225,0.0022899302890301556,0.002352019714698254,0.0023443583001342746,0.002209870308472878,0.0019097394083748805,0.0014493915686674072,0.0008866643994203999,0.00031213166054218063,-0.00019486728173614563,-0.0006138595817100207,-0.0010039284007687165,-0.0014751502727826128,-0.0021160036307621287,-0.0029138779853134676,-0.0037192219747741863,-0.004285109388528288,-0.00437125226874566,-0.0038610628394403117,-0.0028285027850834545,-0.0015163155275479052,-0.00023438219752334457,0.0007705754857946743,0.0014081723792486644,0.0017552564330532332,0.0019836596781430934,0.00224822111730346,0.002598382505880018,0.0029600475613233363,0.0031907965956013973,0.0031687888737584134,0.00286107332044476,0.0023368736651966874,0.0017280927105873829,0.0011672347863716486,0.0007372923891160955,0.0004520464274848752,0.00026416444105394467,8.738050418668304e-05,-0.0001781139264605213,-0.0006187934340588662,-0.00127703360558716,-0.0021203342968164436,-0.0030256932988737446,-0.003797942491338661,-0.0042279538256442,-0.004171918517294782,-0.003613653835024725,-0.002674821612735687,-0.0015648579720496513,-0.0004967997582470856,0.0003863553447035871,0.0010400618861621687,0.0014969444595646854,0.0018198314830263748,0.0020611554157202987,0.0022466099728054266,0.002379245125908514,0.0024487734320963487,0.002436193836964082,0.0023167080178631873,0.0020692598568884486,0.0016931867177438875,0.0012205516341819737,0.0007104099210396381,0.0002225482591979362,-0.00021552198921101343,-0.0006257500405380282,-0.0010640128636030493,-0.0015737124251925195,-0.002132892380218441,-0.0026309587166432878,-0.002899945767460198,-0.0027932208282808683,-0.0022706700854593013,-0.0014382297696733206,-0.0005121826423601873,0.00027727732215277313,0.0007910363591512516,0.001035687670830428,0.0011377873511637274,0.0012547389802072889,0.001475990069306387,0.001772512624791493,0.0020219420756793912,0.0020901662836337242,0.0019162376230735336,0.0015467367170686405,0.0010984853476459517,0.0006750632528460774,0.0002938322845226787,-0.00012526240879826294,-0.0006981067256360667,-0.0014798464483451246,-0.002395630195702784,-0.0032452328862896903,-0.003783150911664028,-0.0038303762261405047,-0.00335585594810711,-0.0024844990466872992,-0.001431639199781323,-0.00040433177044085756,0.00047585053483334243,0.0011919197628372142,0.0017926480253930128,0.0023281756226156657,0.002801917550720485,0.0031646334190265687,0.0033472853827272086,0.0033056281987952152,0.0030456014384369103,0.002615752818357367,0.0020778214267619067,0.0014802446331347349,0.0008519993669304793,0.00021381359553914868,-0.00041108575021365243,-0.0010012375231885577,-0.0015529930281891415,-0.0020890704128891774,-0.0026416468272558195,-0.003212590020505662,-0.0037375339566689146,-0.004086004240008953,-0.004108417640571536,-0.003707621838788063,-0.002893509574160906,-0.0017884543187865036,-0.0005813382088328282,0.0005427462801310596,0.0014602349675843609,0.0021303572585042122,0.0025793224756518896,0.0028642363271383113,0.003037553774776351,0.0031263807103150305,0.0031305954690560873,0.003034775603452818,0.0028243802382021408,0.002497482953157513,0.0020678669380067515,0.0015601690428267544,0.0010004731868175753,0.0004063399231573903,-0.00021948556417963265,-0.0008870584034315611,-0.0016060477896186543,-0.0023642713105106413,-0.00310817321297081,-0.003738754191013373,-0.004131624081518317,-0.004177798377107338,-0.0038284962991446793,-0.0031208404183492343,-0.002168219919727931,-0.0011179669970302589,-9.910097884792152e-05,0.0008106426746326078,0.0015832253210532761,0.002213540665071813,0.0026924252160267868,0.0029989154332867533,0.0031119732249170104,0.0030272972209174267,0.0027656549194648794,0.0023698643923379284,0.0018953234393023321,0.0013981689277881083,0.0009212678317199659,0.00047937698246543333,5.113127037947591e-05,-0.0004113993266132007,-0.0009522713155546711,-0.0015720459385430636,-0.0022019479823486387,-0.0027123983571464916,-0.0029596757095021633,-0.0028517218962254257,-0.002398651831939579,-0.0017166011636042576,-0.0009774489441264661,-0.00033008954444261365,0.00016078771450476104,0.0005223493914544808,0.0008274857678262993,0.0011305432476918535,0.00142944147851153,0.0016754104467503418,0.0018159300788857962,0.0018351588205274593,0.0017622341042145971,0.001643843542677598,0.0015033736974095987,0.0013168662470682663,0.0010224059663338076,0.0005565418118101851,-0.00010418115879313328,-0.0009181644624916274,-0.0017800204490674469,-0.002545331217988207,-0.0030691178968071907,-0.0032463484133682177,-0.003042685949900358,-0.00250507436475857,-0.001747086545947512,-0.0009132964923429735,-0.0001358124342551155,0.0005009034040202144,0.0009752190753662079,0.0013203762182437124,0.0015984211424825553,0.0018665394098301882,0.002148806923399599,0.002424928179830409,0.00264052636849737,0.002732642945261388,0.0026561574512823437,0.002398225946121715,0.00197686676252421,0.0014283033980531112,0.0007904582547528065,8.933179385910741e-05,-0.0006654544093846496,-0.0014711765029471514,-0.002309948245124872,-0.0031251435944129415,-0.003813383820284535,-0.0042441428723870335,-0.004303213945722105,-0.003939719228796856,-0.0031919352133853458,-0.002179142947014552,-0.0010656417159388887,-1.4774808394245917e-05,0.0008502199216101042,0.001469335057831271,0.0018498116546215233,0.0020516041519495825,0.0021594218072041476,0.002251535303658651,0.0023761250864622148,0.0025403457148367187,0.002710817058047274,0.0028229670144110774,0.002799425321217424,0.002577461904127371,0.002138377425400623,0.0015232211961814894,0.0008198533236184156,0.00012112320308851172,-0.0005248976071546363,-0.0011401334699780866,-0.0017943885966328857,-0.002541308312364456,-0.003348094778146959,-0.004066715821505748,-0.004476198042141322,-0.004383293366390135,-0.0037277079229086803,-0.002628462254494655,-0.001340812092237476,-0.00014765250906234974,0.0007528804396986122,0.0013059387302462558,0.0015854175150196543,0.0017292204401419082,0.001865949103365034,0.0020658153136124697,0.0023269887854064208,0.002590901257554911,0.0027729432025422347,0.002795772043674367,0.0026156907030354844,0.0022353177545295453,0.0016985419398695973,0.00106859765406552,0.0003977870085113234,-0.00029511441353106613,-0.0010230187729476999,-0.0017989057228252519,-0.0025895689327161647,-0.0032863378889837645,-0.003721704859480806,-0.0037352006217653655,-0.003257733157901309,-0.002365292647124777,-0.0012659304182395252,-0.00022130279312285837,0.0005586361275478246,0.0009950419972875432,0.0011560313043407202,0.0012045092455530391,0.0013066838135018166,0.001547892198843432,0.0018971190975317063,0.002234956550436905,0.00242477162408758,0.0023835647599452204,0.0021123256739668415,0.0016737636096097854,0.0011394161951157338,0.000545478832534695,-0.00011361063594010688,-0.0008537117895783634,-0.0016571625272402291,-0.002447318979997967,-0.0030974018048947824,-0.003468981723296892,-0.0034619203584902625,-0.0030543784170871356,-0.0023160353413433934,-0.0013878706431611132,-0.0004358232719443677,0.0004019683294587981,0.001051409685210269,0.0015084353392225323,0.0018171530586095811,0.0020351864979588465,0.002203508674254051,0.0023315671222942968,0.0023998148063298507,0.0023754588314885048,0.0022334889997238567,0.001972988158357268,0.0016198334820487182,0.0012132199186409998,0.0007830172862572238,0.000331456692045915,-0.00016906105895972716,-0.0007589427946317969,-0.001461991598388633,-0.0022566190143009936,-0.003061406397440607,-0.003744050127929909,-0.0041537786613725525,-0.004167342877821093,-0.0037322091611903725,-0.0028904544246366464,-0.0017727868249770911,-0.0005623872474495685,0.0005594633171127329,0.0014645445441521675,0.0021042717212819704,0.002502486236610649,0.0027230077319478274,0.0028318301541156656,0.0028716353976338182,0.002854462249270051,0.0027676290894585085,0.002585732476418542,0.002285517310190853,0.0018623347293558272,0.0013424258282738774,0.000780143096672472,0.00023354247201904722,-0.0002724469962581117,-0.0007700754536407897,-0.001334553828848005,-0.002027629677429723,-0.0028272125062272562,-0.0035911397905768116,-0.004091615801626891,-0.004115018502721033,-0.003575214791761056,-0.0025718514352585913,-0.0013546035518087573,-0.00021184310505675688,0.0006525424731164115,0.001187511780137725,0.0014791796158026794,0.0016715969914371856,0.0018757255189208013,0.0021162781388715073,0.0023370452438085418,0.0024497044314093106,0.002390334213051697,0.0021513253872424065,0.0017771096652112214,0.0013340594197820323,0.0008754399122868433,0.0004194614219217275,-5.130159051645903e-05,-0.0005704226163289303,-0.0011562485434281526,-0.0017820119496769252,-0.0023633685368317533,-0.002774751671531103,-0.0028922631958220387,-0.0026447949231880744,-0.0020485718348931367,-0.0012087734581773444,-0.0002887062236377777,0.0005394288111796752,0.0011437741051592472,0.0014667002867995694,0.0015342982747783718,0.001439713627824792,0.0013057397279418923,0.0012382548571972364,0.0012860781854652338,0.0014223483844783946,0.0015551392963607798,0.00156249409315544,0.0013369802660937653,0.0008239264144475848,4.3820631048935136e-05,-0.0009047411080812559,-0.001863103650182198,-0.002650806983463317,-0.003116228834772137,-0.0031825496919276053,-0.0028684985361650556,-0.0022720519071021987,-0.0015243687560094628,-0.0007391344188125018,1.5161628944163324e-05,0.0007096355608833152,0.0013296949914920904,0.0018549163904031138,0.002259110290674616,0.002524489855103917,0.002651142210645386,0.0026499051955669274,0.002525769375624016,0.002270799903338479,0.0018780194714889263,0.001367092903536752,0.0007975294415302005,0.0002497968729096107,-0.00022173869657927904,-0.0006337038270779391,-0.001077846410864592,-0.0016671160230920339,-0.002447253386231109,-0.003329237754868668,-0.004093828923186745,-0.004477442133714496,-0.004296092612634878,-0.0035378033216975444,-0.0023717058731285217,-0.0010710424656609023,0.00010508611037056274,0.001008250147941473,0.0016308371336409932,0.0020651564242470917,0.002424151126500849,0.0027714695176790077,0.00309592577445718,0.003334482672135262,0.0034185959553143398,0.0033098397087098453,0.003006582145760173,0.0025293851749701277,0.0019066845335772456,0.0011743314790078883,0.0003832986897630195,-0.00040109579645705864,-0.0011174842333286884,-0.0017344666182923314,-0.002262145536984824,-0.00273382784587348,-0.0031651143408012047,-0.003517703167937136,-0.0036955258311982177,-0.003580580185915168,-0.003090871911777556,-0.002230347929312834,-0.0011057529300346747,9.811351846587585e-05,0.0011744686283560507,0.0019586149245740293,0.0023747343223710724,0.002449394595149386,0.002289973730143918,0.002037950990132758,0.0018137328473857859,0.0016726696205740573,0.0015904042833242336,0.0014857846202845613,0.0012709786882004527,0.0009007770324127192,0.00039153002873747145,-0.00019908306230258428,-0.0008107253284821444,-0.0014035272374465016,-0.0019480944955047952,-0.002397235860958971,-0.002672794780697702,-0.0026881194990318164,-0.0023943764806961107,-0.0018166169310530921,-0.0010522152804824105,-0.00023236305761813127,0.0005276584158094617,0.0011599793574427562,0.00164466382856787,0.001988340266111472,0.002201148814860575,0.0022871518771278698,0.0022492493299377564,0.0020989397579332025,0.0018606690548003354,0.0015667097828096024,0.0012446737341221387,0.0009033416039156717,0.000524635793577784,6.943200603617972e-05,-0.0005005519410350909,-0.00119266780102562,-0.0019608613937755863,-0.0027052587917353235,-0.0032972503979006693,-0.0036194834414728354,-0.0036017597407574263,-0.0032367278403586277,-0.002572441017413277,-0.0016930586540840722,-0.0007022727898692491,0.0002863002623075122,0.0011599994126640745,0.0018277276364356242,0.0022459051669863127,0.002433365454901046,0.002460803245112042,0.0024158885332271106,0.0023618496969730076,0.0023124584081358223,0.002236204485422095,0.0020843321162728845,0.00182387567055846,0.0014562125954805548,0.0010124848632525807,0.0005313366920688463,3.403681715460232e-05,-0.00048661422746117036,-0.0010547383615005577,-0.0016819776448128685,-0.002337591759827177,-0.002938377902531988,-0.0033686853671897115,-0.003523118326526205,-0.003350222852673622,-0.002873849409105277,-0.0021815083334722836,-0.0013881879544788886,-0.0005969451107595131,0.0001247908163678165,0.0007483844875852945,0.0012742016495853976,0.0017174896671226462,0.0020927230635742703,0.002397704456167514,0.0026042059556100673,0.002665102483298009,0.0025401462187723905,0.0022277638051205126,0.0017817711013465827,0.0012984856026535187,0.0008774486289335737,0.0005754610451619249,0.00037843437262923755,0.0002067446636250124,-4.6914969034956774e-05,-0.0004641774553275342,-0.001057046873420656,-0.0017542033775161535,-0.0024237273261069727,-0.0029202413857184056,-0.003133315274945936,-0.0030168326850786385,-0.002592901075267444,-0.001937340192238631,-0.001157416716211839,-0.00036765638929665964,0.00033485768017731105,0.0008925946157464647,0.00129911184050186,0.001591299877918116,0.0018211979759270558,0.002019262425235294,0.002170461239675961,0.0022208724152101883,0.0021138687411114587,0.0018328445084314212,0.0014195092106675253,0.0009518070694699535,0.0004942499161170134,5.513088381591479e-05,-0.0004166365165584311,-0.0009874413754302612,-0.0016722013478050355,-0.0023871705591088765,-0.0029562636993887186,-0.0031756773983249303,-0.002908591219005461,-0.0021624378159135326,-0.001105825858089759,-1.0105194165417088e-05,0.000860485061719588,0.0013567061935700821,0.0014954661512507198,0.0014295068788563042,0.0013554973019582874,0.00141207172629103,0.0016196721315169835,0.0018861319468486948,0.0020657407169310297,0.002035929044368444,0.0017536792635892418,0.0012688248882177632,0.0006928728918570644,0.00014075026443592762,-0.0003262554822264104,-0.0007281253895209477,-0.001148319495993648,-0.0016761642201279198,-0.002337109250799555,-0.0030492363079668763,-0.00363514757882966,-0.0038902818464415477,-0.0036752424961925536,-0.0029819539872403228,-0.001936477778199747,-0.0007397298031052112,0.00041499681106268766,0.001399611696514633,0.0021604883206305277,0.002692244480409734,0.0030073761732942973,0.0031237495251340407,0.003069357608823868,0.0028889875748627607,0.0026392237638995864,0.002370482990864401,0.0021064184740781744,0.001834448038197826,0.0015149701799864496,0.0011052192696592526,0.000584154542829663,-3.625853101535322e-05,-0.0007193337591075503,-0.001424044560967062,-0.002120486225991629,-0.002785752127280252,-0.0033811367608582695,-0.0038306062982971646,-0.004026493351184688,-0.0038721524418389515,-0.0033417403137369697,-0.0025169013515658287,-0.0015677436886907298,-0.0006799651009541226,3.1522633100021275e-05,0.0005685944704597304,0.0010255536292447843,0.0015104129839752856,0.002063543739752945,0.0026257946920557216,0.0030734877125770744,0.003292742254605738,0.003241844424454152,0.002963439992464052,0.002546378241072066,0.002070263950188939,0.0015706480522279065,0.0010404040566790273,0.00045521703531901546,-0.00019980201117068244,-0.0009158667489804663,-0.001656596851760771,-0.0023570692073856107,-0.0029256931522372975,-0.003256822121553476,-0.003259217217168487,-0.0028926784007822963,-0.002194295721310524,-0.0012775785313234667,-0.00030181724093457363,0.0005748379059948177,0.0012376632785882087,0.0016366429024485109,0.0017824071350544752,0.0017247254009793876,0.001528124270757408,0.0012572983887051527,0.0009748889743067181,0.0007417098225658633,0.0006049640486155634,0.000570471236074681,0.0005750162788677921,0.0004877116774178607,0.00015945992493473322,-0.0004916968382424994,-0.0014041765032883524,-0.0023583902589022192,-0.0030492038403780656,-0.0032192312040949123,-0.00278413428414268,-0.0018773245314149096,-0.0007845171279769119,0.00019619435555056158,0.000888806200108596,0.0012950436574978895,0.0015490252222537938,0.0018088206914976237,0.002153762957224492,0.002543359467099505,0.002850439987231177,0.00293787710704585,0.002730268521416645,0.0022447050419057827,0.001573804085480825,0.0008393695590135645,0.0001443421390970737,-0.0004557538984946742,-0.000955300064314242,-0.00138205180746775,-0.0017743599431476653,-0.0021616467952251177,-0.0025508566775162616,-0.0029185081238619326,-0.003210173738654594,-0.0033513631499028592,-0.003270213735516268,-0.002924272587350024,-0.0023185964571391486,-0.001506416008236639,-0.0005740632090851644,0.0003801984922712739,0.0012642922330660864,0.0020045629108414696,0.00255412314357255,0.0028984486453419705,0.003055457175417025,0.003066329265861217,0.0029779558091956784,0.0028245427359531207,0.0026181652667553084,0.002352806138275606,0.002017015675700847,0.0016044266177248092,0.00111439467041682,0.0005449158114989152,-0.00011183640453187428,-0.0008620346521171311,-0.0016913065506001703,-0.0025456129533430946,-0.0033261171825299035,-0.0039057006218638883,-0.004163443063837648,-0.004023857765175968,-0.0034842957872071286,-0.0026185101690270147,-0.0015556728853191064,-0.0004461354305807669,0.0005705255559062353,0.001386094137272587,0.0019342095766416352,0.0021963204965852515,0.002204368487060593,0.002035611898361313,0.001795113954342315,0.0015874044197119667,0.0014848946440043137,0.0015029202217479865,0.001590412546909462,0.0016422264402286377,0.0015330026008165158,0.0011632869250568427,0.0005014907317647562,-0.000393867969107428,-0.0013792416809436925,-0.002258028940916211,-0.0028340779159148266,-0.0029749096480744777,-0.0026627252886307624,-0.0020064034900547445,-0.0012003040657189298,-0.0004444566270290164,0.00013358337855772,0.0005138320568889606,0.0007614033292406082,0.0009673691336886975,0.0011921787500676906,0.0014413711565278856,0.0016768827332075149,0.0018449146400717894,0.0018974936845587622,0.0017982925160068709,0.0015202117860484052,0.001048322956989437,0.0003935722898193514,-0.00039105271633595065,-0.0012073067660984445,-0.0019314192434113984,-0.002451967548925204,-0.002706959974128147,-0.002698959557745251,-0.0024799363801915573,-0.0021162557445477794,-0.001655131651129591,-0.0011111138570343083,-0.00047873166860272037,0.00023742539989735035,0.0009945226095612692,0.0017050982220304836,0.002260717098965402,0.0025753963075401576,0.0026246714808235614,0.0024566185762047842,0.002166707221291699,0.0018501261081952422,0.0015596697665480443,0.001294002117236492,0.0010203696979455687,0.0007112325346177781,0.0003647663859518226,-6.471791298633632e-06,-0.00040665699730991627,-0.0008765031806852288,-0.0014763410495518981,-0.0022341556922417403,-0.003089135921884945,-0.003871161775196642,-0.004340478846358511,-0.004279095724608245,-0.003594244156874535,-0.0023811733886714634,-0.0009063299072235978,0.0004907660160239339,0.001534861135994944,0.002123709906855909,0.0023507897576693555,0.0024292005970855826,0.002558979852045974,0.002812545476453236,0.003101711327310427,0.003240575945969943,0.0030624635279283014,0.002521141462126072,0.0017214420360891938,0.0008682372316069392,0.00016661283477815912,-0.00027298638335708893,-0.00047925593577200886,-0.0005974951511320348,-0.0008154408604668856,-0.0012728784900159567,-0.001992410533292328,-0.0028571270231378867,-0.0036433682815973974,-0.0040979820694765495,-0.004032595270184104,-0.0033982077463733796,-0.0023085573974968234,-0.0010010114885593557,0.00024935220580433017,0.0012265239448123193,0.0018408406755412274,0.0021390070195202865,0.0022538841284007955,0.0023194961798958472,0.0023961398897188423,0.0024473963327961887,0.002381372098125533,0.002127608813891777,0.0016966696178355091,0.00118097195890617,0.0006963366320757387,0.0003050220503433086,-2.6143915397762647e-05,-0.0004024037884665934,-0.0009251500179261959,-0.0016097971192270625,-0.002347989088970274,-0.002938806224629569,-0.003174584370078984,-0.0029370589980728854,-0.0022541758755956804,-0.001289018754939056,-0.00026837274966057636,0.0006102067241097763,0.0012449314788009315,0.0016399995960632368,0.001862978882826347,0.001981649692054531,0.00202059817178591,0.0019614216118032796,0.0017800570718700735,0.0014893803537028901,0.001151529604394096,0.000845934871240153,0.0006120781659195352,0.0004076814278489808,0.0001173233275247871,-0.0003842736918288183,-0.001146803458661613,-0.002088132147679161,-0.0030055141477629385,-0.0036536263867244004,-0.0038483140090196924,-0.003539590239200786,-0.002817085155113216,-0.0018519451441295742,-0.0008143646818110195,0.00018543027089645204,0.0011053336822888678,0.001935458872579614,0.0026512646127545923,0.003192070803523381,0.0034810893865527414,0.003472700325626271,0.003191998600365048,0.0027352582497721435,0.002226580947484068,0.0017571702814927147,0.0013462048297965905,0.0009463618001088642,0.000485207434625064,-8.865977901564663e-05,-0.000781967606174368,-0.0015595002405152478,-0.0023571478069654983,-0.003089712690618229,-0.003654297886345517,-0.0039428350751023675,-0.0038722710564715007,-0.0034228085993746916,-0.002660985480718939,-0.0017284242138924685,-0.000796243376578613,-5.1062495066984525e-06,0.0005813378349388541,0.0009890409328353659,0.0013074730932436207,0.0016364808668896291,0.0020289441695233376,0.002455366007455087,0.0028097177493567353,0.0029584908235116675,0.002811947297293509,0.0023800347782139586,0.0017785099378898879,0.0011764563686699188,0.0007110989323551466,0.0004172628349870408,0.00021216775857724467,-5.49280286376318e-05,-0.0005152649289826201,-0.0012025069126705588,-0.002024197257196462,-0.0027944839508333577,-0.003308065542238299,-0.003418041089666586,-0.0030843183829168007,-0.0023778973880747307,-0.0014471157275067164,-0.00046504848870585044,0.00042046475910800655,0.0011188641421689485,0.0016051434065820751,0.001906488266770652,0.0020743109476943507,0.0021519574002193402,0.002150844714767698,0.0020471329907535045,0.0018035395610171963,0.00140664741170343,0.0008964437584441521,0.0003637313517913729,-9.115228393085338e-05,-0.00041677158905116453,-0.00064690247284426,-0.0008845377852672021,-0.001236327264066102,-0.0017348857167967793,-0.002298190275197541,-0.0027548318428367267,-0.0029235772521884577,-0.0027015517785676335,-0.002110205388030906,-0.0012760359829080345,-0.0003647868124202038,0.00048604613461747793,0.0011990055014106157,0.0017476588167457262,0.002130473168357523,0.0023541980796693367,0.002433791257571945,0.002396644403819381,0.0022778120104682,0.0021069160992426015,0.0018986767625594615,0.001655284236914385,0.0013753857642341096,0.0010572197799351862,0.0006911124404377978,0.00025111829628441014,-0.0002991821056662014,-0.000982642833439831,-0.0017791597759736761,-0.0026106769956185565,-0.0033516310311550637,-0.0038605940409456967,-0.004019328673105629,-0.003765736885333435,-0.003112652944124659,-0.0021491467238580284,-0.0010235043686662407,9.017539685304477e-05,0.0010349070483988226,0.001711038113243043,0.0020996113534032723,0.0022588200065279057,0.0022930176995442702,0.0023051797800773587,0.0023521150061828213,0.002422462758909465,0.002448440878783476,0.0023460651755137733,0.002063078376813004,0.0016085736687214973,0.001047689751519266,0.0004644183492263495,-8.545697480421587e-05,-0.0006023688072127197,-0.0011331506853214266,-0.001726671714464413,-0.002379649916621404,-0.0030059992168258174,-0.003453125670326863,-0.0035635222868795175,-0.0032523833975177142,-0.0025585906416937276,-0.0016377474330136897,-0.0006971431279709397,9.447864126290633e-05,0.000674416474917521,0.0010949474154342102,0.0014705718914939897,0.0018949407861141166,0.002374916765860346,0.0028176952137925542,0.0030757715343374095,0.0030232459761539523,0.002622711928795806,0.0019494037420523633,0.0011612051522614467,0.00042856535725606485,-0.00014202777946057326,-0.0005516615538670352,-0.0008943975087132193,-0.0012899224279912264,-0.0018001519347479757,-0.0023776032154721235,-0.0028758726376275734,-0.003117064075007103,-0.002978899017354198,-0.00245393586104349,-0.0016504369252172764,-0.0007385600008867765,0.000124198562742317,0.0008463324955344919,0.0014099819757380915,0.0018383832584139266,0.0021512657352564628,0.0023391576620572533,0.002371225972205711,0.002227256393077433,0.0019275703156381467,0.0015356317460838978,0.001126975367246628,0.0007432553844122192,0.00036416056521143547,-7.903764172107874e-05,-0.0006521382911360792,-0.00135966107627054,-0.00211670895808212,-0.0027696170444736134,-0.003154169823835481,-0.0031597153021523114,-0.002768065119070274,-0.002053703396482204,-0.0011523834206138201,-0.00021636225801778406,0.0006259751015568994,0.0012950317060414387,0.001765792054080962,0.002056975768016653,0.0022102299951052787,0.0022675956001529047,0.0022548582629638436,0.002176548871723579,0.0020244692579337005,0.0017945390661070824,0.00149973034548908,0.0011670448153616615,0.0008168972595712558,0.00043753317536962175,-2.517120108044596e-05,-0.0006469902305970077,-0.001474639505126939,-0.002467356963347361,-0.0034670332773044836,-0.00422668079069024,-0.004497643140617669,-0.004138976209381501,-0.0031926419448473596,-0.001881054720747395,-0.0005231062617985286,0.0005922447573441605,0.0013140996583931627,0.0016693093274212623,0.0018186887776840337,0.0019552947777277717,0.0021972950348884686,0.0025297015930705043,0.002823980628518989,0.0029225432340625724,0.0027381069971329055,0.0023089205925651756,0.0017774985935524765,0.0013068698719515205,0.0009849474780148112,0.000772519000514172,0.0005234552811499448,6.581872694204057e-05,-0.0006980255737104397,-0.0017225796750425615,-0.0028171896238911014,-0.003715380981906222,-0.004185094990032212,-0.0041263419032635295,-0.0036059436085985478,-0.0028109458797761543,-0.0019477683868150695,-0.0011459377975544698,-0.00042131280626494497,0.00028507081762407435,0.0010245198974295237,0.0017719609804147576,0.002415878769769303,0.0028123440069729995,0.002868716689862104,0.002605643533140404,0.002159039059929537,0.0017177588391593603,0.0014294831533302424,0.0013272628400056612,0.0013189926565085452,0.001244706311516283,0.0009649103967971915,0.00042685850788257303,-0.00032336557599884784,-0.0011748658357583622,-0.001997224306017665,-0.002667655241123312,-0.00307815208749611,-0.003142775668077345,-0.002821560697171827,-0.0021529572410000485,-0.0012662688720701445,-0.0003508634855979776,0.00041220102160290415,0.0009215955727600671,0.0011895600481467523,0.0013181673449484273,0.0014309277708486863,0.0015980526899710588,0.0017975582274353066,0.0019338162551207534,0.0019005999689894477,0.0016478051831901788,0.0012088804301994664,0.0006725503250145104,0.00012056008470915963,-0.0004230771591424216,-0.000993260385002977,-0.001631705235164534,-0.0023164444083922206,-0.002924336193506904,-0.0032603098595700894,-0.003145391805745315,-0.0025163219499002906,-0.0014782709376952533,-0.00027639083438499735,0.0008029271662303649,0.001550586334721444,0.0019111956579454486,0.0019793341674085724,0.0019236416337536904,0.001887216571429028,0.0019224296130126183,0.0019914242003302844,0.0020191867807187592,0.001954588015037212,0.0017966331729112064,0.001574145405328067,0.0013023127810394054,0.0009531938383227534,0.00046286430177671083,-0.00022923195947669643,-0.0011321069611420177,-0.0021716721287355174,-0.0031916940214678294,-0.003990120847999301,-0.004380477087802594,-0.004256363804047871,-0.003632088132236513,-0.002640119227017946,-0.0014853967741790103,-0.00037696646627793484,0.0005336110135768079,0.0011846861943094935,0.001601843250043985,0.0018685730024227997,0.0020844601560271016,0.0023239641086475046,0.0026063180858295295,0.002885063878732177,0.0030622406004334355,0.0030252928390910212,0.0026955561401214227,0.0020696791906489797,0.001234094886007353,0.0003406451941533544,-0.00045187713721898633,-0.0010461126024539293,-0.0014488320593288996,-0.001759189256359387,-0.002101044438295309,-0.0025334402896117145,-0.002993635923885814,-0.0033128850956808493,-0.003300639645668158,-0.0028482183368735447,-0.0019911655509331685,-0.0008978828540913659,0.00020269298024590146,0.0011112183719189307,0.001721744684886267,0.0020361167694610324,0.0021327822026761217,0.002113458499049346,0.0020563366355516918,0.001994672910890341,0.0019219735662753972,0.0018111532216772645,0.0016325092601963168,0.0013624825656811004,0.0009845576305789992,0.000488659123477342,-0.0001256790925777494,-0.0008412528237986671,-0.0016125860128610166,-0.0023573438228540575,-0.0029568262729099083,-0.003274249624430122,-0.0031950233631529027,-0.0026795269818052714,-0.001802683984961125,-0.0007505169945149776,0.00023843539517919176,0.0009663626010629507,0.0013574207112160492,0.0014806658273065305,0.0014986569863672046,0.001568823588136244,0.0017534835706230884,0.0019894287822129573,0.002131713285017177,0.002042084632183807,0.0016681747587448197,0.0010686639651835395,0.0003745141014543854,-0.00028507881857591476,-0.0008440329709592021,-0.0013107924490808917,-0.0017262975371091234,-0.0021006631420771647,-0.0023753241499061967,-0.002440445585296126,-0.0021990693066673683,-0.0016358345145403052,-0.0008433910966370062,1.2333671396967414e-05,0.0007661160628306436,0.0013200234331139787,0.0016635757794615153,0.0018419012141838783,0.0019016161904555594,0.0018564015370629763,0.0016952006351739584,0.001420486716220601,0.0010789666194326271,0.0007513244101075158,0.0004990769097747938,0.000303779343713241,4.9271668034995577e-05,-0.000423673792476562,-0.0012091743632337009,-0.002237068172440369,-0.003251929625406686,-0.0038997495074492407,-0.0038881243806111986,-0.0031377675081137417,-0.0018411558152436722,-0.00039059559318136474,0.0007929666640237424,0.001445686830872511,0.0015677776070880571,0.0013990231637125556,0.0012784642155974908,0.0014631440201194512,0.0019991992624646877,0.0027069551562058833,0.003279430621671452,0.0034365887294819757,0.003055803756320288,0.00221970264025894,0.0011688636805134386,0.00019089447504805687,-0.0005009989741528596,-0.0008500614307559748,-0.0009676445277930804,-0.0010700077454527997,-0.0013656906361568055,-0.0019435678785360785,-0.0027166273970618505,-0.0034528766384126514,-0.003881301800474928,-0.0038206566893644158,-0.0032648527550661593,-0.0023799570373578623,-0.0014148029377080327,-0.0005753194806851494,6.65600748170249e-05,0.0005798873990819345,0.0010996325650757888,0.0017202864491497126,0.002423352733935931,0.003077534571806186,0.0035044916331402704,0.003568813060150833,0.0032453224854785087,0.002634562414221623,0.0019225904997068443,0.0013032766792148956,0.0008961154723352397,0.0006961973955204254,0.000580843392798291,0.00037152995231096446,-7.778234301823912e-05,-0.0008084719298102406,-0.0017351448462234911,-0.002680828710902424,-0.003447315510337584,-0.003883877983690916,-0.003925215085568949,-0.003591096744297194,-0.002959551984219635,-0.002132339619786816,-0.0012073797914334537,-0.00026498322672452554,0.0006323558072385876,0.0014324061140857294,0.0020867814562275343,0.0025527222513811744,0.002803219243319458,0.0028381742064920363,0.00268729426506009,0.002400801690778389,0.002032820733747916,0.001627403948192236,0.0012139108155864741,0.0008092956790739481,0.00041862033482448273,2.91863398160458e-05,-0.00039439427103202045,-0.0008992376493180268,-0.0015101658989233127,-0.002186595948651646,-0.0028019348558257703,-0.003172484734331042,-0.003133456092181338,-0.0026247203924524183,-0.0017354657912367353,-0.0006774967546113678,0.0003012293247509662,0.0010164293457300092,0.0014090363142402217,0.0015422402742191195,0.001544999012396227,0.0015382212592718312,0.0015810109412104712,0.0016566280439747278,0.001695904105647859,0.0016212889683488985,0.0013896856167802236,0.0010142947678779075,0.0005546147383306359,7.992385291787568e-05,-0.00037116413047411247,-0.0008068226336521423,-0.001259627896379002,-0.001738556743290766,-0.002189521733853734,-0.0024970555174379516,-0.002533753980521808,-0.0022304692197293763,-0.0016235274890220057,-0.0008486356523929803,-8.485034021372354e-05,0.0005188359163046732,0.0008961335390033219,0.0010743615321520358,0.00114658605691354,0.0012231592531435935,0.0013834843390131387,0.0016442896744661164,0.0019539889705420532,0.0022141994591833494,0.002319109806065624,0.0021955012969831844,0.0018267201691511792,0.0012528980329154409,0.0005507594676560332,-0.0001965376622579427,-0.0009266382596344667,-0.0016101619483655423,-0.002240538558453097,-0.0028051571652884604,-0.0032554536498438694,-0.0035003918737038417,-0.003437392137139489,-0.0030091709208600126,-0.002251709281729609,-0.0012979815979913998,-0.0003283970141753833,0.0005057407257200062,0.00114100585307003,0.0016095061819609393,0.001994239319215219,0.0023617008284861577,0.0027120420458803555,0.002973989968144959,0.0030450467058710496,0.0028527837102067964,0.0024024397807721554,0.0017837982063374047,0.0011323236173668614,0.0005645780989393138,0.00012236720929009889,-0.0002441235792747323,-0.0006438754742386163,-0.0011778521834001972,-0.0018700221770236636,-0.002633031076501488,-0.00329015615502612,-0.0036465609060677053,-0.0035748491086525828,-0.0030703498340555776,-0.0022484273357875196,-0.0012893580268394924,-0.00036434181235311285,0.00041812365827192846,0.0010240805725509076,0.0014701329930755782,0.0017883625134978887,0.00200421233806812,0.0021346450314145386,0.0021954159225014776,0.002201091562775869,0.002153139956468528,0.0020286793708457866,0.001787804930602121,0.001403135763421236,0.0008924640900690211,0.0003255577249929531,-0.0002086060451961262,-0.000656775259042046,-0.0010382368535657507,-0.0014291690260529906,-0.0018953898905730196,-0.0024157929197166977,-0.002854431379185948,-0.0030125117105029753,-0.00273724995720119,-0.0020209973590602807,-0.0010248434738344006,-7.975372701878437e-06,0.0007952006842107535,0.0012764518840384246,0.0014777382998685694,0.0015339283609287137,0.0015790705107027016,0.001675624208327802,0.0018014616419716396,0.0018873295211670207,0.0018686281056393894,0.0017169274593178967,0.001440501501598412,0.0010660420866755475,0.0006193216700659749,0.00011411449362201881,-0.00044943989939258454,-0.0010760680359404935,-0.0017541309350736919,-0.002427505421455511,-0.0029801990704552504,-0.00325750814169999,-0.003128809097504161,-0.0025638514141834547,-0.0016737447145809168,-0.0006813597328715731,0.00017163254461774447,0.0007319459674652697,0.0009958958237182274,0.0010918401116862917,0.0011973625751743754,0.001439631204100005,0.0018317242724406495,0.0022735228351981793,0.0026097933648694446,0.0027097304642804904,0.0025251546161509982,0.00210143472533998,0.0015447541532882692,0.0009715530766966308,0.0004670310056062914,6.387150685229761e-05,-0.00026243783210575596,-0.000586300756315298,-0.0010089493826401573,-0.001613825965022478,-0.0024082391589256126,-0.0032799607416869646,-0.004005119576624038,-0.004323675064750649,-0.004057264698480812,-0.003208523599921328,-0.0019804041560088064,-0.0006954278453443802,0.0003462665886622394,0.0009937850422172447,0.0012900384720138365,0.0014160757142120165,0.001574671886597132,0.0018824612101694112,0.0023259106951310686,0.002791680260261615,0.003138517477556119,0.003263371161587888,0.0031322383331004087,0.0027758864880687933,0.002267688917496969,0.00169804018990405,0.001149008138430281,0.0006689772698287701,0.00025280316025929944,-0.00016076287939887843,-0.0006654359332440583,-0.0013411235098236512,-0.0022028529987962444,-0.0031692090675598927,-0.004069016359030429,-0.0046897575501757445,-0.0048523072487596745,-0.004481621408303307,-0.003640484645790138,-0.0025079621168410575,-0.0013104401008884915,-0.00023681454459437682,0.0006227782174358261,0.0012871519648345355,0.0018410709497592844,0.002363896325780707,0.0028697585769088107,0.003292947516393414,0.0035260282139591586,0.0034863734229013104,0.003169759857012057,0.0026592655806387906,0.0020869291968571456,0.001573466179112311,0.001179614366932638,0.000889701967769219,0.0006272973067784455,0.00028968328273750956,-0.0002128157565393071,-0.000921616167263991,-0.0018053246541498839,-0.0027535240430235225,-0.0035956352143607733,-0.004144621810755722,-0.00425450662740911,-0.0038718793823422225,-0.0030598880599318925,-0.001981236930366606,-0.0008432785921897213,0.00017325542093519141,0.0009701360180576973,0.0015459242130184112,0.0019631178723492674,0.002288513506846446,0.0025430562900079076,0.0026914229931317927,0.0026749818902698777,0.002462084393810347,0.0020790553982322213,0.0016017260238552823,0.0011165854495251359,0.0006790333631911803,0.0002923940526247023,-8.602142229968218e-05,-0.0005196774842973022,-0.0010593804936215104,-0.0017102655096949116,-0.002408672515477545,-0.003022217777919832,-0.0033837294362602877,-0.00335387520970069,-0.002885680058224713,-0.0020549991245503675,-0.0010360803779005758,-3.2433880869668554e-05,0.0008013117188124829,0.0014073937937466674,0.0018220828401437953,0.002129177333886876,0.0023983935906481775,0.0026418672424293457,0.00280926234646547,0.0028203147389849487,0.002614768773992499,0.002192340841807929,0.0016217824081849704,0.0010139118015832554,0.0004707675620760289,3.491985613650664e-05,-0.0003347500192967026,-0.0007441555318064008,-0.0013057108970868322,-0.002066842566535215,-0.0029622191002391936,-0.0038166507725761528,-0.004400212544894917,-0.004512303365827068,-0.004060226188081578,-0.003101691838561645,-0.0018333823596943038,-0.0005255742785309104,0.0005754909238059223,0.0013369069031496515,0.0017767673866135693,0.002029331532980806,0.002256114207259598,0.0025529097406535037,0.0029038424720954,0.00320264972586541,0.003320404633303421,0.0031754337295080023,0.0027681415976829275,0.002171499782902625,0.0014945959049555877,0.000844097783092308,0.0002971554866017678,-0.00011509308125117314,-0.00041719911851101365,-0.0006880503493401128,-0.0010380769986566656,-0.0015614068233942677,-0.0022777418667249147,-0.003094747360862477,-0.0038196272049403784,-0.004224532870473261,-0.0041383744511242875,-0.00351980763182499,-0.0024758372827946495,-0.0012207565254015512,1.3641538573814886e-07,0.0009865845427769024,0.0016331195864084272,0.0019436553480738617,0.002014076973599891,0.0019901534542763164,0.0020104868720221885,0.0021499049038048554,0.0023850374751955505,0.0026020184394720037,0.0026499269725757065,0.002417549777532361,0.0018920415968982523,0.0011634540523870873,0.00037095109227095,-0.0003744871436261684,-0.001038660113295024,-0.001651369588757229,-0.0022436816501891703,-0.002783220833294877,-0.003157717305457291,-0.003223468970607952,-0.0028899642319993426,-0.002186023842740287,-0.0012636562222269234,-0.00033521450917413896,0.0004197228113014144,0.0009254083379146486,0.0012230563761638342,0.0014251840697000549,0.0016412922219318047,0.0019159468914691303,0.0022088426797461855,0.0024219322658586657,0.0024550231334620537,0.0022591116048360877,0.0018600291038569172,0.0013409201163766288,0.0007931785698655611,0.00026237888722324774,-0.0002794636003121076,-0.0009148180211189952,-0.0017179349552393296,-0.0026782635344569177,-0.003654597507295525,-0.004395768915592754,-0.0046311991772479775,-0.004193959965588385,-0.0031142222590918476,-0.0016294735351424904,-9.813967109633011e-05,0.0011454676296542292,0.0019232629706680575,0.002265458590011412,0.00235805472239743,0.0024186713449034394,0.0025723358550735864,0.0027954834659631523,0.002953345096129098,0.002899892805455804,0.002575034507123126,0.0020410017489728045,0.0014418747552704281,0.000917966214060566,0.0005298978542313943,0.0002343991759219304,-8.174714162742036e-05,-0.0005361680917870921,-0.0011910766237412719,-0.002023269079030824,-0.0029261789073548733,-0.0037340276725112706,-0.0042604160614865,-0.004348749454281746,-0.003926736430955111,-0.0030445945407503597,-0.0018727363722988953,-0.0006500742967349518,0.00039918882432939763,0.0011430504907466795,0.0015773510015975436,0.0018041969019673098,0.001966492196194575,0.00217315768690718,0.0024518094363780055,0.0027477382808155423,0.0029614161529978055,0.0029983204524119712,0.002805053916084878,0.0023812594269825202,0.0017736082994040895,0.0010630108703072907,0.00034866624179774434,-0.00027519506991856117,-0.0007506948739892769,-0.001084283391332217,-0.0013514116524984921,-0.0016644959985821308,-0.0021112684012016096,-0.002692755612325502,-0.0032977272383202445,-0.003734786560251367,-0.0038114036705346153,-0.0034209185847039374,-0.002592579503170687,-0.0014799572069583659,-0.0002963499839900275,0.0007679883666874316,0.001605983963420898,0.0022053024829709507,0.0026124395018396135,0.002876319450763762,0.003008749448511025,0.0029858372782158543,0.002784566635278086,0.002423083611354634,0.0019713276866834793,0.0015214526564502394,0.001136883351462014,0.0008135234924227038,0.0004784888204682982,2.9028764134802824e-05,-0.0006076653177532252,-0.00142309459402684,-0.00230959849978742,-0.003086488523720814,-0.003561650062956119,-0.0036034435232150776,-0.003191286735800704,-0.002422425873937475,-0.0014737675956261014,-0.0005386626550069348,0.00023351676975521065,0.0007742818156058692,0.0011017340408149448,0.0012971037404553962,0.0014602389532985937,0.001659131239428202,0.0018949966275631329,0.002101892011512222,0.00218373346179792,0.0020696535241224406,0.0017560370206622814,0.001309942847776059,0.0008307133344596095,0.00039145779680781044,-4.624098371905799e-06,-0.00042469238410031,-0.0009588193099939293,-0.0016478524585328944,-0.0024262514537115153,-0.00311566291682028,-0.003482122786376534,-0.003337403083284911,-0.0026375855588240587,-0.0015252146909311946,-0.0002844505462334442,0.0007760074382538981,0.0014546942014773078,0.0017340010276623067,0.001760753454382168,0.0017444440209825047,0.0018337066700308783,0.0020413170421900444,0.0022551192376746606,0.002319546855615539,0.0021339399774495146,0.0017107130523272317,0.0011648072571775147,0.0006451815450913398,0.0002484002512679451,-3.781116985545122e-05,-0.0003284995452843511,-0.0007725694258810982,-0.0014556773263541328,-0.0023286095885040013,-0.003204478708662843,-0.0038311840840244,-0.004002394099512017,-0.0036472219166880353,-0.0028514638055037213,-0.0018049871000630439,-0.0007134954942851901,0.0002713534201298183,0.0010714393877709982,0.0016598335463083934,0.002031852049400984,0.002198473821748331,0.002201126181006887,0.0021211985790829165,0.0020589339003701168,0.0020835844052122902,0.002186813609054158,0.002277931285195669,0.002234112950905155,0.001978145329667954,0.0015313953173844575,0.0010022259627883276,0.0005136551513488567,0.00011750280731446887,-0.0002461129754356203,-0.0007133547156515668,-0.0014033876218061138,-0.0023227687938809196,-0.0033263300990909557,-0.004161133449858404,-0.004572072586698512,-0.004412606021559724,-0.0037026672922618725,-0.0026082735693193377,-0.0013625303268883014,-0.00017644514323988166,0.0008162857800217938,0.0015658542454053315,0.002080277105086097,0.0023942905639385923,0.0025511638819321002,0.0025974810486818264,0.002579579771119577,0.0025322216272827876,0.00246174425458173,0.0023370694485292773,0.0021019828249540877,0.0017085994537924909,0.0011540606898433328,0.0004949927286282059,-0.0001744616848146153,-0.000770748395345593,-0.001264161961755393,-0.001685962489131792,-0.002091058290766259,-0.0024993413014110285,-0.0028557312734944227,-0.0030385456746605585,-0.0029151240345307713,-0.0024141327141977524,-0.001574628239536567,-0.0005461292806653854,0.0004600668074691065,0.0012457417971203318,0.0016945335994123254,0.0018066530206231359,0.001686739608949464,0.0014920989010247345,0.0013649432677650592,0.001377596149270517,0.001511948854278332,0.0016778278713392245,0.0017571635557964154,0.0016506034012113225,0.0013059834175483793,0.0007221529435966667,-6.218415837691121e-05,-0.0009780707201626326,-0.0019255369173269538,-0.002770086786631233,-0.0033547558772721734,-0.0035392779471676364,-0.0032557550151956363,-0.0025498695255564805,-0.0015771397238714844,-0.0005484959528156061,0.00034850225673985745,0.0010110479494896249,0.0014353954161236441,0.0016843434332368522,0.0018345484073534544,0.0019363569810369862,0.002003483339590334,0.0020271621792071685,0.0019963249924208164,0.001908334086521212,0.0017671203637423436,0.0015756273831245484,0.0013306746737228765,0.0010227287953526217,0.0006378069937313906,0.00015916686211945978,-0.00042889644162838095,-0.0011304000488444191,-0.0019199255480344128,-0.002726470893495476,-0.0034327221217617244,-0.00389825402568488,-0.0040013374119285995,-0.003681551265151176,-0.002963798745936575,-0.0019542245959983983,-0.0008115681258919388,0.0002948175258002607,0.0012276400355944552,0.0019130519050599322,0.0023499864886781605,0.002592027242893864,0.002708373025652108,0.0027439393118936597,0.0027022039889996537,0.002560943519298927,0.0023075878288708273,0.0019657472393949014,0.0015911066851101263,0.0012390161400976081,0.00092818809533255,0.0006269561212717719,0.00027007848373334655,-0.00020770325280332867,-0.0008417781093585478,-0.0016210041713637083,-0.0024802288051375436,-0.003297492971113116,-0.0039035818826549185,-0.004118920926143102,-0.0038198389424342516,-0.003008557893907726,-0.0018433553194981316,-0.000597756063409967,0.00044293065220353436,0.001098673043527097,0.0013630398894687395,0.0013854932789169518,0.0013789738863468088,0.0015056118749300791,0.0018019986747746957,0.0021777522433181285,0.0024774392887638753,0.002564526065479856,0.0023828139329249566,0.0019708724329159516,0.0014312489282212225,0.0008747674612537758,0.00036722435211383926,-9.696039779526862e-05,-0.0005807676502174148,-0.0011548529063200993,-0.001835332888307457,-0.0025425848385576574,-0.0031091735326704197,-0.003342760325138126,-0.0031181053338771025,-0.002448546262697409,-0.0014916218298450436,-0.0004802308189206933,0.00038211592845422755,0.0010002931907365925,0.0013980455564297088,0.0016636821226583792,0.0018744203012322543,0.002049164651558143,0.002152527355651998,0.002135797257556546,0.001979750843873338,0.0017101833117701983,0.0013802602335528742,0.001035734142574434,0.0006868421832231214,0.0003033298061408297,-0.00016581388983999607,-0.0007591653365382491,-0.0014722778264875927,-0.002242321100075576,-0.0029533955017252136,-0.0034617911681632603,-0.0036359227587143533,-0.003400333049659209,-0.002767653563721005,-0.0018425767424715984,-0.0007920672248771157,0.00020792407894524884,0.0010272134975603787,0.0016152775622468884,0.002002078880333119,0.0022675446516955077,0.0024932378028506164,0.0027168578992170277,0.002910633349141472,0.0029956938879819517,0.002886849951697701,0.002544140869745941,0.0020012146043911,0.0013525535818577886,0.000706086769642172,0.00012929409779239035,-0.000379437310603513,-0.0008790551668791541,-0.0014425663755579046,-0.0021062075695135914,-0.002835273647498704,-0.003521500918696184,-0.004014370847269511,-0.004175392729677539,-0.003933032698923163,-0.0033125525692848795,-0.0024249915457433555,-0.0014207064479183627,-0.00043332142090031267,0.00045535304332293576,0.0012151066076932057,0.0018429771711884553,0.002340241080013638,0.002708314461587716,0.002959494647044269,0.003123142911583962,0.0032322233819990767,0.0032945776543787516,0.0032707406027727105,0.0030807182695209963,0.0026446564468371025,0.0019381732871675246,0.0010281897362917625,6.0833033244390034e-05,-0.0008006005968217974,-0.0014566801282368553,-0.001922972823145794,-0.0023141986715424735,-0.0027625750609574385,-0.0033147382167294996,-0.0038718373874721363,-0.004217522014669518,-0.004126231255941325,-0.0034913886464026014,-0.002396771121288143,-0.0010883662462675885,0.00013454964989792977,0.0010447754752402109,0.0015634545026400532,0.0017586623141156949,0.0017827442926455015,0.0017904685404215876,0.0018779211587790752,0.0020613169288764797,0.0022916857515904616,0.0024883739811318232,0.002574145535637846,0.002500901052118923,0.0022602318662207363,0.0018763974348904797,0.0013848909572523904,0.0008080767175965847,0.000144192298657147,-0.0006195263842163069,-0.0014741213012228103,-0.002356806704224221,-0.0031438633951127726,-0.0036801366343544705,-0.003833931535443093,-0.0035490263003289447,-0.0028668196707895485,-0.0019101652468595273,-0.0008420730833795055,0.00017824169553535803,0.001026565532467757,0.0016302462657475335,0.0019744685618576278,0.0020985163472659355,0.0020778758544158045,0.001993270455559379,0.0018991362805358594,0.001808302329495348,0.001699583577428328,0.0015383577339921056,0.0012919341086110152,0.0009297412228445041,0.0004168245771459537,-0.0002789223165276574,-0.001154123347300882,-0.002126645764049134,-0.0030185398218676154,-0.003596224906045291,-0.0036630320621165563,-0.003157749226419507,-0.0021985470086016866,-0.0010391841978259627,4.2374784623011173e-05,0.0008601108777375932,0.001376237911255683,0.0016733863401912532,0.0018716740725827795,0.0020483970429685124,0.0022057832188260166,0.002293438174584077,0.0022573186674313284,0.0020782059289589368,0.0017791858698027268,0.0014060526316908952,0.000999028905336447,0.0005732875095296112,0.00011604285624477701,-0.00040111704891623336,-0.0010002136285830866,-0.0016721252016174211,-0.002358225503041825,-0.0029500279938140537,-0.0033157462650779427,-0.0033501847933250454,-0.0030262726363434428,-0.002416670923596711,-0.0016652517858829793,-0.0009187177660050696,-0.0002577911167245584,0.00032836075646364594,0.0009076036166339432,0.001533413644852283,0.0021848209189527677,0.002758442254184222,0.0031184665367988643,0.003172328640873404,0.0029240933382232515,0.0024736054538725574,0.0019644662354381414,0.0015135611318640482,0.0011614888202727486,0.0008666655794783997,0.0005398781579124181,9.642932385775169e-05,-0.0005015084717286422,-0.0012296864774506457,-0.0020141667234207196,-0.0027582435810275113,-0.003367669788293548,-0.0037647567991952006,-0.0038923041153847973,-0.0037149011398108804,-0.00322427310925465,-0.002448897268818871,-0.0014615109179682026,-0.0003758324788754134,0.0006730587992605312,0.0015626219598660427,0.002219224143938461,0.0026386199851951737,0.002875631481009254,0.003003605233207164,0.003064206447713647,0.003038513046866637,0.002860714376689525,0.0024690458330260895,0.0018621663990894852,0.0011227463117978406,0.00038982986367324643,-0.00020561171681746,-0.000604129484919356,-0.0008433643668040614,-0.0010319564504631534,-0.0012876852894828674,-0.001673940105741981,-0.002166026504889484,-0.002659714577518349,-0.003012455680574469,-0.003095424782807162,-0.002835578465913569,-0.002236134759834419,-0.00137367127210783,-0.0003762413424111463,0.0006097860628280323,0.0014539207615735664,0.0020656569887097347,0.0024017207292825046,0.0024595382572861384,0.002268372150690176,0.0018877641381920048,0.0014107111034657276,0.0009571308117916825,0.0006442719917016771,0.0005374003716633363,0.0006051585761635667,0.0007120189129433691,0.0006652329735024709,0.00030243474617578866,-0.0004214262457741553,-0.0013940102583788654,-0.0023764086702643267,-0.0030923565184159713,-0.003333559605628672,-0.003032561656169298,-0.002274355186735731,-0.001250898950577991,-0.00018823130201827635,0.0007204144924798572,0.0013572195758784706,0.0016967435128141962,0.0018006379609462578,0.0017892461149792405,0.00179042292319854,0.00187940222623535,0.002038296122769239,0.002161814494158622,0.002112082298115419,0.0017950778401951356,0.0012161028796739092,0.00048221618825428276,-0.00025120657035709697,-0.0008612556788410419,-0.001319849017360175,-0.0016989467804202996,-0.002110772461963621,-0.002615262298064386,-0.003151569524193079,-0.003540577529936371,-0.0035639988555047335,-0.0030784841502051697,-0.0021009026277137187,-0.0008173275463385526,0.0004884288055922391,0.001548047572954354,0.0022068227867362783,0.002463025329632982,0.0024381678579871065,0.0023014671674222967,0.0021891451910584963,0.002154136786851171,0.002160845637984375,0.0021173744935004623,0.001926040755923924,0.0015327629855137574,0.0009595324927375237,0.0003069666011110352,-0.00028015842950210096,-0.0006770090571840992,-0.000845770327293981,-0.0008683171487227733,-0.0009171207504412943,-0.0011680365292285934,-0.0016957301878518455,-0.002411625011949304,-0.0030871391248346583,-0.0034563406370948634,-0.003342330870889037,-0.002736106543853297,-0.0017872469799006226,-0.0007205564753367953,0.0002663765592448785,0.0010677632175399713,0.001671714352723785,0.0021156086751129718,0.0024327957067585334,0.0026238319597410107,0.00266275066021192,0.002525930576165565,0.0022213933872377695,0.0018015142913596167,0.0013535258594031597,0.0009708025098368275,0.000713157247433036,0.0005708540773477269,0.000453294964001803,0.0002193798261753534,-0.0002540365964753471,-0.0009966645601899276,-0.0019061881507091072,-0.0027744230808279327,-0.003369030803838308,-0.0035284454123056573,-0.0032207464064070114,-0.0025402093537665697,-0.0016520850662505855,-0.0007227838954781841,0.00012680461534910468,0.0008299921571343666,0.0013576111243111305,0.0017005100586147445,0.0018661505687635562,0.0018848470411806182,0.0018098562932255412,0.0017010590654663422,0.0015982742939669081,0.0015024653339820347,0.0013798925959587274,0.0011873067785756742,0.0008997160538164357,0.0005210196679654683,7.351871614826193e-05,-0.0004193134380497597,-0.0009384442322002321,-0.0014583945170549284,-0.0019321815609555952,-0.0022890534954954113,-0.0024509609556226477,-0.0023588444900566317,-0.001994562118648652,-0.0013904019192200402,-0.0006262653552772954,0.00018313330130639735,0.0009102677807918163,0.0014440262701184239,0.0017193150652110288,0.0017367454979716366,0.001563594041808468,0.0013126083058366926,0.0011026050551325047,0.0010127543854647114,0.0010478567555501038,0.001130709423967075,0.0011285690898785378,0.0009068277020610633,0.0003900825370885313,-0.00039496886608760164,-0.0013148498638121879,-0.002167268347595056,-0.0027475712666101947,-0.0029171744868036233,-0.0026470537131706804,-0.0020204926545670738,-0.0011963323873989374,-0.0003496279481816937,0.00038503302828870115,0.0009445558458660247,0.0013326286868246666,0.0015876651627153768,0.0017455655620771434,0.0018194417353953626,0.0018047873881076619,0.0017009693320712775,0.001529574310814471,0.0013326454674325813,0.0011476269662011385,0.0009733125079421698,0.0007512447247417418,0.000381702365779965,-0.00022576540761928826,-0.001089183596156722,-0.0021119796152476705,-0.003089769128979107,-0.0037722378140026074,-0.003957297016321864,-0.0035738145096039873,-0.002710717749157339,-0.0015766721203426522,-0.0004117043287316048,0.0006027526012916558,0.00139133777321306,0.0019727990529561585,0.0024054093313526665,0.0027274272733293706,0.0029282958102015396,0.002964295616225477,0.0028031930010966985,0.0024633982429790014,0.0020170913477253576,0.0015522391308350715,0.0011184500408473786,0.00069490820198552,0.0002052556694631775,-0.0004268321021643032,-0.001215095746079602,-0.0020801847660431353,-0.0028705093811579206,-0.003422652371731603,-0.0036268743217571417,-0.0034625628765499053,-0.0029892439328548627,-0.0023067211270186763,-0.0015138971424762905,-0.0006894098166394368,0.00010464531071157864,0.0008128956474730393,0.0013879139588395216,0.0018040239078388849,0.002069483368454742,0.0022211419055638685,0.002299373090818988,0.002318640231241415,0.0022555597363450894,0.0020654191745408876,0.0017174882128986827,0.001224914279082796,0.0006476140288429904,6.461766498596559e-05,-0.0004664140304165344,-0.0009344590197126886,-0.001365643010003711,-0.0017831298690116999,-0.002164323011215688,-0.002428944640613798,-0.0024718835095450665,-0.002222319426946897,-0.0016901204790820707,-0.0009683188171212195,-0.00019079060181606707,0.0005258931778262516,0.0011194536300071422,0.0015785209020143898,0.0019089190734301446,0.0020996828905608176,0.002116898061146284,0.0019315344292068905,0.0015602001985930223,0.0010839711896042134,0.0006217459132833971,0.00026616105628119835,2.1211849392124924e-05,-0.00021225412474714154,-0.0005827202609798804,-0.0011894440747477126,-0.001996276058567782,-0.0028140213897087842,-0.0033696661457746123,-0.0034286946412561384,-0.002904304988672805,-0.0018960222165655693,-0.0006430365357892548,0.0005751784211327289,0.0015367778953911115,0.002132893530308406,0.002371296070126688,0.0023445261816235183,0.002183713547864966,0.0020114327517925202,0.0019017983571743894,0.0018585474266602094,0.001822369220797721,0.0017074770856181489,0.001449093593076275,0.0010340857536238176,0.0004971348589464872,-0.00011128254265186566,-0.0007589647506943174,-0.00144113610659575,-0.00215653467961021,-0.0028671456238855493,-0.003471958429833109,-0.0038190249112193225,-0.003758474440005745,-0.0032143290574749147,-0.0022383411734404933,-0.00101361818189743,0.00020093891995312356,0.0011640851589002738,0.001741779314875071,0.001951297847107283,0.0019387876892796375,0.0018999150672236137,0.0019806568438697067,0.0022061186747458186,0.0024726566358606885,0.0026072102057678338,0.002463267708937714,0.0020034253209421436,0.0013242903386213082,0.0006080348468559576,2.3349118707578472e-05,-0.00037108348466838867,-0.0006623475194274511,-0.00102862169290103,-0.001617112902481364,-0.002425052767373737,-0.003261899208219036,-0.0038260396611009303,-0.003856844937557299,-0.0032722505498241393,-0.0022104271511062365,-0.0009563486637922012,0.00019472140955321417,0.001054139386121135,0.0015804408562145001,0.0018428598223374326,0.0019499210035080156,0.001990091772830755,0.0020068288710282656,0.002002771435463802,0.001956599246697599,0.001840766555325871,0.0016363507767214458,0.0013433778401729913,0.0009827457327103621,0.0005863404170921648,0.00017830909112161717,-0.00024136371258820077,-0.0006971168595692465,-0.0012152578638279926,-0.0017871005702062353,-0.0023406330613655935,-0.002745331661310693,-0.002857995456765348,-0.002590069150465054,-0.001958264232120474,-0.0010866328624362966,-0.00015750312735186367,0.0006598151741670803,0.0012626563312337425,0.0016270345509873715,0.0017832171223037597,0.0017803825783602194,0.0016651386554165032,0.0014808223356732636,0.0012749355221012494,0.0010957107344467167,0.000970288072291863,0.000877296989256533,0.0007388577543313838,0.0004493303624825835,-6.588529109621713e-05,-0.0007918448915632761,-0.001602355305830939,-0.0022946557405788444,-0.0026691356018023068,-0.002615707213854705,-0.0021617203834162465,-0.0014552575698570376,-0.0006927881836738724,-3.1295195303007413e-05,0.00046739543990832917,0.0008337559613785803,0.0011391773829629518,0.0014329813551528865,0.0017060920631187275,0.001898640379554089,0.0019417183769787844,0.001805411302180806,0.001522828699883236,0.0011735069709953956,0.0008341016080141003,0.0005269758976952445,0.000202342146953134,-0.00022915737850994833,-0.0008283341845798835,-0.0015632194463522995,-0.002290190624458358,-0.002799726068438911,-0.002910106858051162,-0.0025611425461999292,-0.0018531488186513392,-0.001003267713454688,-0.00023984361956865018,0.000304500443762251,0.0006382396232334377,0.0008717579444643261,0.0011254259042219731,0.001447439085894707,0.00179013011754885,0.0020495076688380777,0.002132946119745715,0.002009538894068047,0.0017167756323451184,0.0013274857677520833,0.0009024988661875939,0.0004579727799205877,-3.508791033820678e-05,-0.0006190140155639966,-0.001301416404175938,-0.0020175984853524364,-0.0026298029773643883,-0.00297294475798799,-0.002927919638245339,-0.0024817431296855243,-0.0017376600157889988,-0.0008682968159587025,-4.019885844124644e-05,0.0006460676350996244,0.0011696615365207597,0.0015587422634423809,0.001844793479163498,0.0020358820710048024,0.002122456009651604,0.0021015452609034284,0.001991813581856707,0.0018222533176966522,0.0016019182733996726,0.0012968317689036847,0.0008383487062753005,0.00016613593760134198,-0.0007163146226798659,-0.001707923839241409,-0.0026234313546667177,-0.0032544517583446985,-0.003451556712565941,-0.0031862926126792713,-0.002559135221593627,-0.001746926077973714,-0.0009180373266765365,-0.00016384086495687712,0.0005146854238712872,0.0011616440476929755,0.0017960688023716449,0.0023657158727909246,0.0027568730293940627,0.0028551216429011385,0.002618024032739491,0.002111539961320342,0.001483712293372993,0.0008883951832043809,0.0004040239819068732,-2.6445274314342246e-06,-0.0004437387546455452,-0.0010254874662282527,-0.0017602300695038296,-0.002527554461862266,-0.003110300487413874,-0.003289594676913262,-0.0029497010261895244,-0.0021368806739406857,-0.0010408728298001203,8.992309180093036e-05,0.0010519603519354558,0.001752348749615767,0.0022055886654114,0.0024738782608036206,0.002598056197647066,0.0025671011817284366,0.002340855510581056,0.0018993104723854575,0.0012750012518817448,0.0005441310221517371,-0.00021200068611191143,-0.000941485833583561,-0.0016253549935618746,-0.002249751800715264,-0.002770177817476724,-0.0030969229308546843,-0.0031173201325900143,-0.002747516710504058,-0.0019867534675894723,-0.0009414798732136166,0.00019986388822639531,0.0012327908536053222,0.0020087725394495335,0.0024733178232148162,0.002652401066151896,0.0026048291979560616,0.002379532301038068,0.0020071615508818535,0.0015230570714774544,0.0009906697119606643,0.0004939396538349665,9.443233700710731e-05,-0.0002173524348397139,-0.0005338101906192003,-0.0009818487532809695,-0.0016317389268939457,-0.0024156547167283166,-0.0031128661920220516,-0.0034265046383741733,-0.0031242000125162837,-0.00217140458079587,-0.0007802943638888323,0.0006620064604816189,0.00175536736108238,0.00225655636590299,0.002170913347472597,0.001724263466696944,0.0012378821156512683,0.0009758669553336045,0.0010394814054550119,0.0013488950789315023,0.0017037698155769152,0.001880173273823438,0.0017169684740846714,0.001163028854967384,0.0002802603211719818,-0.0007857354341491082,-0.0018488615426050677,-0.002723705315417897,-0.0032577241901501374,-0.0033562200867499497,-0.003002935155560841,-0.002271619120465777,-0.0013167754859500281,-0.0003353071556168602,0.0004940862158543794,0.0010700301036384939,0.0013965375006657348,0.0015621796432815013,0.0016778702585489608,0.001806261536607496,0.0019246088025098656,0.0019454165018704466,0.0017822777648265201,0.00141564678479257,0.0009103605923905845,0.0003705529559413424,-0.00013359816732468646,-0.0006073700706380445,-0.0011034122782280036,-0.0016421776410357667,-0.002144825264469934,-0.002439845592358383,-0.0023523515519481304,-0.0018212935153776848,-0.0009633058315801641,-3.400561710668643e-05,0.0006942311602547646,0.00106404267154042,0.0010965692783495655,0.0009550533235841349,0.0008384663883080688,0.0008719729791037538,0.0010544176926666417,0.001282232819712586,0.001422253581869077,0.0013821093478655613,0.0011388019361804821,0.0007217678151638159,0.0001784299826406105,-0.0004445139229234795,-0.0010928022212789974,-0.0016868627064265977,-0.00212292063437921,-0.002304813810858577,-0.0021891348375592872,-0.0018104736988166104,-0.0012659209843999722,-0.0006684270268547706,-0.00010093743917095064,0.0004007406621441931,0.0008330209280571464,0.0011973538864808522,0.0014846104284880865,0.001680268790213667,0.001780418930006765,0.0017995526131804767,0.0017582678687477486,0.0016568447918195168,0.001455695641679681,0.0010836597032491918,0.00047815848311991827,-0.00036188107891893864,-0.0013424435737991595,-0.002284851351770469,-0.0029803147381975287,-0.003262793999733159,-0.003064562825214859,-0.0024313054940152744,-0.0014980082042403882,-0.00044510654938426623,0.0005447853986575181,0.0013211625848392032,0.0017925247423410458,0.0019455691930454948,0.0018476669827158765,0.001622433011972758,0.001401171680035004,0.0012703205586489486,0.0012407660312440845,0.0012535227323872851,0.0012165625092119916,0.001052531381537517,0.0007335987040802835,0.00028740157006813013,-0.00022669924086726918,-0.0007548338690591151,-0.0012734937444784746,-0.001783070208805617,-0.002273543460134444,-0.0026888258603787723,-0.002921009668059503,-0.002846874399091184,-0.0023899654550655564,-0.0015730152060266867,-0.0005291782110767091,0.0005371388741833773,0.001422106457568044,0.0019924905587398096,0.0022214103308640172,0.0021766195277867755,0.001973489959830887,0.0017214450641517627,0.0014905731289230084,0.001306971768701942,0.0011647890737033618,0.0010356042615478078,0.0008672115011444238,0.0005836944211919267,0.00010748540414368075,-0.000590572769009167,-0.0014373250635168556,-0.0022434026650140146,-0.0027591306058603274,-0.002785133045664419,-0.0022782262124645316,-0.0013858763280881039,-0.0003826174411361489,0.0004569028628770357,0.0009747765297432465,0.0011735677320269344,0.0011734310019184773,0.0011209913125718371,0.0011089785941809966,0.0011472151495451931,0.001186670672454245,0.0011666685878566618,0.001048866083267003,0.0008198544631422292,0.0004720285644695441,-9.766594267615993e-06,-0.0006333253494944376,-0.0013592100274725648,-0.0020674067532740143,-0.002568610052016378,-0.002672544895742472,-0.0022827745060744276,-0.0014601863338417065,-0.0004105381640061101,0.0006013700122288018,0.0013615747288936758,0.0017791692993103132,0.001887648024003219,0.0017884845389791496,0.0015816758850701615,0.0013261111836142168,0.001043290934105341,0.0007453091029214191,0.0004553532135641996,0.00020197443109841792,-6.278767264298926e-06,-0.00020145824268338726,-0.0004492206173576914,-0.0008100628747856101,-0.001287819098674231,-0.0017978051457564425,-0.0021812090129791233,-0.0022680154960629424,-0.0019602418988319686,-0.0012897418878426096,-0.00041451399474312666,0.0004483487343267999,0.0011171463346902333,0.0015157027148502368,0.0016838416801462387,0.0017291888961590038,0.0017530540219811601,0.0017932157877629277,0.0018131147087037496,0.0017392519380520798,0.001519759853193148,0.001162720500188404,0.0007253312805628595,0.00026115365818539385,-0.0002320604768699286,-0.000816577148337955,-0.0015569621550978734,-0.0024350167900839457,-0.0032990386430867815,-0.0038933302236056596,-0.003964464873865972,-0.0033900727151724677,-0.0022570386402337894,-0.0008415724630217898,0.0005020236850466421,0.001486958116727276,0.002000167685010954,0.0021196531723998106,0.002042636287095316,0.001969675978776235,0.0020074519763923207,0.0021359323683003634,0.0022465097460206947,0.0022193154906568597,0.0019907930379149644,0.0015745608077427616,0.0010313730781045345,0.0004173447883857391,-0.00024797243414503953,-0.0009693878205282154,-0.0017305537983177944,-0.0024531195894085143,-0.0029973738115093235,-0.0032123221303965136,-0.0030078147579562023,-0.0024050328106446847,-0.0015350680073981976,-0.000587524158437724,0.000260948243304514,0.0009018373538963568,0.0013125446472846785,0.001538240007063845,0.0016539880405225232,0.0017250859344175177,0.0017780415074521829,0.0017894240706703866,0.0016963866156023675,0.0014272246092174685,0.0009414131281558545,0.00026114687174814304,-0.0005223294977709082,-0.0012726934719041378,-0.001852383876147094,-0.002166247315033283,-0.0021867614647363785,-0.001953292183028639,-0.0015497108973128175,-0.001071566528607082,-0.0005948342210132216,-0.00015567974262289128,0.0002527019281017859,0.0006641110814477481,0.001108437490889084,0.001578476578505586,0.002012722469507837,0.0023079457982131033,0.002359671518334833,0.002110836801650908,0.0015817972543925355,0.0008642175675400674,8.200634798259315e-05,-0.0006576865001468521,-0.0012939114463913796,-0.0018055815666620794,-0.002179379085258679,-0.0023819038505670086,-0.002362263796152074,-0.0020851901741894803,-0.0015681082351145497,-0.000891535920074572,-0.00017365227538488118,0.00047287802189667776,0.0009740771315582344,0.0013033211863174585,0.0014715656102784278,0.001513988009960178,0.001480405063851097,0.001424334105705017,0.0013823386387126523,0.0013457212017744984,0.001242220546407165,0.0009513887455760432,0.00036367550243497355,-0.0005365768754457456,-0.0016115082368091168,-0.0025823066535472393,-0.003128126337991565,-0.0030311148483196026,-0.0022896506361998015,-0.0011313359897359716,8.725680285048745e-05,0.0010401889431671703,0.0015629649645632726,0.001687367755006503,0.0015746040509182298,0.001401115165926386,0.001270478205807019,0.0011940370908281033,0.0011294327223864437,0.0010307959313759904,0.0008698196909306584,0.0006227767175709066,0.00025239233338483584,-0.00028225364344366087,-0.0009820291626271456,-0.001760252985121148,-0.0024356453489283976,-0.002788886544819011,-0.002662132866779865,-0.0020452718299911357,-0.001093326053686662,-5.9579124688213645e-05,0.0008180080640667331,0.0014114761535189884,0.0017287515425878333,0.0018663057250931233,0.001926674113548018,0.0019530687928385193,0.0019153243050369704,0.001746280421200721,0.0013976876535427127,0.0008769389915510995,0.0002434200880905882,-0.0004266746765801387,-0.0010766194146238995,-0.0016784596197091635,-0.0022113358250796236,-0.002630944393615848,-0.0028595122731466575,-0.0028096051688278985,-0.002429611372533197,-0.0017425466309601528,-0.0008527565649095646,8.606323455607131e-05,0.0009258046087247685,0.0015737697536950673,0.0020131106163604395,0.002286124742121265,0.0024524458060314882,0.0025468381137398145,0.0025599168443234555,0.0024503886433904715,0.002178214023893227,0.001736013396473856,0.0011581190459021013,0.0005017336722323291,-0.00018600737188450385,-0.0008899051454127925,-0.0016179833930585663,-0.0023640095335407045,-0.0030665572769524472,-0.0035978104568112524,-0.0037992981177042908,-0.003551164470750349,-0.002837671203783811,-0.0017713778404449447,-0.0005613710718121777,0.000559302280586356,0.0014131701635840847,0.0019306582955212408,0.002155173030984905,0.0022018206360667827,0.0021905902265932833,0.002186019683928776,0.0021719318677043474,0.002072297327509044,0.0018055631873610202,0.0013414848530547369,0.0007269835735680779,6.475695744710501e-05,-0.0005421949005932932,-0.0010433594903747013,-0.0014540381713816666,-0.0018189098256027336,-0.0021514401420036603,-0.0023940041256785317,-0.002430904475136139,-0.002150202873358712,-0.001516705772811365,-0.0006109933091215853,0.0003889330130628604,0.0012728338447866281,0.0018752307641419284,0.002126743067872947,0.002060143324550819,0.001777025134586449,0.0013985431393888157,0.0010245335065984197,0.0007128926535788461,0.00047694875893269754,0.00029236008345206945,0.00010793589509133891,-0.00013925627215130568,-0.0005019417929760347,-0.0009955293633741183,-0.0015752575244776836,-0.002131869155653069,-0.0025162490041871657,-0.002590038986816723,-0.002282658187533477,-0.0016265665743610159,-0.0007502995505648661,0.00016937100734134149,0.0009719437063601384,0.0015618219534722822,0.0019204442199106842,0.0020841100149182573,0.002107088795045423,0.0020320691054937032,0.001880336950252037,0.0016606820155054725,0.0013854105216101155,0.0010780263908617437,0.000763091057970288,0.0004432516109882706,8.246899313129013e-05,-0.0003841908883732766,-0.0010096289804662317,-0.0017814067019047506,-0.0025889339297226815,-0.003238110412054275,-0.0035166980954587867,-0.0032849013016474724,-0.0025473920505702193,-0.0014667120903966982,-0.00030468634194216694,0.0006837439202420565,0.001351809926775293,0.001704723003269941,0.0018641532363969397,0.0019766103595664055,0.0021209931660375247,0.0022690332868601716,0.0023179786898926873,0.002169857504188435,0.001804775610271384,0.0013026607346674568,0.0008017420534136362,0.0004200968944636973,0.0001865533739944123,2.0204067321487227e-05,-0.00022943631817447704,-0.0007010931301029577,-0.0014391041872122623,-0.0023504835314421503,-0.003224527983758392,-0.0038081504994563605,-0.0039027549392043515,-0.0034382541623962756,-0.0024933794677402706,-0.0012606051880728855,2.001421619177092e-05,0.0011268323620248532,0.0019034357677020855,0.0022841672311224664,0.0023023798857969516,0.002079488083419126,0.001787537731853739,0.0015862458239521292,0.0015555233098641028,0.0016590731855613688,0.0017658804059912472,0.0017238016142400922,0.0014441289743690538,0.0009455993925673216,0.00033199531565887227,-0.0002774438787209387,-0.0008140642634531001,-0.0012770872318762666,-0.0016950444687795308,-0.0020661637840715336,-0.0023272442949156423,-0.0023779755659047194,-0.002145446833153741,-0.001643394699425997,-0.0009840109481910864,-0.00033255478323185664,0.00016837560755332537,0.00046193526650284997,0.0005952738971340311,0.0006864342904039559,0.0008577440504861156,0.001166929188479133,0.0015674668004390744,0.0019182002762524095,0.002042227233586315,0.0018123699090930288,0.0012239843002340854,0.0004154126720947114,-0.00038259510375168347,-0.0009506681679687797,-0.0011865135298660672,-0.0011530115036454034,-0.0010367832816153874,-0.001036402209612574,-0.001243083932190092,-0.0015834286148755413,-0.0018574478291582739,-0.0018486365270064884,-0.0014422066119437358,-0.0006866904251401338,0.00022974971213212276,0.0010686043577907867,0.001644659717773548,0.0018928058510185026,0.0018722386624481203,0.0017152676136398951,0.0015526314481600282,0.0014546395338449467,0.0014147559975174315,0.0013755094519764042,0.0012722702636697187,0.0010650324968417037,0.0007435786135797184,0.0003127613711160302,-0.0002239748155485978,-0.0008675297274951632,-0.001607908424869721,-0.0023976474373342167,-0.003129994636578113,-0.00364219766531713,-0.0037577711212870494,-0.0033607965377488455,-0.002468256650607475,-0.0012535430522048927,6.740228899801409e-06,0.0010447094461077109,0.001711905786949746,0.002024579234934932,0.002119853233091426,0.0021558219836393206,0.002220660533032352,0.002302617746400836,0.002327784718828412,0.002229177257826523,0.001996699650072521,0.0016779887757305038,0.001337227907985944,0.0010064619517594188,0.0006648731925180611,0.00025819199945304805,-0.0002589841693747491,-0.0008894357889425678,-0.0015890625263693908,-0.002287686423890458,-0.002912425071977607,-0.0033953532933374674,-0.0036677720170325396,-0.003659660181054754,-0.0033189382170957585,-0.0026444371461780314,-0.0017081433955509087,-0.000644128488453633,0.00039587484297411027,0.0012948241223684886,0.001998343362992505,0.0025042649289256642,0.002828292319878688,0.002975997830098509,0.0029424362152776847,0.0027359414517578776,0.0024022717195473398,0.002024110220765229,