-2.4765140480800357e-05,0.00025483771780046875,0.000564398175624467,0.0008972357804425974,0.0012029226134626751,0.0014108072712960065,0.0014723443983162589,0.001394219814443938,0.0012375770184565888,0.001078886954979541,0.0009540679790094059,0.0008228248906637335,0.0005828148306762119,0.00013453935061505384,-0.0005365085630921009,-0.001312154856107092,-0.0019671340484097195,-0.0022657477364002388,-0.0020811798844802363,-0.0014684548950778193,-0.0006443776827777421,0.00011784561609642051,0.0006195851353256124,0.000818433795596733,0.0008172794183667117,0.0007749818601605826,0.0007989346733979974,0.0008863177144569734,0.0009453705224864713,0.0008744172588992043,0.0006397993978174148,0.00029836443103426987,-4.775819275740917e-05,-0.0003264630271652266,-0.0005419183862130511,-0.0007558544144286755,-0.0010187236751025381,-0.0013048118093674968,-0.0015030766175239021,-0.0014746434429053793,-0.00114039133543151,-0.0005417384304053933,0.00016432699870953934,0.0007741374983229821,0.0011317188031122033,0.0011977368003775078,0.001057476623104723,0.0008652475633488038,0.000756038636536947,0.0007722417265522822,0.0008443772105529053,0.0008345005428447895,0.0006168506515407107,0.0001519346550107835,-0.0004835882532200638,-0.0011242836388766092,-0.0015852104783744062,-0.0017389606072566086,-0.0015643357420257378,-0.0011450139587878914,-0.0006210383538461496,-0.00011955235869586531,0.0002978722656046956,0.0006430828112285172,0.0009626775835315103,0.0012806659664246032,0.001563126632607795,0.0017305865665963411,0.0017094835252256099,0.0014845637856288401,0.0011121743069547915,0.0006831187976153352,0.0002620939248253549,-0.00015096311332982778,-0.0006083746525961083,-0.0011593236126707152,-0.0017898437950727437,-0.0023985105779648587,-0.0028241624469512038,-0.0029107438409143667,-0.0025752820828201088,-0.0018466063283129738,-0.0008601715307220048,0.00018446571412584914,0.0010844336535836114,0.0016925759207104573,0.0019588470490274515,0.001940998902747798,0.0017755853924865104,0.0016132623907154694,0.001543234739476559,0.0015459036128752683,0.0015040672100916225,0.0012711599424789482,0.0007597549499201647,4.954790959466049e-09,-0.0008639605567699864,-0.0016341880319951868,-0.002138968483562473,-0.0022903988470850136,-0.0020966130236108873,-0.001634706211704279,-0.0010095452091503168,-0.0003237890415133081,0.00033059822342721324,0.0008673439548236985,0.0012054502082213567,0.001287548579539733,0.0011142922501435506,0.0007711390930652475,0.000415788741568353,0.00021318349260065258,0.00024431046231800785,0.0004460289708337565,0.0006316120674466612,0.000593095051046006,0.00022901130202300155,-0.0003821461027655529,-0.001011732075007139,-0.0013983921015552053,-0.0013831423669254548,-0.000983712530477957,-0.0003704305873125656,0.00023346987583284075,0.0006631617343106303,0.0008730138214014379,0.0009229400068641903,0.0009121062157178422,0.0009060477235723254,0.0008966692961390951,0.0008092457382789086,0.0005456200006227208,3.976557526568121e-05,-0.0006989316877574342,-0.0015723189401128605,-0.0024158448259134456,-0.003047719247628378,-0.003323436557568713,-0.0031718868459468413,-0.002600770925011377,-0.001677758879800268,-0.0005062461824614168,0.0007885866005910422,0.0020629057239735914,0.003159847217058566,0.003931398164627743,0.004276462541816094,0.004177212323413549,0.0037082906296107467,0.003004616328853426,0.002199028360500008,0.0013645059144613693,0.0004991458788202669,-0.00043128691452117224,-0.001417288986332527,-0.002349560644156085,-0.003032658019530651,-0.0032759083032285587,-0.003012113318287531,-0.0023636927516458178,-0.0016003653224684355,-0.0010023525268801773,-0.0007107264989532088,-0.0006608452223965887,-0.0006423357430800861,-0.00044585769375616365,-1.231260542463447e-06,0.0005791943818889526,0.0010729784445763259,0.0012825977907878284,0.0011456550108322515,0.0007570858818198426,0.00030064981987716404,-5.861166024171988e-05,-0.00025326813689226647,-0.00032241902251299104,-0.00035638740356528503,-0.0004203500511211029,-0.0005069766136005626,-0.0005439556699059545,-0.00044529172256007644,-0.00016999160431587033,0.00024762204311889807,0.0007100294255984432,0.0010999616323466967,0.0013308427598440382,0.0013814622224458588,0.0013014573781550112,0.0011844408651919063,0.0011159994823983278,0.001116277393512147,0.001108110689567518,0.0009401428301901923,0.00046960084558654233,-0.00033160526409972994,-0.0013128415838887211,-0.002176123662288065,-0.0026022457905826818,-0.002409004115939107,-0.0016524635701000135,-0.0006108193077551049,0.00034385945785392753,0.0009183917426452554,0.001025261240803526,0.0008001863394457294,0.0005068160333399382,0.0003832464109513431,0.0005120767385157054,0.0007793290274531379,0.0009387869435020547,0.0007445248835003715,8.340827773811862e-05,-0.000955742017046573,-0.0021052944104358756,-0.0030192165024010256,-0.0034034981887859353,-0.00312173215620477,-0.0022371974606508723,-0.0009814103566469956,0.00033340339234150425,0.001422665731591813,0.0021180932868208853,0.0024041251366655266,0.0023908304639322277,0.0022404114808325173,0.002085720107261605,0.001979481352884133,0.001891808404013927,0.0017459639111478545,0.0014658476287891424,0.0010107868101928831,0.0003881927889513475,-0.00035005573312129235,-0.0011165972621520585,-0.001798689410194885,-0.0022747002530206046,-0.0024430848325598512,-0.002259105387470502,-0.0017615609556633676,-0.001070054778956162,-0.0003474150127958884,0.0002571785655936836,0.0006563477989234806,0.0008412135544504623,0.0008629514162942227,0.0007948340960575713,0.0006976055280015364,0.0006033512055837992,0.0005177479818508915,0.0004292326684573887,0.00031419027250229547,0.00013818694797210576,-0.000136422224719408,-0.0005281941258275703,-0.0010062203414362932,-0.0014731369535949637,-0.0017826570305301491,-0.0017941665871333977,-0.0014417118423144522,-0.0007799583065400212,2.3485293400128367e-05,0.000752928270836403,0.0012368677726801226,0.001418731774196609,0.0013668912658336323,0.0012202512222031752,0.0011047439321986516,0.0010715842897918658,0.001089366978435795,0.0010836632240057863,0.0009887090878154283,0.0007763190315341707,0.0004528889100073861,4.212890677965028e-05,-0.0004232111023714251,-0.000894407434124099,-0.0012995681535820642,-0.001555571806759185,-0.001601546311665536,-0.0014331901615477532,-0.0011100090519607407,-0.0007252131934511966,-0.00035733818889125324,-3.83263657146866e-05,0.00024009379053944942,0.0004913591497593844,0.000703008598087094,0.000836904175759262,0.0008592807428644538,0.0007722522541002365,0.000616636154638908,0.0004409562093056064,0.00026214189592535053,5.352879140207436e-05,-0.00022454650215832182,-0.0005718745625334812,-0.0009156615509008623,-0.0011295527702873116,-0.001098768818431446,-0.0007905694242985793,-0.0002830908760368797,0.0002675158277674716,0.0007020529544483312,0.0009306267597797773,0.0009619906613596626,0.0008780179768297454,0.0007744785132029603,0.0007061971600581746,0.0006667260788185973,0.0006075004690460484,0.0004766485870525105,0.00024908083627954425,-6.823933795201348e-05,-0.0004491771601414106,-0.0008589118454603575,-0.0012493713839566867,-0.001549224458344678,-0.0016712418508223871,-0.001547446245320375,-0.001173794292335249,-0.0006292307263428671,-4.779300630158379e-05,0.00044276849832983797,0.0007764422367047073,0.000963978094162513,0.001063524173861385,0.0011327922336525423,0.0011949436929178554,0.0012327421328661489,0.0012032574177339762,0.001057551817906473,0.0007581436950280405,0.000297230901761734,-0.0002833807552013937,-0.0008820934616155428,-0.0013549494944768083,-0.0015659768915150351,-0.001450302768161246,-0.0010533368836440102,-0.0005185860002469704,-2.6963147067464834e-05,0.0002806938057869731,0.0003588229243263311,0.0002666674945861978,0.00013288286358569446,9.35139347828871e-05,0.00022847490041921173,0.0005212593661549698,0.0008600842748287633,0.0010836393013583954,0.0010535052596154907,0.0007193923589598266,0.00014472463968408233,-0.0005198581944727445,-0.0011002629328817428,-0.0014664675826119604,-0.0015704810105678067,-0.0014403772956898169,-0.0011427447016626737,-0.0007431044521283756,-0.0002896523216974332,0.0001764627713611484,0.0006038018470882671,0.0009306832584956939,0.0011097554953955987,0.0011389358100485421,0.001069945088552244,0.0009810440374511493,0.0009297927506768157,0.0009187408042234642,0.0008967121801489301,0.0007911353852030211,0.0005471993277845651,0.00015167270500252407,-0.0003639895060761614,-0.0009324628514710895,-0.001461598157976712,-0.0018470978990713788,-0.00199327743750761,-0.0018439306890486707,-0.0014120527035003444,-0.0007885293258981757,-0.00011705719688799143,0.00045770877545192926,0.0008443483267759204,0.0010340110164994267,0.0010901134382208322,0.0011032030221269844,0.001133549565525698,0.0011722932869807218,0.0011446563270012657,0.0009561179467303983,0.0005561367872632685,-1.834455328470039e-05,-0.0006458757586860315,-0.0011681090010915599,-0.0014547646794182121,-0.0014521071434776805,-0.0011947490891729658,-0.0007822217814364332,-0.00033686426472464,3.775420027995059e-05,0.0002846651471346566,0.00040225622128178254,0.0004347977756984944,0.00044977648993639813,0.000509418239861685,0.0006442599186425686,0.0008360770077060222,0.0010165399115382434,0.0010853235770223646,0.0009453388310974851,0.0005447414604251458,-9.01276058901658e-05,-0.000846165198250355,-0.001547637524597652,-0.0020096121639757818,-0.002103510727558961,-0.0018073718277127888,-0.0012145919337127385,-0.0004920566875283714,0.00019395871329655197,0.0007443674008431181,0.0011484867506608356,0.0014501358892248558,0.001685490400710947,0.0018382091164631618,0.0018435465388195022,0.0016366570448403113,0.001207931580493093,0.0006236247646217624,-3.938672549233307e-06,-0.0005750896055309616,-0.0010475778867336503,-0.001434530087446788,-0.001758076620092842,-0.001996608310270144,-0.0020714762447206357,-0.0018903489101844567,-0.0014195664754059526,-0.0007318567869870618,9.748145515317964e-06,0.0006262955980138227,0.0010089871481457333,0.0011628314994171066,0.001183509825463059,0.001186789024068195,0.0012368821296876017,0.0013151179093720225,0.0013409689643771754,0.0012256627009320864,0.0009235439947149408,0.0004539082573912167,-0.00011214259836788386,-0.0006845022050320799,-0.0011838948253001225,-0.0015544092035079916,-0.0017599816355652826,-0.0017770201504286613,-0.001594669454748529,-0.0012242570028833688,-0.0007092901250196468,-0.00012490783681938554,0.0004382948697380161,0.0009015340550105229,0.0012236630376510306,0.0014105436401646934,0.0014993567237836924,0.001524298944315181,0.0014852014588405086,0.0013424038343093497,0.0010445197509356154,0.00057164906277691,-3.552029618779568e-05,-0.0006803961580801627,-0.0012451622935796308,-0.0016332437140859518,-0.0017963921267265428,-0.0017371117765137244,-0.0014931587163369412,-0.0011179879423458346,-0.0006675662985731168,-0.0001957543576845484,0.0002459941134294389,0.0006106314370769755,0.0008623585495573467,0.0009858165843990188,0.0009906260375819747,0.0009051757325714686,0.0007605365245754357,0.0005737897208312324,0.000343160470124147,6.128383522228237e-05,-0.000259964162525854,-0.0005710796851092317,-0.0007912305935696387,-0.0008427967054630199,-0.0006959414516856017,-0.0003927547258845822,-3.05911793858605e-05,0.0002876718394793148,0.0005038628798863376,0.0006217058384579784,0.000681875505256132,0.0007166382512098566,0.0007197840723937384,0.000654665553012828,0.000492851308339458,0.00025071353412333915,-8.720146058695342e-06,-0.00021444933896054726,-0.0003389780999041302,-0.0004216593410397095,-0.0005416989595514566,-0.0007556564203196429,-0.001042081079825402,-0.0012940655205395085,-0.001369797468537094,-0.0011723699811557295,-0.0007096040045018893,-9.668816792333703e-05,0.0004990823479309699,0.0009364004351086127,0.0011547825378234854,0.0011794684488983247,0.0010836553267946191,0.0009393300857990197,0.0007873490972295095,0.0006368090220143744,0.0004813744533440777,0.0003128530873722467,0.00012275495754391686,-0.00010118603463177801,-0.0003702196851995402,-0.0006773535948707666,-0.0009792827402808145,-0.0011965066774733133,-0.0012415547129201315,-0.0010648065552221176,-0.0006908821576858807,-0.0002197484565902427,0.00021332865630853252,0.0004991226639967963,0.0006032602653152548,0.0005757172155889216,0.0005169962555334306,0.0005207110793502013,0.0006233291349011967,0.0007858075670211626,0.0009140873247103222,0.0009059276553042678,0.0006997854364403629,0.0003025361010574899,-0.00021434322190254663,-0.0007434165245773463,-0.0011769593065235177,-0.001433155918674964,-0.001467287919991607,-0.001273227069303683,-0.000883052636771607,-0.00036689059291383373,0.00017215375830790993,0.0006153950036853987,0.0008609480636391608,0.0008635000188563248,0.0006629867152659851,0.000380233645355195,0.00016909230857137947,0.0001397441546709884,0.0002925260882250414,0.0005060823567706587,0.0005979286759482094,0.00043098781644388285,5.091702190885661e-06,-0.0005254689015306885,-0.0009253771473469815,-0.0010036245728274966,-0.0007183551058120866,-0.00020026268131929361,0.00031806224059889436,0.0006248784027996952,0.0006340556959225565,0.00041522617170618224,0.0001380321244130188,-3.131962980512423e-05,-1.8834789469233377e-05,0.00013083637278618187,0.000296068205329336,0.0003536426084775569,0.00024048993275043026,-2.7552535433079516e-05,-0.0003780010095809389,-0.0007212625939711983,-0.000982493362706284,-0.0011148465773492006,-0.0010984515326079502,-0.0009351335689625354,-0.0006446012355898587,-0.0002615045380590065,0.00016878626528685117,0.000595436153141783,0.0009669582242446032,0.0012358852695277512,0.001365324631105948,0.0013380392091195863,0.0011650269031522947,0.0008878767069693447,0.0005697577245816457,0.00027413856223611844,3.7652081858456175e-05,-0.00014870354393249407,-0.00033423372991829147,-0.0005745957592433534,-0.0008857373799132574,-0.001216656424448731,-0.0014638743986712247,-0.0015224500104170683,-0.0013417331026929344,-0.000950535676802267,-0.0004386501854810564,8.841080600634915e-05,0.0005499779816393211,0.0009043468422801058,0.0011377972603720363,0.0012466747559895714,0.0012299722198914952,0.001095830724546161,0.0008713664651608665,0.0006019466728338456,0.0003347954689084451,9.55096304436538e-05,-0.00012530790032863615,-0.0003616805306753279,-0.0006400847746597451,-0.0009452155755507733,-0.001209238241157769,-0.0013367830601405948,-0.0012538041586246979,-0.0009512204754036527,-0.0004965457675325782,-6.438710262582576e-06,0.00040369376067186187,0.0006653325544864147,0.0007758243873635179,0.0007855782661161305,0.0007641768938591411,0.0007630754365642878,0.0007905206119036576,0.0008074721233418609,0.0007454946809551531,0.0005404454651266116,0.00016967305674642197,-0.00032336732053008486,-0.0008314210788228217,-0.0012169137551576214,-0.0013649730496040815,-0.001231602199380509,-0.0008623666221521342,-0.0003712095918027426,0.00011007465853517208,0.0004860133647867518,0.000728567731730592,0.0008711464796329084,0.0009704728013162974,0.0010577181255562109,0.001107001604580413,0.0010417469319544872,0.0007786871306520492,0.00028566828223667434,-0.0003815972818193255,-0.0010876024081140777,-0.0016667848049789593,-0.0019873041553630493,-0.0019951778657937513,-0.0017196040677175451,-0.0012441980201339028,-0.000666600023901107,-7.012151395327363e-05,0.00048313761375857675,0.0009459170821528914,0.0012816272726198655,0.0014704695083998225,0.0015202196108241445,0.001468512681618398,0.0013681418489706184,0.0012595761533777195,0.0011457857861146056,0.0009856223354074477,0.0007125272537178034,0.0002713897743236546,-0.0003435775237883064,-0.001068050702070016,-0.0017746951024595209,-0.0023076034930350382,-0.002532562852700629,-0.002384335119673914,-0.0018912503790525668,-0.0011651707566190791,-0.0003601559407541504,0.00038110540110115497,0.0009679257871428979,0.0013727956493960584,0.0016144885853221665,0.0017288037564389023,0.0017440320497026064,0.00166880789126986,0.001490617086212904,0.0011821355764622173,0.0007170278902319891,9.651978328276915e-05,-0.0006221311130767907,-0.001315607118693197,-0.001820903461878872,-0.00199525394312867,-0.001781391145873492,-0.001240997697769682,-0.000535457068392235,0.00013710424880726112,0.0006170588660049459,0.0008369601022600922,0.0008337635463441162,0.0007181491369937293,0.0006145016552939822,0.0005953992456530282,0.0006395325245650884,0.0006374930502831468,0.0004511285713446351,2.62817593125542e-06,-0.0006549291819722212,-0.001332888290488706,-0.0017819501568091742,-0.0018113974999776714,-0.001385823632495022,-0.0006431650980002913,0.00017473339909255398,0.0008360045548155759,0.0012125667487281932,0.0013089498091697765,0.0012238738406247576,0.0010779144452405694,0.0009498982372553124,0.0008496859586355479,0.0007313982620129537,0.0005330437012002044,0.00022060007537947853,-0.00018441858349060349,-0.000606483284479464,-0.0009453051906000542,-0.001117711271824876,-0.0010913633678114782,-0.0008952535078941817,-0.000604367845874495,-0.00030739569709168756,-7.231508444935624e-05,7.553006589750737e-05,0.00015401692958812098,0.00020457172638814935,0.0002635412178634358,0.0003405337671228716,0.00041466724913930393,0.0004476179810219595,0.00040246701629369,0.0002578378862664504,1.571436579990876e-05,-0.0002927063893700954,-0.0006034141016047327,-0.0008273997606503908,-0.0008779969122527867,-0.0007106342936778242,-0.00035196576517655665,0.00010357354846252695,0.0005317985791737733,0.0008309522666210555,0.0009599401714168475,0.0009446249176150194,0.0008521827847358591,0.0007484016756921701,0.0006594042350756609,0.0005570431203963193,0.00037692210855822965,6.208843392164337e-05,-0.0003898619447828625,-0.0009041945381717149,-0.001348586328065634,-0.0015889270216255325,-0.0015519798162868638,-0.0012584326669963061,-0.0008066447148646428,-0.0003186837978133687,0.00011574609416381993,0.000463566252198037,0.0007329445455432522,0.0009394506871119666,0.001083687181684616,0.0011544009343001614,0.0011466580039723572,0.0010726092640441966,0.0009511459766880457,0.0007837648648501657,0.0005396064500539331,0.00016948502785433606,-0.0003523668777245981,-0.0009839505483498138,-0.001601522571752375,-0.0020331769685399863,-0.0021277314348052473,-0.0018237754817978092,-0.0011823984838423734,-0.00036679987210678735,0.00042061174335261307,0.0010132547608474075,0.001333862564846749,0.001405660563077879,0.0013216696207060995,0.0011905701720191285,0.001084174639164648,0.0010068820993641688,0.0008975463880098438,0.0006635557780538598,0.00023557528830149652,-0.00038009963879714057,-0.0010795517377771323,-0.0016873173658329904,-0.0020236212297194745,-0.001981183610826465,-0.001572580266210855,-0.0009245950503108465,-0.00022396666679431521,0.00035788477529226717,0.000726460111425632,0.0008866511381589334,0.0009195596183076415,0.0009277078680685298,0.0009768007109934459,0.001062987039019414,0.0011205995252376757,0.001063719883768823,0.0008375899064236392,0.0004520710861512107,-1.9376692156370832e-05,-0.0004719924094826844,-0.0008138077086198544,-0.0009990751570833649,-0.0010384954523758047,-0.0009866486492339122,-0.0009141263701483997,-0.0008734001300998703,-0.0008691595772382058,-0.0008470478018989425,-0.0007131405718187234,-0.00038376922777499646,0.00015515588555528137,0.0008139363151525233,0.0014174649157667105,0.001775287156350442,0.0017695260790844191,0.0014118739944958018,0.0008358442273685927,0.00022803016673333314,-0.0002610716773981309,-0.0005746707706146452,-0.0007460572193042151,-0.0008449701511343106,-0.000915933821338447,-0.0009501731472041424,-0.0009038992476763633,-0.000741989117761099,-0.00047213739823515326,-0.00014709404302872572,0.00016211205876450136,0.00040081616834275946,0.0005511017498225181,0.0006285185818659103,0.0006612863780283738,0.000667087946242513,0.0006414435003314036,0.0005629890148845677,0.00041075635517916285,0.0001826579211013313,-9.4922392481392e-05,-0.0003713883630706112,-0.0005888935137759474,-0.0007053710009340764,-0.0007127965678340403,-0.0006395472206362586,-0.0005324370290173172,-0.00042632886789780404,-0.0003196166663112669,-0.00017367879994022438,5.9086385784447326e-05,0.000393830189874673,0.0007859221772837057,0.0011388560428784835,0.0013452928168370488,0.0013353994923772986,0.0011016703446007936,0.0006882962448299393,0.00016048700747392833,-0.0004182723012019162,-0.0009854982596842784,-0.0014654788988477706,-0.0017667584167346331,-0.0018076423338311528,-0.0015599737891520801,-0.0010799738999459714,-0.000497061011802559,4.142619228450972e-05,0.00043855406193095067,0.0006850498024052081,0.0008411160438512194,0.0009777700094621786,0.0011212359591804741,0.0012390321480754115,0.001272427952919484,0.0011848255858504777,0.0009870190339151509,0.00072250249306684,0.0004285391824617945,0.00010615683676085878,-0.00027567765331089605,-0.0007416770569393244,-0.0012632958937126941,-0.0017390698421345591,-0.0020243342250649814,-0.002000178221491247,-0.00164133791283091,-0.001038409736897124,-0.00035779568709167235,0.00023631229403134183,0.0006504900967447272,0.0008842993831142965,0.001002414589692784,0.0010826196394484555,0.0011730394449623659,0.0012772990570175257,0.0013644511484075927,0.0013878131021411574,0.0012997085636283169,0.0010611385257450583,0.0006538303701760888,9.84607065290799e-05,-0.000529690842722495,-0.0011051786248011993,-0.0014882561259241798,-0.0015831911484482629,-0.0013893637675035393,-0.0010112932352325291,-0.0006131414661693147,-0.00033696031445319403,-0.0002306773916677142,-0.00023124883783622431,-0.00021621476146918648,-9.163516984343149e-05,0.0001420919411095913,0.0003908492977032045,0.0005311162869013992,0.0004901149165094324,0.00028576236624596775,4.599366007634995e-06,-0.0002569493972605201,-0.00044046756222953154,-0.0005320159369578779,-0.0005338730589817885,-0.0004341121225678329,-0.00020340308991474696,0.0001766812920170476,0.0006752909032470591,0.001194166192616321,0.0015885026722576002,0.0017220995107152673,0.0015305081353760726,0.0010585354035547554,0.00045002245782804653,-0.00010802535382832502,-0.00046209320034753393,-0.0005553189754311416,-0.00044952769711592826,-0.00029578935277213005,-0.0002638643275053936,-0.0004591147525038119,-0.0008647497065452313,-0.0013403636759763459,-0.0016825221576323812,-0.0017199140627762299,-0.001394431227049002,-0.000786091062971946,-7.137585281664108e-05,0.0005589552135446372,0.0009779249485244023,0.0011596208798705222,0.0011646236570245626,0.0010888045561496986,0.0010054567179783485,0.0009301166615830446,0.0008233993142647885,0.0006259105548034748,0.00030182886409864347,-0.00013463282786440657,-0.0006213005375183644,-0.0010708055632033683,-0.0013972922047648874,-0.00153576220007298,-0.0014531669706893521,-0.0011548764513806173,-0.0006871980968491944,-0.0001323337862325939,0.0004080074162585946,0.0008395540530767099,0.0011053395925164486,0.0012054123510077228,0.001193769893614121,0.0011491106663432003,0.0011308027285149415,0.001142496531287258,0.001124329900608453,0.0009805066546114073,0.0006308026439217809,6.227675341269551e-05,-0.0006440566802023288,-0.001327998064324358,-0.0018059701235428028,-0.00194695648828756,-0.001732421311168664,-0.0012661313418260104,-0.0007242998818245683,-0.0002716341826451577,9.454916847779116e-06,0.00013825929515897816,0.00019952041077087707,0.00028108937259100134,0.00042529477786331185,0.0006167912058592095,0.0008021179826861883,0.0009194465655156742,0.0009201005597991167,0.0007783536611327345,0.0004967966295546174,0.00011222303696929573,-0.00030305336547167957,-0.0006542152678705952,-0.0008535088481898455,-0.000854780890971611,-0.0006739376892757954,-0.00038240640597574224,-7.611241969859105e-05,0.00016421206637186358,0.00030264725825628205,0.00035553646342829904,0.00037489905276744627,0.0004155209000931755,0.0005007536450137148,0.0006044245154707337,0.0006601114672869265,0.0005950272473563328,0.00037138791345799624,1.292618987576064e-05,-0.00039820865416344725,-0.0007533529739858274,-0.0009624450761608516,-0.00098988172487758,-0.0008628051008303393,-0.0006475897828659687,-0.00040826840592594893,-0.000172556591560413,7.198157888699524e-05,0.0003483011341902533,0.0006481323281473338,0.000911830841481391,0.0010510641728704738,0.0010035453772644356,0.0007806456683466354,0.000468478447741555,0.00017504958750408427,-4.221894056861053e-05,-0.00021537047181820245,-0.00043838099710929264,-0.000786897158649225,-0.0012382955468311521,-0.001649197318528956,-0.001813211158135979,-0.0015710714783894646,-0.0009102893999015892,6.016407550657032e-06,0.0009020594102575171,0.001512493146233277,0.0017000931889211816,0.001506400930115684,0.0011119683457164198,0.0007327243333261056,0.0005121042410701751,0.0004661423232324065,0.000503144928606123,0.0004944116970286307,0.0003473159509938637,4.147483872942684e-05,-0.0003783767074188345,-0.0008306698445837836,-0.0012214750495310898,-0.0014593894618472338,-0.001472197909339749,-0.0012327013203835657,-0.0007822687694188655,-0.00023041061049843307,0.0002794590083560562,0.0006243561995663697,0.0007482632432711904,0.0006780929505380902,0.0005038663172653895,0.0003349166714489444,0.0002524539767151838,0.00027791885482625865,0.0003688499020652969,0.00044287610492851274,0.0004194629988166092,0.00026147698300896054,-2.869149094999763e-06,-0.00029045368928164693,-0.0005037835810930433,-0.0005813860287449102,-0.0005286538837866897,-0.0004092643208485719,-0.00030214430547552087,-0.0002516982752519319,-0.00024230875908790722,-0.00021067894357102465,-8.634745029484402e-05,0.00016251962078816184,0.0005003815066702976,0.0008264228199888365,0.0010098514665176565,0.0009470079103047458,0.0006153317206558143,9.46609979080124e-05,-0.0004605308812655346,-0.0008868955015613636,-0.0010808096883839575,-0.0010325284414292421,-0.000810946220614635,-0.0005143689062419175,-0.00021976867378663777,4.231296177955213e-05,0.00028001195529852186,0.0005117147652784662,0.0007376536303310686,0.0009289583071237559,0.001040440410314085,0.0010387369943393085,0.0009257882689855542,0.0007381546385254712,0.0005193865315672111,0.00028534524067427955,1.1453928571849648e-05,-0.0003442031857587805,-0.0007962845945407493,-0.0012984219298976477,-0.0017456901385924507,-0.0020133702524747837,-0.002008416274763796,-0.00170468603963725,-0.001147015684648259,-0.00042972385579973914,0.000333009913678945,0.0010301356147823764,0.0015668283527277285,0.001873895262915255,0.0019197738207382318,0.0017229573141919119,0.0013539845948965477,0.0009165700955163507,0.0005093856562658962,0.00018554900215288054,-6.647542494384235e-05,-0.000306168459804394,-0.0005950227772085637,-0.0009473467823729743,-0.001308000533284086,-0.0015720812139839375,-0.001636063957852941,-0.0014508058735326823,-0.0010464962187582748,-0.0005173422151731326,2.277778145973281e-05,0.0004877813766666007,0.0008455398709620477,0.0011128617267855904,0.001327040155288292,0.0015123977783959716,0.0016595694010819492,0.0017254021985419763,0.0016494302003766692,0.0013767198721450183,0.0008791494028990993,0.00017275287699633057,-0.0006700629572330534,-0.0015194605414261938,-0.0022081724527116525,-0.0025765856728614343,-0.002530853543114964,-0.0020869148592658994,-0.0013735377684216327,-0.0005868639774952635,8.40218940061289e-05,0.0005241810797672085,0.000720733777697397,0.000742450372758773,0.000688296929520564,0.000636105827045404,0.0006166325799127647,0.0006188486813011828,0.0006136169949559247,0.0005762012714633913,0.0004951023709051313,0.00036835317712680723,0.00019804760127429492,-7.352412715247903e-06,-0.00022348471700550155,-0.0004035980130661311,-0.0004862085360575559,-0.00041900051184153643,-0.00018870188066134771,0.00016034242412506065,0.0005325635253890759,0.000813604215227928,0.0009159734565556014,0.0008178115161331376,0.0005764510496996522,0.0003069214172583876,0.0001284721630647554,9.841044965644983e-05,0.00016652948773478822,0.0001834353845449198,-2.663813834692739e-05,-0.0005567429478420277,-0.001331662576698082,-0.002104872363033937,-0.0025564188479461998,-0.002449483001890921,-0.001760364120602537,-0.0007033985287939058,0.00036905017670120185,0.0011360968340003625,0.0014505195600768674,0.001377568069099497,0.001121118558411308,0.0008937504205515941,0.0008106468320538398,0.0008594731381903392,0.0009445933475911413,0.0009616181826047392,0.0008519647161605255,0.0006141716820400674,0.00028364329971282377,-9.179985320396925e-05,-0.00046352725741651723,-0.0007840415775110119,-0.0010115660436136877,-0.0011217021375078211,-0.001117375593433768,-0.0010250552844960422,-0.0008759139076703629,-0.0006849794338205673,-0.00044520283027198204,-0.00014206011265876432,0.0002226109829239402,0.0006162015893366472,0.000980414675981667,0.0012499445220009525,0.0013705988133352284,0.001308506445432444,0.0010535415362160987,0.0006240925251077454,7.346272536129322e-05,-0.0005102877354059987,-0.0010189524322272126,-0.001351838583058262,-0.0014457036604775193,-0.0012944258817178332,-0.0009510996323910596,-0.0005119138034167803,-8.62468473394975e-05,0.0002380944599781852,0.000421834750018381,0.00048172168275224125,0.00047524753895203994,0.0004708398034963695,0.0005181649465844524,0.0006302988698648816,0.0007811075331761953,0.0009145225179874393,0.0009611814175289654,0.0008595342913556689,0.0005780173287718373,0.00013153952115242803,-0.0004157215498096613,-0.0009643079151466895,-0.0014052587376857262,-0.001648217251141937,-0.0016438876579262438,-0.001396189846436212,-0.0009607957811809625,-0.00042811892708096745,0.00010555431798987564,0.0005670929018967432,0.0009216601447391803,0.001167696921934779,0.0013175603980567123,0.001376225456755888,0.0013288228571166085,0.001142775284376357,0.0007855017156255819,0.0002526715086973079,-0.00040562505763906524,-0.0010774811431536878,-0.0016116829254498412,-0.0018665521325148488,-0.001765688910399712,-0.0013341150423768354,-0.0006952191136286828,-2.6827052024737917e-05,0.0005054800708115797,0.0008081736861163222,0.0008860829222195511,0.0008249923222567346,0.0007415863477482033,0.0007264732602765287,0.0008069330099256921,0.0009439298040031182,0.001059830965404006,0.0010784102055753676,0.0009546561871921874,0.0006809877964309638,0.0002734770972256848,-0.00024443242452749144,-0.0008428528086870606,-0.0014682230001956127,-0.0020251920095868186,-0.0023826623695899496,-0.0024146516508829555,-0.0020590017292284827,-0.0013586073859197692,-0.0004571350010406089,0.0004507403483142939,0.0011874806935720105,0.001645339689610479,0.001804387937457338,0.001717954059392414,0.0014796695052499767,0.001186464665731003,0.0009073853328788164,0.000665192089601291,0.0004358943710994819,0.0001676360718768405,-0.00018599785206604037,-0.0006303491791520939,-0.0011085060602627215,-0.0015090112482606635,-0.001704823390983959,-0.0016083703795114418,-0.001215664958526956,-0.00061582267956569,3.987137235688981e-05,0.0005942312682318627,0.0009394170836529673,0.0010483062704226532,0.0009725312600040512,0.0008122089408684202,0.0006719539246232511,0.0006206467247987545,0.0006688796014441079,0.0007695678268687806,0.0008376844327835626,0.0007794679704709487,0.0005222552697950772,4.0528918585685234e-05,-0.0006242252345628673,-0.001355914458423055,-0.001979537416000671,-0.002308272790346079,-0.0022142598732198407,-0.0016938662851501275,-0.0008879492360225122,-3.3077171685675776e-05,0.0006414807374062899,0.001017566193631872,0.0011312361290070497,0.0011277053452771525,0.0011563671839379406,0.0012726316893643807,0.001407257644985608,0.0014179958672510431,0.001185458384784002,0.0006911888560399138,3.390523851111763e-05,-0.0006176610032005156,-0.001101190671331338,-0.0013236059489616413,-0.0012839557857864926,-0.0010555842952335952,-0.0007452627520217602,-0.00045123211637062037,-0.00023497559892964948,-0.00011103708412311172,-5.2331587579097436e-05,-6.7569418239306e-06,7.89254850272105e-05,0.00023360470354412378,0.000443245289465046,0.0006481005692270084,0.0007600313159055727,0.0006959956394868353,0.0004155479381045368,-5.3873599722772166e-05,-0.0006169062058074778,-0.0011377544091941316,-0.0014835372950076915,-0.0015632923544512617,-0.0013466847978698781,-0.0008613020763110955,-0.00018021621609846174,0.000589316916268709,0.0013172791872836636,0.001872646353482083,0.0021602444321695237,0.002161256972716471,0.001953439335842259,0.00169021699597897,0.0015366732981874553,0.0015844205046513923,0.0017832227621385846,0.0019268299048932416,0.001713371123350179,0.0008714771074346034,-0.0006904954343860598,-0.002780392802354313,-0.004930248857562481,-0.00654114296294009,-0.007117166535182691,-0.006478072030932116,-0.004835587946134147,-0.0026877085466756314,-0.0005896998389564945,0.001070421373891483,0.0021778046620670984,0.0028459238559027824,0.0032778188604966913,0.003628934911797841,0.003941640210259642,0.0041618159581782305,0.004198465204261783,0.003976232711339714,0.003455726427140912,0.0026315470689492492,0.001533997791498795,0.0002469131005289472,-0.001074109018949371,-0.0022139931807861057,-0.002957616355155098,-0.0031777794402539404,-0.002903731169871285,-0.0023229124164930995,-0.0017028048406176558,-0.0012672633167678956,-0.0010921134334888182,-0.0010780585576604525,-0.0010177931400299723,-0.0007218100928377366,-0.00013391185243320027,0.0006270151297407964,0.0013205957613324551,0.0017026712456467343,0.0016433702733547528,0.0011865152723391484,0.0005257978133610662,-8.536872351634899e-05,-0.0004455441632063848,-0.0004880589573147229,-0.00029945472657982343,-6.692070517646967e-05,1.9936898038656642e-05,-0.0001341569933293901,-0.00048227257242332956,-0.0008597517057533752,-0.0010671273084782637,-0.000967259585778371,-0.0005471013558216967,8.352639761412695e-05,0.0007489831476308537,0.0012862000188243997,0.0016034690564575385,0.001694162528437424,0.0016073355891161472,0.0014005067256667991,0.001105719602793847,0.0007262333575299717,0.0002588457990834259,-0.0002785098748096703,-0.00083392728398131,-0.0013304571241275671,-0.0016887858557902574,-0.0018490681302441854,-0.001782577764034523,-0.0014946822882737003,-0.0010260780329538356,-0.00045400323117455484,0.00011433864907077157,0.0005657744610771617,0.0008211507492846739,0.0008731240445882362,0.0007955357492829005,0.0007090741753027535,0.0007145644625842954,0.0008307090054444954,0.0009772176049711542,0.0010192796884429343,0.0008493709667585324,0.0004556311230169848,-6.679945244283188e-05,-0.0005679023143696409,-0.0009235523187129548,-0.0010934367645412707,-0.0011227871551990534,-0.0010931660049169362,-0.0010592519752064124,-0.0010134428443264625,-0.000898124700647483,-0.000653659337412277,-0.00026913257327510935,0.00019632146181523705,0.0006345652541885317,0.0009398878721436245,0.0010618201636801458,0.0010294011507003694,0.0009323888636083117,0.0008690836865457359,0.0008901946734972475,0.0009709319636213624,0.0010260771878337664,0.0009561968848630345,0.0006959817097702299,0.00023924672475203977,-0.00036555020853247066,-0.001036331269027077,-0.0016767527867812943,-0.0021856950560454487,-0.0024634998275557883,-0.002427392658702757,-0.0020396529396092856,-0.0013360863415813977,-0.00043372157670487003,0.0004957588697179019,0.0012805319241965935,0.0018060184377874694,0.0020454746078571564,0.0020481955742721763,0.0018948846537132943,0.0016498191142302143,0.0013400075486366396,0.0009709279924118526,0.0005606800893124737,0.00016000856332561234,-0.000163658553158771,-0.00037101450704592225,-0.0004910154676277672,-0.0006195686065593063,-0.000865218155755947,-0.0012691511749108146,-0.0017519585588643058,-0.0021298209691242723,-0.0022007865332777966,-0.001854754242625323,-0.0011415289510548115,-0.0002544202505518361,0.0005619681089945399,0.0011251641572032336,0.0013840892417997382,0.0014097292465855397,0.0013239073826376618,0.0012189523289342888,0.0011185020485219295,0.000993649499828892,0.0008083714852267639,0.0005536497415894006,0.0002483533459166177,-8.259679110687911e-05,-0.00042451571578239005,-0.0007656904750196926,-0.0010750414061246709,-0.001290822232589792,-0.0013390889982819996,-0.00117476869452967,-0.0008166520175731345,-0.0003489424596904178,0.00011538593262996395,0.0004878138625100747,0.0007407144639033467,0.0009041780855565339,0.0010269711770243275,0.0011303313807957017,0.0011880028759966219,0.0011457371985870758,0.0009636881353107077,0.0006489334543043649,0.0002545818001807856,-0.00015174357534781168,-0.0005245149098784944,-0.0008543417001035034,-0.0011510263507901576,-0.0014121214831615873,-0.0016043763086433847,-0.001674199338073127,-0.0015793611262483278,-0.0013171248614548586,-0.0009274746896142105,-0.0004705074661739572,3.0033406064829712e-06,0.00046529398547986186,0.0009016880402931518,0.001289808874811638,0.0015901570550898025,0.0017599325357866413,0.001779758820617466,0.0016688195212102143,0.0014719989668404677,0.0012266622584792084,0.0009352300961837984,0.0005664169401935761,8.62813647040531e-05,-0.0005017023888039889,-0.001134372286440877,-0.0016993583276009448,-0.0020738403839187175,-0.0021723887156935243,-0.0019810634314229667,-0.0015623264157305233,-0.0010294461694942264,-0.0005030267659778161,-6.916988393501004e-05,0.00024392325634907972,0.0004633190422363121,0.0006458802494394044,0.0008420416035062575,0.0010655396567550983,0.0012837663572368959,0.001433884440924715,0.0014561657436360895,0.0013255509157132353,0.0010623925757077043,0.0007154865976505835,0.0003288090585424333,-8.354935122418215e-05,-0.000532641541164223,-0.0010192578294926722,-0.001493316340376054,-0.001844209261754799,-0.0019404171643435217,-0.001700321555714186,-0.0011491506692380684,-0.00042198785140001535,0.00029272028603227057,0.0008359442225147097,0.0011382207896939813,0.0012251990724573706,0.0011732962304900364,0.001051272759793284,0.0008880499915457883,0.0006826674757889322,0.00043800461549213813,0.00018290983947292952,-3.892746487995486e-05,-0.0002031092610371714,-0.00032928421624791725,-0.00047067036451042295,-0.0006714825331624252,-0.0009226838326823728,-0.0011505463284659095,-0.0012501723609599905,-0.0011437876414535902,-0.0008253242371941981,-0.0003626304517006018,0.0001407222514562533,0.0005944057815156169,0.0009480814718796971,0.0011849797586549837,0.001299045200678748,0.0012823706502185944,0.0011350506467860634,0.0008849205100700489,0.0005923053891243009,0.0003258611504447059,0.00012104827647938253,-4.7937100463623056e-05,-0.00025556941296104517,-0.0005714343723376233,-0.0009976243335109896,-0.0014414229178804064,-0.00174765043115552,-0.0017753252447311187,-0.0014729961430172507,-0.0009079204884721978,-0.0002336922807027323,0.00038272231121988255,0.0008326533078956123,0.0010982390579936227,0.0012324228960370006,0.00130411242643834,0.001345888727590819,0.001337098490028346,0.0012286856140350615,0.0009866412418915534,0.0006205246142587293,0.00017899605467077946,-0.0002786036443490744,-0.000709425220431263,-0.001093478207059279,-0.0014187488928800718,-0.0016602476071512387,-0.0017705939935193011,-0.0016914350179583952,-0.0013831142568341032,-0.0008590919172085256,-0.00020476660314000007,0.0004369702247784782,0.0009151523863265905,0.001134127484446948,0.001096565877052249,0.0009000286055878962,0.0006873245402883481,0.0005778242871710076,0.0006167273067506447,0.0007662124955102713,0.0009360069853583373,0.0010294222165291478,0.0009783542451688781,0.0007562138031879102,0.0003761248086539522,-0.0001129122314924584,-0.0006290275783481958,-0.001068901931651218,-0.001336370747796928,-0.0013817422715044457,-0.0012287442534232567,-0.0009658966383119411,-0.0007007256989615886,-0.0005031646445889774,-0.00037449822447632774,-0.0002602996481021753,-9.467664595946292e-05,0.00015560998753272456,0.0004721690050557719,0.0007944015388697762,0.0010437898015829544,0.0011484080861006894,0.001061579032206111,0.0007746982249399431,0.00032337456800939285,-0.0002166795565303819,-0.0007458560463303892,-0.001164676889899997,-0.0013965078005069055,-0.0014012198561899846,-0.0011784903107565673,-0.0007646025069386465,-0.00022604195793365976,0.0003506881283553764,0.0008747762945648982,0.0012705734392071445,0.0014949064448479368,0.0015456909399050823,0.001457859347365234,0.0012862844892769583,0.0010802448812303714,0.0008598711185740118,0.0006076392510369814,0.0002823158120845654,-0.00014987227680638609,-0.0006834565894190746,-0.0012598066044918,-0.0017800175031180358,-0.002138402039779177,-0.0022591397267134944,-0.0021182431423391376,-0.0017429609724332108,-0.0011937824188183591,-0.0005419572654564932,0.00014574852566121607,0.0008108090220019671,0.0013989131073152243,0.0018559373282837678,0.0021306781027955217,0.0021859637470887485,0.002012964804461856,0.0016391705692412153,0.0011225207766775557,0.0005324705187066647,-7.198536769492322e-05,-0.0006538818398257504,-0.0011917562002816216,-0.0016598307103655732,-0.0020111153049405615,-0.002180368121492067,-0.0021103575092250287,-0.001785883996839313,-0.0012516507886522542,-0.0006007718853416748,5.829711562269236e-05,0.0006354142607955401,0.0010763979976979165,0.0013631818740295638,0.0015058715527057557,0.0015349787389454834,0.0014942080224136641,0.0014296035487947666,0.0013734766555651818,0.0013272989453449095,0.0012516730354565303,0.0010720245627810728,0.000705232124579368,0.00010358892296819075,-0.0007002675515615078,-0.0015726908785570718,-0.0023031612164464386,-0.002673627004049604,-0.0025478976109187617,-0.0019401165413238087,-0.0010253488000428407,-7.93369292752756e-05,0.00063074958191597,0.0009542370705516026,0.0009094891547018845,0.0006548506692422588,0.00039652941242811397,0.0002853060395793502,0.0003551473328876004,0.0005278332082849244,0.0006698091231047078,0.0006639943890169779,0.00046031428581466065,8.784097922606021e-05,-0.0003663003316837347,-0.0007930386353046049,-0.0010941400262036627,-0.0012021768216380823,-0.0010885737217658819,-0.0007658078334826347,-0.00028734500641011966,0.00025752388058352174,0.0007597066047680651,0.001118141260819235,0.0012712409444415333,0.001218029557207458,0.001017472113404174,0.000763602415208341,0.0005450399800815697,0.00040583016276119215,0.0003264227847321218,0.00023629433101466713,5.465397654234405e-05,-0.0002597255873750033,-0.0006750563570786601,-0.0010884656358733256,-0.001365727466207792,-0.00140189308547441,-0.001172810614662031,-0.0007488925752491967,-0.00026099229399134053,0.00016422323354591299,0.00046220694933646984,0.0006470125560870852,0.0007772688640809642,0.0008962665630794643,0.000989300115015646,0.0009899290911868557,0.0008316616262880727,0.0005076633165273575,9.363131231219547e-05,-0.0002860767252711757,-0.0005292874269766249,-0.0006175342699101374,-0.0006264931096977941,-0.0006755408890641952,-0.0008452835494819678,-0.0011137030120380513,-0.0013535188889032912,-0.001398524144043248,-0.0011432376332227308,-0.000614718570160645,3.1919049927082044e-05,0.0005950370329710236,0.0009337406141339548,0.0010316339515244436,0.0009790106986772881,0.0008929652802964214,0.0008357703214024802,0.000787316774706007,0.0006840393080743915,0.0004883330458756215,0.00023331429811556596,9.207328870222513e-06,-9.788696477196508e-05,-6.93011315863008e-05,2.7325692130637444e-05,7.863021977078913e-05,2.0928025515115547e-07,-0.00020229902682678382,-0.0004251900676816452,-0.0005189251565320342,-0.000371330643330137,2.6429028827225885e-05,0.0005689083740486444,0.0010848880121030408,0.0014146166341877297,0.0014706151148221628,0.0012516135495359354,0.0008121795237599318,0.00021895348885253053,-0.0004712498333792406,-0.0011985426777212918,-0.0018717414223673786,-0.0023614741254774,-0.0025374432999000877,-0.0023354779610269237,-0.0018077489619913142,-0.0011106463588731587,-0.0004247602909709684,0.00014519352055267394,0.00061742711018769,0.001084279180950885,0.0015961604158211042,0.0020662702398649806,0.002279596607286709,0.0020169817319430246,0.0012162896355343705,5.6917154000284825e-05,-0.00109900473563675,-0.0018793177916343676,-0.0020841619722938125,-0.001770357584506714,-0.001194475810729144,-0.0006555624387262725,-0.00033139768464626,-0.0001988620314621295,-7.79282390628383e-05,0.00022945626456017656,0.0007847762702680467,0.0014313175038281577,0.0018402214632815064,0.0016770098366984398,0.0008156923914755532,-0.0005144619101328379,-0.00175480608799089,-0.0022441202363273002,-0.0015537615184733839,0.00025220555516669574,0.0025963901022475686,0.004635292715961761,0.005639128847890175,0.0052953866920596865,0.003788824243894512,0.0016509531988816162,-0.0005087413730485123,-0.002243416117686539,-0.0033819103258814747,-0.003996170983442093,-0.004272556032722325,-0.004365457525540111,-0.004302845358957913,-0.003981109029196994,-0.003245539942685763,-0.002014312853736454,-0.00038068054789155287,0.0013663017616738129,0.0028244422758192987,0.003632058395889753,0.0036190282739016087,0.00287923311800842,0.0017276229517841826,0.0005635631429452594,-0.0002927045023756285,-0.0007139418458578933,-0.000781818357918837,-0.0007074400921978467,-0.0007064562329090404,-0.0008960946293388675,-0.001259055968205378,-0.0016744447991228761,-0.0019819294588423117,-0.002042350119534745,-0.001777405779816093,-0.0011885025115537344,-0.00035674749259628075,0.0005792160330663036,0.0014672863367300414,0.002192898404510462,0.0027105926997957053,0.0030369520668406206,0.0032104012371997294,0.0032473575895010185,0.003126509628541123,0.002809654410935187,0.002278105186492435,0.001554276936003237,0.0006958754876316073,-0.00022387094967868566,-0.0011281994256940285,-0.0019349517529907382,-0.002555275142050546,-0.0029092973099641133,-0.002956424986094523,-0.0027188038102519477,-0.002277635839515379,-0.001742593274785772,-0.001214214098821372,-0.0007604132016591483,-0.0004132463567321442,-0.00017701731194142518,-3.5826577572492416e-05,4.343019260330327e-05,0.00010690959926022768,0.0001998579874031214,0.0003416330255568644,0.0005025240645190072,0.0006037820101405886,0.0005530241173994851,0.00030160840082203277,-0.00011141419533485051,-0.0005609176549409072,-0.000886006591174493,-0.0009601563809560139,-0.0007418510866071988,-0.000282037508543945,0.00030839926447901855,0.0009080796291647177,0.0014246266145820762,0.0018083406161556893,0.0020421858153792205,0.002124140824081594,0.0020585639826463165,0.001860443080502263,0.0015614364708310478,0.0012035880513687263,0.0008193797418008634,0.00041364004018283845,-3.3847563162841925e-05,-0.0005424357021464959,-0.0011010047677054366,-0.001660453687048636,-0.002155598975090098,-0.0025360684662812673,-0.002775891211733243,-0.002851935723706526,-0.002715208982809308,-0.0022933136232330016,-0.0015392995110731962,-0.0004982897099193185,0.0006630670494557193,0.0017012551218682794,0.002398749744934596,0.002662156860245583,0.002550752137241003,0.002217497789589933,0.0018049830602358205,0.0013674186886027577,0.0008677499120732625,0.0002447258712025449,-0.0005022342091085378,-0.0012711091604932132,-0.001886613619241103,-0.002180991062776501,-0.002075546767096556,-0.0016161182898260244,-0.0009471263200585256,-0.0002447865930030376,0.0003510242767708529,0.0007729154146264433,0.0010207292631398868,0.0011303429333575261,0.0011420565674676213,0.0010853181924890616,0.0009789957657363978,0.0008354001265900683,0.000659065150146435,0.0004421025983650924,0.0001651631304504873,-0.00018957023318172048,-0.0006163393177011701,-0.0010666281464034066,-0.001447516316243529,-0.001646238931543045,-0.0015755219354456262,-0.0012183948835713925,-0.0006453346384200005,1.0509086423781072e-05,0.0006080569672010406,0.0010509027640008364,0.0013086710260094827,0.0014019634330232303,0.0013701785979566847,0.0012472170455826142,0.0010559927018576546,0.0008141535590041427,0.0005367393911023097,0.00023019871510042075,-0.00011402643862369285,-0.0005130127530862833,-0.0009686641080854936,-0.0014391275588193913,-0.0018283318674771703,-0.002010775647233273,-0.001887054688888925,-0.0014420069235793077,-0.0007693385591357566,-4.220174497115308e-05,0.0005595580766369491,0.0009271906741395341,0.001062261403648337,0.0010557673009177232,0.0010217152589098062,0.0010265674429354322,0.0010565380988172839,0.0010393270591382607,0.0009019390040894176,0.0006240817065357878,0.0002520121462836508,-0.00013269157238337105,-0.00046241681028694626,-0.0007130502614442332,-0.0008947014793065375,-0.001016668049964037,-0.0010591045326523432,-0.0009765766867621875,-0.0007324270563585948,-0.0003385584863035043,0.00012968681412951094,0.0005570371962529855,0.0008378309487639473,0.000922394165830839,0.0008339289189528698,0.0006487664666798578,0.00045450380026383484,0.0003108915827323722,0.00023256878845806669,0.00019657083048750783,0.00016251026218713164,8.964363174581379e-05,-5.55600197364531e-05,-0.00029477277444793954,-0.0006265969567408971,-0.0010104031744112912,-0.0013604900541365425,-0.0015659105324682576,-0.0015339970951362611,-0.0012347538288902606,-0.0007178862610276999,-9.061936861109982e-05,0.0005296516313886353,0.0010582223596353915,0.0014574346058307424,0.0017201128220864642,0.0018409801010559447,0.0018008542114254134,0.0015756783881104935,0.0011618489791988013,0.0005970156069289224,-3.9919181744852913e-05,-0.0006498590344161837,-0.001142163763535465,-0.0014560011524477575,-0.0015686515697707257,-0.0014942346185260647,-0.0012774528255780865,-0.0009821704453200947,-0.0006729040653889876,-0.00039296517142234377,-0.00015017768259984284,7.958905490288551e-05,0.00033124105526568143,0.0006237347981060767,0.0009432691192001096,0.0012441278867712908,0.0014627484379851094,0.001533790932022329,0.0014007350196764653,0.0010240354943160295,0.0003963862299063213,-0.0004316769171405783,-0.0013291801460132814,-0.002090744240662948,-0.002489535593268313,-0.002366987245749707,-0.0017170735786988774,-0.00071286094968497,0.00035169094263940706,0.0011834007450447208,0.0016133487920518626,0.0016555937610438947,0.0014699345413898798,0.0012525701768688162,0.001120195325493102,0.0010555564980966588,0.0009430581407629601,0.0006657261051269616,0.0001968414856128313,-0.0003738886206471005,-0.0008935694898581112,-0.001238966171791921,-0.0013845185768039405,-0.0014011994952128621,-0.0013911210447715564,-0.0014061936688976578,-0.001407563949150026,-0.0012923738547585826,-0.0009681069559206632,-0.00042389085770296216,0.00024825633988090627,0.0008953736638801753,0.0013807749271601139,0.001646870926572039,0.0017250975103472925,0.0016907570895984536,0.0015974760980889268,0.001438297478106977,0.0011600539748023253,0.0007193202369714757,0.00013868465459353457,-0.0004785787812594758,-0.0009890226500089395,-0.0012805711413409206,-0.0013294930052969735,-0.0012061219695539136,-0.0010254791043498549,-0.0008741019762593026,-0.0007596159310370789,-0.0006155122320703806,-0.00035882564518185836,3.585224419226001e-05,0.0004950552193448397,0.0008688099942296039,0.001008557573849777,0.0008554232526314723,0.0004827698588208921,6.220282180844359e-05,-0.00023007739074495107,-0.00031053976052545417,-0.00022994142471664597,-0.00013511991883327515,-0.00017566466471534173,-0.0004108667750507762,-0.0007682845902189173,-0.0010734682223016853,-0.0011324121021012241,-0.0008245377956494925,-0.0001631349108279776,0.0007016072735581201,0.0015355198247983233,0.002105451515026506,0.0022621984826172218,0.0019906538616219294,0.0014095480637836937,0.0007206879075130803,0.00012592442690675162,-0.0002552448506886565,-0.0004308591600407372,-0.0005211554042587642,-0.0006867871708691122,-0.001033547270799705,-0.0015414774563463737,-0.0020576485480229027,-0.0023612878038246654,-0.002271288829375405,-0.0017408886749626772,-0.0008889628891474138,4.898757997074494e-05,0.00082416209307459,0.001279091029966747,0.0014032305581829134,0.0013168226357062303,0.00119610409369202,0.0011792689630022904,0.0012987541793170743,0.0014703353686061603,0.001541183300162281,0.0013709358756539042,0.000904878833772239,0.00020324090569908174,-0.0005864212602565744,-0.0012959500434982002,-0.001802551899680592,-0.0020566675645271914,-0.0020633135478826514,-0.0018434842244019062,-0.001414140742220086,-0.0008032471264046966,-8.034401978146465e-05,0.0006338541353912603,0.0011986031469769772,0.0015098875387764875,0.0015449849934115866,0.0013650002606480503,0.0010761245520273233,0.0007774520152121871,0.0005260337123413712,0.0003307353344354609,0.00016576706844040725,-1.0473649036289332e-05,-0.00023697456916519461,-0.0005302788834102978,-0.0008653749147641333,-0.0011696164067972953,-0.0013435185985506165,-0.0013070494154094482,-0.0010475158850087333,-0.0006358747336143444,-0.00019483284009300886,0.00016474978463473116,0.0003983376424182524,0.0005372595149100345,0.0006489806293478112,0.0007776460810783523,0.0009059241108713254,0.0009624235539630254,0.0008683229975264871,0.0005928122379833369,0.0001824393049837434,-0.0002543761476661217,-0.000598865574203215,-0.0007782061207037021,-0.0007929191770499903,-0.0007011992195338285,-0.0005733877022902301,-0.0004466900058487267,-0.00030764943357233223,-0.00011173067398498107,0.0001732338883351113,0.0005278511509497013,0.0008728799853664519,0.0011004014275393938,0.0011283913541164847,0.0009469421539540796,0.0006279352054279661,0.0002907707652144598,4.2000687394425605e-05,-7.854511516877129e-05,-0.00011609543521329312,-0.0001735775943593244,-0.00035206175157822183,-0.0006890676151668901,-0.0011264807384915813,-0.001526018799151918,-0.001727226828848235,-0.001621194352144244,-0.0012032252131289687,-0.0005766010717213486,9.462886039400195e-05,0.0006571973075148048,0.0010251293736672964,0.0011941425254723566,0.0012151085512591172,0.0011514528965244028,0.0010488387897550475,0.0009293474482473198,0.000801475350208116,0.000668024640147312,0.0005220229296864481,0.00033779097207533296,7.442423122217792e-05,-0.0002985753244680242,-0.000764773381342205,-0.0012410171105017784,-0.001596749251519477,-0.0017086903411858406,-0.0015203158264080472,-0.001069945501937402,-0.000471394813823042,0.00013873106700744518,0.0006544009751246633,0.001025332397184579,0.0012465843211579386,0.00132910057731668,0.0012783948316377504,0.0010987131246557097,0.0008163006142479716,0.000495807720485393,0.00022539640500922244,7.024745115476422e-05,2.34467184529119e-05,-6.099200000125047e-06,-0.0001483324776733897,-0.0004876450144732337,-0.0009899777250942804,-0.0014933580751896824,-0.0017789154213902016,-0.0016879272135238038,-0.0012163783187927417,-0.0005272773725318322,0.00013021641739843185,0.0005482815208623118,0.0006600438232068986,0.0005561377427127103,0.00041498722211219833,0.0003936770865129531,0.0005443666464334427,0.0007991524959952274,0.001021113120665551,0.0010815758814175125,0.0009170473595488585,0.0005434181651551289,3.703496244115588e-05,-0.0004934259696170833,-0.0009299924572050333,-0.001166580691132973,-0.0011363282065743993,-0.0008408582340946044,-0.000363144972650117,0.00015308477719014977,0.0005558947162250143,0.0007464211374190014,0.000717513278464723,0.0005493291042848257,0.00036399778109442256,0.00026209911887483,0.00027222900892176895,0.00033840194670735314,0.0003519854656826842,0.00021282720145373495,-0.00011179588175798872,-0.0005624021584355525,-0.0010111478122793664,-0.001321500581786289,-0.0014102523891935993,-0.0012773221655116031,-0.0009886416170150156,-0.0006267692559072635,-0.0002443934339294012,0.00014760888791834212,0.0005531013577951742,0.0009512664876379086,0.0012812116566861664,0.0014669723512729276,0.001466006569021288,0.0013040368234209425,0.001066709913366863,0.0008483734719376795,0.0006899060965600315,0.000548667325223907,0.0003244708916720606,-7.217018448435494e-05,-0.0006523423748150912,-0.0013235265143666604,-0.0019202831305482953,-0.0022707821019146814,-0.0022636306617035847,-0.001887000977226043,-0.0012304838500086612,-0.00045464933360756725,0.00026053523012640003,0.0007742038545118895,0.0010312953047014856,0.0010768628426980795,0.0010264748422050734,0.0010024691974804395,0.00106751343947294,0.0011918589995517077,0.0012719272236910118,0.00118728035391063,0.0008626344507911322,0.0003046669271439961,-0.00039640130352304546,-0.001091731016730937,-0.0016122078016388853,-0.0018132736733533646,-0.0016220387589647887,-0.0010746270771445495,-0.0003221243977656222,0.0004119740117948528,0.0009159375700011267,0.0010789701563600049,0.0009368145184453609,0.0006448308122976237,0.00039090311245743964,0.00029607670689138526,0.0003570347744376168,0.0004591000180838448,0.00044898943349781307,0.0002257450855822358,-0.00019919911720448066,-0.0007038817112303532,-0.0011169358424322846,-0.0013034114490358237,-0.0012282162571709476,-0.0009639559808949565,-0.0006417562618042197,-0.00037489876080926024,-0.00019884662011506019,-6.105162231436942e-05,0.00013422139361849274,0.00045238838189596555,0.0008708079846595166,0.0012743406783525403,0.0015108862426802218,0.0014752929253222897,0.0011691161975767282,0.0006970611168635938,0.0002025284150704344,-0.00021371363477407654,-0.0005365001874496737,-0.0008136673169756576,-0.001087981160756801,-0.001336403054157382,-0.0014639838755676352,-0.0013596186512937467,-0.0009753746462828428,-0.00037367175242585893,0.00029070960334313424,0.0008424227268867205,0.0011663377024752261,0.0012509755965653712,0.0011749500865889087,0.0010506401920648395,0.000959477612264432,0.0009119125017910752,0.0008483238861776293,0.0006762215975093723,0.0003231327542033626,-0.00022085532169182595,-0.0008894190211517599,-0.0015572289515586625,-0.0020758292993246974,-0.0023134599519967153,-0.002190982347943576,-0.001710177422731718,-0.00096580558003548,-0.00012765371612339792,0.0006128027518421291,0.0011136046026407097,0.0013341662548475087,0.0013354273251855952,0.001227900098609032,0.0011031542624701416,0.0009942120743589645,0.0008853035955148898,0.000752554992952028,0.0005965610740322585,0.0004404770403349124,0.00030010151680746563,0.0001572486684882689,-3.51212809541028e-05,-0.0003145942714719537,-0.0006653827311286799,-0.001004476263929008,-0.001214699862561093,-0.001209130754726851,-0.000987338129863795,-0.0006446975783188544,-0.0003231349105733179,-0.00012976467632803274,-7.41199198453598e-05,-6.63618047400498e-05,1.949541700499584e-05,0.00025707908177086526,0.0006121737273893347,0.0009573337503449765,0.0011460477393082057,0.0010956025433809147,0.0008244789720673015,0.0004255701662667046,2.44190879019582e-06,-0.00038273124088243,-0.0007172165661635541,-0.0010065127334543632,-0.0012363247011278108,-0.0013598147328322135,-0.001318721868709079,-0.001081063036527713,-0.0006682600160769701,-0.0001539456203741268,0.00036463925634314673,0.0008062736471021077,0.0011348292205973498,0.0013625116205054173,0.0015265636800129746,0.001654010395071251,0.0017355733260422067,0.0017230763862178967,0.001549811196421452,0.001161554104581957,0.0005439881657331177,-0.0002621399588576218,-0.001160279195017976,-0.0020106882888536156,-0.002655372037630534,-0.002954223939661935,-0.0028269895775418948,-0.0022872554574630876,-0.001449477790956962,-0.0004974988346852063,0.00037680057210322173,0.0010364303858750108,0.0014327039292013843,0.0015957306832144445,0.0015941462177557985,0.001491783678766028,0.0013253424734234755,0.0011089316616150625,0.0008524291768596369,0.0005739409171692947,0.0002955853583514859,2.8076811871935925e-05,-0.00023979940172793874,-0.0005335039213606159,-0.0008673798546333224,-0.0012170445141785453,-0.0015103435307396175,-0.0016489411590490022,-0.0015538108585987807,-0.001210027251233769,-0.000682221615276224,-8.795701573890535e-05,0.0004561940666328756,0.0008819080975501679,0.0011809639539138567,0.0013794204792056664,0.0014987541676089711,0.001535115933490338,0.0014700020877935604,0.0012984438188855729,0.0010462305913873377,0.0007575251981574532,0.0004606248891075588,0.00014080070778706394,-0.0002528333796353846,-0.0007639083358100301,-0.0013749582996288084,-0.0019810879143103964,-0.0024153088555894167,-0.0025183698519123214,-0.0022164006858560203,-0.0015616158956092204,-0.0007119594105435399,0.0001373121506505072,0.0008289684172582175,0.0012856694626251263,0.0015055174617447933,0.001530136624152709,0.0014154399477547882,0.001220390287509682,0.0010051828696696335,0.000821035150516148,0.0006870160704126406,0.0005704697715354099,0.00039459916417735735,8.103199046578184e-05,-0.0003918904421003882,-0.0009518201140276699,-0.0014460446982567437,-0.001706656817051274,-0.0016337567839178487,-0.0012480259930465177,-0.000680629361727007,-0.00010728765377204618,0.00033248033565048507,0.0005846600803692828,0.0006779592614296283,0.000683689419746723,0.000671612269120969,0.0006862719241605983,0.0007444776133180667,0.000838207278625965,0.0009311359356205004,0.000954283740758952,0.0008178982880548331,0.0004493827670161088,-0.00015497399755747066,-0.0008956163954617709,-0.0015824272685234539,-0.0019998296582600327,-0.001997048657516752,-0.0015577141090865436,-0.0008114101192267203,1.97646136770222e-05,0.0007126574357607542,0.0011276643853880687,0.001248344228814873,0.0011634464867657538,0.0010076190696602632,0.0008937441483981266,0.0008674972429123966,0.0008984174919142627,0.0009035817825030744,0.0007890490989690212,0.0004915441286623088,5.250296140265893e-06,-0.0006149956606971741,-0.0012724286819551594,-0.001857271956904429,-0.002271888309974985,-0.002445888629402424,-0.002344664542252555,-0.0019764455704691293,-0.0013958099781570688,-0.0006956454197956067,1.614767274270908e-05,0.0006473026492979398,0.0011440472441496862,0.001495686579003191,0.0017224979698078813,0.001857120842098805,0.0019288515629505986,0.001954054104651185,0.0019317003314977647,0.0018432277685250002,0.0016573290133503544,0.0013400818809872648,0.0008691942021693741,0.00024934179907834997,-0.00047596556545642757,-0.0012216385729776566,-0.0018724383791235866,-0.00230969248984278,-0.002447099622830462,-0.0022619305940772432,-0.0018057374712050953,-0.0011861265989904558,-0.000526585460554751,7.473162644011265e-05,0.0005653451785376654,0.00093056630730247,0.001169973982779158,0.0012806774616841746,0.0012611847256455743,0.0011288598695658233,0.0009283562882359303,0.0007133363068097473,0.0005078750716536959,0.00027775847501202116,-5.680676543921056e-05,-0.0005624548558397412,-0.0012208638459778299,-0.0018960537513605501,-0.0023750211219241975,-0.002468944414508133,-0.0021179918105204967,-0.0014345299241009723,-0.0006553934056893254,-2.9508451709674252e-05,0.0002952354746484037,0.0003253992786964475,0.0001940725525564201,7.763785126479561e-05,0.00011051828743418798,0.0003434292455748387,0.0007559032797323894,0.0012976612939901667,0.001920627010990298,0.002579734411449575,0.0032101049884236676,0.0037080229004237,0.003941271816460867,0.003793911941796872,0.003224422074124142,0.002300644007892115,0.0011827935177991678,5.606284794883003e-05,-0.0009515769647575295,-0.001817477503742322,-0.0026076680267673163,-0.003403272414823112,-0.004212623592304624,-0.004922316325318744,-0.0053208944817037356,-0.005190532871634845,-0.0044254515046522405,-0.0031179939871788243,-0.0015622276690619198,-0.00015969836910973215,0.0007390681376279983,0.0009843610244232165,0.0006914324644282169,0.00018205715008369483,-0.0001691014647055636,-0.0001050405260445593,0.0004114625073700674,0.0012100675307084134,0.00202373972549706,0.0026329731205722968,0.0029655647067674514,0.0031035335493735314,0.0032027636371901765,0.00337866463766491,0.0036257192324305665,0.003814050188490717,0.003759627730176531,0.003324494022042052,0.002490408504726436,0.0013680946137721397,0.00014263039821282766,-0.0010093313623406987,-0.001983737110119622,-0.0027652304539723758,-0.003396690030149776,-0.003927832907524275,-0.004373857428326952,-0.004702641154419159,-0.004849245519475604,-0.004742886050648654,-0.0043315236654615195,-0.0035984867992967583,-0.0025727798562714516,-0.0013335541723775728,-4.083723368519376e-06,0.0012695804692653056,0.0023526567407562166,0.0031564700330856703,0.003658171508129141,0.0038936305298199413,0.003923485516037223,0.0037879441887504997,0.003477184410540184,0.002940730734654428,0.0021377676340200748,0.0011017759661011237,-2.3283529057776782e-05,-0.0010076824198166755,-0.001620161086714941,-0.001732881936241592,-0.0013913726904295637,-0.0008090072739071418,-0.0002838443310290927,-7.411520836836665e-05,-0.00028748243363138095,-0.000832523048781787,-0.0014549939300974946,-0.0018468876930197125,-0.0017843990889386888,-0.0012342414005708882,-0.00037709378094414806,0.0004669071603912421,0.0009779851059926398,0.0009757261154212169,0.0004921217020430422,-0.00025163052221714114,-0.0009471876969086479,-0.001328112136303317,-0.001267680404672425,-0.0008079626725511976,-0.00011759669319526093,0.0005927496185385152,0.0011541951578652747,0.001487780378077774,0.001605308506609989,0.0015756151154304229,0.0014809503607258936,0.0013838171552428978,0.0013113228215238769,0.0012533780588468327,0.001168868854282602,0.0009973856071972297,0.000676641304046745,0.00016421597764877845,-0.0005410051872703196,-0.0013840055002734505,-0.002251422561982925,-0.0029867236900079685,-0.0034243455641469744,-0.0034372201777777287,-0.002982740786483046,-0.0021269446472237355,-0.0010317435408539318,9.398401287775683e-05,0.0010593344340570708,0.001742656322343521,0.0021083661043170086,0.002190508893242068,0.002062052196657769,0.0018091208616191749,0.0015155491406471829,0.0012507274045580096,0.0010540520183683715,0.0009197474086902033,0.0007944608193085566,0.0005972796677448738,0.0002584708633072779,-0.00024074485886295145,-0.0008485405709271732,-0.0014536003493916814,-0.00192073119271772,-0.0021338675834627254,-0.0020306874235816483,-0.0016210623589099707,-0.0009869237434372007,-0.00026211000635783036,0.0004060799990121644,0.0009028204890053192,0.0011800237239882757,0.001262370124508281,0.0012230593356294941,0.0011431259780740495,0.001074026545032069,0.001017703151859287,0.0009290694559128885,0.0007390511540708274,0.00039099070590269065,-0.00012308550462868475,-0.0007436269631839688,-0.001353972447841509,-0.001817101376095381,-0.002021537516772879,-0.0019161435875910263,-0.0015227503265038123,-0.0009278593403190317,-0.00026012694032052534,0.00034187677584009894,0.0007687587431519157,0.0009774174401415833,0.0010081815608016997,0.0009644729708871923,0.0009550783559266291,0.0010254168847285117,0.0011193929065377048,0.0011018696542315534,0.0008365067791901166,0.00027707971232680297,-0.00048180678082044,-0.0012274007151247073,-0.0017165212883873395,-0.001783839296764884,-0.0014149236121874195,-0.0007471809755711794,-8.83393414034475e-07,0.0006199437116706463,0.0010034046238353337,0.0011477475436944985,0.0011245086369865345,0.0010202603897490603,0.0008945922353373819,0.0007712437620353782,0.0006525841798910392,0.0005347628428176911,0.00040818914596437567,0.0002466390959005093,2.828594937805259e-06,-0.00037288804592851017,-0.0008918806776599978,-0.0014886716516100446,-0.0020176333625654156,-0.0023017452329775344,-0.002215274945932745,-0.001753426144121981,-0.0010432470435679715,-0.000284339330386278,0.00034725667735823135,0.0007746799520167715,0.0010321644952218626,0.0012125185654980814,0.0013904529039060656,0.0015731010034598309,0.001704359560084729,0.0017103633828606782,0.0015493902877952441,0.0012345303192558112,0.0008213753355983324,0.0003755274178341466,-5.705952183325622e-05,-0.0004605028886518574,-0.0008380136708962158,-0.001190081926406694,-0.001496997568152757,-0.0017163139940013542,-0.001796181148216512,-0.001696519571684034,-0.0014065897190571372,-0.0009513070175218399,-0.0003863214311852714,0.00021310159894504768,0.0007653677629956383,0.001197519072048613,0.0014613970947173803,0.0015458235079584023,0.001476012601552556,0.0012958301827787518,0.0010406416663650427,0.000718897280123832,0.00031830042744304844,-0.00016426695805382412,-0.0006895577503597987,-0.0011663286798315451,-0.0014778924509133839,-0.0015323995852455476,-0.0013075077450819736,-0.0008636579787504441,-0.00031992885908869876,0.00019291199868911257,0.0005787202951424667,0.00080297767272891,0.0008931146331580962,0.0009148098480438452,0.0009332593186106709,0.000973293223156536,0.0009960971561593364,0.0009081729642784915,0.0006052982074967726,3.474276969238745e-05,-0.0007548216129007274,-0.0016042497254577359,-0.002286293514311687,-0.0025853457035480473,-0.002381478116200318,-0.001701959073736606,-0.0007169757153793034,0.00031972776511565384,0.001161583092087235,0.001654996592091315,0.0017856476708214785,0.0016658418669445879,0.0014675636171496294,0.0013309286235059592,0.0012923037956845528,0.001269895686892562,0.001116087223646624,0.0007091496940900023,3.4497712439577905e-05,-0.0007881219788742737,-0.0015450563768362401,-0.0020159841260773913,-0.002067035322891168,-0.0017090313517540243,-0.0010956500547396459,-0.0004598638239305457,-1.261358468750964e-05,0.00015223668076768055,9.932364788002503e-05,1.3585362966166657e-05,9.645008783875568e-05,0.00044835922829110125,0.0010017394964514361,0.0015441983855027034,0.001822228045466179,0.0016699292614495358,0.001093374210025579,0.0002671584373074116,-0.000551383454460825,-0.0011416048956340086,-0.0014092685300445516,-0.0014032455729737544,-0.0012583107724063339,-0.0011037486528517923,-0.00099297615803902,-0.0008913493904377065,-0.0007203334014436649,-0.00042233243225526346,-3.360030345551845e-06,0.0004679831768204614,0.000895804638766822,0.0011995503701304347,0.0013415659880661028,0.001333258838040832,0.0012247060039487635,0.0010830655321907349,0.0009627121401575468,0.0008738917023774546,0.000765727330759335,0.0005422729670388022,0.00011668994875782329,-0.0005184482954253488,-0.0012484856403120615,-0.00186008275564409,-0.0021319998976205784,-0.0019476300033382538,-0.0013621266901217251,-0.0005809050582919467,0.00013865219903850558,0.0006036984079702954,0.0007564572220461524,0.0006701389332505741,0.00048787714076314176,0.0003466364995031082,0.00032156951608167366,0.0004050241589238937,0.0005180957493436762,0.0005468315954797341,0.0003928817656413872,2.3385606762871454e-05,-0.000500004684942645,-0.0010299198193672893,-0.0013820841456205946,-0.001406263716630066,-0.0010486962519186784,-0.00037854756543307104,0.0004323910088110188,0.0011679435630288888,0.0016414685545937595,0.0017586114844574813,0.0015455525560061126,0.001130788889661019,0.0006866323602578262,0.00035526621396064133,0.00019281187679853176,0.0001563002620213669,0.00013632828040850264,1.5561173485009e-05,-0.00027652166684100023,-0.0007349092337655503,-0.0012817464790539433,-0.0017921221066823194,-0.002131148112955533,-0.0021931516200700044,-0.0019345099789915283,-0.0013895914788536199,-0.0006614367968735949,0.00011087458139322898,0.0007943105961725622,0.0012961211769825882,0.0015799221111709055,0.0016633333324590424,0.0016023153118172714,0.0014677836524671962,0.0013198119598942552,0.001186067773258904,0.0010521037725841063,0.0008687870163119974,0.0005761253534219214,0.00013563782456871135,-0.00044125114873991766,-0.0010812775447042035,-0.0016615155379836534,-0.002044935271144026,-0.0021283148841407837,-0.0018826643463461753,-0.0013655653021257509,-0.0006973576232211002,-1.4000321436060618e-05,0.0005765583429353072,0.001012807401852405,0.0012717066099001287,0.0013518001872345519,0.001266581244700235,0.001051827197533814,0.0007723215042505079,0.0005089702860644452,0.00032244162477906537,0.00021334519697457178,0.00011147740082020511,-8.637018769715548e-05,-0.00044399693979850074,-0.0009230162979312893,-0.0013760663794939057,-0.0016104047572367951,-0.0014900027241048549,-0.0010157221868624484,-0.0003336405962912709,0.0003346245180776773,0.0007981164211290379,0.0009782174942761985,0.0009242489156468178,0.0007636321061762084,0.0006230164712960224,0.0005659948389205439,0.0005756907622661336,0.0005817379037369868,0.000508736137039935,0.000317636939819776,2.2032028537006913e-05,-0.0003217447255616805,-0.0006399194782731074,-0.0008690728050801945,-0.0009769678401450122,-0.000969930840525852,-0.0008827051932483541,-0.0007532023769975093,-0.000595473385871782,-0.00039047572851624987,-0.00010542520354971672,0.0002691067128278086,0.0006921742034547099,0.0010784058604056481,0.0013348304878491545,0.0014028851321151504,0.0012779158718847165,0.0009976931563436368,0.0006136780440216608,0.00016724347583705191,-0.00031467594562484724,-0.0008053890287356661,-0.0012593341029960834,-0.0016050867309345914,-0.0017599897172853817,-0.0016617134048575186,-0.0012999688571045055,-0.0007296478850023855,-5.657016823874036e-05,0.0005972190305864092,0.0011301179995883888,0.0014816591695130561,0.0016317815271906081,0.0015884595893181285,0.0013790639434668138,0.0010518136225740474,0.0006782031688443993,0.00034073955241910054,0.00010105795291964,-3.627940029354707e-05,-0.0001370622487876607,-0.0003092066629562792,-0.0006401977122065374,-0.0011333425365124528,-0.0016832974531750633,-0.002111996938857605,-0.002249967315976964,-0.0020183747919925886,-0.001465240045316909,-0.0007373763800026052,-8.085557777407501e-06,0.0005967846529918877,0.0010371895717562803,0.0013489216412941277,0.0015983191247553943,0.0018292390694453122,0.0020301883311113797,0.00213712315332877,0.0020674833146063793,0.0017637519154132524,0.001221505247039392,0.0004902467285251799,-0.00034492675843160903,-0.001182277857347329,-0.0019112890993450084,-0.0024152655017158544,-0.0025860729052194745,-0.0023608360992448257,-0.0017670605356269993,-0.0009433616571689826,-0.00010797309479395993,0.0005222346425206945,0.0008241784026475421,0.0008208164951901365,0.0006611583463105712,0.0005368793958907695,0.0005808283466348914,0.0008020079731078176,0.0010887094154196477,0.0012718851030404496,0.0012097875235865542,0.0008498970775920988,0.0002441545240446947,-0.0004779820240551704,-0.0011559976649026078,-0.001642035401128708,-0.001831784209541956,-0.0016829625031979348,-0.0012234715814828474,-0.0005476271633540059,0.0002029014837399335,0.0008734315005933348,0.001338653622120271,0.0015386035453041158,0.001491985067542179,0.0012786191439539158,0.000998205936810844,0.0007254868332691582,0.00048282568478668904,0.0002402361727918968,-6.093786552918766e-05,-0.0004723135758742895,-0.001003257869248014,-0.0015975548029417345,-0.0021327595290056766,-0.002449579187780406,-0.0024076560239505366,-0.0019478475697840502,-0.001130330787633798,-0.00012424878043618246,0.0008511255479160343,0.0016059182579264673,0.002040299429213125,0.0021596905024721487,0.0020459274047754847,0.0018082710197604708,0.001541293412076086,0.0013030077247373852,0.0011102357022886242,0.0009417194648345588,0.0007448273143489107,0.0004503229523495103,4.735761175502255e-07,-0.0006147335981456072,-0.001331815465212082,-0.002019085025559177,-0.0025182799123348912,-0.002704629174987441,-0.002534647471883153,-0.002058454353065468,-0.0013944444223185264,-0.0006830173078065802,-4.2127427591435876e-05,0.0004592263846551249,0.0008055871366373939,0.0010235695640100036,0.0011635390012583434,0.0012809005016014155,0.0014186380805198278,0.0015906097126273475,0.0017676301716577523,0.0018731159273337728,0.001797220695561182,0.0014342821020687582,0.0007373605417540976,-0.00023105888551374688,-0.0012831396978013696,-0.002149235127744895,-0.002577502145144673,-0.0024477501204610967,-0.0018360700672962567,-0.0009849569783742698,-0.00018735670127029472,0.0003516378509468562,0.0005950258244415286,0.0006524884796043199,0.0006800147737390577,0.0007722355603599657,0.0009165842804442331,0.0010284776342628183,0.0010279980052481513,0.0008943127027705078,0.0006602223820773169,0.00036293649804712124,4.208729738637909e-06,-0.00043731221587571187,-0.000947915098815439,-0.001428192638126364,-0.001706818483051678,-0.0016284010805992838,-0.0011619162723123975,-0.000448960615899119,0.00025340272669573507,0.0007057654736943344,0.0008101030498940117,0.0006457896641743271,0.00040259513332245746,0.0002635420075120142,0.00031363793688633573,0.0005190110659915733,0.0007678377334046447,0.000932107070729857,0.000914299140913222,0.0006691066206504562,0.0002100550751951445,-0.0003888944552205467,-0.0009988322222596732,-0.0014592698552053488,-0.0016250199955307688,-0.00142484952102063,-0.0009032822043461149,-0.0002161417809020249,0.00042804728474130896,0.000856172607719186,0.0010027920175993401,0.000928240052157308,0.0007747609436292028,0.0006861812417022189,0.0007331549618320658,0.0008795346345988059,0.0010029160717646539,0.0009564325380363033,0.0006410648705053062,5.5171701032621836e-05,-0.0006991243847054146,-0.0014517444362469403,-0.0020233120220984183,-0.0022809117711530126,-0.0021719321940921353,-0.0017300063177644823,-0.0010576045972135381,-0.00029419653771995194,0.00042040208517682073,0.0009776191913939286,0.0013180025803474695,0.001432506777488011,0.0013530170052425006,0.0011418276654235502,0.0008832161077815664,0.0006689306164852987,0.0005677258349114441,0.0005845452801040901,0.0006361118780364423,0.0005735401553881127,0.000257261818420045,-0.0003502991788828047,-0.001131540270010423,-0.0018412418683551256,-0.0022096473403463756,-0.002069837047391819,-0.001442012079128622,-0.0005294786783491144,0.0003722862029958981,0.0010067050437544511,0.0012603059194097556,0.0011892823583535552,0.0009619010753674976,0.0007567134322398041,0.0006764478555664079,0.0007193501288498762,0.0008086811375460947,0.000847562236974056,0.000762269502142969,0.0005188594156897938,0.00012228066416423349,-0.00038637737038095673,-0.0009300703081296307,-0.00140215442889347,-0.0016889850263136948,-0.0017074890234814672,-0.001441992029601112,-0.000958711122321424,-0.0003852193110425067,0.0001383462013323383,0.0005124255265264692,0.0007089911423556729,0.0007672697473279683,0.0007607941444200364,0.0007549603644850291,0.0007740575433477222,0.0007884486309335881,0.0007247734441037492,0.0004976377475066148,5.6070206169609674e-05,-0.0005711834588370674,-0.0012557387761115632,-0.0017959625669306564,-0.001990129489070794,-0.0017272615291869231,-0.0010479246240863015,-0.00013688385622144267,0.0007540048449005489,0.0014134095240791737,0.0017514474144792803,0.0018133692286534957,0.0017251881705166933,0.0016081649429944547,0.0015127263665647922,0.0014056583464750437,0.0012094615744645866,0.0008622352419587764,0.00035880888724278137,-0.00024837190104743214,-0.0008808973346545251,-0.0014705881129790101,-0.0019738164937079983,-0.0023582865132847288,-0.0025804034063802695,-0.0025798972876745745,-0.0023044113317154673,-0.0017505165605271745,-0.0009901611434189976,-0.0001582230025059402,0.0005965071572222089,0.0011687185188452003,0.001528791330736952,0.001714047718016189,0.001789588985798131,0.0018056051343338828,0.001775453723552272,0.001681914896785187,0.0015004475747587395,0.0012196822154335715,0.0008451556727671558,0.0003877563171064746,-0.00014751980313236425,-0.0007552593499661165,-0.0014029985507193327,-0.0020033529558629213,-0.002415415766923374,-0.0024926837043428136,-0.002160702105419539,-0.001477034200746851,-0.0006268727753701783,0.00015427960480436263,0.0006893842246021824,0.000934934109114428,0.0009788515425102708,0.0009686830464638119,0.0010203158703621078,0.0011628160927034726,0.001342902099630657,0.0014701661491902218,0.0014636630098280284,0.0012736302927969384,0.0008819194787240182,0.00030222248522715836,-0.0004078903519303573,-0.0011345081604959757,-0.0017183933475510345,-0.00200112568336864,-0.0018903615690607782,-0.00140827526512643,-0.0006922613331375183,5.5489776035166395e-05,0.0006427436413232977,0.0009482770421469324,0.0009452447338369998,0.0006888132780681384,0.0002870139753251762,-0.00012882395868593372,-0.0004321279480498477,-0.0005339774328079811,-0.0004187447243461398,-0.0001633834011316327,8.392907087522306e-05,0.00017087952488046814,2.516911699295592e-05,-0.00029450353938391925,-0.0006187037244850574,-0.0007542784335329161,-0.0005889727208102149,-0.00015077870717326446,0.00041175546964831826,0.0009106663265160977,0.0012077261189837934,0.0012620234662648745,0.0011214206934738677,0.0008788532518761624,0.0006261035966478104,0.0004252377353369513,0.0002986754053666647,0.00022922873199151595,0.00016484392756005428,3.123543217136359e-05,-0.000241297323457368,-0.0006779148428963883,-0.0012217731669081008,-0.0017257790712052372,-0.0019946727253524273,-0.001871427482201643,-0.0013271216342576916,-0.0004984544692668215,0.0003593789947475437,0.000985807464249977,0.0012327463334368951,0.0011224628421497278,0.000817379188999295,0.0005244176859697004,0.0003899884902946785,0.00044122749751862025,0.0005978160747091617,0.0007360163163071054,0.000758485363560407,0.0006278199296681609,0.00035442512605358414,-3.5418528364494835e-05,-0.0005153083366839235,-0.0010442043963971245,-0.0015411361566411359,-0.0018836961510712421,-0.0019474517734174874,-0.0016677935831464624,-0.001082458450779854,-0.0003227623149785596,0.00044254073575888904,0.0010741394457908996,0.0014998464017789983,0.001709657487514523,0.0017267395887461676,0.0015843049560417303,0.0013235847572832795,0.0010034861352801762,0.0006995610239631058,0.00047847501365608095,0.00035731010046691734,0.00027706267394148423,0.00011942989664867241,-0.00022918670363209737,-0.0007981562567441018,-0.0014886750281348626,-0.002100531523064667,-0.0024203268228069875,-0.0023208978158361553,-0.0018155318600608448,-0.0010426794433127649,-0.00020023484288133676,0.0005290823226242216,0.0010283966414837836,0.0012646168817114526,0.0012811384305198052,0.0011727012619139597,0.0010446042171576497,0.0009633377650878142,0.0009196883729552458,0.0008306829713398754,0.0005891563242225255,0.00013741971587137884,-0.00047950028936508257,-0.0011156650463387027,-0.0015809438097639126,-0.0017198213786437664,-0.0014718895869846147,-0.0008910587904017993,-0.00012409644060570662,0.0006377510807436025,0.0012181927291879892,0.0015104372923239163,0.0015088915118931156,0.0013021724041000606,0.001024955045276273,0.0007878589769609013,0.0006209388926516366,0.0004635620929213058,0.00020948127746961445,-0.00021636262344880983,-0.0007936299636678772,-0.0013949906466659485,-0.0018384213513269849,-0.001976723938145231,-0.001773045042567527,-0.0013171307044854315,-0.0007724268276039242,-0.00028711855601669834,7.607753136664546e-05,0.00035072391328584674,0.00061693678504404,0.0009277535515732517,0.0012604912693737374,0.0015232067319650303,0.0016102185929007817,0.001469840842197599,0.001140149581149399,0.0007286779290130211,0.0003474792083585812,4.481513088389023e-05,-0.0002203701464682736,-0.0005407184227338498,-0.0009811593374811068,-0.0015102474710314184,-0.001990143633899644,-0.0022356439613001374,-0.002108069603956208,-0.0015891792981479308,-0.0007952275492058092,7.206729098181686e-05,0.0008081585219112524,0.0012811082018643052,0.001469221263916217,0.0014505372257271132,0.0013531540561938697,0.0012890632004948425,0.0013006570810409049,0.0013449968518531934,0.0013237041160648313,0.0011416696150739081,0.0007607327178735129,0.00021849023317746643,-0.00039399796291001343,-0.0009756036315491784,-0.0014496485325734697,-0.0017714914071783401,-0.0019139761777041938,-0.0018516764364420117,-0.001563478899041552,-0.001056472015917132,-0.0003945353855855579,0.0002939098084050164,0.0008457099940140935,0.0011242745439962144,0.001083132022354613,0.000794957469559281,0.00042445032597168746,0.00015335982221997748,9.287772440983539e-05,0.00022751475897649434,0.00042111437447655046,0.0004860122771666776,0.00028382980020715014,-0.0001928138400916473,-0.000802220957591825,-0.0013123734639049625,-0.001508413724635135,-0.001292884037864444,-0.000726284925051596,1.0053383794121585e-05,0.0007024453590676094,0.0011926824735800123,0.0014218800757228793,0.0014205403694078612,0.0012670379870209755,0.0010456432082874975,0.00082101826970402,0.0006270844436300703,0.0004617811376872947,0.0002868428148661373,4.0314397336337505e-05,-0.00033324506813999996,-0.0008435686695321474,-0.0014275037937231186,-0.001953616769603714,-0.002262430594399418,-0.0022262080110125888,-0.0018013464833531365,-0.0010503809430299786,-0.00012523509668419796,0.0007801637751881367,0.0014888651370670149,0.0018900004527926404,0.0019620439740687633,0.0017652089282894769,0.0014101001258531734,0.0010173872019169385,0.0006824480213298962,0.00045172425999040835,0.00031151722328126276,0.0001908072119458024,-1.5928340315612402e-05,-0.00040204851224253583,-0.0009888037339017036,-0.0016816432452325214,-0.0022776413555544712,-0.00253790223872901,-0.0022993049544163292,-0.001568223702691384,-0.0005397389697343499,0.0004770589480311394,0.001194652503805523,0.0014742704834631224,0.0013776668805343803,0.001117268121957202,0.000934381279365409,0.0009731506260117493,0.0012157246148917808,0.0015052303916676523,0.0016342542396445047,0.0014473335908870924,0.0009087920083707673,0.00011266265264401969,-0.0007594888019603341,-0.001508207259738561,-0.0019836914457437606,-0.0021275906344268088,-0.001977485907251416,-0.0016365173362014966,-0.0012229546028535866,-0.00082186177069846,-0.000460276956966015,-0.00011659711011718487,0.0002432081006565833,0.0006258340262382664,0.0009928796047625754,0.0012759544748381655,0.0014135263132191616,0.0013846407265696668,0.0012182340158110889,0.000973875406183865,0.000707937626190795,0.0004470088037060941,0.0001845596119142318,-9.772810526682048e-05,-0.00039780733616851075,-0.0006724234991531035,-0.0008456996832259058,-0.0008481038662949926,-0.0006642912015900322,-0.00035650934889676453,-4.1963923682055706e-05,0.00016692326267369657,0.00022348917927170967,0.000170854411392484,0.00011359374631276034,0.00015172770644177698,0.0003115887742485199,0.0005112854524857574,0.0005850153196831586,0.0003629324806422604,-0.00022881441580144225,-0.00110186486853577,-0.0020165005729627203,-0.002673453655837865,-0.0028434919245723467,-0.002466257091743601,-0.001664667767921759,-0.0006696956367277772,0.0002971627242223025,0.0011137940950434353,0.001771664687351981,0.002317199452120956,0.002769464208781879,0.003075272798708002,0.0031337890709076145,0.00287199099172596,0.0023141660058720475,0.0015902117953833336,0.000869653214343115,0.00026264959613201116,-0.0002425087683045734,-0.0007556401814878054,-0.0013824763059439602,-0.0021102727162317396,-0.002764932674586178,-0.0030822192454969814,-0.0028591711579856217,-0.002092352857362095,-0.0010111722902589942,2.1367735797371166e-05,0.000684934853739886,0.0008531977770063238,0.000636661980867273,0.00030044067458514937,0.0001113047097838929,0.0002012921548840696,0.0005158175626039561,0.0008610576703383908,0.001013579010132006,0.0008316683359189643,0.00031745754254513766,-0.0003906768707263983,-0.0010821725010705372,-0.0015591560011268297,-0.0017038747206936655,-0.0015057719769722743,-0.0010472918466521608,-0.00046320334712849145,0.00010785308337200872,0.0005649549674081877,0.0008700296211165311,0.0010501585847150288,0.0011751016785458146,0.001317140570280196,0.0015109693717125145,0.0017343328709621198,0.0019194595921579638,0.001986618381701774,0.0018780931207199418,0.0015735368188485297,0.00108376600299479,0.00043676493516479377,-0.0003265748642831707,-0.0011419935750254665,-0.0019098493409479252,-0.002501960656905536,-0.0027962534971324774,-0.002726362166459661,-0.0023183983850880783,-0.0016905639355832914,-0.0010109131605829519,-0.0004319188256310018,-3.4071754087179086e-05,0.0001929043791160203,0.0003222655381316324,0.0004328449954496302,0.0005563984841495694,0.0006608749469049864,0.0006774402637296606,0.0005512268119265897,0.0002833270564868277,-5.8421792378375494e-05,-0.0003610185299280427,-0.0005059973855610252,-0.0004105086558404787,-5.7597963665148924e-05,0.0004927360797941467,0.001117203277942522,0.001666088316106244,0.0020107871088126212,0.002082392181433002,0.0018859591340129526,0.001488412731423341,0.0009899671331757912,0.0004914449567066847,6.525660050436853e-05,-0.0002654421680572485,-0.000532927660817032,-0.000808524344345766,-0.0011630662861648218,-0.0016187425676896395,-0.0021181438206407163,-0.0025321122007538055,-0.0027080551690651716,-0.0025366998640040635,-0.0020034765897609073,-0.0011990688356506118,-0.0002864285787008073,0.0005568970695116909,0.0011946954911759445,0.001566687862427808,0.0016944559996554852,0.00166073869549475,0.0015697446747063683,0.0015014503074527522,0.0014778856367671012,0.001458096870009667,0.0013659589505530811,0.0011363188025733232,0.0007531335580001353,0.00025788319392653844,-0.0002748699128383861,-0.0007773435117042022,-0.00121683103085307,-0.00159352095252419,-0.001910781910522419,-0.002142261251952251,-0.0022246020170288527,-0.002086617892649481,-0.0016976153391910867,-0.0011007631973366737,-0.0004056339168634652,0.0002580339510165527,0.0007961416080920058,0.0011803710977761508,0.0014370638471441401,0.001608961586850234,0.0017205586680150388,0.0017699754137890473,0.0017466266128176606,0.0016538030328974813,0.0015129782128401213,0.0013431201916467472,0.001131616986003278,0.0008258032829577995,0.00036329995672859596,-0.00027027722210789504,-0.0009951792034637046,-0.0016437905379247898,-0.0020297898196650413,-0.002046255573478602,-0.0017321519747344125,-0.0012602417597140708,-0.0008476292637451134,-0.0006406047256390104,-0.000642505174991813,-0.0007251000619287557,-0.000711512212391849,-0.00047839608789371386,-2.1163182915816432e-05,0.0005450745355711943,0.0010386384715743875,0.001286210248444911,0.0011879193758730633,0.0007542502383009698,0.00010839376601309673,-0.00054627041272971,-0.0009883166843311828,-0.0010547077049858724,-0.000705196647532093,-4.5904657904846744e-05,0.0007046524134648889,0.0012998680979468633,0.0015667546500061408,0.001478227948363893,0.0011580394642777968,0.0008122592770622877,0.0006206424387854318,0.0006445600976691139,0.0007995762586408507,0.0009042916958192536,0.0007750624846690445,0.0003145108374256944,-0.00044789911182545415,-0.0013728249032457984,-0.002264663719468845,-0.0029303588853768266,-0.0032223240735589206,-0.0030622720266865987,-0.0024527192284647687,-0.0014798918371334156,-0.0003033018280759782,0.0008745359454417276,0.0018554412588058827,0.0024943642646261055,0.002730065151998563,0.002587570569824586,0.0021575442982701342,0.001566270718563416,0.000946536101496153,0.0004107565070561739,2.45160210946109e-05,-0.00021436753401916095,-0.0003769613925335188,-0.0005720046328132386,-0.000887108981694307,-0.0013292219558447632,-0.0018001948999151847,-0.0021287782907920185,-0.0021484615120005717,-0.0017809878686333054,-0.001078732164005618,-0.00020217418037760072,0.000652407660201948,0.001331255887020526,0.0017647324066499095,0.0019581273582162466,0.0019518605176682712,0.0017860656705935914,0.0014915212192233402,0.0011021585504739895,0.0006671929390598807,0.00024545019863093064,-0.00011653809858397173,-0.00040531703422190784,-0.0006427788009117114,-0.0008667199456594433,-0.0011024256343511165,-0.0013433716580587996,-0.0015513026293559667,-0.001672587385610604,-0.0016590980817902078,-0.001482728455106973,-0.0011403034635975701,-0.0006531386668200811,-6.711752891524613e-05,0.0005460020840822376,0.0010925743133712086,0.0014746998562979495,0.0016216871490682973,0.0015213283701540977,0.0012292510238474624,0.0008442492651444041,0.00046087851101588376,0.00012913461007882723,-0.0001522131943753613,-0.0004056922860595875,-0.0006313995478359328,-0.0007817583722696173,-0.0007752850995512571,-0.0005452840934951856,-9.585038133262495e-05,0.00047183154214666765,0.000987212062831542,0.0012848279076703223,0.0012854604450413128,0.0010342597154899683,0.0006705619739923632,0.00034798900291728267,0.00015474659565133152,7.968680358325445e-05,3.519923305038246e-05,-8.760552363707569e-05,-0.0003663555496526442,-0.0008167607811201054,-0.0013830639407913213,-0.001944292418078241,-0.002339717001248567,-0.0024199947399806587,-0.002115645123365973,-0.0014911620213428761,-0.0007442348099368692,-0.00013061511064429033,0.00016096239158224727,0.0001196515276169121,-6.085721581076042e-05,-7.027841182738373e-05,0.00035193348449980076,0.001260443207927279,0.002448221941617883,0.0035271079373812844,0.0041033905329867495,0.0039541237756793345,0.0031129026540592927,0.001828874419841013,0.000434679510909205,-0.0007956080024027544,-0.0017238119284829494,-0.002335484795635767,-0.0026712906352808923,-0.002761942296912589,-0.0026089318042983593,-0.002210627540822331,-0.001600558949717922,-0.0008629401128693217,-0.00011392032306276403,0.0005365265499942555,0.0010164653195734391,0.0013005259893626737,0.001395951147549433,0.0013207994028848632,0.0010903913430747405,0.0007188654492957737,0.00023147495491615024,-0.0003223206570476091,-0.0008638896618156482,-0.0012936719895961259,-0.0015135092263999308,-0.001458465173709011,-0.001126557667709232,-0.0005903896945098454,2.1037692038936527e-05,0.0005674870148115378,0.0009496240928037608,0.0011412042186302292,0.0011844875926870619,0.0011531251628181538,0.0011048131051431581,0.0010503889833234034,0.0009554226947601691,0.0007713981432709255,0.00047648142748856924,9.996812154695802e-05,-0.0002859764275417202,-0.0006030510640958778,-0.0008085178146205565,-0.0009140808084798118,-0.0009693299441400527,-0.001021706996477476,-0.0010809246790630398,-0.0011114318971018845,-0.0010559619393499804,-0.0008725734330225967,-0.0005615765111370709,-0.0001690160339142924,0.00023091192822036628,0.0005631207897358485,0.000777740248795887,0.0008682653868778878,0.0008761312794504988,0.0008753167488793254,0.0009348296754120855,0.0010704479468896333,0.001212814317076294,0.001220948655501251,0.0009485746280330049,0.00033509781213539335,-0.0005311296045807486,-0.001421669310052849,-0.0020544059030250567,-0.002216366140064681,-0.0018578647480378004,-0.0011080625637997416,-0.00020731699169761935,0.0006018019321932426,0.0011644618167130655,0.0014433022266487584,0.0014878128787964783,0.001376981227047367,0.001174543351177862,0.0009155005244048072,0.000615497659165454,0.00028236889655595954,-8.198871069908797e-05,-0.0004833311422423503,-0.000926446800432182,-0.0013929036360515645,-0.0018204866699361429,-0.00210680144004722,-0.002145427868991351,-0.0018775427065189144,-0.001326843686266441,-0.0005950367768934191,0.00017823055181672858,0.0008654563120604099,0.0013850048312603923,0.0017083972050326197,0.0018485271961041143,0.0018422055473473126,0.0017349050780237638,0.0015673899802392467,0.0013619428660381187,0.0011114506630627177,0.0007807682410529218,0.0003279246616594828,-0.00025928121724317244,-0.0009304433867666725,-0.001567544018581474,-0.0020195183605441914,-0.0021638657755844656,-0.0019629568032557975,-0.001482658678536913,-0.0008623513607006858,-0.00025409574145809173,0.00023488444320539392,0.0005681107405441899,0.0007677695576829779,0.0008802331258433521,0.0009433913615156371,0.0009725801417946156,0.0009661320638956335,0.0009189992607394198,0.0008308920765543305,0.000703215358193012,0.0005299593107908561,0.00029391061561006665,-2.3248738955348373e-05,-0.00041907734820824404,-0.0008506826084290666,-0.0012346246009403363,-0.0014737473020300634,-0.0014997682693001896,-0.0013070560700497531,-0.0009558814304298038,-0.0005417995497885816,-0.00014936030578948083,0.00018186902124594497,0.00045992313175747374,0.0007142175731904875,0.000961800575980158,0.0011896031714370972,0.0013605559077891182,0.0014316663321835119,0.001366259273333489,0.0011353551342538383,0.0007199071329906068,0.00012699454064748756,-0.0005839065082433982,-0.0012870233257170982,-0.0018119282660018095,-0.0020028842862774726,-0.0017899305694034373,-0.0012315858078470023,-0.0005005908478243436,0.00018475881419212988,0.0006502805187131087,0.0008321372146246293,0.000789505910433663,0.0006621476823444201,0.000596739068025136,0.000676390859770503,0.0008823870157271428,0.0011017771493611315,0.0011763800155723209,0.000973490777482041,0.0004499874645344057,-0.00031716401768631974,-0.0011484966589595843,-0.0018221318818835409,-0.002152074137174951,-0.0020525966341158356,-0.00156356605050334,-0.0008293458245927279,-4.354640605037539e-05,0.0006158559059451555,0.0010365355604705765,0.0011928486770052308,0.0011373137557859913,0.0009714146687217244,0.0008070228746237986,0.0007276377407370048,0.0007570763009878008,0.0008446417646419494,0.0008767467638447442,0.0007193921586081231,0.0002821660945520586,-0.0004213212944482263,-0.0012487888686019987,-0.001962849228601056,-0.002318916236864831,-0.0021724971046422205,-0.0015533501632061094,-0.0006638789956651656,0.0002045139377413953,0.000798855355784312,0.001011312153186434,0.0009106328911854152,0.0006856808863393441,0.0005370527534239376,0.0005782512909946058,0.0007956171823757321,0.0010764516713766634,0.001275385103012305,0.0012758478957197914,0.0010210406515049155,0.0005177223736854736,-0.00016915234058966703,-0.0009213627232185665,-0.0015799030276689662,-0.0019784785113402836,-0.0019974166453185687,-0.0016160407029949357,-0.0009327558485163482,-0.00013567240079069912,0.0005660007119224837,0.0010176175739493318,0.0011671336856780607,0.0010670159543220556,0.0008346973716397471,0.0005936898335442921,0.0004222188812111976,0.00032891892994559545,0.0002617143427856858,0.00014303859651941964,-8.459087509978848e-05,-0.00042261666598166934,-0.0008069657039753105,-0.0011304705129264955,-0.0012867311418901517,-0.0012138049053430754,-0.00091723922691827,-0.00046425928995613144,4.452149254384995e-05,0.0005111387524812517,0.0008690248069637594,0.0010944012530989336,0.0011980804851420208,0.0012043556776809225,0.0011296867842961688,0.0009724972602570747,0.0007174965606907477,0.0003504824694835671,-0.00012262693363958234,-0.0006586815753015807,-0.0011704741285820674,-0.001540254444919242,-0.0016569122542274906,-0.001464259799080797,-0.0009944513265732328,-0.0003637348995294133,0.0002710563951169641,0.0007722951079838173,0.0010656621034927552,0.0011496395647796886,0.0010747965031835751,0.0009120559903841796,0.0007266844282506691,0.0005625352942439097,0.00043287992251832947,0.000315981301376183,0.0001597891903988369,-9.853093444526497e-05,-0.0004994416907586738,-0.0010259905156885466,-0.0015850296148081369,-0.002020035193813653,-0.002158782820002547,-0.0018821942872417185,-0.0011862142221745306,-0.00020496846578454985,0.0008237974151841551,0.0016434585962859993,0.0020778635806133366,0.0020968806492404845,0.001813044897379757,0.001410333649130058,0.0010454113394416313,0.0007780950349351789,0.0005677887029668463,0.00032888083759068706,1.932568572818663e-06,-0.00040598549923922503,-0.0008302530602302084,-0.0011899007056625811,-0.0014275060054128987,-0.0015245827158997902,-0.001492502010532176,-0.0013543536694544242,-0.0011317081840306678,-0.0008398434170685688,-0.000488604739040163,-8.751823174878723e-05,0.00034397595157819715,0.0007645484146209579,0.0011085594366637365,0.0013046605059344688,0.0013122672323081022,0.001152375619449167,0.0009038990227661107,0.000658440132720501,0.00046139869444077443,0.0002845824263188212,5.594225692366313e-05,-0.000271379474153002,-0.0006609860663954361,-0.0009915379220164797,-0.0011179314944665833,-0.0009577099999715658,-0.0005469282718840933,-2.9224347403830533e-05,0.00041552228123040765,0.0006598795176908571,0.0006837213477914068,0.0005669764480341574,0.0004296062828730951,0.00035733194162583396,0.00035601928569669293,0.00035690525983722945,0.0002639820475442851,1.310922743443313e-05,-0.0003893880092962121,-0.0008652761135714074,-0.0012954424997242444,-0.001564193148867985,-0.0015960147318498559,-0.0013727938765441333,-0.0009312089047425461,-0.0003479000527046368,0.0002788641073766505,0.000846646846812011,0.0012661069774169695,0.0014794917967243548,0.0014773526022682855,0.0013051945686098935,0.0010514082708275145,0.0008149500834969024,0.0006630593277452185,0.0005986297241768151,0.0005562488802096415,0.00043324381361742033,0.00014327055288527383,-0.00033358875243926574,-0.0009293556663545931,-0.0015056156425648855,-0.0019018316944272038,-0.0019950207672312227,-0.001748746604596816,-0.0012319795002292996,-0.0005958922943132747,-1.2557622810858721e-05,0.0003990709829751599,0.000621416747426233,0.0007317189375493161,0.0008425360520045304,0.001024535247527371,0.0012588931793612605,0.001447747995349338,0.00147363586614426,0.0012685396553236777,0.0008501883853704803,0.00030765686183568345,-0.0002482387095017872,-0.0007342451343210316,-0.0011133278054943593,-0.0013773413164827224,-0.001515119376619981,-0.0014968089245818844,-0.0012905554826723544,-0.0008998565363860969,-0.00039058702687331875,0.00011863457036721574,0.0005035738601754756,0.0006926818326205087,0.0007010918218405802,0.0006191260452690956,0.0005609667843660668,0.000601144936332166,0.0007319290935317931,0.0008631001963823935,0.0008650022008671772,0.0006359904725206342,0.00016346403123612818,-0.00045239314442458025,-0.0010291766220696251,-0.0013786046251094515,-0.0013932460886296465,-0.0010966568965193066,-0.0006258067742098579,-0.0001534319190483358,0.00020345740492658894,0.00043190795707532826,0.0005992851558661498,0.0007784933102938732,0.0009793498536333084,0.00113730930848277,0.001165100901325033,0.0010226718691013733,0.000747304386229912,0.00042061958670170426,0.00010271470502918397,-0.00020956618944128493,-0.0005646119262207136,-0.0009927068678485997,-0.0014492029161649335,-0.0018119165005705097,-0.0019395967059537376,-0.0017531460570053992,-0.001285394804011847,-0.0006676456066989668,-6.266153637389602e-05,0.00041469578152954147,0.0007438265567770955,0.0009881819456100294,0.001237800589749408,0.0015394474631543877,0.0018542320395236191,0.002065660719871685,0.0020330401436837384,0.00166189385825871,0.0009558310271528319,2.500157169105905e-05,-0.0009512723264474408,-0.0017870756150517614,-0.002345942716521157,-0.0025662646247204086,-0.002453110739408764,-0.002052861907423324,-0.0014315133207913851,-0.000667000598552289,0.0001485680601680888,0.000908540981013238,0.0015029756841150013,0.0018431014625458742,0.0018910614868147043,0.0016803757768483604,0.0013125524796191884,0.0009238726865907417,0.0006313202108994199,0.00048055747154089655,0.0004228012086580216,0.00033706731868961303,9.313335809238768e-05,-0.0003716787722097675,-0.0010008140011289037,-0.0016238945483007302,-0.0020246639388491194,-0.002042030625168351,-0.0016520069488544095,-0.0009845740645193807,-0.0002641620456821452,0.0002949264038996177,0.0005826223794300186,0.0006290183559303522,0.0005675474502756896,0.0005496247893584987,0.0006587343838056529,0.0008686547092063715,0.0010631990630182438,0.00110108195670922,0.000889428918167062,0.0004309283458003418,-0.00017387600799175981,-0.0007668500082516823,-0.0011948526952018294,-0.0013648846247358679,-0.0012668069848857555,-0.0009578600842239492,-0.0005256368044687125,-5.528066528813784e-05,0.00038426255167506003,0.0007402380968746954,0.0009777718436661254,0.0010898294835274497,0.0011044702595162143,0.0010722223339293797,0.0010311277247644168,0.0009709645378800588,0.000828054724169555,0.0005245006101414775,3.113758909586658e-05,-0.0005901005410605378,-0.0011989258147784014,-0.0016402299528628433,-0.0018165442548148047,-0.0017224836434446265,-0.001425272478705946,-0.0010150250218418887,-0.0005636594950170415,-0.00011407914988051133,0.0003074766806794626,0.0006769577131694811,0.0009691362821677292,0.0011627794928992254,0.0012447160201200604,0.001208622991446453,0.001053062094210995,0.0007845275174109805,0.00042395340417992556,8.3372082567307e-06,-0.0004180038447384395,-0.0008170690725691709,-0.0011628483015181205,-0.0014317421914238357,-0.0015853765817604596,-0.0015642687158087436,-0.001306520200064734,-0.0007872977991091492,-5.524758778365452e-05,0.0007624584123657906,0.001497259213147824,0.002000872394303162,0.002196290082760766,0.002090805603406275,0.0017510042203618078,0.001264097142678211,0.0007124880784359154,0.00016937537558400979,-0.00029851266420760603,-0.0006392834051762911,-0.0008375847435712491,-0.0009315958417858394,-0.0010026111907063926,-0.0011317535719987913,-0.0013448204797136772,-0.0015809154731083542,-0.0017103930161573545,-0.001597925411219797,-0.0011770004759666611,-0.0004931994174680807,0.00030848098732490676,0.0010441196530106074,0.0015644329606605326,0.0018021278137314647,0.0017722528997872861,0.0015337488647880542,0.0011424730875978031,0.0006283128713200351,1.016176728577646e-05,-0.0006658630648027487,-0.0012985835953755226,-0.001743274902390896,-0.0018647484072927434,-0.0016035131270740483,-0.0010141808143469405,-0.0002506391763485214,0.0004953816203587301,0.001068975633715318,0.0014016237806842712,0.001514729348727362,0.0014829783563177648,0.0013830583839198139,0.0012560423309411583,0.0010987442694979912,0.0008804416645069421,0.0005687590105598595,0.0001492290565576229,-0.00036619244848663454,-0.0009368291854899981,-0.0014929266469375945,-0.0019408930656055982,-0.0021817040934893938,-0.002142856379380529,-0.0018113975179775764,-0.001249112235242226,-0.0005775757982206156,6.365229177508064e-05,0.0005679176253539619,0.0008979509085343994,0.0010897520074509988,0.0012201142483875644,0.0013524224788624055,0.001489231847849571,0.0015603246822417087,0.001457863064064806,0.00110293327058858,0.000506081231433161,-0.00021637801564614793,-0.0008849394353560281,-0.0013377059115364047,-0.0015036802445836076,-0.0014254994123520594,-0.0012191686435620679,-0.000997843791623443,-0.0008085299449410229,-0.0006194581887759312,-0.00036012388723468834,1.8035517185306963e-05,0.0005006433587881175,0.0010097364704221006,0.0014358583749165463,0.0016801314202868935,0.001687067330339489,0.001460118374434056,0.0010588523122362658,0.0005783378596406969,0.0001149864295505005,-0.00026862607397385265,-0.0005616890928594076,-0.0007936661561195726,-0.0009991981437768756,-0.0011828768733631889,-0.0013092728736754681,-0.0013255347274530765,-0.0011991775128050901,-0.0009428076604791448,-0.0006091591786903283,-0.00026293758340651665,4.8923031392370344e-05,0.0003102084957552231,0.0005287206470574611,0.0007202187980991457,0.0008945326618005679,0.0010475201731711555,0.0011560913244471672,0.0011754599976326018,0.0010449779071388587,0.000711250700738628,0.00016743561846723127,-0.0005102573854694425,-0.0011586836723012257,-0.0015755732322105592,-0.0016065632514061941,-0.001226780969483963,-0.0005654259707374727,0.00014924406372004788,0.0006983387518986366,0.0009723096319777032,0.0010043131969431525,0.0009212367234168658,0.0008489186799427502,0.0008336839503379215,0.0008251511761625803,0.0007213279910028641,0.00043936403715039575,-3.26907039065931e-05,-0.0006272802977297426,-0.0012262590946147958,-0.0017032162029172987,-0.001956703636277866,-0.0019270001853044553,-0.001602560264062808,-0.0010235823661975756,-0.00028177535350662464,0.0004912663851731267,0.0011517940809403079,0.0015824040596920947,0.0017273131515052578,0.0016094214887554875,0.0013205874539041276,0.0009863712576499272,0.0007163508046245074,0.0005584931426506634,0.00047765375583751733,0.00037111738537968207,0.00011915373021272103,-0.00034833985279261476,-0.000999067796398053,-0.0016880141423292374,-0.002201795608734801,-0.0023434632500788626,-0.002020221535130304,-0.0012912175608867432,-0.0003503946355745818,0.0005487957087283212,0.0011916066188293742,0.001477834404898155,0.0014430730053361452,0.0012215116671796976,0.0009736632049224345,0.0008144250189158998,0.0007705897080159563,0.0007800160790129183,0.0007276015959807559,0.0005020204108915657,5.239582704555856e-05,-0.0005759498516941398,-0.0012428041706907447,-0.001756319662384235,-0.0019457075519211926,-0.0017339230674040713,-0.0011754348917461025,-0.00043747698926338433,0.00026892667405446557,0.0007748996377275588,0.0010144851787349156,0.0010333197491808545,0.0009469329033234201,0.0008739081740788985,0.0008759358311160862,0.000929031683339536,0.0009364673095053622,0.0007790238140574807,0.0003828845476009225,-0.0002259674137368383,-0.0009108406970908601,-0.001468638426683182,-0.0017128668150502644,-0.0015563608773139176,-0.0010519054850055306,-0.00036910011606885063,0.0002809972952341673,0.0007344603133739055,0.0009319575029957364,0.000920222185659101,0.000804284202871305,0.0006817532831175479,0.0005947969185436181,0.0005200777141955207,0.00039398705128425304,0.00015446591991430088,-0.00022185564026353769,-0.0007011490593576301,-0.0011968966145120357,-0.0015944176915767454,-0.0017869588600217612,-0.0017106863351756215,-0.0013652103913595255,-0.000811840504233385,-0.00015187085522392946,0.0005044105942688603,0.0010655796983924167,0.0014757976545388529,0.0017184737952871826,0.0018088236690116883,0.0017783988536878876,0.0016553644493448592,0.0014468725113431081,0.0011331921833604365,0.0006822620712796668,8.361952968287704e-05,-0.0006148944871763781,-0.001294066753232334,-0.0017923964327633637,-0.001970576863399391,-0.0017783559929220461,-0.0012841657351543505,-0.0006481619916845534,-5.3157848995490304e-05,0.00036803682555132215,0.0005716614307459488,0.0005948448372403173,0.0005149326310469543,0.00040539608751268246,0.00031109332334712395,0.00024670125905371717,0.00020630606207338274,0.00017058206918999386,0.00010891808652267873,-1.5193837781840797e-05,-0.0002277863717008562,-0.0005213698249216446,-0.0008412579803262865,-0.0010963459347006633,-0.0011941472986551566,-0.0010815770075446208,-0.0007668106734534926,-0.00031002350033767384,0.00020701966797822386,0.0007091116054108588,0.0011373440193183696,0.0014450619263601543,0.0015976546039511972,0.0015852410373152059,0.0014365932311069815,0.0012133154735164712,0.0009775878619028412,0.0007521409235562668,0.0005032666040067186,0.000164601816775863,-0.00030886350784175816,-0.0008896452764809893,-0.001464207557753793,-0.0018711316858739642,-0.001974017171176973,-0.0017293037741722894,-0.0012105893269422504,-0.0005770733398749181,-6.3183043672081435e-06,0.00037229981334222656,0.0005151106522371856,0.0004647465106720377,0.0003219799013883312,0.00020225425660888477,0.00018971697417948397,0.0003012964429888695,0.00047406276979870956,0.0005861885808252486,0.0005108247316249479,0.00018470977321249872,-0.00034094285282293977,-0.0008986387066533151,-0.0012625571516966855,-0.0012456470110804993,-0.0007907487457198106,-8.578325702929658e-06,0.0008602304317303095,0.001543171515410308,0.001847240998550861,0.0017311413682918634,0.0013069504169222837,0.0007749859176808776,0.00032649135156187503,6.117988474317604e-05,-4.402353441572491e-05,-0.00010554980549678681,-0.00026192594061011766,-0.000595954583327056,-0.0010850209629046773,-0.0016001968893058402,-0.0019544867108367637,-0.001980675139748791,-0.0016059386653611992,-0.0008896683671522085,-5.776287140786497e-06,0.0008236029842326496,0.001412267172177883,0.0016728165346379035,0.0016315370740960422,0.0013945696256111276,0.001088389553710426,0.0008056368410529542,0.0005777457344940795,0.00037839002565066767,0.00014859001237677244,-0.00016955542704303619,-0.0006014069436803733,-0.0011187544264203144,-0.0016358436264058552,-0.002026657368648133,-0.002162041168726067,-0.001957002702004929,-0.0014111065432826043,-0.0006229340148712647,0.00023358054678702077,0.0009676087127389425,0.0014425488061997457,0.0016261407509406947,0.0015922882463690982,0.001472515266372071,0.001384417604500023,0.001376686391897379,0.0014161003818154235,0.0014139966215027848,0.0012704768645704805,0.0009147659958537544,0.0003318453724319298,-0.00042556805779995566,-0.0012401976537934885,-0.0019518145178231718,-0.0023984791613997003,-0.002469387984263385,-0.0021503033579679458,-0.0015386949485261213,-0.0008148737275010553,-0.00017560953242107513,0.00024210247320907686,0.00041062064357095347,0.0004095241074783427,0.000373940192229809,0.0004223359791973179,0.0006018324409696308,0.0008749045983774774,0.0011450380632176912,0.0012996610795170732,0.0012482359652311946,0.0009471235547858008,0.0004149072989192942,-0.00025940936697655607,-0.0009235213159293976,-0.0013965731976894207,-0.0015307730373480383,-0.001276120237258854,-0.0007119101403742607,-2.0792948595899693e-05,0.0005873679090160682,0.0009644907449809009,0.0010798553274838554,0.0010140658010003999,0.0008975747333925709,0.0008300987072665718,0.0008252168668371154,0.0008069847282381651,0.000655847844403874,0.0002778964091394823,-0.0003356454580823279,-0.001084731361748216,-0.0017838816921727165,-0.002226115342167757,-0.0022635128491287774,-0.0018699279214726917,-0.0011554989629062667,-0.000323286368058616,0.00041336657218173393,0.000913488497804033,0.001151124990478212,0.0011993668627955244,0.0011699115909899276,0.0011460086544911232,0.001145003470155251,0.0011225494089442674,0.0010045859106335164,0.0007245688836162163,0.00025279647300426446,-0.000383272323392599,-0.0010877465170564954,-0.0017025211423556657,-0.0020430934034705176,-0.0019636086827947248,-0.0014272223081522968,-0.0005429871937502368,0.0004588631000028093,0.0013084047920474736,0.0017965979584427753,0.0018471962578912383,0.0015299020365492119,0.0010158529644281105,0.0005013210750055772,0.0001330157930575903,-3.8827732444506914e-05,-6.655613297864573e-05,-7.100955601230591e-05,-0.0001810202073333957,-0.0004709231758989438,-0.0009228045689584167,-0.0014298885662682613,-0.0018381574807088458,-0.002005621735823795,-0.0018525492399818454,-0.0013838679159178765,-0.0006808602887756446,0.00012698580221754874,0.0008952552761320807,0.0014943615244120026,0.0018353210493268109,0.001892256446145599,0.0017147632565296953,0.001416075537233019,0.0011288262134561535,0.0009413747918190759,0.0008489761129117901,0.0007540214212511883,0.0005221328524685862,6.458133623385041e-05,-0.00060003183858648,-0.0013386842150662792,-0.0019534135692502513,-0.0022610962173097884,-0.0021666718889957943,-0.001699950635040768,-0.0010029896800616469,-0.00027447381854817554,0.0003057189771834587,0.0006401380467758021,0.0007388821526392959,0.0006974384531597514,0.0006406191255225921,0.0006603064330737525,0.0007744758758030997,0.000922657647712525,0.0009964267367173275,0.0008900202906822946,0.00055016907380309,6.575739079387084e-06,-0.0006275353097906357,-0.001185709286302602,-0.0015010341995487604,-0.0014648783039294911,-0.0010704534468015075,-0.00042270120304874637,0.00029298729015056,0.0008747123041464933,0.0011774671694967933,0.0011661231781131833,0.0009241222079063342,0.0006120640809445981,0.00039294285289463054,0.0003565774441447778,0.00047670242982539936,0.0006202914661049433,0.0006070492532269224,0.0002963682736175135,-0.000334087386309884,-0.0011551083440863017,-0.0019204835783815633,-0.0023626437236437337,-0.0023092749238745255,-0.0017629433891723622,-0.0008998605567632704,1.3286779736302592e-05,0.0007393879214369458,0.0011634811220102895,0.001312985350494565,0.001304826121317272,0.001258945239826183,0.0012308851331091553,0.0011972761806564652,0.0010916458743517625,0.0008585808854268901,0.0004902082402983188,2.9022376216024718e-05,-0.00045355706171800527,-0.0008823516676595057,-0.0011939553006285492,-0.001343469373840663,-0.0013105879259601738,-0.0011086628074107232,-0.0007899531737280137,-0.0004350242258568328,-0.00012199964335217678,0.00011106887544828003,0.0002848250218310578,0.0004595819515090505,0.0006861451760950356,0.0009589880529794619,0.0012059155980956066,0.0013233057530840316,0.0012337507229325231,0.0009284914845319816,0.00046989060417713436,-4.2844208434140524e-05,-0.0005196512542128542,-0.0009095805360604187,-0.001201143965953156,-0.001398915818123844,-0.0014957243869459836,-0.0014611779449775239,-0.001256323187905518,-0.000866529428651462,-0.0003307074592895353,0.00025519755454683486,0.0007673857498487653,0.0011026874394497379,0.0012211832952015971,0.0011605327798022607,0.0010131025812094726,0.0008745298089802961,0.0007882494380534572,0.0007176801652836103,0.0005680241541642316,0.0002522938851352344,-0.0002347933541291139,-0.0007837305887738117,-0.0012070928434521643,-0.0013329390410673273,-0.0011026577938178968,-0.0006131564365976898,-7.349846794581856e-05,0.0003028081394281075,0.0004082682596247189,0.00028957588176391935,0.00010597881106974268,2.5978209306149087e-05,0.00012798322078613734,0.0003643425606754991,0.0006032693315077417,0.000712522063426331,0.0006279474061885098,0.00036985125145058196,1.0717478533317612e-05,-0.00037229523628287274,-0.0007253934535441501,-0.0010143540563056735,-0.0012028917435022634,-0.001239488727477867,-0.0010709150699317505,-0.0006788462002747701,-0.00011505377944386925,0.0004944075650039712,0.000988782743971728,0.0012397217430605593,0.0012093042673882476,0.0009662481778647491,0.0006520443957290266,0.0004151347677063535,0.00034356424094636874,0.0004234149777383755,0.0005397939289180114,0.0005241787284146111,0.00023524736570259457,-0.0003586828942392338,-0.0011376226258048966,-0.0018582435217748164,-0.0022485658534464156,-0.0021276220811942198,-0.00149153113898119,-0.000521731067239779,0.0004904270020496419,0.0012663062643892024,0.0016497821858745339,0.0016521595670817941,0.0014158653528295899,0.0011236819814169263,0.0009057061858549857,0.0007905912301421859,0.0007175067933006205,0.0005906161955191473,0.000338528390032533,-5.374085240551736e-05,-0.0005488976314355937,-0.001081053813149935,-0.0015744329728682876,-0.0019465323322085122,-0.002107136397812946,-0.001973370652854533,-0.0015072803760134016,-0.0007572754234475978,0.00012960439662253935,0.0009462138285467868,0.001503864619572983,0.001709694850180552,0.0015973545980133574,0.0012934802226000856,0.0009432003196044774,0.0006412507540553661,0.000405497015429221,0.00019784236032837764,-3.078152120825398e-05,-0.00030164498077054095,-0.0005930614489021932,-0.0008480953529532303,-0.0009949546259032385,-0.00097171359973253,-0.0007517894495051938,-0.0003653710264591263,9.45365231002518e-05,0.0004943801329266366,0.0007114798720496221,0.0006938289500476227,0.0004930510091454129,0.0002437026428414044,9.27699062162478e-05,0.00011665764695245736,0.0002749065731243495,0.00043018451861018606,0.00042479669307572167,0.00017030470717771033,-0.0003002401257794086,-0.0008450403140827531,-0.0012809574743275318,-0.0014655968710288866,-0.0013499181908142085,-0.000979356329270466,-0.00045394422030705555,0.00012082248097743911,0.000663052589119549,0.0011155057288785566,0.001433356055397857,0.0015799206972629313,0.0015381583714621679,0.0013257742539913534,0.0009944398987148742,0.0006063687590984424,0.00020279328391639934,-0.00021100669215136473,-0.000650318211501269,-0.001114654924707496,-0.0015570837561010486,-0.0018842392018331394,-0.00199259808572289,-0.0018217531985677397,-0.0013913619994082743,-0.0007962066573806425,-0.00016110597835119653,0.00041403464426653896,0.000882349673857416,0.0012375835564742603,0.0014804609112292833,0.0015973644140101027,0.0015691107471074717,0.0013982024300499656,0.0011258118495308922,0.0008180829099377622,0.0005273501894990991,0.0002569695104649109,-3.9636138680771956e-05,-0.00041765922674889084,-0.0008814622496625163,-0.0013492564882159074,-0.0016726198249271958,-0.001706372656962996,-0.001390059863625856,-0.0007929332195607823,-9.487994729702161e-05,0.0004886840483102851,0.000800273903205047,0.0008051519599345572,0.0005955246445090471,0.0003344775363761384,0.00017225121538675317,0.00017968226485458308,0.00032840853108749265,0.0005176872178789763,0.0006254975990281088,0.0005584766326879069,0.000285198975897712,-0.00015216591071239927,-0.0006478518055768596,-0.0010623912516598197,-0.0012668762402896858,-0.0011887341910780938,-0.0008401066592801288,-0.0003132608724885785,0.0002568462582773792,0.0007433745227096997,0.0010645708811881029,0.0011913501163809685,0.0011320172713805482,0.0009142854769597049,0.0005787289577320154,0.00018000990195218662,-0.00021811807627216068,-0.0005600415059783591,-0.0008164671949144987,-0.0009853676902333692,-0.001070851834740566,-0.0010575371464621771,-0.000907180395276728,-0.0005884918815194149,-0.0001214848828909157,0.00040016808090328647,0.0008341794912984676,0.0010540439785119106,0.0010147673401554548,0.0007786328392352401,0.0004845709626595633,0.0002782699092557638,0.00024047714279265228,0.0003493713373695336,0.0004944270752324436,0.0005340366162038123,0.00036794272545960765,-1.1670886265121162e-05,-0.0005147787446447261,-0.00099335710008764,-0.0013034076911360418,-0.0013587309726014805,-0.001155279823077125,-0.0007618436844632086,-0.00028706278943977325,0.00016065948831951054,0.0005046891736066533,0.0007137034479759768,0.0007966366191216334,0.0007860791933525255,0.0007197036953953616,0.0006259426728105487,0.0005151641209211496,0.0003763889509390703,0.0001822193469761637,-9.505614945419429e-05,-0.0004597691427776587,-0.0008741339948506715,-0.0012584628633322934,-0.0015141459045763593,-0.00155868881010167,-0.0013551232413226207,-0.000923368269974804,-0.0003325186153211283,0.0003188182226756856,0.000925952761493827,0.0014001859552415406,0.0016866975952652668,0.0017750224797519114,0.0016978755456549133,0.0015158212518635902,0.0012906178821105215,0.0010566094688786313,0.0008037341551722975,0.00048417613459582527,4.501647022709049e-05,-0.0005264228414865149,-0.0011700930012816136,-0.0017568050771644534,-0.002132205752579462,-0.002181223189083471,-0.0018797276652197893,-0.0013066826657034492,-0.0006121100932750176,4.052294425882844e-05,0.0005287202875466952,0.0008006871525160827,0.0008753197615832302,0.0008201335722081222,0.0007181435745795888,0.0006331471794162645,0.0005829228763404247,0.000531331766312046,0.0004071580409761201,0.00014632892545166087,-0.00026019423565688804,-0.000738154959301318,-0.0011410133432783816,-0.001302632918825587,-0.0011128735047147968,-0.0005816338637585076,0.00014440295101656787,0.0008297216899871799,0.0012467719554675666,0.0012753519089655665,0.0009525392226878786,0.00044769900327183335,-2.0468694581336723e-05,-0.00027888862087988996,-0.00026308309868033463,-2.9180288421658696e-05,0.00027844031166073484,0.0004859060348914267,0.00045702907012741393,0.00015144251622910667,-0.0003464285833862644,-0.0008462596643532393,-0.0011225170183217555,-0.001014137865901341,-0.0005075350851245961,