154.4574780058651,147.72194873026356,147.7588327034971,147.92745833958864,143.05392569436094,143.16337274012574,143.37312936481544,139.8692628650904,140.03044057129026,140.0168901534643,139.54576535508636,139.43714979174783,139.40607023010546,140.2518986210799,140.27512061468818,140.2050236600101,141.16703205546008,141.16883924868165,141.11005153112598,141.53404393527813,141.5995923551827,141.56856898231524,142.05711003770028,142.05774100465226,142.12705376597373,142.60572318359434,142.58669289720174,142.76501366883213,143.23095426677227,143.2869205734893,143.3317413343491,143.35769478428847,143.43032522707296,143.34581710638048,143.38190866510539,143.348750804517,143.35140438742934,143.35257798326214,143.37472192951645,143.35803733395753,143.3954127903575,143.49389583394327,143.40018138201393,143.3575503993914,143.37309674396815,143.33620084269663,143.31364860119396,143.44011835706334,143.2623760928682,143.32849746994648,143.20401963075486,143.13811428738285,143.12089870570017,143.11131871660876,143.1719685683405,143.20211491835363,143.0936423609084,143.0640135379588,143.09540357434878,142.9474928492207,143.04950176792028,142.95541866168398,142.96357954379508,143.09637638807715,142.92937638678035,143.0183022943546,143.1153363123923,143.08764963503648,143.03160659565154,143.01378529761732,143.37077347264548,143.27264290478814,143.19439366240098,143.14932534605094,143.1825334382376,143.22299722749162,143.15305616338438,143.11732088136583,143.20930639887902,143.16946034341782,143.21824875098608,143.23458448955748,143.28495864870393,143.33875021920852,143.40181754426976,143.31897432902076,143.20904945633112,143.1131391131391,143.06315881939565,142.9816728635419,142.981385395597,143.0113549674315,142.79875409452504,142.7674119161887,142.8147172462241,142.78553032076798,142.7664588273177,142.81772144488028,142.78162602102057,142.84741591468418,142.76413906217965,142.82667448336508,142.77300020503208,142.76389214536928,142.72195522213104,142.6935129594377,142.70526069264324,142.7682873283962,142.79440948338944,142.76829589715055,142.64381999473667,142.62095360523548,142.60873120163527,142.6418102189781,142.6708491391888,142.59587863242882,142.9104503819028,142.88221013221013,142.96121332670313,143.07804549973682,143.17771891010713,143.5641705002038,143.56667733581634,143.5906009020806,143.47756158566733,143.57857767414748,143.50399277220797,143.64096800560486,143.5723544008174,143.62446727771615,143.57978039948605,143.693227674133,143.70382165605096,143.61826574734135,143.61392016376664,143.61924123204727,143.56874671033393,143.5434604585868,143.5795078849586,143.51741584534847,143.617692690495,143.83724960347766,143.87064384486655,143.979836224355,143.91902110199297,143.95885352558466,144.0644593683099,143.96882599396443,144.04587693841057,144.05940826320264,144.1077243523924,144.2219809244314,144.23860668486077,144.19569873543995,144.12967471328426,144.31589608102158,144.2812051229448,144.3588968754584,144.29526715765383,144.1295455211416,143.9315668135524,143.79735130247076,143.7028862973761,143.80816445545997,143.6699623764109,143.58623302442152,143.66138013468995,143.6178949517338,143.61621968657892,143.50834960510593,143.66505250875147,143.6689812113432,143.6986893189713,143.69357428546405,143.78934143633495,143.77533438467378,143.893978368898,143.9640653782053,143.96753797968563,143.92686423075799,144.1316336996337,144.05479211227987,143.99548651817116,144.04186346701087,143.89876347866854,143.86105170645965,143.91099322997567,143.84672902677184,143.87523829075872,143.80823443223443,143.83623621862537,143.80279293551604,143.76190196998124,143.65160836702407,143.69746716697935,143.76835561810933,143.80625201606992,143.80094453081458,143.81514084507043,143.89809459499133,143.88227699530518,144.05614910478425,144.00064518021057,144.0265818704024,143.9457471129609,144.06018015903288,143.95736013832314,144.01637567377549,144.02066986766602,144.01180329789415,143.98624000936852,144.063168067473,144.01545667447306,144.00921645502956,144.0502281769249,144.02644666783686,144.11348077935756,144.06305384142954,144.02808709630278,144.11320203377943,144.13720332047234,144.12772667542706,144.2054698457223,144.27483434042676,144.3305213380816,144.381420733131,144.27603893454565,144.2655403437227,144.39509377825743,144.31018100206944,144.34380285797607,144.35468253273837,144.32058797795082,144.31444395860663,144.335200093338,144.30711807074331,144.37730231472023,144.317867258446,144.3541648406229,144.3211116300794,144.273849836525,144.21497478942612,144.3451696670849,144.40989296234724,144.3722597947761,144.35380133993593,144.4526266689989,144.4701749271137,144.35963276012825,144.35730520426597,144.39714802286247,144.41325280112045,144.4016290543894,144.7981627296588,144.90871672115833,144.88072510727736,144.80792211956046,144.75645659651374,144.9090193104253,144.84276051081696,144.86946760744067,144.8252848774517,144.90441347947763,144.9040508617924,144.80217828125456,144.87117439794997,144.8854306178303,144.98470368859623,145.02476545655847,145.10298189873788,145.08027623182494,145.12316305108467,145.18364669873196,145.23745263771494,145.13669064748203,145.17862555374214,145.16267342893786,145.23386555357717,145.1927253619804,145.00597075784935,144.96397761716017,144.987431470897,145.10972583141114,144.97784911717497,145.0512977723278,145.0141009546609,145.08536692287458,145.13865435741621,145.12062211307958,145.2135297900953,145.1783970291529,145.27862807643908,145.22480756285304,145.31746031746033,145.29882635291364,145.39715022868535,145.3256590509666,145.51366168279097,145.5712484976402,145.51285584449852,145.6149376375642,145.59442242771172,145.56445369773033,145.52920881819776,145.62551548653155,145.64216747615424,145.56375504947016,145.60587131210042,145.44409591932458,145.43749449646307,145.4290203218607,145.28141365085867,145.20704072980323,145.29318161874397,145.24813699991233,145.28391812865496,145.3316765101456,145.35179448211363,145.36603464898187,145.39410477163287,145.46465502132384,145.44697544187133,145.52123191787214,145.582878650833,145.7977225491057,145.78470677747865,145.7145197624411,145.64493219546412,145.6583783783784,145.8033625730994,145.69663347834972,145.71192081983008,145.74123690278142,145.74419894340502,145.8728976874562,145.92193981887235,145.8913506728552,145.9141956572496,145.9542044890692,145.9487291721381,145.9239006740393,145.9377699941623,146.0289660408211,146.0016346069646,146.02586634747323,145.93414641262802,145.92947595704948,145.88767386930277,145.87555425904318,145.86003441537608,145.85528464769015,145.83363471971066,145.80811818870563,145.84689622999096,145.83442685096082,145.81683038446965,145.79771581738194,145.86672689651152,145.80320992688823,145.84911268467525,145.88195517211227,145.8763661799423,145.78418125163807,145.94105981510106,145.84738206928702,145.93506342032367,145.88915101208678,145.9112017479971,145.901628835339,145.84896591902125,145.80533216783218,145.89538784678666,145.79498383291096,145.72084085483024,145.65837387479243,145.73863139802486,145.73165758890863,145.6762212706458,145.7403274676611,145.68854655056933,145.72046487242224,145.67461357086717,145.72320414640538,145.66841400198032,145.79107782860805,145.7314202476329,145.72319216532105,145.80836734693878,145.7813401731324,145.84673256932902,145.77504081156715,145.8172827260262,145.8320548344757,145.7968786464411,145.67979462045628,145.68329344463254,145.63778608127043,145.64428020565552,145.60499707773232,145.49048286331524,145.58805638416095,145.5402772902773,145.46273936558984,145.45729995320542,145.37156553256168,145.42262461970512,145.52459640795757,145.44269156471347,145.47472765608526,145.41093763730632,145.5247588612976,145.44369851367594,145.47733075094638,145.5182183857424,145.4458535153383,145.45703629742746,145.40804276943865,145.43157894736842,145.23718380865844,145.51296187683283,145.52241343926823,145.37593433973325,145.29247191999767,145.1297506373253,145.34297375066063,145.40469897209985,145.58559299626899,145.5218565599037,145.55940564985025,145.66431510875955,145.63336272780717,145.66597083382337,145.5389722948556,145.69146370161195,145.65757050019113,145.6245628471508,145.68293901542984,145.72525632362877,145.674536058257,145.63359069958605,145.45941197141852,145.44645471046314,145.47150092215816,145.3643116153936,145.4575909184002,145.499414656989,145.36277058806346,145.45533495131437,145.46070175438595,145.45962206840153,145.53920336655074,145.64988598491493,145.5721882944219,145.6560647215164,145.61060681241062,145.68235431507648,145.6669583989731,145.7996557860039,145.87102983638113,145.8080622595313,145.79378021082056,145.78623642135307,145.76100757134537,145.67334535303013,145.77796851814134,145.76931804957525,145.79102437321853,145.75061785828512,145.76557820359977,145.8504422718808,145.8258959739353,145.93589221278083,145.94019382439393,145.92300087234662,145.93878974597453,145.94551477639266,145.9285901200826,146.07286000988918,146.07326934264108,146.04367294719702,146.20188476193246,146.08609714269105,146.09116825692342,145.97608531411635,146.0003489183531,146.04528257959373,145.97277566097554,145.96209785327827,145.98353215013094,145.94954368424112,145.97015880402537,146.00133818181817,145.90878977190178,145.9805494984736,145.91248002324568,146.04070240725665,146.01566132031613,146.11150838638412,146.0401220220802,146.09240741817337,146.1313425023989,146.23312098205196,146.25558724246304,146.16089749178946,146.2349828458452,146.1745413310848,146.1657792906811,146.13440563101713,146.18408032596042,146.08709433523322,146.07517965726922,146.07891520689054,146.02785134309246,146.04803633293545,145.9852765734571,145.97476129483,145.95438800756804,145.97019664967226,146.0355070985045,145.96090540973577,145.90186031616642,146.0513515877876,146.06022972421434,146.0096257620395,146.0704315832506,145.91509709020934,145.9810401656798,146.08464928923786,146.02260381987034,146.0111016973911,145.96512646766752,146.00532179303488,145.90267504750767,145.9971590077029,145.93786419138533,145.90820718531316,145.95693948093034,145.8629185831893,145.95029471276501,145.87611345522737,145.64793996554442,145.6987610309158,145.63114419147695,145.67015186915887,145.70814459803034,145.70420148425174,145.72400794810355,145.68495952777533,145.77472205968402,145.74279703114956,145.68842400514228,145.633988837916,145.69723294723295,145.72890137876527,145.7061542061542,145.71413119738074,145.60764934647213,145.66370647347512,145.63572429088362,145.62704846328805,145.58568430869667,145.6720766922113,145.66793815333546,145.6168256923435,145.70574197491342,145.58197292743856,145.61715912722624,145.64416625519183,145.66938739942486,145.75647547893834,145.71626096554928,145.7469711496557,145.64776951672863,145.6191457855463,145.73407008870146,145.71399494053676,145.68226880251186,145.64034551958818,145.693073051523,145.5699668623917,145.5935937681665,145.57882066305072,145.58087531540937,145.56798677954308,145.5553012083104,145.56991304347827,145.54714248472033,145.5786271044015,145.5617743289805,145.57897481962272,145.61922965537215,145.877861485209,145.90905920306915,145.8759660642687,145.83832873930075,145.83432758021544,146.1049445297338,145.95465863686374,145.78136034732273,145.78585296589296,145.74313202735598,145.67758960677415,145.76510865465517,145.7130881243836,145.75445676789965,145.69125920770256,145.75902320044136,145.78105220370477,145.81930685878626,145.80553458388988,145.77839077789716,145.7565346189591,145.8703009158308,145.83547796787406,145.83859812269333,145.879548889664,145.85219386125388,145.792269268746,145.8119896550722,145.85620344506518,145.73224297707927,145.6723467254993,145.63020939215286,145.66828389645855,145.7105859783746,145.68740008719664,145.60348033234558,145.6153868519757,145.6880816658911,145.57925482445944,145.7426907396622,145.68912037710595,145.70656067091815,145.608895616231,145.663792098823,145.6668900999621,145.72416810055702,145.6714856160191,145.77645309858335,145.77448149120505,145.73427980060052,145.7730869171703,145.70061593251015,145.64893585963273,145.62680767770019,145.6191366864424,145.64959765910754,145.54849840629294,145.6601018377619,145.59100222456388,145.63497174975848,145.35079633626975,145.39049701209737,145.52421710680065,145.49203198879223,145.47572645582915,145.57253825487678,145.48124142360808,145.54744162940884,145.5436796726582,145.58732711482793,145.58323829575693,145.6154295904347,145.53236737555503,145.55914261484926,145.52400408580183,145.73642823858341,145.80020396270396,145.57381153387092,145.52060699618443,145.41778386570297,145.43731216992967,145.44337117343215,145.39189701976122,145.3950447952841,145.4629894589307,145.44874788395308,145.48538506417736,145.6877485380117,145.56259849413414,145.497812518229,145.63116405360427,145.60998307952622,145.62802157748942,145.61434441756768,145.6136913612642,145.6524415144974,145.55447504804053,145.60281764088205,145.4591061289853,145.3657919236588,145.4390918352496,145.4520739339252,145.4795214391756,145.53944457382394,145.37581689854483,145.3600081272495,145.46778126088472,145.5220238785209,145.6214720370907,145.71268429742491,145.69475422182313,145.74858003941114,145.84407635182177,145.7162592678406,145.79739906157678,145.8214585808246,145.79362411244747,145.65088328989285,145.66408014360994,145.63701644660645,145.91339726823597,145.90295947438804,145.88150860065085,145.8947934220466,145.884499186614,145.86775346526022,145.80344337020585,145.81777803582315,145.81844572822015,145.84282770829103,145.80391361066822,145.83334300470028,145.88382416944725,145.82814720296957,145.8365571441,145.86024187233548,145.9327701820082,145.94594829837234,146.0955119825708,145.91526947844753,146.0206173592357,145.95866953038833,145.94839852484247,145.93599791013585,145.95714368616527,145.94642234870486,145.88685104036682,145.88587098459126,145.9520078922934,145.947512047843,145.92657352813035,145.82495360705173,145.80455270407424,145.82635164516597,145.90273186010091,145.86729308044778,145.8401669033062,145.91365613221222,145.91598538876326,145.90421955601926,146.0044971856322,145.9609952730331,145.96198898231373,145.9331806586271,145.95510180404895,145.83345897361554,145.85060604303195,145.82231764637615,145.74426362660634,145.73782945286902,145.6454988116631,145.72555333159283,145.72957746478872,145.67177700348432,145.63832258813963,145.64419334224132,145.59386161038358,145.64420422514746,145.40818158130918,145.5023479622007,145.40134360340534,145.45498550724636,145.42572190652905,145.37135739528418,145.47406912963984,145.5289131444496,145.64626067755245,145.5379388448471,145.43866322116082,145.4448836060333,145.43988483015357,145.42065776847247,145.33544653502778,145.43418215721695,145.3272271893293,145.05587774749173,145.02737141530244,145.00412060009867,144.98296526306626,144.9575190917274,144.9880651624706,144.97233190105678,144.9460636321412,144.99712560246212,144.9341505213931,144.89170125685757,144.94607159460716,144.96041618228318,145.0191877198593,145.0006396650481,144.8182689793428,144.81383998605543,144.74772080599269,144.78127812781278,144.85712211834388,144.88655035271577,144.81217007947097,144.79224770243238,144.7854513838574,144.83852929246103,144.80646469327462,144.79201528618165,144.78675385550187,144.82427080623248,144.74485228290064,144.87391656073038,144.7782909930716,144.78255599168784,144.8594277795421,144.8022044608593,144.80516594516595,144.74411628980158,144.78012056880786,144.65773243414606,144.72042669741964,144.6954854704797,144.6599331450637,144.6165903131933,144.715471524095,144.6471181556196,144.66082596040232,144.6391794162561,144.65852393846862,144.6923409280756,144.65449155225514,144.71521119461,144.72752121996834,144.7584014270917,144.82217036844986,144.7369935543278,144.8197381671702,145.08223370773538,145.00031727718488,144.97876882247735,144.93148511423956,144.93139659002395,144.87204173993254,144.88658782809344,144.93867012837157,144.9326193019429,144.892380045587,144.9196979304779,144.9327990313374,144.8993772344597,144.82120426390088,144.90345364391143,144.86230046677807,144.87777265656507,144.91947198524326,144.9826731246036,144.9356762206539,145.00922456039206,145.05501730103805,145.0686144439317,145.09660205376716,145.0148681746146,145.0990629955312,145.00665763610687,145.0611404039531,145.0862620729422,145.04100982737253,145.00512392411986,144.90615137430424,145.22176550058927,145.06942889137738,144.99078063070826,144.94070499008876,144.9979292493529,144.89721615092603,145.03055347578183,145.06969173148948,144.9027473793342,144.9609143054795,144.9356224413308,144.9102283210332,145.03444595101405,145.0253792466978,144.92852816474863,145.08653707287485,145.03588661908753,145.02198151357598,145.14708603145235,145.12067918197334,145.01776260595366,144.92385801486967,144.86907860489328,144.62613508605034,144.55584692524926,144.604174474587,144.59987881236114,144.5389762076424,144.59522227678443,144.47720452446907,144.59915038723847,144.5356089947396,144.5614973262032,144.52079356816472,144.55356626366634,144.50474454666434,144.56050125893555,144.55173212837445,144.50321515467502,144.54210160055672,144.49972472544985,144.58025586725074,144.66250290495003,144.52857681925053,144.4506923679856,144.42057132903676,144.40911465892597,144.43211526172078,144.36577667091393,144.55800417004517,144.5830728262128,144.6119878384248,144.60129678409123,144.67565219909082,144.70088587806148,144.80459536986064,144.80965744705475,144.69500346981263,144.67446833102173,144.77907884465262,144.69298498845265,144.69403372992954,144.6874693300234,144.71979671979673,144.8054969509552,144.76168318834715,144.6001097409536,144.62084910840727,144.55548170837426,144.61094409435162,144.5794511436916,144.59997107736805,144.57447300696873,144.57780925674308,144.55384659862963,144.55633924958084,144.39098828823631,144.45771072520625,144.42883506343713,144.49085875771382,144.51343558989737,144.47815561959655,144.46473315860717,144.47285771912638,144.42328743446447,144.6096066587671,144.64651834729847,144.72971722662348,144.73814617786516,144.42139687662075,144.3749567723343,144.3731231447592,144.53530771453336,144.4865091529541,144.51337749110579,144.42206026953554,144.33472984686506,144.37310627963456,144.32723594856233,144.33289971959644,144.37044961688594,144.33062651716565,144.361281369261,144.12160488493333,144.1233685787548,144.1555677170344,144.0742990385169,144.12675650771712,144.21412320364024,144.2790523403274,144.1842325085693,144.2190884996543,144.3417553575034,144.30686107829294,144.29444156143688,144.268689432395,144.18666397601476,144.29207436399219,144.22997497771004,144.15201012250532,144.28025789367643,144.12041403105232,144.38618859434044,144.365824099723,144.33341023127053,144.3652552890582,144.33872875732132,144.40069244085402,144.33955568378533,144.42210997257902,144.45194805194805,144.41731351897272,144.42763138907327,144.50684259152328,144.4694360305784,144.5274031811895,144.59503609329613,144.51264334862384,144.40445768635766,144.39916881627974,144.34460311998166,144.25972983049874,144.27749863619397,144.2590858160715,144.22245531352377,144.12835238040543,144.04985934898673,144.03747664894382,144.08546394714162,144.02059279682922,143.9749088508024,144.0027556116884,144.04601993622705,144.07553295408837,144.10367412599464,144.16758170686137,144.1038961038961,144.131385393323,144.1521464283662,144.17653824036802,144.25280607839753,144.28542649936688,144.25870002876042,144.23161193858186,144.32553791278335,144.28564857405703,144.29856280540386,144.23390804597702,144.149524384286,144.00384792097404,144.09558971412153,144.10238868607894,144.04112386046646,143.98376623376623,144.01682146246083,144.10841223702766,144.10337783404304,144.06244244935544,144.08410542671348,144.0688017955801,144.10903489577336,144.0897922780367,144.26495948323097,144.14173024327047,144.1798749747933,144.15278898236718,144.20902017291067,144.20847027619212,144.2826951908661,144.2843137254902,144.31394610812995,144.24044172769737,144.15546388183705,144.139033114111,144.12859203693017,144.11575089460925,144.11263458707387,144.0488663243524,144.01237381021056,144.01919690540112,144.06860820873982,144.01454965357968,144.021240981241,144.04808525385548,143.93338913099944,143.97092536451567,143.9156393452089,143.9229968782518,143.84816376024946,143.96634281748786,143.88326252203822,143.9825216309286,144.0125849848112,143.91938985209413,143.9316766588467,143.91778562333604,143.90969367073947,143.90692082621166,143.77826011460323,143.78048851073683,143.73623893036986,143.7718861313023,143.83234313867555,143.77684801806757,143.6786561722322,143.80302986414853,143.82797506885055,143.78417120352137,143.6407405268022,143.69009852359076,143.71207698754444,143.70849816638273,143.7594582105932,143.76496072088725,143.8066314299743,143.64499481028716,143.61758184802326,143.69207080155417,143.7536056654288,143.59154767719136,143.66334157419652,143.60699417152372,143.73848098356888,143.86308068459658,143.92527693857,143.87741137912198,143.883032532475,143.89908915898056,143.9141625969549,143.9007548144534,144.00634765625,143.991326076342,143.96673847479533,143.95245610008033,143.962246829996,144.13319166044454,144.03989674458626,144.0128293438953,144.02921928817452,144.0134836618183,144.00685324310373,143.96374795652048,143.85694639429275,143.8876214496575,143.88716845878136,143.89470819127297,143.8980118031284,143.93541081360013,143.86757716314494,143.84114262815925,143.84698170993502,143.837192019665,143.9967942296133,143.94237705387303,143.9599221901193,144.01025347271946,144.02732474964233,144.14240297866246,144.14125053655744,144.0838342206194,144.05559056020164,144.05360004578753,144.01310068649886,144.0371981229255,144.02489840306794,143.99295633500358,143.97256472607637,143.97078349453443,144.05365476565407,143.93149509453391,144.01519530691087,143.88389181152792,143.95093217431088,144.037383444883,144.05793162637676,144.0389212994738,144.07768212109946,144.09382864333105,144.1989296548566,144.16454574051303,144.18735523719653,144.15903566219578,144.27364294503104,144.2156156156156,144.25381291670243,144.20763839221857,144.23419042988303,144.1798633153184,144.26923846835768,144.2070533722327,144.1369784666419,144.14041507060773,144.0992915904936,144.16561329253295,144.19141149898505,144.11885093611548,144.14401303751143,144.11054300322775,144.16402766662856,144.1554577414468,144.21933011069478,144.21559147475327,144.19103726370577,144.24132799084146,144.22999856877058,144.28558749427393,144.23567298334,144.30075898610912,144.30150638639097,144.38132652768618,144.2834670487106,144.2671464617502,144.308932361884,144.24726157022423,144.24728128317696,144.28454467107153,144.23063895746026,144.3490175801448,144.32325147206663,144.22923845623708,144.26270285796352,144.20769363463862,144.23050837715894,144.23722869052753,144.28409908225208,144.27963884176324,144.2532930687374,144.25363986879208,144.29126129756492,144.23753345034962,144.18773924305654,144.30150319645222,144.33308376767357,144.2785492048859,144.24275456354357,144.1529923892989,144.09864837603388,144.16009695850406,144.06827691686146,143.90602964455317,143.93138017457437,143.97353627951225,143.95022767882875,143.9765275815335,143.99195617702176,144.00435020598658,144.00138304615916,144.02936176343465,144.03036238981392,143.9806916426513,143.98821223736923,144.05927976241964,144.0270947307803,144.09490333919157,144.10575149838635,144.06998762554318,144.01168614357263,144.02117010872692,143.96629375053925,144.0,143.98056018864668,143.9624978447037,143.93683394134376,143.95753483694872,143.98336780420544,143.96725831466483,143.941497301642,143.92360195010036,143.9741280403855,143.96663226694187,143.92968884304625,143.90369521627042,143.98446501762734,144.11512402388607,144.1719849498808,144.2032735104092,144.1967669691053,144.11816173728448,144.18049649465578,144.02893096216278,144.01101365923796,143.9640010359414,144.0125539879067,143.8867213350597,143.90455618915962,143.91155894630776,143.83212581220172,143.88003220611915,143.89937269797423,143.82444284687276,143.8668889974988,143.97442087716274,143.9635982301902,143.9990804333458,143.87436508164262,144.02679932139057,143.91602790457324,143.95155411416928,143.99922451675906,143.97612420007462,144.0729663011654,143.99116415170118,144.0307780648866,143.9445432127086,143.8851424967028,143.91244015023366,143.81837999082148,143.71973280582552,143.72521709225347,143.7310174693784,143.6434368636898,143.66,143.59378853488573,143.642623515235,143.61361746063614,143.6097819850832,143.57921288732192,143.63647575070985,143.58578065848343,143.51344687195368,143.5666781332416,143.67345709121167,143.7696235942162,143.77334328701045,143.76492194674012,143.8022678340749,143.73832955556193,143.68608990183134,143.58411040656472,143.59801275056,143.63459661211598,143.52189006196926,143.52881939463492,143.4785152888532,143.45549948388577,143.46343771507227,143.49889517031596,143.43349202707353,143.47277731586342,143.40270092037733,143.466853997018,143.46926188358816,143.44158563520065,143.46256807108054,143.4875103960538,143.4954830938656,143.5872173114453,143.53661963753154,143.48120624354414,143.56596574772655,143.57695175815982,143.6351215591722,143.4711146807412,143.47135439079668,143.36379270809448,143.41646107062942,143.48144640551013,143.34838358050544,143.36126645444378,143.3679064032346,143.3472763761468,143.3937141216992,143.35639473155615,143.3319272268136,143.3890707558006,143.3593754484659,143.38695327746527,143.43486876112803,143.44861557904412,143.476306790425,143.51819253890184,143.48270905798142,143.46150970524803,143.53641831419608,143.5137762438884,143.60724258038516,143.60639124802074,143.62143392311683,143.52921516653223,143.46490192124895,143.45487312572087,143.46367410482617,143.39011591027045,143.36561833995736,143.47198729975466,143.45950546755532,143.41333064143979,143.44137334102712,143.47172366108725,143.57744858334533,143.61544876772209,143.45975725230267,143.4766459841434,143.4127704819104,143.47412181017867,143.51459244761685,143.49425816664268,143.56165922511883,143.52050373188092,143.54140733056707,143.47261201555972,143.4242066122849,143.41227160066862,143.3773938624827,143.32501009169022,143.30641254829595,143.34523156831625,143.3170921678927,143.36381738427795,143.34700943477884,143.33960684698206,143.35467752649973,143.42952903785033,143.46854338097302,143.46711723420847,143.41546897546897,143.43627493432638,143.48989432349714,143.41248953914524,143.50927930268134,143.4859616216996,143.4431788690562,143.44999279227332,143.50760264289218,143.3008816411202,143.3594258869643,143.35078820715293,143.30230682832703,143.25379921713102,143.18685270425777,143.22167884471548,143.11192207120484,143.06539775500244,143.13960236740792,143.10563743763262,143.14230438521065,143.1814506880734,143.15849640432054,143.17640150104558,143.12657865345514,143.17287805436993,143.17120032069636,143.27596388132434,143.17395788568973,143.13158799266728,143.05578157231264,143.1361318051576,143.02767839253514,142.95034344590727,142.95328600870164,143.03395945481617,142.97041741767515,143.13361264958246,143.08995497949704,143.16359618916437,143.21367104583788,143.19410904293457,143.23608362729072,143.22750731119905,143.2240697207729,143.31099064991682,143.27102321582115,143.37276170798899,143.3643457555154,143.3806000114725,143.4768339214505,143.36684728075457,143.38480075738016,143.3402608571019,143.26898389592526,143.19493467797386,143.25058071176622,143.20507381396015,143.18656844760375,143.26536112624365,143.2597372798715,143.25082413644833,143.2604184580109,143.2277624942687,143.34115725217092,143.3926573928008,143.39225806451614,143.40450791465932,143.33603714637852,143.35098635164584,143.39538885065383,143.3424959871589,143.44560447440125,143.49393200401664,143.49466712540857,143.3897566707747,143.41511111111112,143.36491791066157,143.5726868455028,143.58565691336776,143.47111085635674,143.51801595042744,143.43109116377462,143.67434746562222,143.6056,143.49602698222145,143.46011200640038,143.5255944376091,143.57794197668758,143.5505856075141,143.5917344483904,143.64405079255883,143.5847877797839,143.61450305131365,143.6786779039101,143.6297092107148,143.76004013186184,143.8036640958743,143.83829348013074,143.78836509528585,143.80507381396015,143.77882906129938,143.76216696779375,143.7961682966702,143.73287828381325,143.65592569233416,143.65386932943102,143.70400344382264,143.696954912034,143.393588754607,143.44331607403382,143.51120343839543,143.40476736190695,143.42270995100426,143.50447222062954,143.5037298444942,143.50140562248995,143.4435169248422,143.48778457210116,143.57290648887866,143.5193036883833,143.55260132221903,143.443216080402,143.61189866866033,143.58536304816678,143.5898897429254,143.41590196473263,143.41730243270476,143.46544071020926,143.39730765904702,143.3896778662972,143.38716380006926,143.33916356394494,143.35163629011294,143.32019633318896,143.36775461825331,143.35866235042488,143.3267707429893,143.3631262293185,143.3141511070004,143.34081703506538,143.2627091702552,143.3406745859707,143.28374233128835,143.2381972385446,143.28759191708644,143.30498363883822,143.2578683730492,143.32451483769907,143.3025568181818,143.3573998839234,143.18754532006844,143.26013405681456,143.20248796613117,143.19464586112883,143.1665942091992,143.25632553690983,143.20835376582917,143.4323287671233,143.36907953529936,143.46201782983758,143.34557509368693,143.35994692664917,143.32783808753896,143.3709374548606,143.36149000115594,143.374646096955,143.383877769113,143.45104208763928,143.43726905311777,143.39912306005886,143.2940124596216,143.26929950994523,143.2785372325085,143.14588974019242,143.1169967756794,143.1004606968039,143.09806291914919,143.23514837222703,143.22491429229927,143.1895330761702,143.14670925782036,143.11458632783302,143.1168065777369,143.09112606395215,143.14281197907684,143.19473351348245,143.15097104113997,143.1993286857733,143.17541543495108,143.17728380897748,143.23753657277265,143.17432192212857,143.230071996099,143.00865627149736,143.1084043499469,143.11424638678596,142.97267618556108,142.92310336924135,142.8968244869884,142.96441056794086,142.92400928393363,142.88563570732825,143.02767501218847,142.9084240687679,142.89374015184072,142.9794760075675,142.9800320861743,142.87425561154376,142.9543513769092,143.01760169710175,142.93983562899115,142.97569424563412,142.97277411966792,142.9959349593496,143.0119674759505,142.9459745762712,142.87497137623083,142.9178950977031,142.859313096765,142.99446820644425,142.8747900833974,142.8556703966288,143.12133508601474,142.9780003424071,142.99754355898315,142.96234070518315,142.92461564839687,142.9125503528269,142.95375193177264,142.9918422257843,142.9156778085952,143.0392235455795,142.99742437684228,143.0631373897101,143.05816618911174,142.85992284612087,142.83654065783463,142.94113781181244,142.90340357489578,142.91959110248138,142.9344903376816,142.90473470786452,142.88352954623386,142.79742893872304,142.75669655605688,142.77783490431307,142.7504714016342,142.95011890095407,142.84211128593907,142.87933108069413,142.8834392716028,142.92569579658687,142.94132967001516,142.90428211586902,142.98573883161512,142.92696050372066,142.95174684994274,142.903023535475,142.82009886561704,142.8327235307569,142.82103668990743,142.86135271229114,142.88054539217927,142.88689931350115,142.90529295702154,142.96367747660074,142.9079621205619,142.80347895745714,142.77634667124622,142.86610698833843,142.81172963366393,142.69947280958112,142.7065180004586,142.80758527698885,142.70496173359703,142.78744155359857,142.77707645961843,142.74207807118256,142.7228455821161,142.79341618115546,142.84852400643234,142.91049622159008,142.8883651414118,142.86826003274828,142.94677484320155,142.87467287838265,142.86655551083769,143.0457294246386,142.98600955725718,142.96664460241172,142.9024565849725,142.91445682531457,142.94693301049233,142.93385382155512,142.92574129037834,142.8726193563258,142.96096857884118,142.8740313985309,142.9035009364645,142.82971066647474,142.87420441782103,142.7912550047527,142.94672697937074,142.9780998760914,143.09659271227028,142.96170470262794,142.99824151748393,142.97628310423332,143.0517653840611,143.14071061890755,143.13666762755838,143.01125503742085,143.05888283928212,143.0857134630888,143.169743929487,143.07919509456775,143.12471923054773,143.0115700100734,143.01187703102983,142.95050272910083,143.03395727306707,143.04246339362618,143.03388856978748,143.0965232120812,143.13004651697008,143.1655619637887,143.05468727595996,143.04242702036842,143.00352183249822,143.0866128200722,143.07654419976518,143.00815870834765,143.15712158524713,143.1113082801454,143.09586374695863,143.059791630889,143.02515165388579,143.03245935424778,142.96810640732267,142.9157439990845,142.91226614794897,142.84133337145144,142.9085058917744,142.92920100732601,142.78083914484966,142.88145583564622,142.73878122677644,142.76639145216123,142.87637975407492,142.81923923294562,142.8878437875236,142.91571428571427,142.86779835390948,142.96102930664762,142.92789986568744,142.96642089620485,142.93681805198514,142.91656911172657,142.96584152755545,142.9244166094715,142.82788291121147,142.7214036891097,142.7666952544311,142.77813357731014,142.73519661636945,142.64858611825193,142.60344335312928,142.57218701832505,142.6026340599377,142.5715305743581,142.5290573150184,142.51216656194666,142.54441841864715,142.58001942635127,142.55825714285714,142.485895386021,142.52749700188454,142.58833952557873,142.46821254385213,142.70300441406806,142.8976813080385,142.8591376706278,142.69168160733088,142.66963853362577,142.55339944149998,142.55179101072324,142.4889586305278,142.47721500927378,142.52777857122453,142.40458037065594,142.41319622964866,142.45817973996284,142.50440176070427,142.40694484138325,142.45767460476287,142.40284048694062,142.41556102024478,142.44858156028369,142.43998055587326,142.50609511818234,142.44994848901098,142.54712551534587,142.54398625429553,142.55962540809898,142.52525686156665,142.6312018114592,142.68910624139514,142.56084913768407,142.6055687781378,142.56149057632175,142.51738082946136,142.47834820788017,142.38410329985652,142.41024241727942,142.24526352049602,142.29676641203838,142.3004913369537,142.22139596313417,142.3259612895804,142.28206676442682,142.35821239345773,142.32404100910034,142.48640004610155,142.36884089272857,142.40871369294607,142.44019359299378,142.42791676273922,142.48092482220494,142.5942751722349,142.53888056260087,142.5381176266982,142.47360530488683,142.45401337792643,142.42703497592342,142.389379000173,142.4139572454779,142.38262775406622,142.44492858173425,142.54477224178743,142.5309098258886,142.55747026902205,142.64095975053417,142.57280770006628,142.69849507005708,142.68283689577692,142.65815459910752,142.7822564426696,142.86209174733577,142.89476405204354,143.03941849106477,142.95613858828258,142.9197405057841,142.8652720385675,142.84796831955921,142.89446485989893,142.87209669547244,142.761794077135,142.74587600768857,142.8039834691769,142.77159573247678,142.8958799563895,142.93384187433685,142.84880955791766,142.95053621609222,142.93443938221725,143.0829892177105,143.01481375358165,143.03366472796034,143.019943836323,143.03969981668195,143.01079796070346,142.9890087872456,143.12472785607883,143.06229047878284,143.01309455587392,142.92089894073862,142.87044882070072,142.86490665444967,142.861185096085,142.7980251860332,142.74608805103412,142.6754130223518,142.80790798809795,142.95202179523946,142.98023522662078,142.59247828074987,142.7312873609244,142.67920594115967,142.69759528779343,142.69168142604124,142.75948788294468,142.86438399267715,142.70852133188646,142.83801326775705,142.81276972762868,142.91145937598307,142.8643234747821,142.88134672044396,142.88718535469107,142.79113435651206,142.7575134270369,142.74443936188462,142.70659846254966,142.67782414818203,142.74774929263484,142.68943851031017,142.7883510136391,142.73776253750535,142.76842646554678,142.73897928361782,142.98690093117293,142.9124939508668,143.11933603794068,143.03305336532966,143.09484877937226,143.0351945564228,143.10965840819364,143.19086637634655,143.18988683569688,143.1923032838558,143.17949893940263,142.93762868908718,142.799427999428,142.81998683947015,142.7328833724189,142.7044167286458,142.69655172413792,142.60474896295236,142.72280319743288,142.67060844667145,142.73375934894116,142.7061535377831,142.79664077502937,142.79449031074418,142.81952925661534,142.814622682067,142.92140377055296,142.90172829581994,142.97565177443437,142.99833500789435,142.9484059800855,142.9753107685241,143.05090000861253,143.09376525659803,143.01742850579993,143.14422054215655,143.05571366968522,143.1050861102326,143.11361151079137,143.09119170984457,143.05933642197346,143.11282803867402,143.150558691395,143.18137805826922,143.156017745002,143.14547078483346,143.20866130380878,143.1552365303122,143.162871144422,143.18759908910093,143.18517984782108,143.22168438643502,143.20069154300532,143.26795237683416,143.2976986965048,143.3021499798259,143.3818721711304,143.34719700244992,143.28049096724004,143.3229571984436,143.2667550661555,143.2371478822478,143.33091947722224,143.2455174401845,143.35921546005193,143.36397981254507,143.3199723167426,143.36031617816755,143.32761602767368,143.3059789655669,143.40266851099392,143.40239686563726,143.3607689651203,143.4623844758587,143.45610401564838,143.43463009287214,143.51889747937804,143.5581081469144,143.51340490269246,143.59595669528758,143.59900051697397,143.4564001032969,143.37601491894995,143.40371602247964,143.354918267852,143.3480629713532,143.27789081530304,143.29566239500014,143.249928370867,143.3513071895425,143.36135803177152,143.33011571952338,143.3340782122905,143.31794871794872,143.3493637510031,143.28266284896205,143.34507828376792,143.38690544412609,143.36313664863007,143.37790764294718,143.3975254897468,143.3166766835523,143.38343452858288,143.3522187231606,143.2544382086817,143.30111130205648,143.2884257536286,143.22180225066575,143.1908333571899,143.23507345150483,143.23956276647496,143.20827031192033,143.34107642257862,143.31037630880718,143.23681583525854,143.29835578899292,143.3409110381265,143.26988433528487,143.3653257855162,143.33904315250652,143.368604584691,143.37867352773014,143.35353015219133,143.32231688489907,143.3177284289348,143.39473909935668,143.39834748549046,143.43473413379073,143.4112785610112,143.33401023939592,143.26839517466126,143.3349350723643,143.27096977149884,143.2048216890211,143.15974148531558,143.15280121257186,143.1631171207227,143.16440745824755,143.02899668609302,143.13687853996225,143.1537119153197,143.23253418778967,143.1345400474679,143.14685774764723,143.1465527098102,143.21040432655164,143.1967681967682,143.2144921729674,143.1789810921365,143.20842514952923,143.23242159530287,143.16649972812866,143.1628519111925,143.2019131630198,143.16582597730138,143.13786580297514,143.08890673396812,143.08126417314924,142.98875082503514,143.00356086494557,142.95826391681507,142.99847692396114,143.02985631112514,143.09310334930976,143.1110026135156,143.06370706230092,143.1744617242073,143.13735175027998,143.1173463526709,143.10954022988506,143.07818113880026,143.1038120975161,143.04852666379188,143.05450884510284,143.06742219409767,143.19211056723293,143.07043388191966,143.12601848386262,143.08934638640943,143.03722699245088,142.9615107810116,142.9904597204208,142.97417123090227,142.93157515492146,142.9128014307142,142.91070862054048,142.90563969421606,142.91538816472487,142.9261578415813,143.01189685541854,142.9784610942688,142.93658902646695,143.01735940614077,142.9538670284939,143.06004972822944,143.01560152548248,143.10773009680682,143.1127159281299,143.17177204947404,143.06627967423324,143.06166738910562,143.11924087928594,143.11228617660657,143.06076183325152,142.99956687456688,142.94494459833794,143.03551132265974,142.97982476366153,142.9632543662459,143.01963837702223,142.96952940498818,143.02364427036835,143.00337020394053,143.034198860038,142.99059534081104,143.05731696800711,143.07302773386982,142.97084589975586,143.05644443167782,142.99489078331754,143.0737540192926,143.10750466350984,143.10319487900796,143.03647119637012,143.03453125897008,142.88631802282242,142.88395238778145,142.8217858678515,142.8081535460179,142.75458820830465,142.7497994269341,142.76194297177247,142.72909143020922,142.74619638405775,142.70045225555302,142.75188938509103,142.707874488716,142.82578078035095,142.8950910757246,142.90358032111274,142.86614984123352,143.0117320513921,143.02935136060242,143.36072772898368,143.2733491036566,143.27741659538066,143.18352498074015,143.12970579834334,143.11393887460724,142.98186802204393,143.08617583988564,143.07175965665235,143.0016582799634,143.06223175965664,143.04711637487128,143.1222947440742,143.1135003579098,143.04991270999685,143.14947169487158,143.16352129213323,143.1331349944217,143.29925544100803,143.2004347328681,143.29441420796334,143.46380804775845,143.51935557980588,143.47245586335583,143.4834332597034,143.5366631243358,143.52560863573726,143.52749777433158,143.4872825400471,143.44795523030564,143.5220288356597,143.3856777787349,143.38649091065736,143.38503733486502,143.3133415635497,143.32561010623027,143.41443435272475,143.30403834562728,143.35737064383602,143.3231357003332,143.10998453342498,143.1287752879821,143.15452722063037,143.07772080098547,143.19499956991714,143.23443549080898,143.27503372269896,143.27766143607104,143.27324630612537,143.36590406751444,143.3645917078213,143.43914492587058,143.44727314522154,143.48996665133396,143.3769507113091,143.2202167102578,143.32732913901577,143.38978471443764,143.3558021213602,143.2469238730451,143.35452322738385,143.20321301299,143.30613888729073,143.29307318196206,143.31151787256087,143.26408420326115,143.43205253758856,143.39938971731246,143.40545831414096,143.50512466171475,143.4241813891926,143.55511992619927,143.46869419964287,143.44714417319207,143.5783438022244,143.57594097642516,143.57409329412442,143.45787820272645,143.28356404869484,143.39506208406556,143.25748072275292,143.32122905027933,143.35069354327075,143.29240338651155,143.38145042786758,143.31279702756416,143.3032779808329,143.22700992377392,143.27124051506092,143.3103329308263,143.33172413793105,143.36592307250044,143.33523820463486,143.32933134191177,143.3941404566997,143.38762738624945,143.44363385702385,143.45898017159746,143.49438589438014,143.4305276454039,143.3902397014497,143.36535369774919,143.34267680390187,143.22874430074842,143.3066988117789,143.23928704687006,143.21640078044302,143.24098182026725,143.16949055359652,143.25895648681984,143.10635738831616,143.18621717692926,143.27174162459843,143.1671107291219,143.2323802429521,143.30153863786137,143.28186920169512,143.32186542152454,143.27365648352279,143.37900106026305,143.32508661913351,143.3851883684286,143.3761877504293,143.3825332263978,143.323146106035,143.27362272362845,143.24190268908043,143.22147132098164,143.2016551645142,143.1961918396564,143.15999885449182,143.22667392175956,143.20669702958952,143.1811285104921,143.1472659604924,143.15977448988352,143.19864934470326,143.18074116468736,143.22272492984365,143.20323900540788,143.27675836601495,143.1838922720645,143.3269963065823,143.24354866395834,143.29506413192854,143.22979198260322,143.34415342779448,143.37205840251931,143.3729366328136,143.34542230357806,143.32071907024675,143.28476157765184,143.20510986495765,143.17168511052014,143.14728593490818,143.1453448473064,143.1912670007158,143.18183119150518,143.15495779081414,143.12834744792858,143.15672752246323,143.12036957578877,143.1422809576933,143.22512295550726,143.2526442170259,143.2572408863474,143.3520732056048,143.28866333095067,143.29344623394456,143.3328376987304,143.25972615270274,143.32683066361557,143.2734649561416,143.3835044470501,143.3873366316813,143.3895465202722,143.3663261510287,143.31868257647295,143.33515493118938,143.27670778124374,143.29371350051528,143.12079021098975,143.1825001431598,143.17814182609692,143.11424073278945,143.16644226086459,143.1808150865528,143.1500315312733,143.14653862691702,143.17731716407212,143.15798521574695,143.19832602402042,143.16549174690508,143.24263292301512,143.22783357245336,143.2004704802341,143.2002179711475,143.28861508415187,143.22121403549073,143.26296009409876,143.3498505403541,143.36694428489375,143.37527320832854,143.3183949374371,143.3057440202392,143.26672803636154,143.21370052030932,143.31253057114085,143.16667624906572,143.21920133494447,143.2082206753725,143.2125503742084,143.12738670347366,143.2427296285632,143.23761264503497,143.2816037328264,143.25328189774297,143.261251403726,143.27971323275366,143.31805347470325,143.37847182205832,143.34187419029797,143.40581041511166,143.74287272831674,143.69174938321189,143.50236572706677,143.34704583894734,143.27342316513761,143.25425431170547,143.19168796852114,143.16529352662553,143.20515765895124,143.18803467876214,143.23823740490886,143.11864747046002,143.1471449067432,143.02188001835285,143.04736102749348,142.96047317618078,143.06989077774273,143.06630942487894,143.10474580157046,143.083042008138,143.0361000487064,143.14217778669035,143.14836344892757,143.1907598888666,143.15969081019182,143.1247492980345,143.11801794056115,143.01188090466647,143.00501102425335,142.9968216699118,142.98218377635197,142.91045459750373,142.90301452923006,142.88837714906884,142.87191371269992,142.93826594891766,142.81650929899857,142.8765696959295,142.89164307973812,142.86983736816532,142.88749749835605,142.92867760562575,143.05348863831492,143.00797347889457,142.91502128753893,143.18864353312304,143.32325000717503,143.2983024602856,143.32331085927413,143.0280232192388,143.0128131792701,142.86668763222596,142.87287699433864,142.86394168929542,142.90042893909066,142.81939483985258,142.78887650404414,142.78092952838003,142.82713085234093,142.72662650946359,142.7775078593884,142.8132712522852,142.8271065409883,142.91203796346588,142.95192637475705,142.88304010053696,142.8874921433061,143.00151454535063,142.98391979892608,142.97100331390698,143.02358921635823,143.15712528252223,143.10160580604605,143.06890343231117,142.95182615151774,142.9679097013859,142.91922077180155,142.82890830192989,142.89483458088108,142.89946001542813,142.88426918131162,142.87078443130872,142.8492544135291,142.87270337457497,142.83281000228362,142.8128836983524,143.07193791345685,142.85908052541404,142.95212933078176,143.02161234991425,142.9331372100994,142.92912014164548,142.95668818924634,143.01674716355635,143.08395047608155,143.0421846866158,143.02730882394948,143.08347378945865,143.07833442885314,143.14228084229802,143.04945652173913,142.96435003859457,142.90901294914673,142.95871953312735,142.93966700995537,142.96603913939117,142.94454459610267,143.02096159903783,142.9173149525226,142.94102490695678,142.97814505041248,142.92368684700156,142.9431893021791,142.99954173111072,143.0491718723136,143.0477240826148,143.05847115136575,143.0575776682334,143.14827141012768,143.1900484949353,143.04563162417645,143.15881796554788,143.16244266055045,143.2011067465665,143.1680245567732,143.16521764081375,143.19788077188147,143.0973720449851,143.08949952622964,143.1055140723722,143.09093259782796,143.14498419085945,143.04687141874857,143.21209693571,143.36341770702097,143.23259874069834,143.32102337840936,143.23261878833037,143.33144987810124,143.31337886701488,143.32100324274685,143.31444409340264,143.30907733394596,143.31635789171335,143.24049143152396,143.3808100261577,143.43111533039902,143.22760700948004,143.2442712975475,143.13888570445948,143.43903347855996,143.49630181755634,143.34511803804722,143.41367236827,143.2611826815482,143.26235250208148,143.2326122554512,143.30052617959115,143.1465165699845,143.25296703928274,143.27529526710538,143.30126713214378,143.36743370967278,143.27900298644613,143.35880494110887,143.3708116799219,143.3281151260987,143.34960399449037,143.347291134884,143.35644842123375,143.30729749103944,143.2405310089744,143.17398653488038,143.28013076018698,143.09340895419783,143.1642077520268,143.12294776653965,143.1180076189385,143.12731958762888,143.14564525836127,143.21022303766986,143.08094189007468,143.14969219756622,143.21405266170578,143.25136549515284,143.26578187122794,143.31997024065012,143.31104052197801,143.41421575646496,143.33076923076922,143.37235046769072,143.3924517512509,143.3854905099474,143.3637636436368,143.28693116853418,143.27650757359245,143.1691090353358,143.11683750678125,143.1054209985148,143.14124439109435,143.051931367231,143.17277950887626,143.1587610012573,143.10487212458924,143.02115208951815,143.09326365687198,143.13114285714286,143.0951116441094,143.0537278511713,143.03050431906948,143.15914217995945,143.2182664306515,143.12378723889967,143.1543312029217,143.21675326900018,143.1548937871174,143.21513569043745,143.35862108392408,143.140925043513,143.18046078739258,143.13631693115653,143.13337332533493,143.14765388352288,143.0423813464996,143.05477496001828,143.02861140458583,142.93956341846197,142.97944090688443,142.9187854921097,142.92162401209734,142.88090553987396,142.9918081918082,143.0093911454914,142.9771488888255,142.97024675509914,143.04878326455102,143.22513029362344,143.1477783467031,143.19390400227888,143.09813137355437,143.1835000997748,143.16840634268766,143.15002138275125,143.2309603358177,143.1309088833067,143.0421626559333,143.089049510042,143.00428791950145,142.9402443898818,142.81864368078547,142.86509886844212,142.87842666437984,142.9552892041879,142.8546519937116,142.88062348062348,142.87187625092926,143.00836053369983,142.97710753734333,142.97807795775856,142.99822481818703,142.98914879606036,142.97166976677636,142.99533339059235,143.01048079951892,143.06834594222835,143.08979170844913,143.06178181505572,143.11043946599438,143.17097079308664,143.0574623655914,142.97481086657496,142.96395802270902,142.98213158951415,142.92241255631114,142.97056965659814,142.92455481317924,142.94594517255194,143.0596297462016,143.0300369024802,142.85447835912692,142.89306482568966,142.98069808128028,142.95035847433323,143.0668007470191,143.05992584715315,143.09573642296525,143.04366950321986,142.99603174603175,143.02113344259467,143.17254992363772,143.1821926489227,143.06646316880725,142.9815102816658,142.97193811403383,142.81563426072447,142.80863416877443,142.8978707529844,143.00424677187948,142.99621125143514,143.08929904127677,143.04494704514795,143.0650539485767,143.03934228650138,143.02982461176336,142.92670547414906,143.01748894377118,142.97630590057656,143.01082400229686,142.9755614835212,143.05605786618446,143.03895582329318,142.96840718357058,143.05434533363908,143.06251433157533,143.05151862464183,142.9212907289698,142.83033235049953,142.8479381443299,142.89327485380116,142.8401741471658,142.82268224245547,142.7832245879121,142.82455889092574,142.8444342673956,142.7875744047619,142.81863179880403,142.86954903364352,142.8415753796871,142.92581466540784,142.91147962830593,142.82657406613507,142.95505617977528,142.9800200085751,142.92943698199485,142.99816991221297,143.049334019322,143.05257446383186,143.0168886094759,142.99333790816036,142.95666342690527,142.8609150401509,142.8707510220418,142.85627698201677,142.83038596691713,142.82255252250965,142.76451935437794,142.75424720897695,142.7692197811616,142.73080438756855,142.7843254817987,142.81520621501198,142.86666666666667,142.84850820842254,142.8603050382726,142.86451612903227,142.92352521068418,142.92392018042193,143.00745543875686,142.94098005080053,143.0774,143.0978167685889,143.02520336806052,143.07195292639037,142.9608542957485,142.9166309900962,142.9444682492073,142.89799822953253,142.89235248779653,142.81734364741814,142.85224417542256,142.92295170916984,142.8773738469886,142.79881893133256,142.806492134639,142.93946233180014,142.84505193471065,142.88650376798356,142.90821076681422,142.87972263440247,142.86147877681424,142.95799543118218,142.8888191850352,142.9657641722062,142.9050212426221,142.99737607666418,143.01762441180665,143.05336148841457,143.15130563967773,142.94590509866546,142.91276832292826,142.87085554636943,142.86446478993753,142.8853170411397,142.79764518060267,142.83782241497374,142.91646212683372,142.8456798927461,142.85371422048456,142.86208471286676,142.89057325568118,142.92807603390702,142.9329499188566,143.22420222608102,143.27245551601425,143.27164434311769,143.1182973388797,143.1612148866391,143.15761676373188,143.11934508528725,143.2329209405983,143.15784515244948,143.25537872510643,143.1664093326471,143.09525035029023,142.98916337850974,142.98901507566438,142.9719091481206,142.99154994127926,142.99048846870076,143.03815830968148,142.96601134865594,143.0305194618937,142.96188044974758,143.04029640692764,143.0034753137835,142.9900071787509,142.86303961474516,142.84729148753223,142.90832687949975,142.88897166270309,142.87897979653246,142.92862675349264,142.88882197751778,143.02259870782484,143.02020433934106,142.98960278025103,142.92179155900087,142.92102013268618,142.96548156238325,142.9552968233434,142.88430938909153,142.98631672751316,142.9002183531575,142.94868258483464,142.88301995119852,142.894529678791,142.8987854251012,142.8578150103282,142.80786964116956,142.9247256515775,143.25650270409477,143.23874324594757,143.1101106251608,143.05118166490442,143.08603687294556,143.12180201812308,143.19494337032376,143.32710173184998,143.2251461988304,143.17693255753963,143.16730201496173,143.11563923996218,143.09252628262053,143.07905138339922,143.1172204225554,143.04514595090092,143.07690985156742,143.09255014326646,143.13607839766183,143.12888532386054,143.26627286803924,143.19543750178894,143.2147355163728,143.29004725762567,143.3034145224534,143.34300844425363,143.37336157060273,143.45523220877328,143.57049978519262,143.5780556906963,143.4643592088716,143.42633801209632,143.61892254546493,143.52620018826482,143.45731724708367,143.3960876012319,143.36649558026804,143.56667807437827,143.6465706544988,143.62899269906455,143.60128314798973,143.50511994067145,143.48587490012557,143.469656314227,143.52816660001142,143.53950641997199,143.48977025945823,143.46878034847185,143.49431168534187,143.5550250178699,143.58017100860764,143.58418615287863,143.6083340478436,143.6731390660299,143.6724636022997,143.56785959295678,143.50211585749415,143.49581105424184,143.45020580836953,143.40387472854042,143.31539846272537,143.44921528829937,143.31341919639033,143.37935863724707,143.3994454924827,143.37809338743784,143.32548112614927,143.34255027422304,143.35613894760897,143.4113260378868,143.390308017601,143.48474111327008,143.37978009424532,143.4457834765971,143.52901492195986,143.51979080334942,143.51731038623174,143.64654925953457,143.6189877397045,143.48534620658134,143.49136649514008,143.44707966624756,143.38817612938252,143.28342566679993,143.33754285714286,143.3170494800594,143.3064907621577,143.35391876430205,143.34888374353258,143.26954632514793,143.28311168311168,143.23292449323841,143.29110882251973,143.24600200257473,143.32768684903286,143.36567698342256,143.37084670027497,143.36770350002865,143.40609689711485,143.30279169649248,143.41666428060128,143.51553239614051,143.59369361629007,143.589804573328,143.47680980892085,143.50854210858225,143.42770738978388,143.37053494639068,143.27149813806932,143.2621183889924,143.40735741772443,143.35149168100975,143.36254053898918,143.30952927669347,143.34330201959264,143.34964814016948,143.3711355016665,143.348163253583,143.36298359996553,143.43415152908716,143.36751940212704,143.30051992071927,143.3762982996231,143.33708155987577,143.3159149669635,143.28722487213378,143.23805965860106,143.04339335458488,143.0467099219109,143.03446790176648,143.0113518795264,142.8896955436311,143.03520339420348,142.97573274503625,143.03343839541546,142.9726298291872,142.82690711321024,142.8460371091513,142.77147348863798,143.06586329287842,142.92222349308017,142.9038714473609,142.8778499299139,142.8537849289968,142.84392716028174,142.85998625350823,142.91433316154155,142.89257762105444,142.88916256157634,142.97948452719592,143.01634728646536,143.09119921796383,142.986185703208,143.0389024565436,143.00571248134113,143.13717830882354,143.00315747172627,142.97133757961782,143.02619122751656,143.11996901804412,143.14835858585857,143.16248314638975,143.0709620122615,143.16538119677725,143.10939739693825,143.11581661891117,143.15325538743696,143.12102129608428,143.12493916230068,143.22206627903645,143.2619511078033,143.18462948115908,143.11897400664148,143.05033605033606,143.13049702244618,143.04489013504235,143.0023173313498,143.0481776048521,143.00683794918746,143.07399667945268,143.06500644053241,143.01244777656956,142.98811292719168,143.13226498783803,143.12592952751402,143.11118735168824,143.2378663003663,143.1360713367058,143.22991990846683,143.21544308861772,143.32664150080072,143.296566315007,143.29563378671847,143.33702210402905,143.2667885400897,143.27853816041375,143.2264636132461,143.25514955860928,143.26605714285714,143.20089196374968,143.2060857142857,143.2177490785451,143.22309868815913,143.24285550983083,143.16382164877825,143.17214098023535,143.27446048306416,143.2140898183065,143.30841789338288,143.26144836451937,143.25747835776122,143.32286098167577,143.32859837658626,143.4205062205062,143.36558126249642,143.45375003574185,143.46225525225097,143.5172049156902,143.52975629267735,143.37569218473482,143.42203564084988,143.38550294168047,143.33944587260783,143.3600857142857,143.2619645916619,143.2988486043256,143.26797759231738,143.16544873258735,143.1839549894328,143.19881220911972,143.20519191226867,143.20770877944327,143.18604252889966,143.25024985008994,143.2870645345517,143.34189328153565,143.35830404845575,143.40313821881787,143.42554346273602,143.48415035015006,143.448488657791,143.4582107037746,143.51503630438512,143.5888965162176,143.4657898498928,143.3541231956553,143.41550081538065,143.39207212364053,143.33203616802106,143.42893968035744,143.31465949102568,143.31489069081115,143.35043958876255,143.3807996334059,143.3308602366152,143.3245945791072,143.3737570564805,143.45074703908693,143.47936325828195,143.47770097800213,143.5010178627749,143.47007052347917,143.5395314157896,143.57859541371295,143.55040027545837,143.65078362707388,143.56720144648853,143.67856014249188,143.6212560663929,143.60033901226765,143.4866090650745,143.50504035153222,143.47938396115276,143.43413947610293,143.41900275735293,143.47201218986285,143.49347363578863,143.444144040497,143.3490631107024,143.4614809489576,143.3190995124749,143.3345387750416,143.33133497791292,143.30230892632062,143.37249283667623,143.36740181355302,143.50622857142858,143.5021431020688,143.53538786701702,143.56410329657774,143.49061616248179,143.35581069888326,143.32555482562623,143.1474927937441,143.32713967183122,143.19841632839746,143.12582175727434,143.17430982692034,143.17825352757663,143.23888459446306,143.23582961181725,143.3082454732982,143.34347689045532,143.37875010745293,143.40281875734053,143.42362344582594,143.56674029662355,143.6259541984733,143.5435262418666,143.587351211817,143.6610475617098,143.70958023699538,143.59635132809362,143.62488881237266,143.5563432835821,143.48527514122674,143.45923398887678,143.46340484111505,143.38517754277362,143.4266231161538,143.49681857265693,143.4093928980527,143.42592751754762,143.4257397381914,143.4964604052621,143.44786295405063,143.37096174206656,143.42746017673807,143.47033061399742,143.44598655029333,143.52225944057946,143.42468613263935,143.5708396553205,143.71461324620984,143.54811129221355,143.46489346489346,143.5087102033811,143.50531016517334,143.40327793827407,143.39471877324485,143.5002719803029,143.39749277311887,143.3255122745849,143.37313005920882,143.35122383621183,143.4693106704438,143.45657951135877,143.45017005344536,143.4714420412012,143.43856499686555,143.7392966142788,143.69948496144323,143.72299800512965,143.66811891337775,143.68653019389004,143.75195718393257,143.71329706946145,143.65491191059922,143.5837944213108,143.58040860583233,143.51171083787406,143.39887015321406,143.44702657949583,143.34957935263083,143.36719730685837,143.3772232848945,143.36041101755387,143.4441461255034,143.39560564987872,143.48758961469252,143.49170687144937,143.56087391118092,143.60547733957793,143.57100870309603,143.58187476800958,143.61389641889,143.80503755318844,143.81432118496534,143.86371287552424,143.7861663910589,143.75659489519464,143.65153112092295,143.59702002791943,143.68347067377604,143.5576177443266,143.58997748068757,143.60252608770028,143.66251247682874,143.63145593432904,143.67090484064084,143.64647530001994,143.61858608893957,143.62052363180536,143.6536411571897,143.76209493382018,143.72790279798068,143.7701097022368,143.84059417232137,143.81492043574974,143.79671691983242,143.82925647166152,143.89486594409584,144.00456334493182,143.96903424481766,143.97077107334323,143.89953244383625,143.9218157452026,143.88678115015975,143.8751711156742,143.81804965650923,143.86100253915723,143.90829980883905,143.95015407441224,143.9428922058278,143.7905617336755,143.88559769426135,143.88454620721157,143.90341363169313,143.97703578875212,143.87673422780475,144.0221733291425,144.04377768252607,144.00222742589526,144.0271088639415,143.99300379793826,144.11253109186038,144.127332476068,144.0891086279329,144.04177620299464,144.0847079676377,144.03551733005685,143.98408624229978,144.04205394309176,144.00997349898842,144.00566838522232,143.98458601629721,144.01698586411308,143.9678109140674,144.0143505178169,143.89901723401226,143.9281298960262,143.97559239006608,144.03742583295298,143.9121192260565,143.98932709320243,143.95492130474452,143.9650615134302,144.00640036573517,144.09763068392922,144.02089108627933,143.8647342995169,143.8332713595149,143.81177042801556,143.78903835145965,143.7628172079968,143.8311595241508,143.78198074277853,143.80704871060172,143.8299232003668,143.82694624519533,143.8768357044516,143.74388427384704,143.764982508459,143.8344610091743,143.8610601193208,143.90665556448835,143.92677884339287,143.9464752333094,143.9631055686455,144.05945713054717,144.1790178443148,144.06940814978606,143.9339046690934,143.92436757873,143.89547148179994,143.9330273913667,143.88174600899944,143.91391773277493,143.78709991690306,143.8108456514266,143.91120919434812,143.84085830516244,143.75115246957768,143.8234115053117,143.7956327628642,143.79169647200206,143.80096101593114,143.82449014616287,143.90006010131364,143.86820041777548,143.85419764382934,143.8501444218835,143.92459522855998,143.80718655308445,143.68150900257217,143.65271787254707,143.75875085792725,143.66619995999656,143.66824807087738,143.69556641797445,143.63047825838524,143.6692735835593,143.79556341240877,143.80940312108442,143.78793142726963,143.73974085148797,143.72039183301536,143.69689288867372,143.67610331850838,143.73117268114703,143.71921617844205,143.78367428457304,143.77941092528113,143.92594285714284,143.88025234071705,143.87301270158412,143.7524899403556,143.7123377549565,143.7797921543996,143.66332648167182,143.65625446135397,143.6743269862114,143.65268657568663,143.60375581494907,143.61956832067608,143.62978711260772,143.64517602718215,143.65558886509635,143.6172864149652,143.70314774121744,143.72941579382973,143.71170476924394,143.74379103625463,143.79064918744467,143.7301351890936,143.83857615894038,143.7986186426166,143.90235892163582,143.87309021332496,143.8479595624982,143.7998515727579,143.72946212013127,143.79312018270053,143.76723473494906,143.63204155013983,143.7056102783726,143.6622783219579,143.7336570041411,143.6760322083262,143.62225266883598,143.67359465555143,143.70291406227702,143.7522419603587,143.80258234067472,143.8297817641682,143.796217170854,143.93490079986336,144.02760369188695,143.91214234875446,143.91031594541465,143.88964278587108,143.98472476016445,144.03999771441633,143.89136768738575,143.89944565093154,143.9476138704509,143.84670384670386,143.8970226166619,143.80594665750917,143.86537359614942,143.86113737286922,143.75928154004814,143.79719117225565,143.87346891942286,143.84484834585172,143.92219003642413,143.93716842075077,143.9334098407689,143.98267106584422,144.0151184806931,143.99575334997562,144.00040171013745,143.9349852304339,143.99245337159255,144.01746987951807,144.06650012921008,144.03724961258106,143.9759738209375,143.94708160045892,143.93988067921066,143.95619244341165,143.9156412242205,143.99804883647528,143.96979865771812,143.94779542457428,143.9130596801009,143.9123993466487,143.87700856414517,143.86906227630638,143.91751632489402,143.94346643766997,144.05708396553206,143.9813097486977,144.02118644067798,143.9686793856011,144.0438450978149,144.10413923398409,144.13857474160392,144.01810485370248,144.07289430754702,144.04952364603898,144.00646342160957,144.0866590323504,143.9904159752818,143.92985364738166,143.99593949272253,144.04094285714285,144.02505714285715,144.04415621436715,144.15611285266456,144.24344975053458,144.13235126510145,144.05556030429952,144.1050741163056,144.1484600234065,144.1176923735342,144.18768387078347,144.19598937355386,144.1769175832024,144.28074186265823,144.32290237768632,144.3908160932678,144.4733638182338,144.4516082916369,144.44471153846155,144.22828352031058,144.27314298779618,144.21061051909837,144.34324687580428,144.28997111727531,144.3558278695565,144.1893807332895,144.2383470035152,144.24433004433004,144.14044863551936,144.09872838976997,144.15346138455382,144.2152271492695,144.22217137627274,144.20882983283326,144.25607663711753,144.34759235960198,144.26979589503173,144.36351679771266,144.36387801183298,144.4077567235417,144.42949066262477,144.3555828711909,144.40775588411933,144.26268255737517,144.3245962555381,144.2408111896113,144.26559908492993,144.22948054547015,144.22273364018412,144.21806791200618,144.1632192446146,144.2007949443825,144.22073836826902,144.2419156540386,144.24537579690673,144.211766051112,144.22052775873885,144.24935659136403,144.2762318757686,144.2947500857829,144.37202389458943,144.37147514728593,144.29175010012014,144.40827538844536,144.33062671546202,144.4132089509529,144.3648675733715,144.431901489118,144.31976877289378,144.3149081124406,144.29833099539093,144.30591605787137,144.30474907569288,144.22162394386368,144.2624351366073,144.22817579771223,144.21688784430623,144.19315284343216,144.19351881034927,144.279311827957,144.30901582931864,144.30767686616386,144.2762841091493,144.36149036255162,144.3396221005247,144.34660623099433,144.36657767059972,144.23359903658675,144.36356068434952,144.3691906304653,144.39641034462986,144.34602829162134,144.4088241188765,144.42779876373626,144.4165283580381,144.328231827674,144.301676297271,144.22067111022113,144.26388451293215,144.24393666065345,144.2372158277501,144.3442538446118,144.2687489274069,144.2433166547534,144.4754037231449,144.38764350539665,144.48390333400224,144.4668443374599,144.42161775232643,144.466475726765,144.38313956818052,144.55253353204174,144.55288323884784,144.58419726215706,144.5074789074789,144.43634335402305,144.35344901517968,144.39270386266094,144.4557762766201,144.3584619782733,144.43719067372336,144.3550111485907,144.3591018169352,144.40329817942782,144.30334638356243,144.2448589055181,144.28311910882604,144.19049521906663,144.2823919316591,144.3808734896741,144.29232653526262,144.411324725556,144.51559612158434,144.53697804073275,144.52484003981232,144.4986198457642,144.47267813966718,144.66908302177575,144.5466430691939,144.4582417268652,144.49791488146244,144.46496669620652,144.4740319167191,144.2825882285812,144.29686920288822,144.36772298126016,144.34074454136024,144.35986090129123,144.6116418764302,144.55683897529735,144.51288497800127,144.532765568289,144.53555815880455,144.57046500328676,144.5680960548885,144.6007663273476,144.59346154945274,144.55455558412618,144.64427611833642,144.64639794168096,144.63780247407365,144.67284003543972,144.60764811797995,144.58233344760598,144.63534490151795,144.56537890044578,144.56937457123257,144.50057175528875,144.50398651158804,144.52970268724985,144.52568277911095,144.5111834775902,144.47900288728167,144.4489778413152,144.50989815768395,144.50675211718928,144.56942139300637,144.57263856697284,144.62887571931634,144.62273169614747,144.6458088719608,144.63323126234152,144.6555386949924,144.66715349369989,144.68081634989696,144.67436529314,144.57234109592966,144.66101889280696,144.656553780862,144.58123064571626,144.5466433426056,144.49066345409173,144.61040638273448,144.61821366024517,144.6563487957694,144.66601540052866,144.70286190448826,144.69108444801654,144.70293307312593,144.81964859898943,144.81963214828843,144.7695000860931,144.7512339302112,144.83948063886015,144.81165082009593,144.7824988516307,144.83226102941177,144.80123421354764,144.78427714474327,144.76591287378753,144.81647531572904,144.69299202203985,144.664390831636,144.72675069625888,144.79019894927225,144.77138431530034,144.7834223064118,144.75956158723784,144.75739322490892,144.7363131370977,144.8778029153183,144.84703052517037,144.80149373318835,144.8423748211731,144.83777135829305,144.81502014688652,144.84178806055414,144.9780053199096,144.8901664664493,144.8035356713771,144.73159368926488,144.80283018867925,144.78920139484364,144.79607764658795,144.749606929476,144.72348636441598,144.76641688593983,144.78507291964542,144.69557512005488,144.6838857142857,144.6054097283711,144.70594285714284,144.757613015755,144.7132575541212,144.76634285714286,144.8357859245078,144.85238639611316,144.81000257062067,144.86167023554603,144.84781677470943,144.8312630286416,144.779307980228,144.78163481043399,144.7626881444035,144.82885378880923,144.8357287767523,144.85328725652596,144.84779504169998,144.79492666780803,144.8675651751806,144.87165286896945,144.8709622140348,144.79598709935212,144.83778538812786,144.94714008448452,144.88157106591746,144.98872556015414,144.871028463864,145.05236693997657,144.9508051621745,145.0038246375157,144.99246274196312,145.0258057149382,145.0676466390752,145.08184128615895,145.027783330002,144.91555403400662,144.967562319751,144.8866120608465,144.9599794473624,144.94392763383175,144.96089576965923,144.82881597717545,144.87789834380354,144.87852841282074,144.83753637245394,144.82062320038773,144.86763111339383,144.725413688018,144.88211474848865,144.86531986531986,144.89773148808675,144.79188164533508,144.85387906446093,144.92195608782436,144.92209199532323,145.02825826340126,145.0106434584106,144.974450369272,145.00416714236786,145.0264539695223,144.90096356690805,144.992182596291,145.010733350461,144.9195205479452,144.86238977198138,144.84657502994352,144.79897333523456,144.8942755174875,144.97032785012567,144.8079205660808,144.91923461373696,144.94114287346147,144.98522688307236,144.9531035665295,144.95847028896446,144.95596550345536,144.96569649538716,144.98926235828313,145.04064366764797,145.00028558373316,145.03109282121628,145.04217780446655,144.95958353594006,144.98526382053336,144.99499227379386,144.92556782424623,145.01425749377307,144.9929871765514,144.69920739008953,144.76968953315833,144.75443095685873,144.85881515237824,145.0886126589513,145.13165041882272,145.1577864166476,145.06764251815426,145.0820918994653,145.14934953292453,145.06253225528988,145.0031243729756,145.06650606555968,145.1547219593335,145.210019488708,145.29736932599724,145.1876002750401,145.16117016704393,145.1298143053645,145.1487788097695,145.1269277073898,145.07517397405425,145.07225499742253,145.05153753650575,145.06473789745058,145.00128862289168,145.00854259832587,145.01925280770112,145.0515082934655,145.07299541809851,145.1425747679615,145.1510762537211,145.26746084018214,145.21705026909424,145.13544289311056,145.16912943871708,145.2605942523137,145.25831781057457,145.19952412349855,145.23514219301518,145.2146503757242,145.22783576098178,145.3238223727646,145.22014347202295,145.14118119496314,145.12852430804531,145.06916021782746,145.17385440876876,145.0810702302773,145.07652592932538,145.06037844036697,145.02769892473117,145.09949820788532,145.14962843944568,145.11320051598108,145.1582285747087,145.08887169346286,145.09190459809656,145.20539889268196,145.1510104629497,145.26216293746415,145.0895304168339,145.09330733497734,145.0901112768154,144.85915009300328,144.83032955715757,144.74443554385763,144.71343206770356,144.77940881906886,144.76245780651067,144.71278634140762,144.8026473783521,144.85195139385274,145.03716332378224,145.02375017905743,145.01583529007502,145.03575620509002,145.17762931528844,145.0352187222842,145.07387371915965,145.16340730136005,145.15249334058947,145.11046211991066,145.11138791054606,145.13748460458854,145.11484377237448,145.12597748560626,145.01433968744632,144.956781819743,144.89711015736768,144.88446682498355,144.99704879516347,144.89090544757107,144.9260458452722,144.918315270371,144.93937134335206,144.88167665357378,144.9935128308169,144.99454712432558,145.002326115674,145.08467660833836,145.10905485789823,145.05257106723002,144.96658923399008,144.9606723846132,144.7682472335302,144.74339200733903,144.83999196372196,144.66997248337537,144.68846628230503,144.6255272748142,144.66237194754513,144.65516548497288,144.67611173312665,144.68949771689498,144.68164331649058,144.6917664627667,144.6632591529074,144.67160536365463,144.72145046257842,144.96068880547836,144.97255957836848,144.89040703503193,144.96286730945823,144.9291847342274,144.90741326281295,144.83396161261547,144.75450152447794,144.81291214328908,144.7352076971827,144.69318574887583,144.6410943896673,144.61432896064582,144.607621960015,144.58853400271215,144.66103603603602,144.64566497344725,144.64496495226007,144.60592255125286,144.5794403296925,144.6694329183956,144.68461361280663,144.7100627482586,144.78172982920236,144.78021219701543,144.71974705375106,144.68514157716388,144.64555000860733,144.61166413264868,144.5846475884613,144.53494107188942,144.5317148671501,144.6175062358439,144.67766628440367,144.68978269594632,144.68161370734362,144.67980182708556,144.74388427384704,144.79377899982816,144.86887781405738,144.88225353726298,144.8694170865781,144.9276842948718,145.00538126860545,144.8993052577408,144.99401934413095,144.94524116215828,144.93810478099056,144.98026862166728,145.01826994780015,145.02532698485544,145.06162537279192,145.0776064652949,145.17351441178155,145.15739733088952,145.24005502694027,145.31488702832894,145.20931698372678,145.25560486757337,145.32011802114067,145.33141400252092,145.34036765548046,145.3323409006327,145.37780641466207,145.4273234999284,145.48174889691134,145.31982820329276,145.28541165693346,145.31854630849418,145.3167244491562,145.25007877624682,145.22397250465417,145.28271831308732,145.29948438842737,145.23830250272036,145.27114470594972,145.21089701377159,145.15484738392882,145.242894352692,145.28145752232655,145.2476967095851,145.33794347564643,145.34056436380288,145.39561634428293,145.37896092743668,145.43477514098416,145.42562385531136,145.44823145604394,145.49577787319308,145.4614900074443,145.4501646385111,145.4763268696474,145.41005979800292,145.42426845330127,145.34783604305014,145.3340394469413,145.3060914868037,145.2896597120861,145.3463167534772,145.349255441008,145.32168933428775,145.35110920280522,145.36066183837633,145.33930462154814,145.34925629290618,145.41968555800568,145.44512125371767,145.52545470119637,145.71917045162397,145.62596008337377,145.61520651707875,145.47973841277093,145.5470948187121,145.47444002631804,145.51464818580143,145.4382073984928,145.4623612744114,145.43779780699236,145.35130175478838,145.3444556017788,145.38802329918798,145.32289066758472,145.36032621180794,145.4287726763074,145.34670956251975,145.2980354988799,145.35581816613472,145.31944125086227,145.30519237952933,145.37962457239774,145.3830001438228,145.35497324972675,145.42325407334906,145.18424903170276,145.32970567121322,145.26853207059835,145.22241364458608,145.2119540229885,145.1289618114422,145.08125664683396,145.1878433967149,145.30843033306442,145.33350628386947,145.32798938900262,145.28980744840308,145.2382530033707,145.34827536441045,145.31577884809505,145.33065144043601,145.41176810088592,145.38890491576274,145.39912318652478,145.36433661252633,145.45991110598015,145.3689446366782,145.46228836780017,145.3920200651541,145.36394028474263,145.2987701258677,145.27946806367117,145.29597535697835,145.18064107728605,145.14596693026598,145.11872342870274,145.23237014103887,145.35978245312722,145.42536928890416,145.29503318837263,145.21053384448132,145.35388939880679,145.3989955517291,145.31517777714006,145.4522885958107,145.39481168663278,145.42184400425495,145.38454461821527,145.48734996977808,145.4848267348052,145.4998851564743,145.30198417249684,145.3525817555938,145.28945481659926,145.28511199701722,145.2495122231149,145.24857995295199,145.26250394559383,145.24972752825101,145.25486933822896,145.16285271851342,145.2571805687068,145.19000889501018,145.2600786204126,145.2024130222961,145.24682364413343,145.23413278317432,145.2344659498208,145.21553899082568,145.36134309083081,145.35064115436472,145.3104001834652,145.37635303913405,145.20186931964793,145.25927942904642,145.13251597009366,145.13817316786563,145.0693727783511,145.0133860750423,145.0809974204643,145.09508920888072,145.0694934204868,145.08896154177063,145.01518102658113,145.0604975067347,145.07566204287517,145.15429603509074,145.19606944364867,145.12387477782238,145.14559266160242,145.21739877933464,145.197875924287,145.5766725704165,145.52515498671542,145.4017355065224,145.18511646494633,145.13811223761246,145.1389976843249,145.04054324517512,145.04748275565987,144.9642090807656,145.09987104169653,145.0048686886044,144.98912265636181,145.05495702005732,144.88659970812947,144.96354837785987,145.01581707212242,145.07934187519706,144.9974205382477,145.01014123241757,145.06286386188305,145.00301075268817,145.0950959855376,145.10370349120743,145.0518966654242,145.2010847730012,145.15104196566966,145.06586654415986,144.95541328127243,144.90268966903005,144.9081799649717,144.82622178831906,144.8104210949618,144.77911854277997,144.82776963109922,144.88286889253158,144.86927014436074,144.89682357003107,144.72661849876712,144.65868418033727,144.7260989326294,144.71571215425226,144.61395562181067,144.77820218265364,144.76523786282334,144.74304897994318,144.88102625984027,144.80419741035286,144.68067999081094,144.69490648970094,144.68973644123818,144.66595750797802,144.61240042561758,144.5618765630839,144.5952360403901,144.56146055130344,144.52874820143884,144.65641661142973,144.61815142519526,144.61086273039314,144.6134310698104,144.69911657716958,144.77953711462337,144.72198954391843,144.86015663381787,144.85838534442902,144.84887348353553,144.87598265895954,144.7482822333853,144.61497418740808,144.6254473046289,144.65563736105096,144.57956086442195,144.63890412540778,144.58944484498917,144.6786229167868,144.79348547358703,144.80276976341605,144.81512023528055,144.79828907195116,144.7882617080683,144.84876294591484,144.92567120370637,144.87402253909843,144.89589143497886,144.8426101441783,144.852130469737,144.9051011029412,144.85673245425033,144.7506388354532,144.78957944595953,144.7663948547146,144.72110054855108,144.85101184316431,144.70785196227388,144.86027812750373,144.95162628372,145.2659873708381,145.17666810159278,145.10235678651298,145.10827404177186,145.12014580522947,145.21707520331043,145.24897982642682,145.22416122818618,145.16717901571522,145.24201463624624,145.2413931719643,145.17282105807638,145.08453454315742,145.02975524375196,145.08160041360293,145.02778734642325,145.07800827491093,145.0278575531304,145.02876912917395,145.00866769990242,145.07611691742275,144.96651459068607,145.02853124372112,145.06759625867906,145.09166547123797,145.18134848876258,145.05731333008234,145.13571428571427,145.18768471492928,145.2414109813151,145.23786157024793,145.14164947271894,145.2055667144907,145.16951293016848,145.0824467322417,145.13002811728927,145.12413219347064,145.04843321134493,145.22435860807954,145.3391075665323,145.15204477952935,145.07149388501543,145.07833719301254,145.08266590389016,145.06230146238158,145.04613580458783,145.16930746970002,145.08426355257885,145.20025217790004,145.17307692307693,145.19837291242945,145.1738183901461,145.31638742253844,145.27454071250466,145.19956441999082,145.1595058614463,145.18288071502235,145.24987102321583,145.1909184726522,145.09819817239108,145.1477012153176,145.1433977409552,145.19712172467175,145.06624813668157,145.15056540956317,145.16745107042416,145.18691535150646,145.24852121977833,145.20789722708113,145.27760388249146,145.2558719779747,145.31902685333947,145.30343719515693,145.3652720385675,145.3890945616301,145.46663795578525,145.37428981348637,145.3943257523547,145.3426250215307,145.31948230837662,145.39831749404232,145.39706093808414,145.27714753439213,145.32983826951252,145.37634006840457,145.29443519209786,145.24188036642448,145.20743398392653,145.18028928940421,145.09138306405407,145.07314001087798,145.13510184203741,145.07196449026347,145.0424624194703,145.12575570900546,145.19825089605735,145.24633565671343,145.25531670965893,145.24703789769632,145.18589321028347,145.27368692808582,145.37159130134623,145.32571247807206,145.1966887988273,145.3346188160129,145.18645773433008,145.2722797927461,145.2025946381314,145.24073861021628,145.21849005555075,145.08571182696997,145.02988070658407,145.11420204978037,145.15266408157404,145.11554368430123,145.0980268259758,145.19983904808439,145.15235743410096,145.21434523980574,145.1251580278129,145.0069193224232,145.0199724122076,144.96317679161282,144.98850772855255,145.05236972276543,144.9589615461934,144.95425455589037,144.98570321247092,144.96015387265317,145.01630778064887,144.96302025149666,145.08098591549296,145.31954412355745,145.2489954075775,145.25140033895383,145.3398114075437,145.17521453376574,145.23073166527823,145.24403632810254,145.1574667394615,145.22166283084005,145.10706791986433,145.09877004425542,145.02388686078933,145.0420656143075,145.0888358449327,145.0256926083458,145.02849666436623,144.9376040888991,144.9618410474331,144.95646801907935,144.98483020168936,145.0400195357389,145.0567620360795,145.02636870224623,145.14389585009772,145.01225989836055,145.1187658009653,145.08073963477662,145.21326128819015,145.0386150268439,145.03139348025712,144.97101615634057,144.99354042259992,144.9391304347826,144.9225139905295,144.972779739857,144.8228751612441,144.84827803745017,144.844768242313,144.88885704459474,144.88088753834245,144.86422722327205,144.92670157068062,145.09786334552103,145.05327201576736,145.0113165490241,144.92989625903803,144.99470657243413,144.97714711188752,145.01607818411097,144.96987071066135,144.9034200040134,144.87655560016057,144.86719848489196,144.84562007168458,144.7772362385321,144.8613824515168,144.89875478380077,145.06698468921388,145.0163302595141,144.93132103489634,144.87350378517354,144.85367178343768,144.86239922236834,144.8185276284178,144.77848300311632,144.97146377102254,144.83916564136314,144.9341581464616,144.91937193776684,144.89426215426903,144.94567335243553,145.00579161649176,144.91076905437555,144.85619621342514,144.8215658158876,144.94574422276446,144.81476486959517,144.88080535370653,144.79543953361477,144.82886272257323,144.83022881453374,144.7803855103272,144.79907481898633,144.8274394801909,144.86224049686584,144.8116087856486,144.89233555657773,144.96674433992118,144.9471987101975,144.94022849578405,145.0150921658986,145.05645811729462,145.0641805239344,144.9421951992623,144.9369358978056,144.6686772942697,144.72717344446042,144.6645891374903,144.66071120813467,144.6199683953455,144.58500430910658,144.67786141116986,144.63048538667127,144.664080905591,144.6571256142771,144.70469837253435,144.76768956186308,144.76604989784465,144.76154023253136,144.81962681409814,144.7467909975249,144.80574630081884,145.01648887359485,145.15439109734413,145.03117203406842,144.86090247118858,144.77480423371483,144.7674578800838,144.71509423121122,144.7071572290888,144.73655913978496,144.81457182320443,144.7698102357677,144.7917049896528,144.65491502067064,144.76933459693862,144.7829232580173,144.83352006664944,144.868928694454,144.83172152552586,144.91865905111794,144.7961991572792,144.9459847310717,145.16895529262746,145.04674750028732,145.13868907176152,145.0360140262129,145.1111942230789,145.00626995311916,144.97441058079355,144.9441040246253,145.00126560432608,145.05580485559776,144.96254918291737,145.00853476916026,145.21270259435312,145.19341445955618,145.06502203651766,145.04296550737084,145.02359746842694,145.00618698441795,145.15268533394539,145.10702609693146,145.18995263384528,145.08707623472725,145.13089290841228,145.16486796785304,145.1693098890996,145.1259410378714,145.0714367750086,145.04607778320732,144.9591754708314,145.073073936675,144.91961387077313,144.97397299626545,145.05410844689783,145.10728762397585,145.06772450270208,144.97317094188952,145.0372508472629,145.015825147912,145.1369831502674,145.07158855961407,145.11942098914355,145.1386343397202,145.1721264367816,145.13772712920172,145.19108481488928,145.22547554738233,145.17016692044703,145.07441433164905,145.11821471652593,145.0516875215245,145.14679268047456,145.10418941440147,145.11449658262018,145.1710961068812,145.12348230431414,145.13194823083765,145.1433574463199,145.1006830836347,145.04077296350533,145.0688041793444,145.05838117106774,145.12135141346818,145.06522737712447,145.11225105612553,145.0815353233545,145.12167671547516,145.17996550732968,145.21157661672945,145.16309000545837,145.11228009658504,145.12511150116538,144.96591660200593,144.9702651406223,144.85451519412322,144.80758193192906,144.78410949470603,144.77374734546288,144.73007402306766,144.74643850144753,144.81961998108503,144.76138735596032,144.95972059202427,145.06751066937818,144.9814825414997,144.9580493671611,144.95031963993924,144.87119061953499,144.87438713192074,144.9416129494342,145.22612661713663,145.11311607091628,144.92072139232158,144.86236374067698,144.87814196661975,144.77365640790077,144.78262242379012,144.8483785648574,144.86352535555235,144.92605370593986,144.86515369146798,144.84037087005197,144.88038483630098,144.88945978529193,144.91476473459076,144.83797504660834,144.87548403751828,144.8570158839383,144.8127635164205,144.87496412787695,145.00597254924483,145.0510629728719,145.05236355266564,145.02826143264167,145.0098417266187,144.95591026747195,144.91666427030913,144.90872240110394,144.9578048149107,144.89449343636,144.98869910282954,144.92543103448276,144.91171569754079,144.87342825974622,144.9549893720917,144.87777363148376,144.8650798208338,144.9102368987796,144.8283474965549,144.85167436655283,144.83701110505322,144.99606412319008,144.92928075311406,144.83564276902774,144.82170209104208,144.87529344403092,145.05182769864425,145.0377142530117,144.8485688960055,144.73933053197268,144.74904115862384,144.7763199358295,144.73680288874877,144.72397087489966,144.7116156404082,144.71702981651376,144.7011372425449,144.68650213546593,144.7500645198291,144.8461141382277,144.8203812526874,144.81141645413646,144.90060526089326,144.94269562971678,144.8575238750753,144.80151489068686,144.801175795813,144.70014055015346,144.66912397452813,144.62244196044713,144.72369364974605,144.61097106846177,144.68280247479376,144.80130647795318,144.64898309939846,144.7146503025263,144.60916048038064,144.65047597201513,144.5991517652453,144.6249104404895,144.5908166480479,144.6562267178635,144.7111015613809,144.6969809807516,144.8150983427949,144.80810803062013,144.80628512444088,144.60573948905946,144.72004472861772,144.65304659498207,144.5811973163599,144.50211937220757,144.63831674104588,144.80539658921828,144.74449818275477,144.64072833462166,144.64644351464435,144.47624085086917,144.3977405977406,144.40204858230095,144.52274810909924,144.4398808500888,144.46890857486883,144.48347676419965,144.55706084959817,144.56494401378123,144.60684742647058,144.5947366908955,144.50919910308744,144.5146267798073,144.47020781236526,144.53499481984574,144.52489274093696,144.55879811016362,144.55341960400034,144.5117209998848,144.5600772401072,144.46077160227043,144.5189457292808,144.58779749026397,144.61205229588157,144.61185026984907,144.6353820837784,144.69029106569934,144.75438647203353,144.79477309562398,144.89325142708122,144.92600753841694,144.84835744730205,144.795957428298,144.71206586652752,144.83731863029598,144.73121956874564,144.7310263013223,144.91039416142954,144.999681399525,144.9971620525889,144.94880407714138,144.94543455618563,145.0433637284701,145.132329520776,145.07689192316593,145.07901355922402,145.0902803900576,145.17756332232076,145.1537458717191,145.16732317673637,145.18348544111257,145.1048179158096,144.99777057154438,145.12416690814257,144.9959729988122,144.99530516431926,144.98867716900267,145.0326748160593,144.97893579468186,144.99279868120428,145.04500723589,144.96882230448867,144.94087574374674,145.07066647390488,144.99956638626313,145.09500549164693,145.36191333120482,145.28701046467808,145.33487076842746,145.34323384526223,145.23827174794394,145.3267323861989,145.2389767657454,145.20912040792675,145.22688686078516,145.26214351959194,145.23331884687818,145.17925402525194,145.20794399282553,145.22397522000927,145.26049178903466,145.16515673391416,145.17997223186393,145.2179056985826,145.21013361096652,145.30185785391828,145.28426439972242,145.29530143125632,145.337593245822,145.34055960226615,145.34840517739514,145.46931334818717,145.30785249457702,145.26404071953266,145.25221213347984,145.19927735221853,145.1553103607637,145.20725792482244,145.31106749032966,145.3293998845932,145.28657569025705,145.29215850385293,145.33720057720058,145.32563170647282,145.36465124329314,145.34151335140436,145.37816241165442,145.4086648014076,145.39735863202515,145.37360198316614,145.4200663110855,145.51538040187967,145.45113757605466,145.43689096465434,145.37986910013552,145.39048305695746,145.3965288589056,145.3150507263085,145.3694780275269,145.39420832733035,145.43078693713136,145.57892163910856,145.5710835058661,145.54504672897195,145.43893952899904,145.42109500805154,145.4002474748928,145.4512680115274,145.39764733018106,145.37516939134446,145.4277303163242,145.4816675327675,145.54703963511446,145.62635139041453,145.51326129666012,145.51888564575327,145.41627430023976,145.4049765909485,145.4006938421509,145.30420459471173,145.3162870027752,145.35799971094087,145.27244089936997,145.32027390136085,145.36125896783153,145.29805440721574,145.36873156342182,145.3149299031652,145.39951987042286,145.45430348618544,145.4546822548906,145.44795345336652,145.49726554587807,145.48915153095217,145.38897888342493,145.41431714236091,145.39084486652382,145.37510128487094,145.441341753085,145.4059919450642,145.38037272121264,145.3460345976645,145.39592215551494,145.24483118086525,145.38150490224518,145.362017976225,145.3171672077922,145.32073885054805,145.1596092146718,145.20080379344245,145.22252739310184,145.26635595182955,145.35150408624588,145.3892158283809,145.39593114241,145.24606179726567,145.243853051779,145.12929141139753,145.11096028880866,145.0771828546688,145.05390431119062,145.00448752984494,145.2781647573542,145.1976944747887,145.13325095548723,145.09036508530164,145.22815267880327,145.30077989601386,145.24440206870648,145.27725316930895,145.30395953757227,145.31244942781183,145.2527072684744,145.23654112754159,145.32040433212995,145.33506643558636,145.33104225026713,145.33686765088262,145.28365148583475,145.36299786114805,145.30827675863065,145.19641309998266,145.25038282626912,145.19778663892743,145.18923445666925,145.2164754832558,145.15916115427945,145.10707893065418,145.09404768777785,145.218055314972,145.19010649658,145.20373578151163,145.3063281633596,145.30344349433787,145.3545115714657,145.3337665713543,145.4462392001618,145.29604294744135,145.24574729241877,145.18590817210512,145.0736091874423,145.16892340560673,145.0816167561018,145.05246289773055,144.9330198748089,145.16789208591445,145.18175507606873,145.27543991664737,145.24535122473176,145.23232965381726,145.23648238592028,145.29521276595744,145.3088770733399,145.31726629099842,145.33866635862188,145.4044226044226,145.37598265895954,145.37333834238817,145.36514222941722,145.33430593673262,145.19178280228994,145.23531113489744,145.18983972689927,145.18737164839615,145.22058908627972,145.2366670522906,145.2935474537037,145.3928178395598,145.26340689456225,145.5604221331565,145.63443185422253,145.47152573635367,145.45202755281437,145.43919386460615,145.38439356364265,145.55790324442904,145.40991888224937,145.37663087403303,145.47381344426148,145.3971918065467,145.32900633149268,145.25511177950662,145.2300211294104,145.19033836001043,145.17774369954574,145.25458967973591,145.2851100811124,145.2544606650446,145.2380097312326,145.31604265677524,145.3275372399003,145.33998376058463,145.38924013921113,145.2795318927061,145.29235582075717,145.42274678111588,145.28998725967108,145.41668597914253,145.31454298039898,145.34997101449275,145.32472912683238,145.2712134375905,145.32364532019704,145.23420031280773,145.26929430517316,145.28389302581635,145.24249797242499,145.23087174435784,145.27247711736763,145.230644507499,145.24002547918235,145.3328599994204,145.3313833946309,145.30329078753147,145.36838141582666,145.35193753614806,145.2610290931153,145.33678307123034,145.28951400734337,145.31830668247406,145.28264515382835,145.25424071665944,145.25336724666167,145.32944884622057,145.17958346572692,145.17447803863814,145.24535337476513,145.21283345349676,145.3303692192581,145.53137328303626,145.4658603311735,145.416875449964,145.37503602513112,145.44304930146635,145.38325342267922,145.37939807453236,145.4505656665027,145.32353366706212,145.25963653200603,145.2575384526258,145.16391591382904,145.2726824314522,145.23963681721926,145.24904959517107,145.27266658927329,145.2840173099823,145.22737704441798,145.22545433432037,145.2782507627488,145.21670199483145,145.29730357973037,145.20956779365633,145.28689334495786,145.27529199837295,145.30651251960728,145.01437371663243,144.9812194345574,145.0199565532223,144.9992761176743,144.97685252162842,145.05912343211378,145.00625978090767,144.9062997827661,144.94106899451873,144.9263438832642,144.8405557489268,144.94180677759385,144.79151318270152,144.87556574213764,144.81125195346414,145.0448449891853,145.15622206200433,145.32661720982594,145.1596628954052,145.09529995958195,145.07959897142527,145.08912666281088,145.12652954959646,145.1068390904357,145.0204871846736,145.06994563960214,145.06988983026343,145.0843547641073,145.06745859706928,145.11843588335597,145.09105357452464,145.16382548396416,145.08152424942264,145.1564747681909,145.12690809407013,145.15261623712084,145.46350089870703,145.44076887394178,145.44063569398526,145.32584823110133,145.36095721537345,145.3380224497491,145.30660637156853,145.32201866774886,145.2380455875112,145.31581234968561,145.32987599953645,145.29695600544503,145.25705683101242,145.35238205633476,145.4035016522697,145.36335493577133,145.40665257794632,145.45488482463247,145.39083386378104,145.43380607814763,145.52595165725864,145.6016210739615,145.41993888023987,145.62531703942818,145.57698625399846,145.50105202478744,145.47295271049597,145.40619223659888,145.3391141249459,145.27939393939394,145.26452767037912,145.35412393471037,145.3892631031193,145.37388715458434,145.3843130454887,145.4210419798774,145.41975201595423,145.48269981211158,145.43731213872832,145.4776926413185,145.49890097177231,145.56710720379422,145.6103313558096,145.5370761180654,145.5500535099644,145.54287946299405,145.57927781957062,145.51665075369615,145.42319041833017,145.4660960587572,145.48390362421543,145.4812212681065,145.51842424943598,145.45357576458346,145.48410885219351,145.4594500824009,145.51442446667053,145.43783034399098,145.58828463986114,145.54600659302528,145.45301887337786,145.54450776752395,145.55127426306808,145.54881999074502,145.5852741212209,145.68681016251918,145.57699663846066,145.53374250890246,145.52671645247193,145.46098182239203,145.49032669138091,145.4636695229273,145.38888728198305,145.39329418231262,145.44199310923884,145.41658223084272,145.2277276266836,145.18203834510595,145.16339303740878,145.13129128089759,145.23003610108304,145.21781320395078,145.08004847925204,145.28522297043438,145.23796451482403,145.25722209382945,145.3591410901104,145.25771026690495,145.41922755681,145.58847119240644,145.34360585793357,145.2790556726024,145.24426092229504,145.2623836772441,145.30764782420124,145.24451320012724,145.29533483822422,145.3648132059079,145.4600086969126,145.44456030587418,145.50795122092518,145.47172106223394,145.49446985928543,145.47730231750717,145.53595395117435,145.673045190053,145.74494138080763,145.7023850874146,145.56959828787922,145.59650543855588,145.50916026122638,145.48253546355414,145.51254770440616,145.48570850553452,145.49681989014167,145.49222498410313,145.5104464672735,145.49065109961563,145.48038479315923,145.5585447610241,145.74107039313463,145.75334298118668,145.79630538317218,146.04606897348506,146.00950812091787,145.864688375856,145.95258059852537,145.8862453746531,145.8423183711245,145.70309969928292,145.61700159028481,145.64193781634128,145.59563758389262,145.60729682029915,145.61179809446585,145.65148136349157,145.62112215045042,145.58349972509188,145.5592577582214,145.5064822317398,145.50914351851853,145.53442736823825,145.59806673805457,145.55317242376066,145.66750600561488,145.58441370528996,145.62864007410408,145.65695417945895,145.60023148148147,145.5681055433399,145.54700483511394,145.54575135072665,145.47723532638508,145.48736857266312,145.6750396082385,145.60284728213978,145.51851958442455,145.39909668881793,145.39151337190893,145.31695310475862,145.27631275909718,145.48282927392358,145.3891436647342,145.43290905417496,145.46198053542034,145.4755466967097,145.46878973529073,145.41301334257494,145.4602715978041,145.46703280820927,145.5320121510198,145.50004342413803,145.47334742450127,145.36492548111707,145.24229890376884,145.31204934410565,145.17955841074166,145.21960750260507,145.15428257156915,145.22389226759338,145.25507246376813,145.20084021439953,145.20200556457223,145.29065011168808,145.00331966976503,145.02466497227357,145.09581876498973,145.0205536791663,145.0936000462508,145.17973496904114,145.21846599131692,145.1998031496063,145.08642939814814,144.94952152418398,145.1379949598818,145.0723672784114,145.02261277433553,145.0839418173389,145.12689163332755,145.08387600937743,145.12875660382807,145.25584284269826,145.2691051033685,145.143621018556,145.18886863953253,145.2532523850824,145.19866439247204,145.24849537037036,145.1727491100628,145.19946662028582,145.0890942805818,145.0181454534914,144.7234817813765,144.55902236089443,144.53257823109595,144.4565041589649,144.51736201462978,144.48992512503253,144.52223314444316,144.46575382037727,144.4637237636054,144.48276359856797,144.5470166926587,144.5303629695937,144.59225038979037,144.57924522853926,144.5760637376595,144.59305647744654,144.5702784590968,144.56560733648632,144.5853229527105,144.63224392073153,144.79899875567904,144.71467815626627,144.76206597222222,144.7499855349187,144.66603058952785,144.6412355033693,144.7763275936912,144.63219021754833,144.70224199699527,144.7808092485549,144.732557467945,144.6323915615711,144.75230973553528,144.74345957483632,144.8462870001731,144.76576654549652,144.84529270896448,144.86397875840572,144.8791611377142,144.94765228426397,144.75273031150044,144.7792181603434,144.73123884121406,144.75899062725307,144.6648036645444,144.6759613999712,144.7225901186226,144.69186264068392,144.6618899631676,144.59347044441247,144.60366344605475,144.73884892086332,144.67667788613676,144.7439792835563,144.70811401616476,144.80554356273205,144.74526158359458,144.79844069161945,144.82202463167587,144.84144797421732,144.88454017369298,144.90858423350954,145.05247462292826,145.11467232383464,144.9591719708699,144.85672514619884,144.84897865503788,144.82723069412137,144.79126562275536,144.72667470987017,144.6492779420631,144.7096959595379,144.679350481391,144.714544617686,144.7204826199368,144.68614438794566,144.73429826828638,144.68945116172205,144.7400218227761,144.80319439257707,144.65600894674964,144.64016496735022,144.61123042121238,144.52085004009624,144.39362707206047,144.2857020180335,144.59858628814436,144.55299764327182,144.59252228932988,144.50560151671837,144.47672948747413,144.5421575952641,144.52620533019004,144.4995257666772,144.48896044158235,144.51053554488746,144.58582808500847,144.71163031593485,144.6485242506185,144.42647354080023,144.53201079467158,144.52463252181903,144.48381449807727,144.59592246949032,144.59476617258417,144.67111392259474,144.53805472522419,144.63541996146878,144.53762327841514,144.5098585881812,144.56016466117796,144.61824937354186,144.58142680364904,144.54383794204816,144.5819610778443,144.58960336192504,144.61633264224832,144.63017879250282,144.68715067703832,144.66493835695357,144.72418462602283,144.75457611484248,144.70579756104593,144.7322108176681,144.72010493542436,144.83105944792177,144.80368222087554,144.75191159073202,144.6449966846369,144.67071237062876,144.72405531018157,144.720363688844,144.7498195467013,144.67379786927728,144.7338549607341,144.83975244674727,144.71338587206625,144.7388800921261,144.70900034550272,144.7555690037751,144.76767094878738,144.77441853762573,144.77595297778547,144.8129047111981,144.92252853077298,144.98728935411515,144.8008280859139,144.77205903507004,144.72351198181872,144.71383349161127,144.76156614365914,144.6840879019732,144.5734786609916,144.6965991483485,144.6282438141219,144.58750502902467,144.57380911337125,144.53643753770143,144.54517769414198,144.60357019661953,144.5604663852273,144.57728226200396,144.62165579470675,144.55348837209303,144.57379167743602,144.59414418297274,144.66604370327775,144.6051481161921,144.56234191768223,144.56229682690372,144.56967413500533,144.48223102537605,144.49049997129902,144.51418154676466,144.47768727773317,144.3974116161616,144.381475532098,144.42695177956372,144.43899010185052,144.39484092863285,144.44295590808687,144.34908903403232,144.38767845880398,144.42416076598917,144.48603303888953,144.52237778287812,144.48246997104607,144.433081930544,144.33905640908048,144.38733363928407,144.2774863105989,144.26218463302752,144.48323170731706,144.4973531273376,144.4269934414912,144.41905720034492,144.46802818927083,144.3185721260159,144.42532831403201,144.52713534633838,144.535618916358,144.562812625769,144.38867881287956,144.38549869705906,144.32708541994563,144.41995246685565,144.45398280802291,144.41800790423278,144.343192555476,144.2926256727356,144.34150813660327,144.27132138152243,144.3112192329708,144.21315088884435,144.30477990663573,144.24482729015827,144.25452724932055,144.27726532826912,144.62692682367774,144.55080474253967,144.50651881142727,144.3839981659789,144.331595680692,144.3601883487898,144.3611757607103,144.43771392412344,144.18998451213216,144.2139025159939,144.32333610768305,144.3771569668954,144.3416645120515,144.22987613874758,144.29469293830002,144.33369784172663,144.16603393730227,144.2366467134799,144.1857064732464,144.17907913669066,144.2395533555888,144.11827987918883,144.11007221151357,144.17038679761527,144.15192169281704,144.18453649824278,144.19008549961137,144.21202604586838,144.34821093907678,144.3672474470663,144.31888027214808,144.4707494374892,144.4133379445501,144.5232947010321,144.4946391514872,144.39192925859786,144.3838639965423,144.27136228709762,144.30442937527053,144.34918572418573,144.2805078632232,144.2112611053421,144.19140343285736,144.2100646352724,144.20919015711644,144.20206804921727,144.1259160944082,144.16022737109387,144.17089502698647,144.22287330773895,144.2218215388166,144.28871247113165,144.32929292929293,144.3446176046176,144.17723595958432,144.2668793653531,144.42954061978958,144.36496350364965,144.36349516797054,144.2271550980505,144.19135057471266,144.15396122202404,144.2028539371098,144.250705279521,144.3141886053344,144.25145290292883,144.31885059456968,144.24387857862177,144.33215293372487,144.26832916271178,144.36183377460574,144.364818971968,144.40641372560307,144.4607995398332,144.5314011052268,144.40488856937455,144.49930867611477,144.2570632023683,144.40354109687635,144.31925179856114,144.35330340699815,144.30472078295912,144.3710930754619,144.37498201904543,144.27933732167511,144.25567953068384,144.38264248704664,144.36364682528267,144.394437893647,144.37677493532624,144.40952599959758,144.41449392014258,144.31903338888569,144.43194823867722,144.38537804983187,144.75817389547802,144.74713902741345,144.73555029995384,144.7132350820523,144.71063338623574,144.66027247328552,144.6994540229885,144.75282384387666,144.69348493984552,144.6969200712521,144.6592222126412,144.58617914223296,144.6320860536685,144.52934073200885,144.5424151983011,144.5867742491242,144.63707684349674,144.6172169065885,144.64800022985864,144.70337692197154,144.73857524948951,144.68932904041856,144.78008167491086,144.7871312747973,144.78857603037187,144.85421700609825,144.78459766805815,144.8186957399556,144.7438989211331,144.70318449290411,144.7209570814212,144.6671669360425,144.6001385001587,144.62846671091742,144.67020169912732,144.58939345824072,144.65898191483214,144.66538550456593,144.4922496254466,144.4805748351237,144.55828556614915,144.73662004392557,144.75819695830683,144.77098463586123,144.76259367495155,144.5462092822139,144.66870793494903,144.71269314079422,144.68477601594316,144.55830664011773,144.6796265248309,144.5535564732723,144.5520210337754,144.5693746752122,144.5460032343768,144.6034263592766,144.5120944463688,144.65425208917677,144.630948938877,144.64889158646204,144.66570221630693,144.64595141700406,144.707393266227,144.70909984958925,144.76527777777778,144.66517405748954,144.79270127915726,144.75979867519018,144.71355476541495,144.74654977866504,144.67736525560954,144.7277808346124,144.65748111268707,144.60096682683957,144.5190499609454,144.5443466682105,144.52192538134244,144.55528205722229,144.42042727877194,144.5553690789664,144.48352856109906,144.54403425529452,144.54754534671798,144.5772200213978,144.50969401022854,144.617004048583,144.66767904662734,144.72259967041546,144.61155188828943,144.72795345890214,144.8361255037421,144.73701775079834,144.64323935558113,144.5449814553923,144.61919986174718,144.44990939684183,144.426796295231,144.50560179718326,144.41904487917145,144.45018842956188,144.48190690042318,144.45854795545452,144.44830762145983,144.44902598336833,144.4729072544675,144.50320761773253,144.48141755839373,144.52697608839526,144.5622428723496,144.5787869201346,144.64539517219552,144.56675294794363,144.48756790939666,144.48959231786557,144.4487249518443,144.48631851532153,144.41114050727555,144.40992234685072,144.68449305896274,144.57960773002597,144.61978941295254,144.6511500389599,144.6489638053455,144.57943763518384,144.61494534652323,144.55787137132808,144.6354172674318,144.68752522049923,144.6935362970651,144.6841528478731,144.6791511691607,144.77404844290658,144.79705882352943,144.75098711704183,144.75281838364617,144.68224245217792,144.5924989948883,144.83954022988505,144.84571182301394,144.6791867677464,144.63609985923182,144.69805297518047,144.65909548316608,144.61315653224415,144.60066756826748,144.66194506823285,144.59163644736086,144.69926263033585,144.6424212768407,144.60791532443628,144.5873454127121,144.62917985611512,144.73951250432177,144.71480414746543,144.76775476101298,144.7563083304528,144.7767918875317,144.80775881946045,144.72228307869702,144.71785117297827,144.64252989482785,144.59923884211742,144.6244014998558,144.57127202468496,144.638556998557,144.56787950486193,144.60259372653226,144.6039163585952,144.563314361656,144.61015430850142,144.49745987761227,144.52404054405267,144.67114617652157,144.64242967417388,144.66465282997052,144.756326365163,144.67454508635404,144.71994559240608,144.76317693710382,144.81808972503617,144.66031526069634,144.5326199815413,144.51110276919522,144.5677721284955,144.49631705133018,144.48626476790201,144.49231302739568,144.50943614346406,144.52485549132948,144.45036977120407,144.39809331214792,144.5211304272367,144.48653962929762,144.50508788159112,144.47813141386985,144.6748958092151,144.5911365674448,144.56961805555557,144.57325080264945,144.65297913592036,144.66282804317004,144.73008849557522,144.67969111522444,144.59257010696734,144.55679615863008,144.58795466373678,144.52574846838516,144.5108233866073,144.48846487424112,144.59043845441926,144.54131383486026,144.53182264870802,144.55313737391253,144.62310004045543,144.6438621327247,144.52599388379204,144.60277449312144,144.63839916899906,144.61707957200127,144.64924425983617,144.6480424378712,144.69859268426052,144.8310498348413,144.8408431693518,144.8171672834725,144.8177404992388,144.67848530087275,144.5562826473796,144.48269236284378,144.48483196050856,144.44557725445148,144.38027158154622,144.45986953648094,144.41136748943995,144.39837445073093,144.432417677145,144.42102238441424,144.41013043728094,144.50834052343976,144.48507569881352,144.41737008326155,144.55525521207764,144.53969895438354,144.4948136654886,144.498807848094,144.5128477810991,144.717639941229,144.58109469926003,144.67600069212136,144.64714347388113,144.62493881899059,144.56316743904895,144.61512542119056,144.66998241213275,144.54331864904552,144.50853605873039,144.55120560020742,144.546185085976,144.4796890744206,144.4819173116207,144.4657349092687,144.57910173097935,144.55210305847248,144.7073611708997,144.68609955530053,144.70976904317888,144.68082176058763,144.74272917803106,144.68292752875047,144.75297491039427,144.89276593302534,144.77295669630055,144.71106839568512,144.66256524981358,144.66364548974616,144.64265427317326,144.68435096981523,144.57718332473192,144.5717479150546,144.61030614294322,144.57426736250503,144.57631103592627,144.5685577501935,144.63459608270483,144.63115012766445,144.64411739392375,144.66291618828933,144.72993078094035,144.72435087316177,144.72323377369327,144.65964841730337,144.79075586746433,144.7464796827404,144.74040645031477,144.8449639150062,144.86292458261372,144.79886628492505,144.7992340253981,144.72806815565278,144.6445013523623,144.5453184814207,144.65024346673582,144.58886392441525,144.65330181881072,144.67045257999425,144.6409472439355,144.35814675365734,144.3770223282278,144.38698639983897,144.38321062924192,144.4870230764804,144.45446962724344,144.45955501897205,144.40382183908045,144.44761740430795,144.51498935496863,144.5508657696851,144.4506206618473,144.46517391429643,144.43959876632172,144.37376123530768,144.48121103671207,144.45311057248384,144.36299907685208,144.4484013517026,144.42794028471602,144.45692818956798,144.41817235697147,144.48591101081988,144.49349184311004,144.5343131581993,144.5702799629801,144.56413445961584,144.61177286920318,144.63716558206798,144.53423272475155,144.65897139555042,144.74684129875388,144.6117908466555,144.603069541592,144.51586980401225,144.58932546910688,144.6443570312952,144.5643005900729,144.48828000809272,144.44371549955204,144.55423288067033,144.5112130920426,144.60629511983828,144.55880824527975,144.51531776051743,144.53941405686246,144.57138323957884,144.5940311418685,144.72267259037014,144.78842989521087,144.6307820971277,144.59855928540557,144.61470452712823,144.6727749445357,144.66136605882522,144.54932903300121,144.50683709013444,144.66041768970797,144.75728688216773,144.69182989541804,144.6690632940633,144.64972567138318,144.68918216472218,144.56353304295152,144.63927520341625,144.67152421076932,144.65997113997113,144.590295796575,144.66540778966183,144.6781151772068,144.6182310729416,144.72221901851105,144.63755546591366,144.64516221978909,144.73710894739875,144.7431654676259,144.87348513198424,144.84216434019282,144.70778828738176,144.7100411309575,144.69217721300635,144.6181833845447,144.64360050597975,144.71352968246663,144.65100034494654,144.6457183908046,144.71161974868448,144.71453620397253,144.6513431978164,144.7411271086588,144.71808052380678,144.83720529039678,144.84627329192546,144.89623346751006,144.82326075716665,144.84631300649463,144.83945758037177,144.833295016955,144.79503016374605,144.9177251566182,145.02234942184893,144.9451133653266,144.87192160694272,144.79268047456264,144.87286211158698,144.87992063720276,144.75260813335248,144.7089273396183,144.7046349242838,144.63432642859195,144.66811286059072,144.68028051619578,144.69209754414217,144.72229727787519,144.7280517613228,144.7285693745507,144.7472258954752,144.78295533041677,144.90080884257793,144.8590296961326,144.93851253963678,144.8621861322276,144.92926878437922,144.92857142857142,145.06558984713007,145.0801557542544,145.10654200213546,145.06338028169014,144.9780990304709,144.8962454582156,145.00572122052705,144.91265808165386,144.9299006010171,144.96669846500737,144.83394951187105,144.9357859145161,144.8793033733826,144.94114246068455,144.90708361030028,144.97075329784772,144.93632027749675,144.7917075139842,144.7780883497104,144.78860733950245,144.88899471815742,144.86739933079497,144.87753570913287,144.85488476737143,144.92148378908504,144.85626135347886,144.82556764086436,144.73673434075442,144.90602221450885,144.86610576228063,144.81122198120028,144.76665895418787,144.76041184636742,144.75227528820318,144.7671153735051,144.67077429222823,144.6934827177962,144.70407780439237,144.8143046893047,144.76718736465222,144.75485471910437,144.811618041728,144.87880100493805,144.87158825058486,144.78532491130917,144.87576833174617,144.89484012466812,144.91899682905736,144.91396825396825,144.8286727398524,144.78926120306824,144.7900839318162,144.73530854224967,144.69097202192097,144.65807456102414,144.65454283241996,144.70472645429362,144.63191421900672,144.5788684900712,144.57611484246635,144.54324153030652,144.6044890079811,144.68117070357556,144.6814212846892,144.61601151907848,144.6245069530418,144.69944127642418,144.71142988823598,144.75140493962363,144.7552149360378,144.70143066870088,144.8178806993289,144.80828821564336,144.68694050257622,144.59901574236625,144.60029366884518,144.5768444687527,144.5271188392446,144.53483417779825,144.4883687453216,144.50916942565135,144.42051960756106,144.48244301174304,144.46592837624047,144.44997986538573,144.53947557781424,144.49528301886792,144.52750539180445,144.5782346175963,144.58431135657577,144.59176978417267,144.70524224889886,144.60056372055567,144.58672764929238,144.58366654201305,144.53654183817392,144.55549159567119,144.43800701915885,144.39757718758094,144.33205733364034,144.2416855902728,144.32765173327192,144.26377896100158,144.307597051031,144.18890615110192,144.2236921572575,144.2315744069015,144.1605474253184,144.25518809544369,144.15682550644567,144.23830215827337,144.21164797238998,144.19520685885263,144.12710108220125,144.02614153279208,144.04555670816043,144.15654205607476,144.08677208980205,144.09306759098786,144.2034819827636,144.16501879155825,144.18582945646835,144.21161633692006,144.1693571717873,144.11463936607092,144.3111582372251,144.29606161895074,144.29965743482552,144.39813225496755,144.3949107636766,144.3438800756804,144.46737197983154,144.36049490538574,144.43260343470274,144.50657568600005,144.4214329419306,144.5564403220161,144.57792946530148,144.57598646796347,144.51139941690963,144.5808428671492,144.47761890866647,144.5953841659363,144.6078162395657,144.71700043853238,144.7072607742878,144.6863335868484,144.52807806930403,144.4577018542853,144.55156701813826,144.4129794370716,144.4625737140188,144.1282497678737,144.12946739382687,144.17504352872896,144.2728196492858,144.19609892023686,144.23525994772,144.3056564306673,144.3028929940746,144.34974454249883,144.31919953596287,144.5387408849249,144.49956445993033,144.55876546077462,144.60166540938897,144.61074545507265,144.6740120038273,144.5749326691958,144.56930205618303,144.50381922342456,144.62543104697326,144.58810923517999,144.62571387157558,144.564159740523,144.6036419431417,144.57678184183894,144.76714864083286,144.7987206576167,144.841965086993,144.87116280415472,144.77873546595708,144.9306870494224,144.82049206395098,144.83591062808915,144.78891904376948,144.89024601524602,144.87812058068053,144.92495667244367,145.05432334084213,144.98965586986043,144.97264428909816,144.94377162629758,145.03436663500563,145.1174946750331,145.07986870897156,144.95873646625202,145.01031878711015,144.9828998212123,144.96896094155656,144.87530646975685,144.87509733237204,144.82723418980882,144.945791479044,144.8223088023088,144.544955823757,144.387699763457,144.5080153663961,144.4781868052548,144.5871098265896,144.66118497109827,144.60778823393568,144.6473933375671,144.82703421174295,144.83224539310265,144.77729358460073,144.77966639732193,144.87890861844954,144.92994513427664,144.88166363610125,144.77541957436992,144.97300574530126,144.80236515719642,144.8010901540059,144.88039617683577,144.79732578623617,144.82305560367226,144.83665338645417,144.91928445510504,144.85594296599896,144.79642083994804,144.84636702173725,144.86277625306948,144.8662067372918,144.93445276148088,144.8755704465369,144.9931191997456,144.9806647398844,144.98629740980573,144.942973582288,144.9561847470862,144.9104749775681,144.76491846883312,144.69926593838505,144.79900995831403,144.76669658107286,144.70035902484221,144.7573608175791,144.67571871109695,144.71184378259358,144.68158786229262,144.78667285006233,144.81264127977744,144.7844567987028,144.7961628613595,144.84075550164616,145.03752491550395,145.08830073102374,145.1098481561822,145.01696678902795,145.0175524839512,145.00952105339314,144.9622089655971,144.98617070625073,144.67579196627105,144.6578247803976,144.6028727493425,144.67671304196918,144.6060746178077,144.6888400855343,144.64555135493924,144.73243983282893,144.68891448315577,144.72902334417546,144.77459723820482,144.90680869440047,144.89301536160175,144.8586009602944,145.13873332948444,145.12388180296648,145.19409830391137,145.22602601447812,145.27137664435725,145.27628086775906,145.28682259971737,145.20558134171304,145.19404576632658,145.21016685398115,145.12395145715027,145.12186617486023,145.20001152804195,145.22877813968236,145.13661752850396,145.1860619150468,145.12719474987048,145.19228553321426,145.18894712590716,145.1146975058255,145.2418110644177,145.15240149554214,145.15685146293046,145.2538284398388,145.19447001956496,145.24527487701735,145.30037979053975,145.38383373154093,145.42897457309874,145.3041713446757,145.30235771655583,145.17339394113753,145.17273616384765,145.16471502143452,145.07628848199144,145.09717588864603,145.15364470920028,145.19141097231017,145.12116771542682,145.21209853804535,145.11129954870793,145.1541889483066,145.2230722770284,145.2289132372818,145.21225181737208,145.3047328771062,145.2364148395069,145.30426278548006,145.33985611510792,145.2723459273093,145.36784882215895,145.37378152227046,145.38403839521783,145.35196157386102,145.31553048833126,145.31667817282246,145.2185533235624,145.25827052528624,145.15189254486884,145.13911493228284,145.21037629919672,145.26213648142817,145.188152708651,145.2151345130197,145.20369624042834,145.17105035971224,145.23092201848067,145.29269486596218,145.27941980602643,145.33998387746877,145.3706871723979,145.4208052142816,145.48243742069442,145.41987835461646,145.4414962651054,145.45370156826567,145.49708749062808,145.49496958690074,145.44725835761054,145.42675085776892,145.47684984855042,145.47709945708675,145.44735245688534,145.43999884529893,145.37302825446352,145.40607216107693,145.44586981017596,145.41503164099748,145.4909175054958,145.40878085438464,145.4531737773153,145.3541847166869,145.44162524563635,145.3744874978345,145.4561459296947,145.50920032403656,145.46835699210732,145.51210622233793,145.54718073405118,145.6117027433731,145.6411860088024,145.60850163715918,145.5916811594203,145.47290569096276,145.5511617127296,145.46180585730426,145.52869731578642,145.5668135947106,145.52434109426193,145.44929006085192,145.4850398262129,145.54282400695854,145.51306413301663,145.53624782860453,145.59225380651884,145.51766917293233,145.57006885378695,145.51447976878612,145.5679512011795,145.59528765539173,145.58386761393172,145.58515460345873,145.60340246086304,145.56084808919957,145.53666493446505,145.53563072301338,145.56921344421343,145.45822032431184,145.46838292591417,145.41581330948742,145.67645355571,145.71643303985172,145.73893036985586,145.69516642547032,145.74870443820387,145.6539362224985,145.75070141439852,145.80353475456306,145.70973430859522,145.7814450867052,145.75783936880438,145.77089112343967,145.83299624386015,145.81564584596725,145.9058038036881,145.90750158931976,145.83512420566146,145.75543556723358,145.7683486901014,145.74184602051133,145.75343692236598,145.71184237136336,