0.00022093437857577896,-0.005239908021227112,-0.009702646501979509,-0.012454699018422458,-0.013254040129723428,-0.01233976263016704,-0.010273946130858712,-0.007696380745445125,-0.0051123112736350396,-0.0028024744123356093,-0.0008627305214246248,0.0006951752846919863,0.001868050888752676,0.0026521056447657565,0.0030769242524062825,0.0032286753076732483,0.0032298878790328733,0.003188260720834255,0.0031531573072815563,0.003107427081427406,0.0029910353651316345,0.00273214433838518,0.0022665625925029718,0.0015483843223311842,0.0005688912647879261,-0.0006095681386775031,-0.00182524873987894,-0.0028307435844828295,-0.00336758994668438,-0.0032766292354975907,-0.0025833555447232967,-0.0015021753092296234,-0.00034925528250899203,0.0005915101519865231,0.0011786765871619966,0.0014454949302232546,0.0015444820712840618,0.0016393137748797948,0.0018035033157916577,0.0019806798515723642,0.0020286666226187544,0.001821789515770516,0.0013482552311825102,0.0007383121749253993,0.0002002423317247065,-9.965009806492354e-05,-0.00013982459187163437,-6.557840226333067e-05,-0.00011526686017547504,-0.0004901972760995342,-0.001237074589846119,-0.0022035425706214778,-0.003089829319466869,-0.0035726124227941775,-0.003442445348319814,-0.002689776257263025,-0.0015011915531951193,-0.00017408185558515782,0.0010018989534352678,0.0018375659617443124,0.0022741824413228685,0.0023514468279569834,0.002145256947540094,0.001717469248290168,0.0011072198388813684,0.0003641436558931132,-0.00040730398908739307,-0.001036498361990195,-0.001334258189642546,-0.001183295088397802,-0.0006186650979889156,0.00015604043672820468,0.0008345949154296472,0.001127416270141724,0.00087998511297065,0.00014042202182613928,-0.0008509403004845588,-0.0017483011676063497,-0.0022327242916251357,-0.002136828085007458,-0.0015056303912991762,-0.0005636664736485813,0.0003946257662299328,0.0011342746817348624,0.0015647154600866213,0.0017449899771223901,0.0018184353218319114,0.0019194631664656513,0.002101830295635332,0.0023194803421691607,0.0024604512695047855,0.0024079633406352266,0.0020937592423920896,0.001519761818300512,0.0007452171357837352,-0.00014639981052933307,-0.0010801670592740986,-0.002004741753184507,-0.002882155363077016,-0.003660090767329767,-0.004248728642391669,-0.004526725671847671,-0.004384557377603649,-0.0037855635545541205,-0.0028056071107405616,-0.0016192847805995428,-0.0004331783446568689,0.0005974680203794055,0.001419738796716875,0.0020734419412575256,0.0026316801877053946,0.003132328696738037,0.00354262394176451,0.0037740483022941154,0.0037328783513607784,0.003374160083409755,0.002730815969022023,0.001906898775015286,0.001041317035693652,0.0002581261192981703,-0.00037781158139660624,-0.0008823631063906454,-0.001338668959775581,-0.0018478684022414263,-0.002460542126650799,-0.0031218988895575254,-0.003666735334892642,-0.003879986632890119,-0.0036003288112501555,-0.0028111214019482847,-0.0016623438128808123,-0.00040629429663888096,0.0007154598522761454,0.0015655198523063974,0.0021325082410979233,0.002480858350477023,0.002675742873408621,0.0027389952045939877,0.0026582926234622784,0.002426916414016863,0.002072307749281515,0.001649493063767386,0.001208972923830875,0.0007676853230605802,0.0003042281690124411,-0.00022201431858046483,-0.0008429568790503004,-0.0015587237955357386,-0.00232338457707238,-0.003039740749376099,-0.0035686769526239873,-0.003762090445809495,-0.0035182538168565757,-0.002837134924932091,-0.0018393482962597075,-0.0007252050145015029,0.00031171192758734146,0.0011662447028077082,0.0018464597647946564,0.0024266364637837282,0.002962286496195625,0.0034251103271706724,0.003700425113447437,0.0036487852351123227,0.003194690859148833,0.002390022691400568,0.0014138620051586956,0.0005039302388927245,-0.00014983139116104096,-0.0004984830923235452,-0.0006658580208052031,-0.0008959780687093016,-0.0014317662840012423,-0.0023766481107428427,-0.003606482608331888,-0.004783651221022239,-0.0054799845620060045,-0.005358971074937685,-0.004330699905303102,-0.0026012031426953584,-0.000591488099745648,0.0012310230779787852,0.002526301689137871,0.003185867475410102,0.0033331313489645435,0.0032319710768087904,0.0031488031762436333,0.003228177964752005,0.003435754637117398,0.0035936215155450537,0.0034887701815971314,0.0029965804833485417,0.0021508788081003247,0.001120719607723278,0.00010867270014097144,-0.0007657276945482151,-0.0015229674485802117,-0.00228363201166689,-0.003156148857734349,-0.004122996760135525,-0.004998064867908589,-0.005486537507844066,-0.005319997122416715,-0.004396217576531081,-0.002848755744308257,-0.0010083600598538487,0.0007247288085543908,0.0020337027179868393,0.002790003310021151,0.0030647261529432677,0.0030508373825146543,0.0029458644733588862,0.002860839841953577,0.0027979629422293646,0.002692884130971092,0.0024808985138956114,0.0021426598738772196,0.0017089751900696746,0.0012322417663539061,0.0007466325657891089,0.0002396686056119567,-0.00034847374412083,-0.0010915515919781538,-0.0020180527111004327,-0.0030518936852430437,-0.003990051225047103,-0.0045474060729069395,-0.004468125140085958,-0.0036583919662648533,-0.0022659895715973627,-0.0006472123612887406,0.0007774940825907074,0.001707017110269245,0.002080137346895421,0.002066972629226315,0.0019439542068797463,0.001932797461687218,0.0020964598350090066,0.002339437883254361,0.0024922977627581267,0.0024162430750030808,0.0020654750855932332,0.0014832132977414057,0.0007516230348168793,-6.118059255976849e-05,-0.0009214155599839175,-0.0018087602755790617,-0.002673979863284783,-0.0034090431291430084,-0.003857930883902763,-0.0038724358221130916,-0.0033867165634285973,-0.0024661813702402113,-0.0012958827741425048,-0.00010848381513072435,0.000910439165992425,0.0016873966801405895,0.0022616846621989054,0.0027247291074981653,0.0031354013654395687,0.0034613106250718515,0.0035814473991640536,0.0033517920189151465,0.002699913309007883,0.0016954185899785085,0.000551121913915432,-0.00045692522403324243,-0.0011181601383637482,-0.0013992450382898747,-0.0014713644179050213,-0.0016236324757917474,-0.0020963726378992993,-0.00292179140864895,-0.003867472442473187,-0.00452718047884201,-0.004518569778496128,-0.00368083375609396,-0.002162662620520488,-0.0003557825071626925,0.0012818460694284787,0.0024144864962756304,0.0029380853617722723,0.0029738323892719897,0.0027688772628656697,0.0025636746515996373,0.002489889924810831,0.0025401578398961374,0.002612052097681973,0.002590466647799925,0.0024155386854574547,0.0020981850365906886,0.001682561052369897,0.001188918430206044,0.0005799508199130171,-0.00022375557626669497,-0.0012843302941886034,-0.002575051524081847,-0.003938235314912435,-0.00510279282182978,-0.005763892666042589,-0.005695841531487091,-0.0048492680323730395,-0.0033856487045822105,-0.0016281274680111887,5.278584819212902e-05,0.0013675193299720464,0.0021928432161032983,0.0025817309208280956,0.0027031458972254837,0.002746901109954572,0.0028376147679161695,0.0029913824735693147,0.0031275176148675868,0.0031241914577263418,0.002888831383565062,0.002408829450641806,0.0017586006971318617,0.0010607952334963423,0.0004220263946394219,-0.00012349242906359976,-0.000631122259451669,-0.001209902407997007,-0.0019467864538820234,-0.002829005984105625,-0.0037101528477808277,-0.004347434073175551,-0.004500079039449849,-0.004042469623261176,-0.003032858516382972,-0.0016993596983831604,-0.00034848780503394865,0.0007576055583339847,0.0014946194938608905,0.0018983028335593198,0.002111817515129103,0.0022910948233077983,0.0025181151993885413,0.002764462418213818,0.0029204842071662617,0.0028708652229202433,0.0025712189291000995,0.002077796967542271,0.0015091808449443054,0.0009623542215682237,0.000438883934064403,-0.00016420440973415138,-0.0009828399608024282,-0.002070631988000724,-0.003310130140389774,-0.004411874399440802,-0.005015503891071395,-0.004849054867730628,-0.003866109525230769,-0.0022866366805818343,-0.0005147596498815646,0.0010286109062856458,0.0020736821911703056,0.0025848911472757374,0.002721686705076141,0.0027086587355600123,0.0026958215426295612,0.0026895482863363643,0.0025864612756992945,0.0022774066028509125,0.001747182368775096,0.0011032088232912933,0.0005162608110014714,0.0001143507822788097,-0.00010115904183598105,-0.0002648916147678814,-0.0005756545912191503,-0.0011817300451930448,-0.0020828738765702173,-0.0031002287251401103,-0.0039332537222789826,-0.00428090405297165,-0.003971490337095489,-0.0030391380247460882,-0.0017097909106694822,-0.0003041991481862713,0.0008939880738793917,0.0017411277288615125,0.0022601990965597438,0.002583826567395879,0.0028496053947248256,0.0031079951938433256,0.003294673177360389,0.003280911969832747,0.0029681982199892066,0.002365513734517508,0.0015977614438208044,0.0008369407470325815,0.0001978816645813626,-0.000333858199133659,-0.0008905391813326869,-0.0016263732016200843,-0.002591607525170145,-0.0036557701052986834,-0.004535040793369629,-0.004917183911433641,-0.004616369820675995,-0.0036693423546158184,-0.0023182946252156937,-0.000893040499999638,0.000337628595138346,0.0012636627508036129,0.0019361196985167417,0.0024876217398636146,0.0030254680451245767,0.003556890141590024,0.003980448583238808,0.0041407645905084415,0.003913865225399164,0.003278675709288556,0.002339706377798169,0.001290783126564785,0.00033701791705516315,-0.0003901815455632353,-0.0008878129182201713,-0.0012795699798735904,-0.0017520393619481493,-0.00244879614400222,-0.0033673195368884145,-0.004315414890868195,-0.0049666548639523515,-0.005004850056647903,-0.004289081075807509,-0.002944770653453828,-0.0013198610128602765,0.00017647594724136113,0.0012631208899531608,0.001898217901745287,0.00225510880593984,0.0025861055559672688,0.0030583247986525706,0.003654154736409723,0.004185111304046488,0.0044014374052186445,0.00412965434370385,0.0033621366261094325,0.0022560959254581125,0.0010508303099306354,-4.743225097200791e-05,-0.0009522847219818669,-0.0017129333231708903,-0.0024527990825151066,-0.003262958393070831,-0.004107223603612554,-0.004795009837398837,-0.005047981634518318,-0.004636571358740915,-0.0035175024948894138,-0.0018926350675893947,-0.00014656641416164237,0.0013115501131710167,0.002219320762214041,0.00255448984422688,0.0025052675837007495,0.0023429446254215796,0.002274043577629556,0.002353565131277407,0.0024975206849986113,0.002570080084166397,0.0024786635606152954,0.0022155069249534197,0.0018295760420510548,0.0013631506303225652,0.0008072954739010635,0.00010971598957134395,-0.0007729945475790027,-0.001817264310937849,-0.002907557869839763,-0.0038588257934734907,-0.004472456173549915,-0.004598426794761742,-0.00418064945319889,-0.0032744428738097128,-0.0020347309491839686,-0.0006790350398034857,0.0005665270236349857,0.0015257210486634533,0.0021189699878237525,0.0023812273142011678,0.0024391464645684966,0.002450346808670229,0.002527190448650913,0.0026802276844646467,0.0028115338201606505,0.002765401300001471,0.002414634848465924,0.0017402910435549354,0.000861675524018611,-6.2336675326257664e-06,-0.0006554334651629318,-0.0009990192135332313,-0.0011312044990565968,-0.0012863338173489762,-0.0017032959922478933,-0.0024635535964371044,-0.0034008289610423926,-0.004150365982136568,-0.004325160370752746,-0.003723937812080207,-0.0024482430678846455,-0.000857373004465197,0.0006114426854731157,0.0016499591151534498,0.002195360547251488,0.0024012003703487673,0.002497959440192975,0.002638504393147565,0.0028206668573190615,0.0029211274947770318,0.00280270736491754,0.0024172372836075927,0.001839784691835843,0.001221364042205889,0.0006982883651502556,0.0003159030455015671,7.563789944483017e-06,-0.0003654111892629967,-0.0009368844260149618,-0.001758264667688495,-0.00275250533229002,-0.003719939842809063,-0.004399046964413663,-0.004563913278610076,-0.004119679306451882,-0.0031498338635738313,-0.001886352683803399,-0.0006126789924795273,0.0004515253845175299,0.0012236791071494298,0.0017556989003215066,0.0021672956213168466,0.002560739055895295,0.002964923944079301,0.0033312378422085953,0.00357102739198897,0.0036046733253471924,0.0033942040628141645,0.002949339556670645,0.0023157405414277053,0.0015604492105463913,0.000761182183549244,-6.0286866862281066e-06,-0.0006886147396809139,-0.0012842430302216785,-0.001851753835734171,-0.002483159725043065,-0.0032355961653535515,-0.004057251791706524,-0.00476138435538572,-0.005084163113607635,-0.004809602700768924,-0.003893120157017525,-0.0025054705528806806,-0.0009641607098303711,0.00040957683790307335,0.001424316004286298,0.002069530718759002,0.0024678880772364686,0.002772120939666603,0.003073527087969647,0.0033680204320636867,0.0035822017156945498,0.003628177493541277,0.00345006623320002,0.0030429933270540673,0.002448040295454803,0.0017366500579244905,0.0009922982719489165,0.00028787455582139024,-0.0003415822238642635,-0.0009187236646796489,-0.0015154885392273882,-0.002205867304911021,-0.0029970247131041864,-0.003781074182331273,-0.004348651123188201,-0.0044718889913780095,-0.004018311042377246,-0.0030313495485820596,-0.0017281026150962665,-0.00041213111816840566,0.0006523716352690608,0.001339435401951974,0.0016868900989487467,0.001844570794753615,0.0019795750431916836,0.0021886312394842405,0.0024573653649251435,0.002679816608770017,0.0027229508180131984,0.0025018378094328916,0.002028082899107671,0.0014075337427192547,0.0007877748337533318,0.0002812693374268588,-9.567841924778891e-05,-0.00043310356315273734,-0.0008758300045111824,-0.0015317980539466753,-0.002386357910769922,-0.003271162920719132,-0.0039126703260290675,-0.004044737189019186,-0.0035329315305142285,-0.0024468572571015334,-0.0010405571592828552,0.00035115148596644597,0.0014477565310547528,0.002121727146850674,0.0024161054661976517,0.002482555859176682,0.0024821729211471338,0.002503859665140421,0.002536240895171212,0.0024951871193152953,0.0022823849044311738,0.00184313399419654,0.0012000305792794611,0.0004524415222451836,-0.00025694222936038444,-0.0007975488372237137,-0.0011086413363006861,-0.0012343365836652931,-0.0013142840430434568,-0.0015237030006583514,-0.001981646042545485,-0.0026702655496075515,-0.0034130260716472073,-0.003934817158072651,-0.003980876027873459,-0.003433479396974781,-0.0023638423882584984,-0.0009947324872328087,0.00039918832251402674,0.0015959491388341286,0.002485720469867267,0.0030688258190962187,0.003410444814115514,0.0035856205589980556,0.003642159330476882,0.00359164585276124,0.0034223158365757275,0.0031194365599274214,0.002680494527421364,0.002120026411718188,0.0014662067827577584,0.0007541088108311753,1.8817463624256627e-05,-0.0007116762162436437,-0.0014246378325436944,-0.0021286215214221054,-0.0028482999639079703,-0.0035996145013529077,-0.004349895821420997,-0.004987011037176971,-0.005329113207465849,-0.005187809981487408,-0.004459893298709196,-0.003194984240863144,-0.0015948229432521668,5.821037904322774e-05,0.001502400755248359,0.002574630420640648,0.0032350620409875132,0.0035437973056493756,0.0036146836449239316,0.0035687959689527362,0.0034971578973642787,0.003434623644091206,0.003349267436394656,0.0031565254599934143,0.0027632835436862107,0.0021298928488098,0.0013174984656058575,0.00048347811939838947,-0.0001881519083970335,-0.0005914495122300986,-0.0007759559522947717,-0.0009401538044479821,-0.0013308444646575163,-0.002097561051072951,-0.003183427455999948,-0.004317132476549491,-0.005116120244916157,-0.005252424425160682,-0.004601099359849899,-0.0032998054989777275,-0.0016908342798815342,-0.0001739185585636114,0.000958162724768523,0.0016224028209472605,0.0019420510291466735,0.0021471156680936236,0.0024352333114168105,0.002864182388639329,0.00332723397664979,0.0036193213900592948,0.003556099620015946,0.0030808641746137184,0.0023004121281561788,0.0014292112157909325,0.0006726530456408459,0.00011605841344383054,-0.00031538155118196985,-0.000800129857768266,-0.001497068868129577,-0.002424486928168243,-0.0034113880278841004,-0.004154061641091167,-0.0043546635237732955,-0.003871730664844246,-0.0028007687993443307,-0.0014369056402287774,-0.0001365545599719192,0.0008459463341247407,0.0014557067371806644,0.0018179375674162318,0.0021214000477812415,0.0024799632980070986,0.002855835819188935,0.0030865071769700493,0.002993293107222234,0.002501742084433351,0.0017008491405509003,0.0008084029877512542,6.573516418675472e-05,-0.0003784719828929289,-0.0005363918953748456,-0.000571848318696198,-0.0007208730501847681,-0.0011763855566537887,-0.0019841837374693734,-0.002995633764206731,-0.0039041985889863243,-0.004359199588397503,-0.004112500132822059,-0.003132384160897076,-0.0016292895679592021,2.200030113036624e-05,0.0014297653906159523,0.0023351983536529525,0.0026969199764374286,0.0026745961710558917,0.002525596449618301,0.002470350270619312,0.0025934174522022203,0.002822672997870926,0.0029851407521108795,0.0029020322968850354,0.002474747540913697,0.0017262590557091681,0.0007859189656483814,-0.0001709919384703959,-0.0010012396572079915,-0.0016553280057553948,-0.0021941837048041223,-0.002747282630669993,-0.003422628101149105,-0.0042073000169314855,-0.004915992600656533,-0.0052342112311417055,-0.004855747560710825,-0.003652816929415128,-0.0017835175880318538,0.00033530203476561757,0.0021894430930958185,0.003385017360881562,0.0038100298112467654,0.003657417561717606,0.0033018015162768516,0.0030978816554203667,0.003204785927058006,0.003521784174830667,0.003760125279617367,0.003607122154391832,0.0028966067015248455,0.0017017466067817334,0.00030689500586932473,-0.0009256619965876725,-0.0017270200512826141,-0.00204510739433334,-0.002058478937150875,-0.00207439056605661,-0.0023633878111910846,-0.0030136513077764285,-0.003877511871033182,-0.004636247998603743,-0.004950125224828405,-0.004617341219862916,-0.0036608803190382915,-0.002301503615557026,-0.0008389933806657248,0.0004853675193521442,0.001567518249666086,0.0024273150890394436,0.003130757351357257,0.00370991427052874,0.00413138825264889,0.004322412169323074,0.004225660807490225,0.003843540487930588,0.0032486565989277285,0.002560593736018581,0.0019034905333784153,0.0013614872644508735,0.0009470812004896954,0.0005952094836300372,0.0001897512334554886,-0.00038477526841013577,-0.00118873911380654,-0.0021956158167426762,-0.003294471676121652,-0.004318859610468583,-0.005085615679691121,-0.005433067564860567,-0.005257229647199634,-0.004543831537795455,-0.003384825691886041,-0.0019642490335348975,-0.0005096676930946942,0.0007745937463212642,0.0017637821211158057,0.0024346228991869966,0.0028464171915433567,0.0030939309723965573,0.0032558016757063485,0.003361791267422223,0.003391365313402963,0.0032999824944317277,0.0030560945466726764,0.0026678636926249976,0.00218538406065618,0.0016773155659074608,0.0011934807709371097,0.0007321826990427003,0.00023082823470324488,-0.000409620114060739,-0.0012707041305816357,-0.0023540750459314155,-0.003541725038129769,-0.004605786625963778,-0.005274770358254119,-0.005334083448067965,-0.004715919338540141,-0.00353331092023906,-0.002039661751791888,-0.0005340526419005292,0.000740392785128335,0.001659167184345106,0.0022206154466939557,0.0025050431626488017,0.0026206468745368122,0.0026638853244384877,0.0027019323522654267,0.002766891499059528,0.002849664411143191,0.002894578082790056,0.002808851577762476,0.002498318209792308,0.0019210774522102209,0.0011291254540289832,0.00026494195140755775,-0.000496703006783283,-0.0010357468765150126,-0.001354028616013408,-0.0015807830306072046,-0.0019062938424553228,-0.0024719398588855953,-0.003270738969028142,-0.004113490504338641,-0.00468820724153749,-0.004693583137451487,-0.003983894577403574,-0.0026503020711359272,-0.0009936762381175875,0.0005988068956542786,0.0018105341285871374,0.0025079606993003815,0.002758101236889015,0.0027528532404826295,0.002690417192487732,0.0026819599869029958,0.002729196598936696,0.0027698025110748483,0.002744869794864418,0.002635903093288527,0.002451706197498151,0.002189787682364843,0.0018152845690335053,0.0012791841633798774,0.0005588841183083325,-0.0003156840940892609,-0.0012715077237195845,-0.002224824778829809,-0.0031043186908716446,-0.0038457681387947915,-0.004370499580168804,-0.004580172113600805,-0.004388353732115196,-0.0037741284332470284,-0.0028166025675133996,-0.0016775035024736993,-0.0005370726052354617,0.00047593346661099246,0.0013159873800480336,0.002000210765790467,0.0025582995420287604,0.0029908395564466387,0.0032605349930191914,0.00331554341979141,0.0031267893320096494,0.00271808207370951,0.0021733871950601635,0.0016146384761567475,0.0011557049618578965,0.000851040235443751,0.0006636886098653964,0.00047145610020065916,0.00011464139040681347,-0.00052941816913382,-0.0014741780335915666,-0.0025880841947917136,-0.0036191155477221797,-0.004279038728856346,-0.004356818455739814,-0.0038108439478725022,-0.0027931091548706677,-0.0015875863580615912,-0.0004880159978713687,0.0003250640500884858,0.0008440131774091917,0.0011995221659687138,0.0015543708271029103,0.0019899243580663124,0.0024531512677189813,0.0027938495721587667,0.0028655059166045813,0.002624040596424402,0.0021615392982247,0.0016551416451891425,0.0012662806227002738,0.0010555453027085843,0.0009632407928784679,0.0008573091029603279,0.0006059433666740608,0.00012585172941209383,-0.0006096875537139263,-0.0015790888382772512,-0.0027047352744589597,-0.003827152531859975,-0.004697115652741274,-0.005027469697919121,-0.004607019762615615,-0.003422452606660706,-0.0017082609191702884,0.00012356454470008413,0.0016497229784699584,0.0026100521154849557,0.002993854169483617,0.0029942455404613284,0.0028655886139857716,0.0027736796666717935,0.002725723268387904,0.0026112677476493374,0.002313386762133784,0.0018082000900683354,0.0011861790264727902,0.0005874418842408229,0.00010259535603412598,-0.0002898845648018612,-0.0007081950342184959,-0.0012851767517982698,-0.002071127051904524,-0.0029781274784610014,-0.003796463453614094,-0.004275047192102477,-0.004226422968995317,-0.003606171067690006,-0.0025302520097051765,-0.0012248912818720362,6.414166981332957e-05,0.0011588835366445058,0.0019942010933475325,0.00260430993393494,0.0030639576672181093,0.0034200630247627336,0.003653600606799804,0.0036926452641873188,0.0034654491042760633,0.0029576316954202765,0.002236593732641041,0.0014286369182394515,0.0006635483798768561,1.8723396730198393e-05,-0.0005080898121753892,-0.0009864091569047107,-0.0015103142088549607,-0.002146079550870272,-0.0028903388991815175,-0.003652218761522368,-0.004266431504264714,-0.004538468167986398,-0.004313309745127506,-0.003545132826690446,-0.0023358088442210906,-0.0009157848373133428,0.00043467328146257016,0.001493013253707959,0.002177771949187815,0.0025610790008249017,0.0028005059074693466,0.003028750509223733,0.0032675757172394874,0.0034188165782148253,0.0033368214290105504,0.0029344604951504058,0.0022530410978844127,0.0014493847125434684,0.0007060690160279424,0.00012022436508439375,-0.0003576679545803193,-0.0008909291665853752,-0.0016420454509844785,-0.0026411202724535964,-0.0037183186079482325,-0.004548598969915359,-0.004793666638571715,-0.004268808064260413,-0.003044804573468196,-0.001428680597806601,0.00016696840290190106,0.001396542481777769,0.002107730474280791,0.0023643996278343085,0.0023677623420656473,0.0023287180290211605,0.0023618487998090048,0.0024509260191933886,0.0024920217315849503,0.0023783058210039105,0.002072454425229799,0.0016261024880798872,0.0011404127947381509,0.0006961812353073847,0.00029748870896920284,-0.00013609333005662797,-0.0007206979418170221,-0.0015263452672045052,-0.0025070010008176945,-0.0034858807976958566,-0.004211938830629329,-0.004462712587846722,-0.00413954068074259,-0.003304792746096903,-0.002146261675129886,-0.000896048197750946,0.00024959736590681814,0.001176062257565813,0.0018563938564171386,0.002330608868905659,0.0026718978520393574,0.0029474742793876864,0.0031827672697394517,0.0033437645539859655,0.003350972088208968,0.003123285904025548,0.0026298366695194507,0.001918612805368603,0.0011013457066868318,0.00029947819428705286,-0.0004192260212176329,-0.0010748746697760965,-0.0017551667590602418,-0.0025454927902923983,-0.003445492641039774,-0.004321510182889582,-0.004929337185383687,-0.00500493729202564,-0.004383376636499932,-0.003088996730884443,-0.0013514199882975037,0.00046446774479739534,0.0019871190812397097,0.002970561351267414,0.0033717192320813476,0.003337595101143441,0.003109410140651643,0.002893541818814441,0.0027684801738627383,0.0026773139140169114,0.0025031237121385377,0.002171286576545323,0.0017054880390894953,0.001198442291400841,0.0007218847839256701,0.0002475443442433588,-0.00035402892202251296,-0.001224465145051225,-0.002391864194307083,-0.003692894352375674,-0.004802580582148381,-0.00536731723362714,-0.005172526166958154,-0.004251180256453266,-0.002869286099493008,-0.0013941436884636158,-0.00012045797067500899,0.0008455004729574436,0.0015808190121171552,0.0022341467825690423,0.00288754990605791,0.003484078898262027,0.003864151662307044,0.0038789940006183107,0.003499515340675277,0.002846330771443076,0.0021233806288835735,0.0015025738496135456,0.0010354661788917368,0.0006438111076092303,0.00018571505851639044,-0.0004509806132104127,-0.0012835709541159802,-0.0022254091041183192,-0.0031240675837749857,-0.003817062091708684,-0.004177174644762962,-0.0041343398251350895,-0.003676286253198544,-0.0028386511365351224,-0.0016960645826663355,-0.00035987608117136604,0.0010213747661270021,0.002269959688077601,0.0032052946929872084,0.0036876938196182332,0.003665155733896069,0.003201471613434052,0.0024676493624274072,0.0016924028689317622,0.0010855685623983407,0.000762490468386707,0.0007001635949825712,0.000744882299925735,0.0006710932564203925,0.0002710935582682897,-0.000556997407640227,-0.0017558859204993389,-0.003111416083939506,-0.004311531634717832,-0.00504245587193928,-0.005089527422474131,-0.004407815491913139,-0.003136491572498479,-0.0015499492021501923,3.6640334776896066e-05,0.0013693180505813512,0.0023226505254179018,0.002907050765224635,0.0032208587077682945,0.0033776167871737584,0.003446074890388348,0.0034285950706067097,0.003282715944986616,0.0029701768676699326,0.002503785048440238,0.0019614956892479414,0.0014534975404310447,0.001056598729013478,0.0007542711138759568,0.0004233435131530169,-0.00011484822158949835,-0.000997777235361521,-0.002227183120202432,-0.003627706567874882,-0.004885247837332683,-0.0056528223000669965,-0.00567916360247472,-0.004904844288082974,-0.0034864221476917597,-0.0017426631364518329,-5.065629481589072e-05,0.001264233877454959,0.0020081996421241043,0.002153220225521884,0.0018279969682820126,0.0012741542399415167,0.0007762965375271096,0.0005779813456762287,0.0008047030328110953,0.0014214082459448629,0.0022456573466909224,0.0030163647762761273,0.0034916490527265357,0.003533115756294377,0.0031390287170126245,0.0024144309919123773,0.001499366007619352,0.000498817564967224,-0.000543863464060729,-0.0016157763327965518,-0.00267021589660561,-0.0035801039859740865,-0.004152890140705311,-0.004210658473402101,-0.0036910067049399807,-0.0027031085786465483,-0.0014975920688199869,-0.00036322547732662035,0.0004905474981079759,0.0010002072659289687,0.0012346120522936637,0.001322356097622606,0.001371852669535574,0.00142965399294903,0.001488428615770896,0.0015217477169145461,0.001512708781765106,0.0014596596613761878,0.0013656537002131072,0.00122784437349961,0.0010348719585664295,0.0007677057225628843,0.0003976341951407276,-0.00011410669149344496,-0.0008011647246989275,-0.0016549252971633653,-0.002582117579234803,-0.003392351951312484,-0.0038430331372677393,-0.0037342293450500852,-0.003007557637872641,-0.0017911122133071559,-0.00035925328447645197,0.0009747292338944753,0.0019768288723880944,0.0025630168802210154,0.002796601412281767,0.0028286607836323463,0.0028213238537795355,0.0028873972791691833,0.0030568977659750796,0.0032649048024276464,0.0033580359636069656,0.003128651628538203,0.00238531223929993,0.0010461676036700326,-0.0007857721717463194,-0.002813634434977665,-0.004625707143520416,-0.005837259634958614,-0.006231347155682108,-0.005829746576355293,-0.004859640271559251,-0.0036376349942251877,-0.0024361711589817566,-0.001399633608971199,-0.000538400224941669,0.0002200457624064189,0.0009666475277636008,0.001763895168112796,0.0026210935534205187,0.0034834633305757968,0.0042335052668309,0.00471379877820996,0.004777587321353284,0.004355161148249889,0.0035046400738619763,0.0024134313009957936,0.0013383845662141647,0.0005071892685184194,2.7689853064885887e-05,-0.00015159064307925438,-0.00021375690070410413,-0.0003938600971782428,-0.0008798899111978594,-0.0017291910052481597,-0.002829743172164351,-0.003925867999988529,-0.0047079222033919186,-0.004934766763680089,-0.004532492772339783,-0.0036168764286686585,-0.0024267342150670395,-0.0012073427285607804,-0.00011119878225156025,0.0008315072617592915,0.0016665387292543717,0.0024332372316381323,0.0031033859869567647,0.00357936806156936,0.003748758398239941,0.003556302328722793,0.0030444579231171604,0.0023352020058045454,0.0015644276671480382,0.0008114246614967849,6.984634785713368e-05,-0.0007195281820068912,-0.0015940577567330305,-0.0025013228519381024,-0.0032854235629928116,-0.0037424090967732946,-0.00371605487221439,-0.0031789587284320573,-0.0022527979030721986,-0.0011585486818697977,-0.0001262015807706739,0.0006901739290992718,0.001256420199237472,0.0016489062465797105,0.0020005335304782695,0.00242496302873466,0.0029493465676334804,0.0034850801272650993,0.003853741457327352,0.0038621067877052414,0.003393965300030763,0.002471410470252556,0.0012481931835221902,-6.549511379536175e-05,-0.0013026464380867242,-0.0023987371926970386,-0.003370545676278672,-0.004231651872320358,-0.0049105215715942,-0.005238544214065578,-0.005026145149773549,-0.004181091315108146,-0.0027914179366393538,-0.0011176224873179746,0.0005035289038134205,0.001789040835139419,0.002604257583029099,0.0029791301372096104,0.003050206022274776,0.0029704006511208315,0.0028377860491551068,0.002674433708441237,0.0024530839706094682,0.002143135175927769,0.0017407091330960242,0.001262593433009733,0.0007127536324509752,5.532006128390534e-05,-0.0007702709719157099,-0.0017851041591898107,-0.002894178873730273,-0.0038594351840177325,-0.004365551242756855,-0.004162831069079888,-0.0032115177065279127,-0.0017368666761738843,-0.00015071872601804298,0.001125320450166165,0.0018407503906204892,0.0020062891658735424,0.0018535298130326879,0.0016957228733522757,0.0017658147800590537,0.002108620186144575,0.0025714291783710194,0.0028912325076014215,0.0028335975476700744,0.002312830704133674,0.0014299200063351515,0.00040798330591113984,-0.000534344181377193,-0.001290969142037668,-0.0018889721669009768,-0.0024133989030722313,-0.002896144263713689,-0.0032548329797012243,-0.0033298699914462914,-0.0029930063939811683,-0.002246051725973488,-0.0012369887026347083,-0.00018514966184837993,0.0007254755609963411,0.0014082354551261003,0.0018567691219491588,0.0020791583168493547,0.002049663786632959,0.0017265594507604755,0.0011272547133458965,0.00039702430739751776,-0.0002025168450513863,-0.00040966442171899513,-0.0001272466787885808,0.0004739188450303618,0.0010003429037167561,0.0010274048816589873,0.00033721989016614667,-0.0009341002106861995,-0.0023298183889002223,-0.0032765335978618597,-0.003354375841559972,-0.002492713208299485,-0.0009918855604854246,0.000633139303885728,0.0018968684288667096,0.0025452998833652334,0.0026201468110837846,0.0023715880353278825,0.0020858563175080286,0.001929373461576397,0.0018881959887792027,0.001818941611832693,0.0015637967162465576,0.0010535879563172287,0.0003414816641132462,-0.000441073811732109,-0.001167301570478446,-0.0017795607926254899,-0.0022956170731877027,-0.002757562724906458,-0.0031622491965776624,-0.0034242516665044017,-0.0034012530425185463,-0.002970996197969347,-0.002114766306036518,-0.0009560114221168867,0.0002726749286143132,0.0013206208963903567,0.0020215362318403295,0.0023533078148501247,0.002424125033988902,0.0023952284977220442,0.0023861321283242644,0.002416265610800181,0.0024126804443322255,0.0022723195467835642,0.0019352231608693096,0.0014214105121235592,0.0008103375500534848,0.0001806622913145419,-0.0004453507507443954,-0.0011111798600187074,-0.001877914396650728,-0.0027465152657057544,-0.0036020511129609377,-0.004223898514883262,-0.004368563137608053,-0.0038857559211755775,-0.0028036755709810583,-0.001334167048628973,0.00020634007522735912,0.0015181081990994051,0.0024206838407573638,0.0028919641505785933,0.0030357991390123243,0.0030049617286093608,0.0029220402415127706,0.002833563705503638,0.0027101130686544056,0.0024812658708890396,0.0020817144275181564,0.0014873032048985605,0.0007300140843468353,-0.00010998842509143047,-0.0009315101234044971,-0.001649325247990253,-0.002225076210854315,-0.0026739683417538887,-0.0030381719213471137,-0.0033375960416785052,-0.003528120750665472,-0.0035005506550494416,-0.0031321452194244138,-0.0023664388368456676,-0.0012716324196990693,-3.524109865291319e-05,0.0011085922107414005,0.0019789295282853885,0.0025167979539360147,0.002784510101740628,0.0029007214766132204,0.002954648645237412,0.0029523872593632504,0.002825416328016051,0.002492019340401003,0.001930085742963611,0.0012124657814731573,0.00047812619018092585,-0.0001470214283589901,-0.0006295048308917518,-0.0010508001361107847,-0.0015481523123835339,-0.002203593671453258,-0.002952019041962466,-0.00357577320324276,-0.0038029934354375876,-0.0034592286172474376,-0.0025806931592797303,-0.0014139625512211967,-0.0002954099402875587,0.0005192913831355149,0.0009727085436983325,0.00120221960099925,0.0014253021289527305,0.0017906209103364407,0.0022865122989279424,0.002755998904914265,0.0030000800348982874,0.0029011537780037648,0.002492191998892376,0.0019335201406067196,0.0014142519215356135,0.0010379579588318112,0.0007591134522633259,0.0004065910811527466,-0.00021760759530457357,-0.00121517498203023,-0.0025066320728407785,-0.003829850766400305,-0.00482854378735883,-0.005193630124784892,-0.004791595522342014,-0.0037175690024990157,-0.0022486849801691532,-0.000724985919848803,0.0005803496046946314,0.0015412810894811623,0.002181628694663644,0.0026125417678476075,0.002944650143220272,0.0032206367367940145,0.003399222994790832,0.003393639118987532,0.003138824285084858,0.0026463819895691694,0.002013449116446424,0.0013773618341488205,0.000838612043548699,0.00039508132976103687,-6.94687182647767e-05,-0.0007237622552457882,-0.0016767426583742086,-0.00287523823888678,-0.0040789944694796755,-0.004942081686974053,-0.005164568718223365,-0.0046308852851347105,-0.0034576059974638427,-0.0019302129877911878,-0.00037467598480788995,0.0009602680988844039,0.0019556803526841826,0.0026051068942792226,0.002962013324969626,0.00309265154755557,0.003054092015472736,0.002892607107655659,0.002647441941105785,0.002349875545990202,0.0020167516100089676,0.0016429420900117443,0.001198123340608724,0.0006328266945080827,-0.00010260840962125539,-0.0010268473081732957,-0.0020925349128757494,-0.003163999329221517,-0.004027298872564521,-0.004443847037202866,-0.004237099942649574,-0.0033763191623943697,-0.0020116829379357194,-0.0004341011421506962,0.0010273573798699153,0.0021225630048405117,0.0027556600226311513,0.002984938510861683,0.002954325394936152,0.0028000404252960785,0.0025863996756752437,0.0023017197335165277,0.0019039565651268898,0.00137502642973178,0.0007432822732924293,6.24143552515311e-05,-0.0006300752123537495,-0.001335380814316083,-0.002071456218894308,-0.002817264637626362,-0.0034669155001157744,-0.003840159212175048,-0.003759809662356641,-0.0031546456855155386,-0.002118768755859079,-0.0008812049419464195,0.00030043824475617885,0.0012555433775922442,0.001952867832188156,0.0024626320873349745,0.0028633964177190037,0.003163488803792453,0.0032913180586418194,0.003156185235452344,0.0027291538829511673,0.002079558182288308,0.0013372896815340431,0.000608457026970478,-9.112350029487793e-05,-0.00083143772606029,-0.0016901657092304643,-0.0026519891878724433,-0.0035567388005063707,-0.004140913042907284,-0.004158485117194597,-0.0035133499444260615,-0.002323505893931002,-0.0008766136221769431,0.0004972751671194525,0.0015614834614497983,0.002242854175789633,0.002607762563094487,0.00277378284533314,0.0028204124528042676,0.002752999514747481,0.002531768612434479,0.002132379413206279,0.0015862154565701217,0.0009687533150304378,0.00034687388227768725,-0.00027093080314885857,-0.000937801170732742,-0.0017145204163124881,-0.0025902109424074792,-0.0034332321010545138,-0.004015476103787857,-0.004109432956200299,-0.0036075241801453595,-0.002591409539984143,-0.0013048117993483183,-4.2958614102118174e-05,0.0009761365674442134,0.0016852286103239645,0.0021517382943657083,0.0024933597940580508,0.0027832398086699525,0.003001594844538013,0.0030579741005554695,0.002864814548444383,0.002412144143001149,0.0017921966197454514,0.0011536735727084948,0.0006118982149942881,0.00017372695426442846,-0.0002688847236195528,-0.0008646156257186882,-0.0016882584289465395,-0.0026559802383882124,-0.003527767766991098,-0.004005179070017646,-0.003874541286943976,-0.0031152658670564534,-0.0019117728991085484,-0.0005651664770732413,0.0006404365789459054,0.0015400818600997447,0.002108499937566596,0.0024042483198472454,0.00249013827542862,0.0023911103983324743,0.0021148135336088673,0.0017057704049133673,0.0012732213858971668,0.0009520137164247784,0.0008124281791696106,0.0007841529238386011,0.0006610073814952066,0.0002025547826308671,-0.0007179521873418517,-0.002005912660946211,-0.0033463176939477887,-0.0043217802021547425,-0.00459135100002875,-0.004040162836151366,-0.002824748893578989,-0.0012939472061235635,0.0001690902220606042,0.0012991174750158925,0.002020722770449823,0.002417162315950488,0.0026323115042073976,0.0027718873739947776,0.0028573987876765643,0.002845499928194226,0.002685039355651432,0.0023673071715899314,0.0019375980087848195,0.00146594563857221,0.0010010279957896164,0.0005385897523113697,2.3535813000233247e-05,-0.0006153874943456113,-0.0014148751032278788,-0.0023329262364407176,-0.00323297600430088,-0.00391100794658398,-0.004164323459735302,-0.003877194572294751,-0.0030812567067512015,-0.001954303483467132,-0.0007526761325687437,0.00028936121294620475,0.0010412631942532287,0.0014996687153519587,0.001748647697953596,0.0018858263021959234,0.00195960336285406,0.0019534155884874216,0.0018231539116626643,0.0015594419311010421,0.0012287719616138834,0.0009598699694587463,0.0008781970558419663,0.0010279416083109163,0.0013308621606870758,0.0016073481095529266,0.001645884484830936,0.0012825720104463327,0.0004572569492172196,-0.0007645474847988905,-0.0021981385985666404,-0.0035693903145811133,-0.004570545627825595,-0.004941703758441148,-0.004558763658314535,-0.003489459809963926,-0.001981983133862864,-0.00038152780298001245,0.000990106885040553,0.001936490482267881,0.0024271576625688298,0.0025678205063553177,0.002524233595014382,0.00243982265039169,0.002383080869752481,0.0023420777458913046,0.0022594552042417538,0.0020824141205465587,0.0017973734332584757,0.0014310411317936813,0.0010218732424810888,0.0005845746622022258,9.346038828565197e-05,-0.0005029134987664017,-0.00124297702814128,-0.00210953414301447,-0.0030055182875620506,-0.0037633947045722796,-0.004190798782950187,-0.004138475273043784,-0.0035619349213361537,-0.0025460267788034166,-0.0012781132007891848,1.7135530140489417e-05,0.0011486150118894492,0.0020037006837519064,0.0025540912529595757,0.0028309544312882856,0.002889931217277234,0.002785596291839118,0.002563567704062928,0.0022640937541024246,0.0019239325034401114,0.001569270919371505,0.0012050511401225004,0.000812225772052962,0.00035805396892639007,-0.00018680935133805378,-0.0008344186335659011,-0.00157174882891476,-0.00235387271386224,-0.0030951479336059863,-0.0036665823731205204,-0.003914265348540869,-0.0037051487649014656,-0.0029862641036554165,-0.0018276412942559717,-0.00042196752830164704,0.0009650458328620453,0.002075305712124636,0.0027391022806714455,0.002926943558699156,0.0027530862913294975,0.002425174581617915,0.0021537628822535905,0.002057049111560404,0.002106587439663011,0.002146193285751392,0.0019802370442998985,0.0014874322709365036,0.000696661046766932,-0.0002221588736057707,-0.0010516522767909466,-0.0016517639811604791,-0.00203782413397894,-0.002357243971015128,-0.0027722279444832476,-0.003319885572511264,-0.0038434575517799353,-0.004049041612746323,-0.0036632086348502785,-0.002600221139517615,-0.0010382342809226236,0.0006424797411872931,0.002025460062947571,0.0028371139163551468,0.003046399506655692,0.0028423961009078572,0.0025139445287233305,0.0023010727393484288,0.0022923594639726007,0.0024105194840724257,0.0024803528375656357,0.002332859569411552,0.0018863475387388981,0.0011659512578437235,0.00026420524382567384,-0.0007189087961421395,-0.0017103867720570155,-0.0026519484189205054,-0.0034600577562374103,-0.004003136840242774,-0.004130845687539803,-0.0037484887821812272,-0.002887655489341687,-0.0017178562910964612,-0.0004818853912811555,0.0006082455104879159,0.0014497358870793633,0.00205543464897101,0.002492487672098656,0.0028026776819646913,0.0029624709063230696,0.0029079317048725938,0.002600419865262849,0.0020795938038359984,0.0014608481472096202,0.0008750348625855827,0.00038940586803992683,-3.6828583374514095e-05,-0.0005287984424338861,-0.0012114626650627993,-0.0021094191199119614,-0.0030897361402655666,-0.003887427443326877,-0.004209851768822326,-0.003871323652012731,-0.002888607789879954,-0.0014856595932369893,-3.628531189057136e-06,0.0012372577929740777,0.0020534007570692757,0.0024370715924431938,0.002510823237134984,0.0024348934205524293,0.002324598875187536,0.0022181569514492356,0.0020975159394198474,0.0019320572637807447,0.0017074432746229007,0.001420768457871646,0.0010528793265492263,0.0005486651112209563,-0.00016656078708785437,-0.0011306949042753367,-0.002276455180916442,-0.0033980708169004323,-0.004190523226359872,-0.004360464365792944,-0.0037613848857730586,-0.0024814024489645506,-0.0008298198738520654,0.0007787628372344019,0.0019873547028973985,0.0026248576390445694,0.0027383510600358504,0.0025227530332820325,0.0021974206451411396,0.0019025088234372652,0.0016651590993852978,0.001435003766476976,0.0011463821205181068,0.0007585331253423525,0.00025467835240959146,-0.0003792371978266957,-0.0011574716463801586,-0.0020596286600093974,-0.0029798373826036076,-0.0037095698347666597,-0.0039906819140607015,-0.003626748825109469,-0.0025928566881072822,-0.001075335657939366,0.0005875813392355686,0.002033946248323045,0.003007554165535589,0.003427512941393312,0.0033764431127075575,0.003029540419463968,0.0025691389769289977,0.002123058501535485,0.0017409816432639893,0.0014010069243837108,0.0010316900429390523,0.000541347134463238,-0.00014620580162405945,-0.001051570847521865,-0.002106370868790502,-0.0031450916499512786,-0.003937466901231956,-0.004260016383994028,-0.00398243345643449,-0.003129586414001478,-0.0018851810338750895,-0.0005292956362234265,0.0006642603558934504,0.0015230598646080228,0.0020195008810098207,0.0022460334381844997,0.0023418791500058062,0.002414707249261601,0.0024976410499452434,0.002554974330147135,0.0025186455012806462,0.0023238126940170194,0.0019233230548094163,0.0012854019361309723,0.00039502481774001275,-0.0007263129060484793,-0.001989696772908512,-0.003222475830492639,-0.004190634389363859,-0.004662502774661485,-0.0044900836608786285,-0.003670378475003179,-0.00235643332678246,-0.000811919441744704,0.000670763946837603,0.0018552834406736804,0.0026186423948813984,0.0029641178235534325,0.002989714328296515,0.00282838296524268,0.002588377580815112,0.002321849785880387,0.0020324485040107403,0.0017069912713786161,0.001341218316282195,0.0009384262095324914,0.0004864611353867944,-5.882989521774763e-05,-0.0007570105722966331,-0.001632527878042855,-0.002619694636061423,-0.0035435465775746004,-0.004159970022998441,-0.0042447979821422215,-0.0036919688296611483,-0.002572344282203882,-0.0011220471298704292,0.00033716082492852,0.0015108256701413614,0.002228960232629201,0.0024871916287519005,0.00241824680660151,0.0022117127501156283,0.002022376652045002,0.0019102450481277462,0.0018370968815853727,0.0017140554652885429,0.0014676191078631777,0.0010828325337780393,0.0005986044746716198,6.394838801855186e-05,-0.0005064760095232519,-0.0011368332466088608,-0.0018443873115802617,-0.0025759325042738275,-0.0031800859302935584,-0.0034499072835558384,-0.003221645097014208,-0.0024718937453266183,-0.001349616385695722,-0.00011747692870902248,0.0009661431611394785,0.0017551013665675385,0.002250410552694591,0.00254651509047147,0.002731410453009348,0.002812456850490975,0.0027189714428922335,0.002375630950906286,0.0017879968741516823,0.0010711280189590563,0.000392579068405055,-0.0001351236648354301,-0.0005352369521666126,-0.0009555626304970973,-0.0015619180229037165,-0.002402584079612809,-0.003335853849035975,-0.004073706627211812,-0.004317617809531098,-0.003903177438227477,-0.002869987245035219,-0.0014281839437692754,0.0001412570104765904,0.001585577032884539,0.002731691300290428,0.003487677877088185,0.003823830600268323,0.0037622103226715373,0.003379062697702986,0.002801330784981621,0.0021773309964136715,0.0016226632987477218,0.00116727898124861,0.000737912430058191,0.0001949228272940625,-0.0005867212144337689,-0.0016291823735522135,-0.0028025449795996272,-0.00384709576756079,-0.004466580134619157,-0.004454083036384583,-0.003789092908815632,-0.0026521562721506953,-0.0013441674513669588,-0.00015143588201161303,0.0007687179402121153,0.0014197672611212177,0.00190627259786484,0.0023305524451537035,0.0027149806305576236,0.0029941558599829517,0.0030715496843170577,0.002895236615490978,0.002500151957032502,0.0019903538485538867,0.0014744386989428522,0.000995446912766058,0.0004989959237244975,-0.00013734718731056627,-0.0010219266384340552,-0.0021522214901178336,-0.0033577640658336207,-0.004327696071487697,-0.00472807563144422,-0.0043593174850440385,-0.0032692188686062524,-0.0017517293237403681,-0.00022331790934828754,0.0009603573551486178,0.0016502505365508353,0.0019369188681435231,0.0020582756591138486,0.0022373626940536922,0.002543000046751757,0.002853670713846267,0.002945204093384922,0.002645884187568444,0.001956814815158019,0.0010566589351794571,0.00018879709498029282,-0.0004895092475806461,-0.000991387877405769,-0.001461533309895849,-0.0020427022646381998,-0.0027394793357132722,-0.0033731503826544785,-0.003662214688134478,-0.003380989309726266,-0.0024967962288520596,-0.0011990838883536227,0.0001958662495431851,0.0014003845156448794,0.002271335976471704,0.0028204990593297067,0.003130221038583119,0.003248777732585093,0.003145459547825562,0.0027526773450825947,0.002053735285545892,0.0011415896724492193,0.00019785514363050184,-0.0005980811454355932,-0.0011676412017669893,-0.0015694094279315473,-0.001944422900253485,-0.002403067416034544,-0.0029269445507454205,-0.0033514489806889826,-0.003443151565414008,-0.0030250951371925496,-0.0020747732878554576,-0.0007420265895812533,0.0007125711371651887,0.00201449374789981,0.0029555727357966043,0.003430766258972917,0.0034359186446471174,0.003047512180319461,0.00240053532446209,0.0016642893810667155,0.0010059077353734688,0.0005390745221292825,0.00027529051844104343,0.00010819166835003471,-0.00014707695949218628,-0.0006653607697890368,-0.001510398053084297,-0.0025721709293627416,-0.0035817590333661825,-0.004207015340722414,-0.004189515521423529,-0.0034574689748965107,-0.002158363880640954,-0.0005964988407590017,0.0008897876984822078,0.002048520486844141,0.002778337220584828,0.0031188631351881796,0.0031882575678073262,0.003109146239447228,0.002959077625278629,0.0027595668840060543,0.002494557975305652,0.0021377552718519115,0.0016712201902624488,0.0010883758989157937,0.0003858555730891984,-0.0004434742947546171,-0.0014029923678999042,-0.002466354812649582,-0.003546079386192519,-0.004482081401286957,-0.005070431402839627,-0.00512925305317009,-0.0045723725000241565,-0.0034521227635213527,-0.0019487026407008026,-0.00031341486544078493,0.0012046010359944822,0.0024174977307048406,0.003228454206767856,0.003632736620644064,0.0036974429311795037,0.0035277573555833187,0.0032293087541202243,0.002879404230469593,0.002517492168059282,0.0021538699177904874,0.0017830737684407202,0.0013870604310508097,0.0009266153945733447,0.0003362916918282783,-0.00045730112951961093,-0.0014883890899724662,-0.002695621174839424,-0.003893800699824616,-0.004805986890249197,-0.005157167675202167,-0.00479054708427281,-0.003745913205645313,-0.0022547027341242388,-0.000650831713729632,0.0007579384202268634,0.0017938602193522195,0.0024403547625348465,0.0027938447944253243,0.002972695561648107,0.0030403365324907427,0.0029857506945392452,0.002764587149691386,0.0023639019098759214,0.001839734884190427,0.0012982488817324766,0.0008320620440077378,0.00045513648959098773,8.203847485540303e-05,-0.00042907540589808045,-0.0011885313292482292,-0.0021886358721284215,-0.0032669265031100092,-0.004143768946535165,-0.004523000151033925,-0.004213781580179811,-0.0032194444477632853,-0.0017505256290959623,-0.00015190481704649515,0.0012252979981505717,0.00214883702765807,0.002571445448224608,0.0026130678609440723,0.002476313706618914,0.002342202514819485,0.0022971436613243696,0.0023199072687560343,0.002322340971614399,0.0022102957673019582,0.0019275418059123352,0.0014647480060639602,0.0008413469617594812,8.248046752937384e-05,-0.0007895792311640144,-0.001743881610940531,-0.002718265236824873,-0.003603399333047167,-0.004249517413351139,-0.004501108725135417,-0.004249269590799192,-0.0034794639286494225,-0.0022918346674044424,-0.0008827442658586077,0.000507436669498785,0.0016627367598099879,0.002453107527583164,0.002866719414364751,0.002998136604138511,0.0029931653862481393,0.0029720005741428334,0.0029675794116445684,0.0029133025435976534,0.0026900936455263543,0.0022085518348442783,0.0014782029589654406,0.000619084476399388,-0.00019734099337292543,-0.0008466599674361979,-0.0013278881783849797,-0.001762578910194964,-0.0023062525927563856,-0.0030205146392628794,-0.003788372400449878,-0.00433730015101912,-0.004370113255963345,-0.003732343202671642,-0.0025152614851244497,-0.0010286024239881083,0.00034484053326550197,0.0013297506125798677,0.0018719775429650186,0.002125736566660315,0.0023297005712037888,0.002649577605334529,0.0030793340601189736,0.003453910202567826,0.003557799581716862,0.003258053729458191,0.002580528891525061,0.0016879476959679703,0.0007803266607895842,-1.602781628458447e-05,-0.0007015968868211767,-0.0013686263773415982,-0.00210405554353782,-0.002894934604633097,-0.0035986923168184423,-0.00399990882756659,-0.003921046414211493,-0.0033203428894801683,-0.0023180395005176838,-0.0011380758148548783,-5.738832784416617e-06,0.000934583034513973,0.001638965739669589,0.0021261641180527653,0.0024244271278993784,0.0025451544776552704,0.002495251386840337,0.0023061634409085596,0.0020450912247466993,0.0017890981596257805,0.0015734997854886215,0.0013510425507705561,0.0009995040902786372,0.00038736980452067256,-0.0005344705293689807,-0.0016723260929336439,-0.002803892908176912,-0.003663680828525742,-0.0040510649390025156,-0.0039013090720793108,-0.003288035494278579,-0.002369239853785265,-0.0013174668252221569,-0.00027272436964794573,0.0006688810663997545,0.0014454051868961948,0.002022062285943051,0.002397097134661713,0.002608863246753865,0.0027240731277882392,0.00280132615159972,0.0028490652202257816,0.0028104782567041605,0.0025946201795849213,0.0021396600438787685,0.0014661568828411098,0.0006800474167277194,-8.20663316574862e-05,-0.000732399007635336,-0.0012843032778617031,-0.0018401363609644177,-0.0025156797264061738,-0.0033412092370052405,-0.0041971946684047755,-0.004828533766329168,-0.004940717757915306,-0.0043351781312376434,-0.0030159531440343453,-0.0012119154621912374,0.0006984206978419818,0.002324098701952574,0.0033973972595614586,0.003848583202708829,0.0037921366863766905,0.003440114965076089,0.002992023160749615,0.0025577964868962488,0.0021475666421986147,0.0017212974533458991,0.0012559694269950626,0.0007792584160374675,0.0003442552209292853,-3.4252604849885696e-05,-0.0004263455166969504,-0.0009654896520904853,-0.001755209706577007,-0.0027589305337921326,-0.003753947239948566,-0.004398584685111444,-0.0043886558787762115,-0.003615472689553024,-0.002230428651052272,-0.0005782142562390114,0.0009579929000130548,0.002107678640506154,0.0027832179126507234,0.0030513008137048768,0.0030460409132397536,0.002885199989384011,0.0026309082538689263,0.002298713337027994,0.0018911927903930285,0.0014268059069364866,0.0009458884926247465,0.0004922225561942218,8.245392076678694e-05,-0.00031682971572042837,-0.0007854068069062115,-0.001410549309668768,-0.002222942812362984,-0.0031378746279040115,-0.003942201489188649,-0.004353682230794731,-0.004140236660238692,-0.003243192048453844,-0.001832883626279097,-0.0002550126428937074,0.0011126060249462386,0.002019497085648763,0.0024334350851791904,0.002516781890041615,0.0025074358231663746,0.0025761474322482836,0.0027411139101245594,0.0028825005237629133,0.0028384481616793,0.002517517512607253,0.001957097599949207,0.0012938444013200082,0.0006674631138657983,0.00012102457029145475,-0.00043426136973592343,-0.0011584690460091222,-0.0021547047018008647,-0.0033498045454568954,-0.00446598660161099,-0.005118021912118062,-0.0049942778173859715,-0.004022677583119146,-0.002424753106742842,-0.0006246213164737633,0.0009360437593532833,0.0019757940493807034,0.0024555283517609296,0.002537984901132811,0.002464942429634879,0.0024264233192063532,0.0024850384202753937,0.0025789726933546694,0.0025862124022782438,0.002408880874419779,0.0020334683183718203,0.0015363041828166247,0.0010300532217137558,0.0005799883449751867,0.00014277730066210087,-0.0004239323220317174,-0.0012713697203909418,-0.0024324289911868188,-0.003734600485969494,-0.004819124894900564,-0.005277867270377786,-0.004849470596873481,-0.003571077557905259,-0.0017926511755246663,-3.058986708618966e-05,0.0012690392053741834,0.0019280785868523334,0.0020836656737489604,0.002063794739746078,0.0021723529368947183,0.0025141630011414895,0.0029572667610913415,0.003240745745505065,0.0031505955107588566,0.002653375442582106,0.0019110072111457842,0.0011752528038164154,0.0006314004999803632,0.0002872875020427582,-2.658068524731376e-05,-0.0005463473939308458,-0.0014167173680014597,-0.0025744982327909724,-0.0037412632673005106,-0.0045355343394769005,-0.004649932650849283,-0.004000354298983343,-0.0027668879566186706,-0.0013057961298237855,1.6228916586417518e-05,0.0009737818515161189,0.0015431125415579783,0.0018520194763742455,0.0020644013776962545,0.0022756454764257797,0.002476788193306277,0.002593718393257362,0.002558740009190491,0.0023579123321493816,0.002025202662919751,0.0015995197990063723,0.0010874507886064805,0.00046436754137868183,-0.00028840236180943267,-0.0011419849445539663,-0.002006724800837235,-0.0027558973696911173,-0.003268446080118599,-0.003464672493635428,-0.003320203477340719,-0.0028600600091520344,-0.0021433567249394517,-0.001248615455711296,-0.00026491939338201475,0.0007115750566643921,0.0015814516430544265,0.0022529687404033664,0.0026608678326994054,0.002784638894157438,0.00265491073689948,0.0023438372263737284,0.001945439230947494,0.0015546756591928756,0.0012482648819745561,0.0010647029570010113,0.000984082782629157,0.000918422841734653,0.0007286237447132733,0.0002746737942815724,-0.0005158499335384346,-0.0015938726271042935,-0.0027812936431386055,-0.0038200853147226438,-0.004459500554570894,-0.0045436007238686404,-0.004061189949916419,-0.003138624173158587,-0.0019831826524268873,-0.0008060973607041013,0.00024125239217313518,0.001096563059817195,0.0017777064780889547,0.002345568285653354,0.002855099236923753,0.003313413034325005,0.003662571570799728,0.003797687252778949,0.003617037354792545,0.003083759574315964,0.0022668952783392415,0.0013325780931021857,0.0004782908336080936,-0.0001629504688814927,-0.0005955717584219063,-0.0009619451296014976,-0.0014584386884721591,-0.002206710297220157,-0.0031522897376716295,-0.0040532284018987225,-0.0045746287925006205,-0.004446327141458815,-0.0036030940337200613,-0.002231217818756806,-0.0006926971032519458,0.0006352624281462522,0.0015203253130666528,0.0019509367173648699,0.0020943491848828305,0.002170447441096107,0.002318931022818519,0.002533779368429156,0.002693533238763042,0.002658122186913132,0.002366900709531846,0.0018772935031194,0.0013233271879182513,0.0008233344999998137,0.0003972445514277979,-5.1330904537804506e-05,-0.0006716264835726836,-0.0015542663931149476,-0.0026371617128785746,-0.003688471195007246,-0.004385442085931735,-0.004454510420646473,-0.003802095503030306,-0.0025677028250414864,-0.0010705843892962702,0.00032378300536035757,0.00135112000121712,0.001938957159921934,0.0022010286374690748,0.002344979722225508,0.002544467725918875,0.002841444931202633,0.003126609679687757,0.003205449562204813,0.0029138104215789985,0.002220637664923799,0.0012591372547400392,0.00026306695568729954,-0.0005603285691376224,-0.001144671152647297,-0.0015897493415045223,-0.0020749972693488556,-0.002713650569517945,-0.003443230833893275,-0.004026771541318731,-0.004168430352523256,-0.003675436604196003,-0.002571562311449369,-0.0010991935850989836,0.0003861183953664197,0.0015662127777940058,0.002277000774200852,0.002541136886315268,0.002516115651080373,0.002396317750527191,0.002319706475652842,0.0023180100787957452,0.0023250786795111977,0.0022320384458821606,0.001957692741203579,0.0014960560022854504,0.000915177005211569,0.0003091419791383741,-0.00026566414756519453,-0.0008263918468003194,-0.00144242475201719,-0.0021635135953022152,-0.0029410341501818855,-0.003600007504656395,-0.0038957339023504506,-0.003635809107379139,-0.0027987704849792867,-0.001572417533383299,-0.00027998234677100917,0.0007673247781943104,0.0014065745829290807,0.0016731473275079832,0.0017455232367889568,0.0018268150327779525,0.002032613743092218,0.002339898039412891,0.002612917626184949,0.0026839737198268896,0.002444922931796236,0.0019032832885962406,0.0011744077678495317,0.0004137667598728751,-0.0002718017004603213,-0.0008783571236093518,-0.0014863713851465535,-0.0021771144040826753,-0.0029371990492890604,-0.0036169488601498767,-0.003976557128006834,-0.0037990777422997847,-0.0030075794707658315,-0.0017209676750031392,-0.00021811646387440414,0.001170445516689159,0.0021885435607424605,0.002738387263911638,0.0028872048023751715,0.00280037461279073,0.0026406799962730614,0.0024885748836000303,0.002324195426377254,0.002073951201160741,0.0016842965096167985,0.0011691727201728246,0.0005982488773886227,3.723175790984099e-05,-0.0005119934846006769,-0.0011208861120044148,-0.0018765900972887166,-0.0027888622291313975,-0.0037248845562969425,-0.004425979295428794,-0.004611627026958663,-0.004118227016628189,-0.0029927488838788117,-0.0014851875604634194,5.685991923822962e-05,0.0013326821925763838,0.0021958238521976405,0.002675141716603324,0.002910720613998833,0.003049580560514104,0.003161612457644826,0.0032179244741492793,0.003133570928539193,0.002838918483288935,0.0023319567381626187,0.0016828428652454865,0.0009950396462029601,0.00035099594079293715,-0.00022682213098033455,-0.0007814391716127226,-0.0013921690242890547,-0.0021228643442027877,-0.0029678412802199437,-0.0038189453732798435,-0.0044744861176935005,-0.004698290607187353,-0.0043139740325104665,-0.0032948885421825464,-0.0018016850688441937,-0.00013929902559486066,0.0013531276051322596,0.0024268264247088917,0.0029996391912784563,0.0031484911254155905,0.003031907496664479,0.002795625758508463,0.002517356989842382,0.0022126050762283443,0.0018783423197049696,0.0015285948284516754,0.0011904829781270638,0.0008671868508472393,0.0005052412901391184,3.94009416835304e-06,-0.0007253745239324057,-0.0016804592069886845,-0.002719534024972676,-0.003580887353352621,-0.003973207954910094,-0.0036998450171203496,-0.0027579857309329905,-0.00136084889566674,0.00013430730088650203,0.0013632131251667858,0.002093134115569841,0.002296759037129491,0.0021283753856581383,0.0018214203621764768,0.0015674965783339357,0.0014419082731365017,0.001407083577224868,0.0013748368041453186,0.0012741248921079927,0.0010755180685079256,0.0007635351121729825,0.00029388843598045477,-0.00041102823507630437,-0.0014036985157630426,-0.002620419207109113,-0.003827724323280225,-0.004665924832725934,-0.004789432392670707,-0.004034433852084815,-0.0025171249961371952,-0.000601858748059217,0.0012459285099644776,0.0026429135835365643,0.0034146389217486676,0.003613451940322179,0.0034385023628954493,0.0031153319332330905,0.0027998946680180595,0.002544015424392196,0.002319020402528343,0.0020656148884300738,0.0017335074319393279,0.0012912764271032946,0.0007123384907198571,-3.921527173291161e-05,-0.000998907412637485,-0.002161823266826085,-0.003431737683916269,-0.004597811964711924,-0.005373121125345815,-0.00549678262338827,-0.0048560945683887,-0.003558743998850771,-0.0019034309413727434,-0.00025547160481175695,0.0011053774000704488,0.002078633763785725,0.0027300805816077435,0.003191952796434298,0.0035474925479069674,0.0037735964432777137,0.0037719122028112774,0.0034598510428961262,0.0028551113163727314,0.0020924051643208086,0.0013555119163483568,0.0007647058689750734,0.0002935941895858892,-0.0002228645779631562,-0.0009814680268090301,-0.0020616051813366456,-0.0033245877622452473,-0.0044320501398980045,-0.004987440503536519,-0.004729665248661155,-0.003671208041894333,-0.002100428509579755,-0.00044559097932019915,0.0009207862718491528,0.0018260479909862014,0.0023157935557364573,0.002553971412716449,0.0026835303484235118,0.0027414186837008887,0.0026738504620342357,0.0024231551607763763,0.00200862538287102,0.0015336554515439625,0.0011114040703050043,0.0007667631021191728,0.0003952915508889439,-0.0001772655958153591,-0.0010628295110210867,-0.002190886157245168,-0.0032870801786918026,-0.003980087801032518,-0.003984925347619871,-0.0032575182093609496,-0.0020268605290735065,-0.0006830157649132078,0.0004136724451693747,0.0010912606730140448,0.001406769271140135,0.0015587828751173118,0.0017380048261357362,0.0020102174926962956,0.0022949234129592236,0.0024373392764252336,0.002315179897451158,0.0019089759980719981,0.0012987081199636085,0.0006022551154015798,-9.439299155533057e-05,-0.0007680864817986647,-0.001435460515707176,-0.0020973778586067184,-0.002691828399939653,-0.003089666624731997,-0.003140879133953901,-0.002748495587594427,-0.001930231516429677,-0.0008329898696658691,0.00031165523954668315,0.0012738611112054691,0.00191456127832253,0.002232785680134522,0.0023439316812318895,0.0023971195967763606,0.0024769705012185027,0.002549282986162419,0.0024857960415747738,0.0021519609610833735,0.0014986435185597262,0.000596816797580919,-0.00040382351301736696,-0.0013574610737027834,-0.0021855557626318774,-0.002879835105732324,-0.003449888748137522,-0.0038596259608201424,-0.004004118835247235,-0.003750397979712098,-0.0030208376734538627,-0.0018656485205574653,-0.0004744670075368635,0.0008856364956261371,0.0019732672452006258,0.002661537582367787,0.002968408853371814,0.003018568364146997,0.002962378460363251,0.0028963934986041525,0.002825170070176335,0.0026794424951372808,0.0023741046655140754,0.0018678743099323127,0.0011878700587829067,0.00040707885813395404,-0.0004040400916684838,-0.001212111183406518,-0.002013451494807642,-0.0027908837890109183,-0.0034712520497487825,-0.003922410537817893,-0.0040007483164101664,-0.0036233811086361463,-0.002819740655923451,-0.0017292151033759737,-0.0005463024965701229,0.0005525135916126184,0.0014582571786384512,0.002134005931347196,0.0025843691700938145,0.002818961258225379,0.002835889495443487,0.002632490563364576,0.002230760547294236,0.001695741821386352,0.0011294180895243433,0.0006364508064076146,0.0002750743244738267,1.959807349717884e-05,-0.0002378382516877996,-0.0006348147393233863,-0.0012533818476322689,-0.002046308168544516,-0.0028231173596746048,-0.0033169361833090267,-0.0033061345304554787,-0.0027267106660353296,-0.0017103974482922338,-0.0005245836848734334,0.0005516870576798951,0.0013445792129510989,0.0018326402467481618,0.002108030137798902,0.0022870904928954244,0.0024293281735585275,0.0025094386192160345,0.002449675497564847,0.0021849335774813744,0.0017176303405845772,0.001127683909418358,0.0005291426574901646,-2.0982374298750424e-06,-0.0004822564965419277,-0.0010120332945042657,-0.0016993764924064102,-0.002553851981967963,-0.0034236991782010864,-0.004030267099836473,-0.004095359710490418,-0.003492343669911435,-0.002328526838775426,-0.0009049048479880851,0.00042428927724406625,0.0014085190063418936,0.001986016968571702,0.0022601132787471844,0.0023980433960559553,0.002522247182930499,0.0026542305004396832,0.0027283575304581746,0.0026508862259672426,0.0023624272963909086,0.0018714847404848176,0.0012486074478982808,0.0005901734133416062,-2.851001596266341e-05,-0.0005887361905862103,-0.0011343616572556561,-0.0017399189117539497,-0.0024492352635123865,-0.0032128797204755426,-0.0038647489193617524,-0.004167467135725385,-0.003919182030658682,-0.0030694952617408857,-0.0017734649910224308,-0.00034140613216864543,0.0008953860685486058,0.0017294655788898624,0.002152219924584058,0.0023217244337311654,0.0024490220894048394,0.002671308736665868,0.0029807109530670525,0.0032400796946980134,0.003268095960987407,0.0029425288229754086,0.002267047849009049,0.001370976191279829,0.00044780471747016623,-0.00033230758307754285,-0.0008925352672550037,-0.0012719157327758255,-0.001594416562592094,-0.001999970080503401,-0.0025658200609419944,-0.003250752707537192,-0.0038894531019878324,-0.004246866671392431,-0.004115397636964219,-0.003412956853150686,-0.0022333895605791587,-0.0008203897170303016,0.0005266632282255222,0.0015710919173871454,0.0022235750854910897,0.0025515407319454714,0.0027121436377276356,0.0028498421042136746,0.0030169900442943323,0.003157158977371966,0.003150975399961669,0.0028916590403338547,0.002349410143607316,0.0015959411599161897,0.0007793339880235937,5.811147570020683e-05,-0.0004783395702398822,-0.0008623185704032656,-0.0012358572662205763,-0.0017656869404671341,-0.0025221727735194755,-0.003393358791387576,-0.004098413327868285,-0.0043111861914177,-0.0038333042794744298,-0.0027157525503458974,-0.0012512981312624,0.0001631352677912131,0.0012149623776372758,0.001806395964654852,0.0020571963654656433,0.00219017517100391,0.0023780195136166747,0.002644790995167876,0.0028727458486127438,0.0028967998739368095,0.002619095957192206,0.002072334043515694,0.001399126327605167,0.0007671358664085813,0.0002739595226925498,-0.00010411286415429495,-0.0004932064055382462,-0.001044197088093739,-0.0018365870455584992,-0.002812693510664532,-0.0037761563769540445,-0.004457858468882484,-0.004619939998084355,-0.004150579254638386,-0.0031077256784933743,-0.0016957640083089566,-0.00019071544442860345,0.0011499456747952846,0.0021563263203736084,0.0027732496071062353,0.003045225139340897,0.0030739709541638704,0.002968915511942686,0.0028089226195833587,0.002626225371173796,0.0024137589509225944,0.0021476145869470833,0.001810863003334128,0.0014062207178327677,0.0009523260491181031,0.00046792474678842015,-4.4571191137616996e-05,-0.0006033623199432512,-0.0012326038325397146,-0.0019337230917474938,-0.002659109265881773,-0.003307715123254151,-0.0037520279351241736,-0.003886307645555637,-0.0036694991786866997,-0.0031365271550599957,-0.0023717694126926007,-0.001464912981771753,-0.00048129845608859117,0.0005340315089148303,0.0015272529496645525,0.002411254197540921,0.0030727661488732265,0.0034137964140658473,0.0034022338092988755,0.003096551392067024,0.0026251646124121958,0.0021304700756064597,0.001709288226671116,0.0013808516490105987,0.0010935504119255184,0.0007587246633620978,0.000289920827078605,-0.0003670675461890536,-0.0012143700714463644,-0.00218724655067078,-0.003146446297526664,-0.003892125624233728,-0.004214257569087889,-0.0039739482324576735,-0.0031797287860684193,-0.0020094632311920993,-0.0007508177687054358,0.0003184350328323151,0.0010482246432206891,0.0014669903007316202,0.0017378558244924643,0.0020460236712177304,0.0024805371984946527,0.0029751065788271983,0.003339638006914192,0.003364643988581883,0.0029405268793710987,0.0021245266302635994,0.0011166478484967083,0.0001578359757182513,-0.0005909195673856524,-0.0011189520110049178,-0.0015465211034720655,-0.0020288821464654696,-0.0026401012920827856,-0.0033034055659044398,-0.0038094797939037185,-0.003916781465012578,-0.0034815081606187756,-0.0025437525490075814,-0.0013167136665817986,-8.174106136277516e-05,0.0009487852864050539,0.0017168478641814678,0.002301947512748791,0.0028188967756062797,0.003302706292224047,0.0036597917352998344,0.0037193774385844112,0.003351961664911482,0.002576127944758828,0.001579574856032051,0.0006326166304533334,-5.8953661571581415e-05,-0.00047222474402523827,-0.0007792764481210669,-0.001237554404132264,-0.0020180441174823664,-0.003071817676733172,-0.004116496508754328,-0.004756332508644556,-0.004673357460412067,-0.0037870062635186426,-0.002298382555092016,-0.0006003133695478009,0.0008940384610789148,0.0019141693885135246,0.0024115396671807792,0.002530761747937283,0.00250244096935246,0.0025178922985604688,0.0026445316848639627,0.002814817445295412,0.002884984658188901,0.0027273082422801546,0.0023045757592495345,0.0016857757343466055,0.000995052589004974,0.00032616325265098187,-0.00032127654838836283,-0.0010371989986510239,-0.0019231795952218416,-0.0029856528820122203,-0.00406982348387049,-0.004886175404011666,-0.005128707987736887,-0.004626415635791083,-0.00344295016235121,-0.001863487663963619,-0.0002710970885325557,0.0010207998994635273,0.0018884949121144644,0.00240907875672481,0.002765714858809267,0.003109635084371285,0.0034613948083043397,0.003705605682630433,0.0036754665210748123,0.0032703157332823365,0.002531762354022093,0.001631366002184378,0.0007781474042226458,0.0001033419805011827,-0.0004071385478447817,-0.0008918286586192166,-0.0015164279426335603,-0.002355707264739694,-0.003320884748739465,-0.004173549200109356,-0.004621842399308469,-0.004452334733922371,-0.003631823761270031,-0.002327308908578521,-0.0008348024175053805,0.000543385521391149,0.00160706651321868,0.0023001211862674416,0.002677673650262021,0.0028339323145063207,0.002841180265027794,0.0027309822671904667,0.00251385480273641,0.0022096203703553348,0.0018605318265538916,0.001517221500159835,0.0012080275126806067,0.0009125533552864371,0.0005574656068721425,4.1694079330785726e-05,-0.0007142875997848978,-0.0017116556354899418,-0.0028338666841743786,-0.0038507679554605524,-0.004479644493889542,-0.0044896322752218994,-0.003805979534316616,-0.0025587105958495516,-0.0010416517862050483,0.000404291711297466,0.001524671544649115,0.0022321688721266514,0.0025968708802171104,0.002762342024219683,0.0028439541048276666,0.0028689870539787797,0.0027858701913292786,0.0025257512224503413,0.002070369945655219,0.0014808875606017406,0.0008696020996690115,0.00033288704432187215,-0.00011200751846559848,-0.0005446779728810369,-0.0010970771084392902,-0.0018649494204150362,-0.0028205535149254555,-0.003777972838669176,-0.004441500362707643,-0.004525866375320932,-0.0038936710979868114,-0.0026369004182019125,-0.0010529705854392028,0.000477585818731751,0.0016488058390087684,0.002340388295742563,0.002629638953366824,0.0027087686522952485,0.002760928474186492,0.002863419269333212,0.0029649235455464808,0.0029407468560560613,0.0026878724834261034,0.0022002451423047764,0.0015764833077278268,0.0009541323672553065,0.0004138105126807787,-7.957942151910822e-05,-0.0006527747573347011,-0.0014268270013051041,-0.00240829282721074,-0.003442492646999062,-0.004264388619741333,-0.004620297478895801,-0.004388869097915195,-0.0036315468599402577,-0.002548353076561956,-0.0013729695669186326,-0.00027331528898723897,0.0006890450802065453,0.0015319074957370086,0.002290719704847416,0.0029665180061184703,0.0035097523070131776,0.003839545975892481,0.0038810871193330565,0.0036004825551500933,0.0030216230266350715,0.0022190081859734022,0.001291055893071956,0.0003265709426742725,-0.0006203588791081404,-0.0015353593405834259,-0.002424906879280921,-0.003279732678421078,-0.004036720730504376,-0.0045626938114588815,-0.004680718763920807,-0.0042406406103487285,-0.0032055951312532013,-0.0017050739123764046,-1.3866609018668686e-05,0.001543496232700488,0.002716187160751682,0.003412084914038797,0.0037009588865021324,0.003742090064697208,0.00368451523371253,0.003596043456006062,0.0034511400031603376,0.003170290447031882,0.0026795548644691514,0.001957970383150806,0.0010543019367590966,7.037422555405438e-05,-0.0008805747135230556,-0.00172392911503374,-0.0024586978667097336,-0.003153508544803666,-0.003893868831691432,-0.004699924870278739,-0.0054613439653818825,-0.005938474104277662,-0.005846699458993802,-0.0049901747739826904,-0.0033753794114363364,-0.0012402412082387626,0.0010204015821182804,0.0029953930418017026,0.0043925811356434535,0.005106401332257784,0.005199156697866912,0.004826825660579479,0.004162992110629942,0.0033588051951314777,0.002539762112415582,0.0018125451817754732,0.0012563109913725553,0.0008965087399801316,0.0006826379528122469,0.0004952240096793576,0.00019000108020157875,-0.0003372729339924445,-0.0010966376930072073,-0.001987800689203283,-0.002830629975428192,-0.0034285052132214267,-0.0036366349564920146,-0.0034074237652238102,-0.002797398071894404,-0.0019380130432888908,-0.0009872261283272298,-8.372580059897545e-05,0.0006799915369699363,0.0012615907213153344,0.0016571044424093086,0.0018849524137463014,0.0019734641962359345,0.0019522114769893635,0.001843993143291167,0.0016578348207541022,0.001388555166274865,0.00102669150990979,0.0005728180890717131,4.308592482216026e-05,-0.0005405178383218166,-0.0011643931353561277,-0.0018213081871656105,-0.0024831254044033356,-0.003065722882125199,-0.00342081776222633,-0.0033785346765319328,-0.0028295235610589246,-0.001800970124154266,-0.0004744949223553488,0.0008748286766850661,0.001989086203360514,0.0027255133639210215,0.0030882394756952805,0.003183400307142107,0.0031336679572789017,0.0030075500454154417,0.002801909993602432,0.0024777540724943113,0.002015901751287306,0.0014511129147159543,0.0008621466771679171,0.00032532823571262493,-0.0001386623526612482,-0.000590763965896707,-0.0011508085277466148,-0.0019279293906783127,-0.002932203904935941,-0.00401431769472009,-0.004878204093505491,-0.005181543775972537,-0.0046895980052298145,-0.003407003611106668,-0.001610987715250232,0.00024334075182324958,0.0017052139888292083,0.002509028571014619,0.002666757586094229,0.0024324360800190093,0.0021621504471802753,0.002139147924892352,0.0024450170594589008,0.002933174770812906,0.003312387696292562,0.003296859872107841,0.0027485489535004357,0.0017420817575939484,0.0005219852175978664,-0.0006226323004419189,-0.0014974175071409725,-0.0020798824214510432,-0.0024924319271515034,-0.002889600658683683,-0.003330318770260444,-0.0037176328589199562,-0.0038474577957105633,-0.0035370929562412875,-0.002749781519558885,-0.0016328618638474517,-0.0004453461748551914,0.0005751083341410261,0.0013193285625148763,0.001826114073760022,0.002215149982014786,0.0025873094697709507,0.002956105658024148,0.003243407906547761,0.0033298938173076725,0.003124400235656526,0.002615877068923549,0.0018877337850865376,0.0010924684755636764,0.0003970950855610118,-8.228216060542288e-05,-0.0003331967719415647,-0.000462467174830673,-0.0006588655256835234,-0.0011073328505990475,-0.0018860483854205338,-0.0028964108846860894,-0.0038709294793326113,-0.004470171952618815,-0.00443121613930474,-0.0036948281898107195,-0.002442103611165082,-0.001016574867687136,0.00022974407396429523,0.0010858038792168007,0.0015499327251486741,0.0017878235862445419,0.0020116707489572093,0.002351206921009753,0.002784991956791322,0.003162041845709223,0.003293976492338613,0.003063097297562254,0.0024878686558329334,0.0017132717355590773,0.0009343701021235633,0.00029596006849612463,-0.00017757464360022629,-0.0005847481634203731,-0.0010797218936876856,-0.001769630143523953,-0.0026304806414124684,-0.003488496006924645,-0.004081879467367489,-0.0041760221431866905,-0.0036748282811494303,-0.002669950756958121,-0.0014013257266945432,-0.00015053804403658013,0.000874737944358294,0.0016048287513146815,0.00209408511608158,0.0024491315317074704,0.0027488914378578956,0.0030013824993042676,0.0031524347360997874,0.0031299460202694213,0.002892869121691513,0.002458939849927026,0.0018995440476556066,0.0013051526649147521,0.0007373740265935791,0.000192035183030413,-0.00040301314208898427,-0.0011457032821401382,-0.002087679996232817,-0.0031690194955412273,-0.004201368954267632,-0.004920817440835611,-0.005093477435057884,-0.004622323863758047,-0.0035969403432873593,-0.002256527860383008,-0.0008855844537496856,0.0002993059919057943,0.0012105262676342684,0.0018741635956121083,0.0023644963543052373,0.0027403362131667927,0.0030202185677187868,0.0031955812258501453,0.0032549693918729255,0.0031957141659309032,0.0030209752741761882,0.0027352050775639523,0.0023475658750973906,0.0018787543248089988,0.00135875634392228,0.0008096413354444863,0.0002228695295620374,-0.00044842133240169553,-0.0012652493499896744,-0.0022486939246878393,-0.003322442176222435,-0.004292737997997087,-0.00489554114279397,-0.004903466636299316,-0.004241595989077304,-0.003043615171519142,-0.0016073779928278136,-0.0002685551682331028,0.0007380438984900242,0.0013544468579791513,0.0016805269716646705,0.001885657229968373,0.0021093384866416997,0.0024008928992547323,0.0027149242732615307,0.00294867531844727,0.002995392482790505,0.0027908191314378328,0.0023373649016255266,0.00169806581127194,0.0009625375040622829,0.00020055018501079257,-0.000570110820777443,-0.0013763059639820348,-0.0022381692940361864,-0.0031019366175494005,-0.003807250705955574,-0.004127413482183884,-0.0038754491574791764,-0.003018816020241959,-0.0017292057864927283,-0.0003274845523970214,0.0008524418631223291,0.0016061672862503374,0.0019295077160389085,0.0019840113480395966,0.0019856760634211134,0.0020845529003320025,0.0022989417593953726,0.002529318214946831,0.002631281866001766,0.002499379368505311,0.0021151355634948742,0.0015379452664764687,0.0008520484919413655,0.00010835296765979803,-0.0006983228452519202,-0.0015997416931336906,-0.002590522597860462,-0.0035725125349930402,-0.00434840512025632,-0.004679854607302426,-0.0043888961584911,-0.003453818000271042,-0.002047165571400965,-0.0004886280881983074,0.0008717434342052862,0.0017870500376127119,0.0022004102283472047,0.002244730355655739,0.0021582581805335054,0.00215940982635113,0.0023424835308789808,0.002643860708509725,0.002892320244960659,0.0029137513313963847,0.0026308610350646586,0.0020996988219593752,0.0014603975740156774,0.0008324507452891674,0.00022335924833867687,-0.00048357492722747114,-0.0014435005393503013,-0.002711529121129005,-0.004137634349747995,-0.005370497091632793,-0.005985988404702649,-0.005680903761229852,-0.004428895509492602,-0.0025120640601994488,-0.00040918991601458657,0.0014008841442697331,0.0026203031511879598,0.0032127317757402953,0.0033574315921118627,0.003315999164987704,0.003287239471712905,0.0033209234351584665,0.003324669051876714,0.0031493287216564263,0.0026988201004518866,0.001999365676299232,0.0011879674392992513,0.0004284858026044722,-0.00019166675066179578,-0.0007174126710487274,-0.0012943177890754934,-0.002062233977240168,-0.0030359993446603807,-0.0040486017422982235,-0.004799088779645676,-0.0049857665674147775,-0.004453483913620448,-0.003274878449640867,-0.001723684037526334,-0.0001581326302618868,0.0011220828203191125,0.0019747314801258787,0.0024298686812567914,0.002627526591818759,0.0027217212181362077,0.0028031287707614683,0.002873818964179918,0.0028746087137316565,0.0027383213153974045,0.002434247990920178,0.0019810984225984854,0.0014270911323878612,0.0008138410545926165,0.00014808025405341907,-0.0005992243774786702,-0.0014609954271623427,-0.002423061230368038,-0.0033829356373043496,-0.004148798900487618,-0.004492441047700718,-0.004241002217173235,-0.0033662442832469584,-0.002023068006688348,-0.0005088497158103256,0.0008452778524617869,0.0018018324516886658,0.0023001724368806264,0.0024537890373459844,0.0024650845976470132,0.002504739440623441,0.0026208846169520367,0.0027259306588778703,0.002665339267211841,0.002326204152753279,0.0017200861013097542,0.000988939038334211,0.0003285610454454565,-0.00012603109643289468,-0.00038520861252475466,-0.0006076449794821211,-0.0010155059705222115,-0.0017640958267602978,-0.0028332280986588278,-0.003998116376655773,-0.004899932631879617,-0.005188664539706707,-0.0046746802441472194,-0.0034175491536331745,-0.001707843670631454,5.0434776235811656e-05,0.0014991412646847423,0.0024500123716989473,0.0029192758252590423,0.0030690431761405553,0.0030986191729708464,0.0031457728859591036,0.0032399981193372055,0.00331488143508961,0.00325946783149387,0.002980418534164871,0.0024516218865440103,0.001734785648983126,0.0009611676133805837,0.0002764077592819353,-0.0002313796964775799,-0.0005849795772086756,-0.0009189112736994595,-0.001416234968464762,-0.002204192054004019,-0.0032589841098682438,-0.0043735456983373475,-0.005216429106600913,-0.005464612626759563,-0.0049500694448053415,-0.003744702283335821,-0.002135338151187305,-0.0004995025881603117,0.0008513654365110131,0.001778859468897609,0.0023268259354225357,0.002644422939420527,0.002879150148128648,0.003101119793636575,0.0032899713980189538,0.0033753628765726277,0.0032956044318609434,0.003037603646719213,0.0026400392597239063,0.0021663048365705624,0.0016691203676010408,0.0011673996000694524,0.000642933590132653,5.22564789675891e-05,-0.0006536153665886568,-0.001504488040468706,-0.0024824371419410194,-0.0034970402027289533,-0.004381480207474261,-0.004926165450505156,-0.004948883222725783,-0.004373946917828636,-0.0032778171008123647,-0.00187147079084799,-0.0004255091951977449,0.0008227924118628257,0.0017353195162008853,0.002289475322782758,0.0025526806205740417,0.0026373324172547044,0.002654597670212655,0.0026763859729077317,0.002712600973866611,0.0027128032456085285,0.0025966540962736612,0.0023020767276126183,0.001824768085845134,0.001223524127777708,0.000586794009948401,-1.7609472936166277e-05,-0.0005764315473967425,-0.0011272667586468947,-0.0017203407958739912,-0.002368170894521165,-0.0030107420282513863,-0.0035170438625626507,-0.0037289180709045608,-0.003532167971192414,-0.0029197305472553874,-0.002007775757339357,-0.0009889428139089006,-4.694207170870832e-05,0.0007162248630943472,0.00129809070415327,0.0017549588932706372,0.0021373820909228584,0.00244738083319587,0.002641758438050473,0.0026717727278714005,0.002526824533109181,0.002251342051868146,0.0019247821891380176,0.0016187450031356966,0.0013574309120160386,0.0011027230162757354,0.0007693643834261518,0.0002610681024981128,-0.0004868089088789606,-0.0014696587473691056,-0.0025901073696648308,-0.003659762458296456,-0.004438280407281809,-0.004709966073815746,-0.0043722392812849085,-0.0034888166124894104,-0.002268675595884043,-0.0009741001325728229,0.00019115989442257376,0.0011479591177782809,0.0019278405296601017,0.0025982684647790546,0.003182400552404261,0.0036254963659714512,0.003824619967669023,0.003697412765368132,0.0032446306551391774,0.0025686580614853903,0.0018370527705658846,0.0012088358299002925,0.0007584261405764574,0.0004337716243338957,7.2947164243498e-05,-0.0005196558002019626,-0.001464863733826921,-0.0027178079000428836,-0.004045955911590135,-0.00509928318843788,-0.0055472790498397,-0.005216971551046384,-0.004162452094807221,-0.0026344624895747056,-0.0009733045926355195,0.0005159824701587242,0.0016494453271227979,0.0023857358880871333,0.00279358652035339,0.0029940139743228995,0.0031035049170525363,0.0031923656658316953,0.0032643217287927164,0.0032620305607690358,0.0031000498059071246,0.002715037123691846,0.0021084330434050324,0.0013544662733999833,0.0005638175919137203,-0.00017850347418745427,-0.0008626842156413665,-0.001555404243701967,-0.002343274942054254,-0.003245289539561696,-0.004147148939367947,-0.0048068635529797815,-0.004944529026023277,-0.004378275624064445,-0.003134812917166948,-0.0014700955904035078,0.00021871353653687574,0.0015508462653325457,0.002312370024942395,0.00252567116970536,0.002406066737945232,0.0022325911774666476,0.002204014458873567,0.0023551562285764275,0.0025706050137983306,0.0026765202031000333,0.0025500533355139695,0.0021825700224847575,0.0016658199196449637,0.001117249929753901,0.0005942151293205732,5.061247094092819e-05,-0.0006351291719103745,-0.0015708178184678989,-0.002745789609051948,-0.00397221097011634,-0.004918635941225057,-0.005236936781350825,-0.00472782310109162,-0.0034564930965538974,-0.001746278092862431,-4.302494776741849e-05,0.001280708252164197,0.002074909848525339,0.0024357395076014775,0.0026001419079877105,0.002782667263409444,0.0030524548738325285,0.003314199776567991,0.0033891267933282305,0.0031360237906449466,0.002539211502499736,0.0017189619925699286,0.0008662895787179279,0.0001421670113951623,-0.0004042406068219968,-0.0008558665425175175,-0.0013753573269667625,-0.0021041788964449044,-0.003061403014971112,-0.004093494962655685,-0.004906602461837776,-0.005175866812955499,-0.004686934470420149,-0.0034433482053086656,-0.0016844523248936477,0.0002001738444489243,0.0018219489606761843,0.0029378585178623353,0.0035185749458572333,0.0037103008626427074,0.003717435026420636,0.0036756358737794126,0.003587422886958867,0.003352079319435583,0.002862679639666304,0.0021032342137613166,0.0011831045607231753,0.00028856998522927535,-0.00041712140170947765,-0.000884993523679386,-0.0012094017977079489,-0.0015758944163733156,-0.002151896859367136,-0.0029758001344234596,-0.0039049857931040327,-0.004656566741397562,-0.004926499869091867,-0.004528426651222907,-0.0034805081805880235,-0.0019967115137216494,-0.0003915922679643571,0.0010477556999959052,0.0021571409071537906,0.002916786060552075,0.0034008919189163784,0.0036949447540956205,0.0038327788702436183,0.003787237805392825,0.0035118875690884474,0.0029994013975699783,0.002314417371834732,0.0015782389473477302,0.000914772221354574,0.0003898608737937885,-2.2364408383826103e-05,-0.00042828200951242404,-0.000961928463138802,-0.0017114454224611227,-0.002656495713760901,-0.0036479743520839757,-0.004445833732451467,-0.004803656784101376,-0.0045638239142570414,-0.0037204603548475035,-0.0024234634104994936,-0.000925502537937032,0.0005021707540695305,0.0016511892931316595,0.0024274301881710147,0.0028576444793595715,0.0030506522556967685,0.00312802627289273,0.003154770490940289,0.0031064242722886226,0.0028946175017955395,0.002439903024714301,0.0017473314108376373,0.0009315482869487225,0.0001658782432174679,-0.0004197301501007729,-0.0008266719330044164,-0.0011962162756375733,-0.0017188369156290852,-0.002490209537662449,-0.0034031157091196106,-0.00415369458891518,-0.0043763091293479925,-0.0038400221318903426,-0.0025930924328503076,-0.0009644294145678251,0.0005864020779064118,0.0016872688067343304,0.0022153667268237157,0.00231512064733142,0.0022728919208647924,0.002332255671143696,0.002560586176428545,0.0028369041636450163,0.0029529194923704595,0.0027544047819562933,0.002235610147627162,0.0015369593724824698,0.0008560572104813162,0.0003280596203515309,-5.6400127594960275e-05,-0.00044939140836715866,-0.0010571193077590028,-0.0020079440933502314,-0.0032472277013862066,-0.004520115433463253,-0.005458724396942455,-0.005732830900153832,-0.005187310467761449,-0.0038987209316692696,-0.0021317412366963287,-0.0002307998197717872,0.00149242082468683,0.0028296436933342908,0.003694175001027619,0.004102872161654567,0.0041433084207378795,0.003938493714811491,0.0036127675779587688,0.003261092745111432,0.0029275225352642644,0.002600790445242281,0.002230849907400522,0.001759947301835732,0.0011522680929622045,0.0004063263631975617,-0.0004538404016778052,-0.0013973159775478522,-0.0023963022525731,-0.003415019601421011,-0.00438065690145314,-0.005156474010391029,-0.005545686645672102,-0.005345704524255776,-0.004443682329735056,-0.0029092416820322257,-0.001023957763007182,0.0007907112913857362,0.002130686112651168,0.0027798394058470574,0.0028027805226153958,0.002502926421288315,0.002260950160729215,0.0023371744882594954,0.002743673011953553,0.0032527800356290564,0.0035324317331055792,0.0033308164858145387,0.0026099335482897175,0.0015588654456178852,0.00048404350335113516,-0.00035968548235673593,-0.00090178830569494,-0.0012776826878670485,-0.0017262421344188296,-0.0024200204957968534,-0.0033254872752706173,-0.004178838566129826,-0.004601990695854315,-0.0043026834941253455,-0.003247503537734506,-0.0017042659166474322,-0.0001225974969493971,0.0010827660564348355,0.001723410140737281,0.0018979886067172988,0.0018965366716277591,0.0020126524747806473,0.002374243117667545,0.0028837432927691226,0.003290390381649265,0.0033426563104550925,0.002929639526745212,0.002134709319939324,0.0011805096707128014,0.00030646308031931834,-0.0003481547278583639,-0.0007956476103806727,-0.0011694676338578432,-0.0016381718835253788,-0.0023084553446345783,-0.0031563231988416653,-0.0040111564671757565,-0.0046034260686289505,-0.004667473497605773,-0.004062188663839331,-0.0028504348016738642,-0.0012884099647721098,0.000276713583226214,0.0015484178463979125,0.002387743357324444,0.002836107211928213,0.003054354491849476,0.003219211393662343,0.0034302591484233168,0.003666154398398151,0.003802886733303193,0.0036816966713906565,0.003195425869390247,0.002353601958605103,0.0012933206069891685,0.00022567935194374997,-0.0006613505904206891,-0.001296818872633121,-0.0017644428227660395,-0.0022531153063992232,-0.002935023709041901,-0.0038333795428866207,-0.004759962969760445,-0.0053725271995483555,-0.0053341465425795626,-0.0044909637718588335,-0.002966566546848178,-0.0011168131839629485,0.0006292847761779465,0.0019524031145625009,0.002752016301982679,0.0031340942163628135,0.0033007641796663125,0.0034150613623076956,0.0035180857680890084,0.003537060906113047,0.0033655475020969382,0.0029555208049681153,0.0023599312744898245,0.001702435323465621,0.0011006735261995396,0.000596824819540691,0.0001385860614612881,-0.00038239843512690927,-0.0010615361498164011,-0.001919908766912716,-0.002877521906925905,-0.003768815749502023,-0.004392981411064686,-0.004582666139700266,-0.004268110252707729,-0.0035101222139771117,-0.002481391043775921,-0.0013966067475309051,-0.00042117061759361265,0.000392879810877755,0.0011047328946258196,0.0018154830585772736,0.0025741614066613246,0.003319762430602463,0.003897708497401576,0.004140727619926659,0.003962964721605359,0.0034099633882579954,0.002637140803138749,0.001832058771764182,0.0011239964965251217,0.0005265511626285782,-5.896535323547322e-05,-0.0007782548262604246,-0.0017229623306698639,-0.002840783121724463,-0.003908427731551879,-0.004597455396342951,-0.004616393166674599,-0.0038630682656111436,-0.0025024883653730116,-0.0009177709038586893,0.00044975377433000095,0.0012915313908422234,0.0015548472090199323,0.001435276510832164,0.0012466305401951155,0.001242429888510254,0.0014875378167437262,0.0018473474553597153,0.0020920746518673225,0.0020468490947397385,0.0016951919934107638,0.0011766853057454934,0.0006859572602157765,0.0003386539398193521,8.89251005201431e-05,-0.0002460934452601059,-0.0008611941202750413,-0.0018070883190857649,-0.002901124651676801,-0.0037719533640935532,-0.004027352374043443,-0.0034553233287263115,-0.0021423546907141265,-0.00044030695145759946,0.0011959714773364907,0.002404730486745638,0.0030411446603788037,0.003176761180301106,0.0030003025839795364,0.002695864949936718,0.0023695554352135073,0.0020478360043989217,0.001719509178715454,0.0013730936975762489,0.0009997241483213418,0.0005691148247135662,1.3043369021090395e-05,-0.0007524132306924828,-0.0017653362177996721,-0.002951521877472623,-0.004100463063265612,-0.00491245076716961,-0.005107031265985454,-0.004546177269631462,-0.0033096496264932076,-0.0016768668387844698,-1.6300063744113845e-05,0.0013634406043267538,0.0023216397573078153,0.0028968257319563428,0.0032245067237359633,0.003420295564374486,0.003504243821525633,0.00341040556830049,0.0030670645463425654,0.0024858056195361826,0.0017918707495348362,0.0011674953139823403,0.0007392083364456776,0.00048173339498050515,0.00020775095697060148,-0.0003358531018567346,-0.0013105448944305943,-0.002655993565161615,-0.004068239337291017,-0.005110528417389248,-0.005406346521975148,-0.004814642251291742,-0.003493511369905676,-0.0018194313948453537,-0.00020998015503834438,0.0010500371683148158,0.0018885610726049461,0.0024055190406379124,0.002758306032053322,0.0030545162870370913,0.0033089271298033336,0.003466167426426389,0.003450365797522734,0.003204268653967887,0.0027079677617813844,0.001986909663906899,0.0011138973320022276,0.00019574414614857575,-0.0006632174653512846,-0.0014075965540817897,-0.002055070569604802,-0.0026717913369661127,-0.003304872238197579,-0.003913256870628941,-0.004348096030964121,-0.004406086780655898,-0.0039310314983068825,-0.0029051486078881914,-0.0014774750283015228,8.392021460540368e-05,0.001486772244990425,0.002509425563726733,0.003058671321887196,0.003176262465354274,0.0029997684465972946,0.0026969520905725302,0.0024005260027148883,0.0021691877477413527,0.001988237224766719,0.0018032388304945355,0.0015641351951116626,0.0012539224616366649,0.0008864613302523431,0.00047679869417458073,6.144910250765632e-06,-0.0005877631756551898,-0.0013748223714351374,-0.002360761261339244,-0.0034216580019813397,-0.004298173658649472,-0.0046768593574823495,-0.004332280190269008,-0.0032558133452283756,-0.0016909512458764403,-4.2333938010887553e-05,0.0012993619311785424,0.00212115312350767,0.002450444511148163,0.00248946647984809,0.0024709059126292237,0.002524869143517223,0.0026296833454209495,0.0026604817915885193,0.0024905853059814477,0.0020765734712304127,0.001477887103176398,0.0008077351868004696,0.00015395879371342728,-0.00047641009588909704,-0.0011519090320943194,-0.0019510945314113988,-0.0028749221442715823,-0.0037928995920247614,-0.004463900537971971,-0.004630471026355252,-0.0041403526896718916,-0.0030296272049713424,-0.0015216643811574561,5.74628618234737e-05,0.00140273146744744,0.002333415153812916,0.002833804265704837,0.003023766507422379,0.0030814365653737347,0.0031545048126306293,0.003295471592935576,0.0034447247202764857,0.0034670285974283963,0.0032250461578774686,0.0026544986181903656,0.0018006669781020976,0.000793655410957713,-0.0002248285307597944,-0.0011781380103666993,-0.0020838841842932927,-0.003012683429384942,-0.00399914626769825,-0.004962054982503397,-0.005690564158882855,-0.005916726029233572,-0.005442387457597909,-0.00425221677810435,-0.0025475836604414875,-0.0006779196750935321,0.0009971265926813503,0.002243129314347093,0.003014910525776261,0.003422322626011097,0.0036276439943339384,0.0037410503604352182,0.0037747575518404944,0.003673282623787848,0.0033867989424997648,0.0029307177491461464,0.0023911437349928787,0.0018772020111214524,0.0014560981507487792,0.0011127344439386994,0.0007545478002503804,0.00025414343305948874,-0.0004933979638725916,-0.0015206177071936896,-0.002758328223435689,-0.0040332258001245826,-0.0050964679453844985,-0.005683720894482906,-0.005597008619931159,-0.004783381924065763,-0.003375154237646407,-0.0016635520881306467,-5.345092092617736e-06,0.0013022965169393098,0.0021221760530618474,0.002505028447580447,0.0026333560629222775,0.0027123447979681206,0.002865027437958214,0.00308381488663899,0.0032574545944374384,0.003250207429363417,0.002983257366388592,0.002472554504643797,0.0018079537868449982,0.0010942380150429816,0.00039291592858813626,-0.00030297183203202344,-0.0010504117343220266,-0.0019047757263583472,-0.0028583444622358994,-0.0037982486984899514,-0.0045117074980392646,-0.004751542210405493,-0.0043441846299196556,-0.003289963783524441,-0.0017969190526114836,-0.00021865536468278904,0.0010806449119438741,0.0018688959908420213,0.0021268374096498135,0.0020311432950225012,0.0018538924499353232,0.0018301193246791298,0.0020552831511357816,0.0024564200628781055,0.0028441372818438985,0.0030138232648068103,0.00284232870238311,0.0023324799281906824,0.0015881835513302865,0.0007409153300198727,-0.00012547640502258986,-0.001004640696778233,-0.0019335210471205493,-0.002917440914465955,-0.0038670391173797024,-0.004594575602101322,-0.004879705915212221,-0.0045701813573343205,-0.0036607791872531694,-0.0023073270448324365,-0.0007711888465515606,0.0006728309189318062,0.0018184905498833883,0.0025683983893397544,0.0029298694321654144,0.0029846910113374373,0.002852940662101053,0.00265956379735071,0.0025029987245180677,0.0024271283336218677,0.0024065883547763375,0.0023578561258826053,0.002176942350486371,0.0017860205505780392,0.0011626710744732588,0.0003369263413232114,-0.0006344561908533917,-0.0016901444784863187,-0.002762099841241814,-0.0037531733149277716,-0.004521690945676008,-0.004901109579547027,-0.004758163407082905,-0.004061260195203963,-0.0029169732782563214,-0.001547121914717441,-0.00021198426082747715,0.0008845805599429292,0.0016619847683731531,0.0021696582087130318,0.0025322212694665236,0.0028634008922942943,0.0031954416764773856,0.0034619947231460547,0.0035417980284934824,0.0033349991327014375,0.0028258643229449104,0.0020965820343645603,0.0012882142142870375,0.000534445056107942,-9.586258054762275e-05,-0.0006214672361344946,-0.00113030448632911,-0.001729080190500075,-0.0024787469316744112,-0.0033387629984438136,-0.004146350817841727,-0.004651580853259422,-0.004607201647346037,-0.00388005888182562,-0.0025302558101296477,-0.0008133653773530895,0.0009022914815265805,0.0022682045953013492,0.0030774952106877263,0.003320870323374284,0.0031553821065554524,0.0028088953649780934,0.0024728136895662443,0.0022344728617833018,0.0020726738974732274,0.0019044415549024582,0.0016478426317410848,0.0012641164400663924,0.0007606411720741211,0.00016328956213091305,-0.0005137501723799867,-0.0012732918517002411,-0.002108760200421082,-0.002965208893607696,-0.0037196032929207286,-0.004202266907456543,-0.004255136861663704,-0.0037977120717053673,-0.0028651093334751865,-0.0015986067717426086,-0.00019633475373108194,0.0011477461286189513,0.0022870176804198495,0.003134044006396691,0.0036484655521805895,0.003820273928580401,0.0036647681194800358,0.0032311821188592627,0.002611739515198688,0.001932937934651915,0.001320940279379887,0.0008520872653802482,0.0005146356919266072,0.00020769146810531338,-0.00021396984688011903,-0.000866063805325574,-0.0017671405549427711,-0.002810656954308829,-0.003789483048863615,-0.004460687205214378,-0.004624904652748863,-0.004194096403553717,-0.0032261889311717027,-0.0019119393273529111,-0.0005132415235525849,0.0007262675807349744,0.0016596897478820042,0.002267522209487416,0.002628149229792612,0.002849110680222026,0.00300048387510705,0.003085986837261136,0.0030604011888306303,0.0028733102705962247,0.0025079976124846265,0.0019938885321166993,0.0013893353763874499,0.0007466278138709684,7.953007333573567e-05,-0.0006445546207208676,-0.00147442952424899,-0.002415525886965,-0.0033750385348649543,-0.004154823123224443,-0.004513482956513435,-0.004275503879675759,-0.0034284603406546754,-0.0021477972322566613,-0.0007285022037942927,0.0005400052079955669,0.0014844245205000287,0.002084329801288203,0.0024258155283510656,0.002613862537715769,0.0027030424975124424,0.0026836211721071256,0.002518844248955503,0.0021987999092334736,0.0017723915528738785,0.001337177228904002,0.0009922707192796276,0.0007791992481429087,0.0006429893226367219,0.00043882394491911905,-9.847659191008584e-06,-0.0008210900419935416,-0.001971451403321055,-0.003263202841119093,-0.004367530930676612,-0.0049359339206769045,-0.0047374300579791865,-0.003761267048754074,-0.002234936941263423,-0.000543304282975236,0.0009191081937260853,0.0018967294349236938,0.0023536615272815534,0.0024500558312970074,0.0024300506099696876,0.0024819904485304085,0.0026444219070625935,0.002804860853599314,0.0027865766193181374,0.002469573002290176,0.0018729450050711254,0.0011486038283007524,0.000489239040195338,6.237574865310087e-06,-0.0003454058825361326,-0.0007425312747225068,-0.001375084391325634,-0.002298452463065757,-0.0033478218071959637,-0.004177785916154688,-0.004419866000994172,-0.003876391462146231,-0.002638796185519456,-0.0010565877538461135,0.00042928595376862957,0.0014932395357541031,0.0020542149146860955,0.00226029735163456,0.002351336583449212,0.002492247675045467,0.002678467393921603,0.0027621941016914516,0.002571359799256642,0.002040510966569127,0.001271053380139252,0.00048322621412175604,-0.00011297824974432907,-0.00045018699213389293,-0.0006540053724553186,-0.0009703431482546226,-0.0016034186824674117,-0.0025588698602883654,-0.0035921763893424752,-0.004304847970907443,-0.004342257617494467,-0.0035825479579640177,-0.0022076195889985436,-0.0006153730542716972,0.0007751760973024617,0.0017148532838496637,0.002208372114216818,0.0024553445167835846,0.0026948283792308644,0.0030498077469418806,0.0034589509302080674,0.0037252136353062414,0.0036419142458573054,0.0031170634081840454,0.0022253289964662666,0.001164317885186158,0.00014771241246729376,-0.000699874956907107,-0.0013881935016242602,-0.002025849653960022,-0.002727027124074586,-0.003512294806874168,-0.0042584694317257515,-0.0047295280988130335,-0.004679722893185303,-0.003979343754156538,-0.002696458233612351,-0.0010884496518590544,0.0004941676655026992,0.001742039432266144,0.002493012214977984,0.0027645811582032356,0.0027092131650158,0.0025253892860112354,0.002370690413583076,0.0023126608679181274,0.0023290366586269104,0.0023446759651885637,0.0022787568736894782,0.002077294289754112,0.0017198580124419352,0.0012063347977386996,0.000540120706391868,-0.00027615662290012845,-0.0012259801355426498,-0.0022527367596388934,-0.0032400714163868362,-0.004018269193880877,-0.004405728497215463,-0.004275435804826637,-0.003617073857711777,-0.0025586080338877906,-0.0013266663890161101,-0.0001588931831682165,0.0007870072605559242,0.0014777159089190178,0.0019802122288558343,0.002389018944796276,0.002751399903003198,0.0030329223497427135,0.003138373374436823,0.002972695426697149,0.002508290410456906,0.001822140788511036,0.0010775062002752155,0.00044977304473596037,2.8795339850182147e-05,-0.0002458909299409061,-0.0005662019676062321,-0.0011445735132780107,-0.0020624190785849985,-0.0031683839290417844,-0.004102278917023196,-0.004452059034255008,-0.003966964567265629,-0.002705595601520563,-0.0010278611297679092,0.0005701660955486744,0.0016867729675953652,0.002183363010273752,0.0022058790112901654,0.0020609694202820624,0.0020272407708968676,0.0022082965721401896,0.0025006725452094633,0.0026806630842707963,0.0025491874306119494,0.002047483092689454,0.0012804775517572427,0.00044299037390392295,-0.00029873181711122417,-0.0008948286983411309,-0.0014171306878426083,-0.0019831209072392894,-0.0026489679642281373,-0.003339168030008639,-0.003857704404086365,-0.003977622515170776,-0.0035595200614021126,-0.0026310791355945206,-0.0013815759867874665,-7.584113659372168e-05,0.0010598804224092203,0.0019140347226573027,0.0024914174834376147,0.002855203689405417,0.0030594104266177978,0.0031174134537084175,0.003016812543132463,0.0027560698177295003,0.0023688820659447983,0.0019179583334961521,0.0014627184282227025,0.0010200141647417934,0.0005406375368144005,-7.946711392473819e-05,-0.0009457718213882863,-0.002083129648450947,-0.0033641604106592156,-0.004499440743408271,-0.005121457024465951,-0.004942475708500612,-0.003910373846725006,-0.0022686374256000188,-0.00047048060956998206,0.0010186352553488891,0.0019257063962633567,0.002269955168492579,0.002305957003963598,0.002348823834668859,0.0025855386927967627,0.0029791580884674157,0.0033128491263773696,0.0033362174309393604,0.0029188443068154536,0.0021188540122628902,0.0011327027076416093,0.00016775081784214366,-0.0006755215950003214,-0.0014362682095076847,-0.0022240861508895527,-0.0030976038373389473,-0.003973426620229845,-0.004628053973000378,-0.004796406532036414,-0.004310077942677203,-0.003194604963351156,-0.0016719725966061023,-7.192687164050661e-05,0.0012958291020381243,0.0022448845934006103,0.002750754022815983,0.0029208183193365125,0.002918994007205925,0.002881097696170259,0.0028566361976052027,0.002800943764827927,0.0026189225182375237,0.0022352814315901187,0.0016506217645540651,0.0009499713616327214,0.0002582953545059181,-0.00033054261454715586,-0.0008080450964320775,-0.001252821282529295,-0.0017725658195620773,-0.0024151272139778337,-0.003101774673677968,-0.003630545247204346,-0.0037599963774692003,-0.003333513165195841,-0.0023741825965154168,-0.0010925663652492275,0.00020106851196751005,0.0012328322527994924,0.001874887121503681,0.0021711435761203354,0.0022719861481616437,0.002323735010238372,0.0023812702242044376,0.002392042927431117,0.002251345036880094,0.0018849787581197903,0.0013041020230331714,0.0006015795384979653,-0.00010078215790170386,-0.000715982087616424,-0.0012260531467349102,-0.0016681721569255575,-0.0020856818418946983,-0.002479046597059057,-0.0027897330297015103,-0.0029254611294356543,-0.0028069901521519435,-0.002405763309423559,-0.00175348401366369,-0.0009255881941953015,-1.3606720438427195e-05,0.0008989043987903395,0.001749434362828765,0.0024974125487643426,0.0031149984072604484,0.003572489481688335,0.0038265199440536326,0.003820916926872549,0.003505723896613911,0.0028686770427401188,0.001961183641667447,0.0008976166428166614,-0.00018067943962234655,-0.0011611663316433859,-0.0020011692915026464,-0.002723766779893599,-0.0033671871415625306,-0.003920762158460774,-0.00429345610503546,-0.004341693777983971,-0.003944886038871952,-0.0030853083825377824,-0.0018836211965433422,-0.0005653753512084841,0.0006267900724807626,0.0015289587507991607,0.002108449696979482,0.0024465951123577006,0.0026656776201779034,0.00284573592702523,0.002980746815305498,0.0029969729068750565,0.0028162948949220544,0.002420201284646351,0.0018726083247064497,0.0012881644207838596,0.0007671087527668996,0.00033660774444130244,-6.722542342325736e-05,-0.0005657516687651714,-0.001267821478599778,-0.002195592401963288,-0.003241881135878355,-0.004183803596372812,-0.004753384573783658,-0.004737245485731184,-0.004060637071547359,-0.0028182319758573316,-0.001240955684402971,0.0003828624416174458,0.0017975312397607917,0.002846429400607543,0.0034919686079040377,0.0037867628461427686,0.0038167022503546007,0.003650111599844366,0.003320181070130656,0.0028429625001670485,0.002248010907116865,0.001591973717090656,0.0009413519728314636,0.00033621625062858144,-0.0002374033347806983,-0.0008431129793135244,-0.0015544648101356473,-0.002398187133195775,-0.003309358474413198,-0.0041243966793229935,-0.0046231721386971614,-0.00460963746202366,-0.003998345717614301,-0.002864532198473016,-0.0014284102121204564,2.334551129851473e-05,0.0012424961207406905,0.002100000124184923,0.0026058932066682335,0.0028649163661237623,0.0029982167696442187,0.0030763301641062793,0.0030967871188273045,0.003009262133483275,0.0027618904991365445,0.0023332925312592855,0.0017316136753748172,0.0009714951233432813,5.8892588253113e-05,-0.000993685310543138,-0.002127170078245246,-0.0032031495887171755,-0.004013187023524657,-0.004340974474567419,-0.004053110502975956,-0.0031720132602265946,-0.001889371816564256,-0.0005075395414325534,0.0006677375935927876,0.0014363231888714202,0.0017670690807733622,0.0017892305041757996,0.0017174972999610557,0.001745331625143471,0.001955294918204848,0.0022870880650455814,0.0025764208119868695,0.0026426413708372674,0.0023777530696768526,0.0017887466699389278,0.0009724316792416143,4.403619043441364e-05,-0.0009280551841909762,-0.0019322942926770035,-0.0029592704806264214,-0.003923796527513451,-0.004630133813897731,-0.004823881508962602,-0.004315471091259358,-0.003105308087616067,-0.0014290842732340605,0.00031548588202539007,0.0017290568781778922,0.002574486649007174,0.0028582705361485505,0.00279051167171837,0.0026503571579304893,0.002631996796383467,0.00275277539399467,0.0028682316558994135,0.0027786011350667897,0.002359835815600313,0.0016395080581595018,0.0007736408237576542,-5.613456490408792e-05,-0.0007551225814358758,-0.001363110925815015,-0.002005687850735548,-0.0027806492840894486,-0.0036524680805652527,-0.004423383992898096,-0.004803495969889291,-0.004543947422687982,-0.0035622567362895976,-0.0019957644216872525,-0.00015983839249110216,0.0015647951557847756,0.002862157182164994,0.0035746833172514247,0.0037284548960108835,0.003488760170013499,0.00307206594578731,0.0026553886143128045,0.002321232314553682,0.0020563889618300238,0.0017949464238856592,0.0014743186057066034,0.001069945448038498,0.0005912439411136661,4.8426528230748435e-05,-0.0005792425958813974,-0.0013417556446101923,-0.002272379102594888,-0.00331979348267731,-0.004305684656474403,-0.004951699887642361,-0.004982814527221392,-0.004262527307738304,-0.002883825743815286,-0.0011554256937647653,0.0005190751481116524,0.0018072133047767724,0.002569448672817721,0.0028748911759351025,0.0029131841805945364,0.0028641604049160422,0.0028053564263786418,0.002705753789065327,0.002494671337177657,0.002146919137991604,0.0017195774931213982,0.0013138472507173316,0.0009904579290267912,0.000702177356196888,0.0002987115887309708,-0.0003873514323283875,-0.0014196371709732716,-0.0026752646941980533,-0.003855656860311565,-0.0045953432650208915,-0.004619604317021261,-0.0038739474525947342,-0.0025590735660271473,-0.0010492456121942433,0.0002695120599566631,0.001161013953830729,0.00161737449942609,0.001816468594000338,0.0019888367741875594,0.0022741255665600993,0.0026478564073532714,0.002952961628144173,0.0030079187122402824,0.0027223097876315585,0.0021524062503941017,0.001468253532203708,0.0008547447912979345,0.00040462746078391543,6.458255630302609e-05,-0.00033355293228038286,-0.000970502064028085,-0.0019199262275368103,-0.0030768873163396254,-0.004175818289608673,-0.004892025572216557,-0.0049766406604819695,-0.0043587602116580805,-0.0031676572791997882,-0.0016700277415404522,-0.00015915732799126581,0.0011468011562221084,0.002151143788566902,0.0028579180313081072,0.003310398488321487,0.003534001693490504,0.0035194055293968204,0.00325106764378665,0.0027547460863044495,0.0021253533290722156,0.0015106955001392029,0.001056091981655184,0.0008387731393678076,0.0008253912516708383,0.0008725546476619199,0.0007708981319285021,0.00031855302524379193,-0.0005973643817706034,-0.001935812793764461,-0.0034789659081382518,-0.004871349374533484,-0.005722166281495629,-0.005741544738592843,-0.0048547726075805165,-0.003238046939951441,-0.0012543119123489478,0.0006796074727671836,0.0022287494768336137,0.0032198527289662654,0.0036464994117065995,0.0036218996552554337,0.003316885701988499,0.002907669646701045,0.0025361306458308187,0.0022767418975941527,0.002114054897210747,0.0019481084438016745,0.0016417802159805002,0.0010983398146377447,0.0003272542189933911,-0.0005492375033676406,-0.0013630482977348426,-0.0020017135699129038,-0.002473383489945338,-0.0028834083290225675,-0.003332145751260984,-0.0038038398934687485,-0.004129196663306982,-0.0040571823706150815,-0.0033969276187409466,-0.0021422045386044713,-0.0005029957604786831,0.0011706854816038968,0.002525033859313259,0.003327798932849876,0.0035320215650077027,0.00326497554908112,0.0027584706047371742,0.00225165161180822,0.0019030465525160301,0.0017455009446198453,0.0017011281702613466,0.0016452100451347105,0.0014820288030950681,0.001189158465341195,0.0008063799869049553,0.00038096215508051667,-8.90591825627382e-05,-0.0006679250852000837,-0.0014327879276153526,-0.0023864831097242527,-0.003390091039602995,-0.00417249633101779,-0.004433907012576163,-0.003998903893764692,-0.002930635406118489,-0.0015273172831810928,-0.0001888532978643958,0.0007750676882453207,0.0012826414430787913,0.001483301037346269,0.0016316854679954778,0.0019160903356787102,0.002347226109410523,0.002768535946976213,0.002970932171612989,0.0028322914504464868,0.0023915853108632352,0.001812847070422295,0.0012660612851501866,0.0008055949400587376,0.0003283922807761504,-0.00035694143773647245,-0.0013897879762632078,-0.002730810942553351,-0.004126388003551308,-0.0051888093766766985,-0.005552835132388176,-0.0050308888793283504,-0.00369393683010199,-0.0018448950958197177,9.760580089716213e-05,0.0017497920248355026,0.002882909070158859,0.00346749845657824,0.003633506739331521,0.0035759732583908878,0.0034574836636164273,0.0033530485958220154,0.003253848065120616,0.003110505763625682,0.002876242073105037,0.0025185998165951073,0.001999862042229158,0.0012575111234331886,0.00022081415102475103,-0.0011299098033046538,-0.0026969543612217015,-0.004246107357910727,-0.005465119199937019,-0.006079394652875944,-0.005963927030641178,-0.005188556298357154,-0.003971932747018161,-0.002573859321434131,-0.0011910446725452535,8.592928393304981e-05,0.0012412273584007114,0.002264817824588306,0.0031033874845129844,0.003667651966757817,0.0038880044802343454,0.003774463374917757,0.0034331509098220895,0.0030205158054872954,0.0026579582521480288,0.002357279647139465,0.0020048451721787603,0.0014206445822635208,0.00046567260975246064,-0.0008574831344151299,-0.0023636784739420927,-0.0037270132925965775,-0.004590318374068448,-0.004698972307868202,-0.004005554788901253,-0.0027008441290547226,-0.0011531536422775628,0.00022487132775727116,0.0011296587721401194,0.0014752388673956798,0.0014080883419204104,0.0012196657510637097,0.0011952267598340565,0.0014699435686174231,0.001963234542109051,0.0024253309887922537,0.002572102478925648,0.002235985790349595,0.0014513240929563678,0.0004290163173290044,-0.0005615813414959528,-0.001332005762778628,-0.0018519324897200568,-0.002220085240223907,-0.002552543302511162,-0.0028659676277169904,-0.0030364632867092177,-0.0028641802875093102,-0.00220341538777558,-0.0010754025902280316,0.0003071503611803422,0.0016198435350237251,0.002566287531641846,0.0030025055043973164,0.002982563005395625,0.002705704662193914,0.0023970721395531855,0.002187898902148434,0.002059079339626505,0.0018740484771192483,0.0014741392160267756,0.0007746491434550292,-0.00019442462499989505,-0.0013172651427724963,-0.0024573200923568464,-0.0035053787520870476,-0.0043784647759198035,-0.0049821092001695825,-0.005182099132291961,-0.004827361457787545,-0.003825738850663507,-0.0022291969904413315,-0.0002685698083075951,0.0016970148134457233,0.0033007392361801982,0.0043006850180740686,0.004657509600401854,0.0045197461262652385,0.004128606952698297,0.0036952154141986224,0.0033142096423436026,0.0029539249384183137,0.0025184019155437935,0.0019352637902327733,0.0012102677972950192,0.0004137931780470042,-0.0003866032182647241,-0.0011919455553088057,-0.0020771832675301766,-0.0031192412239321025,-0.004290687869352341,-0.0053959810454791216,-0.0061080388966860315,-0.006100953954445019,-0.00521129016996792,-0.00353797399627831,-0.0014238274947071326,0.000671908604789359,0.0023435926064558714,0.0033702222470133403,0.003755651705495409,0.003676305150313804,0.003375311002790721,0.0030561107487636157,0.002817094050720996,0.00264350435276676,0.002447215641867293,0.0021279667980256415,0.0016248791095217002,0.000935594491993937,0.00010073675083493343,-0.0008252015266538735,-0.001785966663097634,-0.0027047242532315515,-0.0034541880308017105,-0.0038577603725404508,-0.0037493011052766026,-0.0030717747502321223,-0.0019501058430160972,-0.0006728173267878774,0.00042822079225713564,0.0011360867685636545,0.0014455966451979907,0.0015346784852661576,0.0016303089425229035,0.001859573365874264,0.002182106843348837,0.0024387574717382324,0.0024700609687592825,0.0022159672232519413,0.0017313688873203592,0.001118168161516685,0.00043472530056657126,-0.0003427518292134108,-0.001272424819552408,-0.00234450070195658,-0.0034031670405204246,-0.004164103574320317,-0.004337400442764374,-0.0037896572765070678,-0.0026420513532364525,-0.0012331083545718698,4.15652145196003e-05,0.0009202417588886924,0.0013829189864610109,0.001615157166557015,0.0018583615943089807,0.002244944196910954,0.00271838741746418,0.003078027816363991,0.003110553913418487,0.002723768466656542,0.002005132538082197,0.0011758088947025924,0.0004692287224745753,2.1379493584583117e-06,-0.00029023483799915103,-0.000615027183063536,-0.0011924531877833188,-0.0021017248720655636,-0.0031894753415412144,-0.0041030105541279725,-0.0044452647461423606,-0.003975774535300157,-0.0027471369473000577,-0.0010962760724507474,0.0005091371528300527,0.0016855437297452456,0.0022921940832198295,0.0024513679721068805,0.002429368390031038,0.0024569157921770363,0.0025981657711968698,0.0027411914526219803,0.002702242333472454,0.002363749877197144,0.001750025582267366,0.000994522904243384,0.00023190954100721164,-0.000499132372044525,-0.0012663972175900517,-0.0021564770895749915,-0.0031514772528708785,-0.004064482267352161,-0.0045936199488044544,-0.004474578316945625,-0.0036397487623912326,-0.00227987812624597,-0.0007628722657877654,0.000544171487367454,0.0014419505531942543,0.0019570704884651216,0.0022663280560003304,0.002547216526628886,0.0028556639493709612,0.0031054293367114563,0.00315107454350291,0.00290757222896449,0.002419130537013066,0.0018294625902975936,0.001277175566367828,0.0007934701665093097,0.00027773890596273477,-0.0004278937262921316,-0.0014117674174992222,-0.00259469899795511,-0.0037234776080483055,-0.004463707643386019,-0.004544034787845251,-0.003877613869072863,-0.0026013979437742034,-0.0010185161310523102,0.0005220623933849858,0.0017474362173101566,0.002530224754130255,0.0028848816282839047,0.00290902863530696,0.002711720739821946,0.002368576134465278,0.0019194945921307276,0.0013943781135222755,0.0008358517906294099,0.0002958392472975015,-0.00019235608952752805,-0.0006424693193991572,-0.0011164024609087296,-0.0016866888494221543,-0.002374486548948333,-0.003097342376564419,-0.00366395312107551,-0.0038339024286478483,-0.0034242853678881297,-0.002410993099953817,-0.0009647476787468814,0.0006070646743806506,0.0019865912288386588,0.0029701860653993887,0.0035225555018142205,0.003737815141347719,0.0037446788292914523,0.0036234162181503155,0.0033835352376033433,0.003000762566684304,0.002469263610582885,0.0018208136051287387,0.0010964746260588665,0.00029980953442191325,-0.000619795805444244,-0.0017246746131698832,-0.0030043062767666487,-0.004305761866123675,-0.0053392482825089325,-0.005777463271302473,-0.0054062855225974725,-0.004243992652373953,-0.002556046277942364,-0.0007498999839555323,0.0007954989055449684,0.001872875698023768,0.002488608273456496,0.002792245529030622,0.002948212718995813,0.003033077713478759,0.0030172904973839,0.002829833976842026,0.0024477440899284097,0.0019380403086909277,0.0014174847260878167,0.0009594190959340083,0.0005209587477050992,-4.487663029208774e-05,-0.0008849457671559272,-0.0020100176877314154,-0.0032186260509768213,-0.004144483388865961,-0.0044186140163032794,-0.0038627021303744703,-0.002600799227157709,-0.0010162517213601636,0.000429668880487289,0.0014165002148844976,0.0018959168644128105,0.0020641234584968158,0.002200100627626963,0.002473545006889077,0.002840674307603877,0.0030883749688363276,0.0029926543163887225,0.0024836499391277227,0.0017041112435524082,0.0009183740161324214,0.00033134301621161257,-5.738539026522817e-05,-0.00045842875077645086,-0.001144610379950044,-0.0022426773558144506,-0.0036007928591725857,-0.004821352282459205,-0.0054448400605905285,-0.005178063694039116,-0.00403688741333385,-0.002329754774492141,-0.000503640148451324,0.0010523128698466109,0.0021398963727072835,0.002767497736734948,0.003067982409721348,0.0031868629666998135,0.0032070603449089853,0.003136431812848327,0.0029402307462848306,0.002581830741073213,0.002045686741616378,0.0013395214995254746,0.0004884426740806771,-0.0004654603815765963,-0.0014541671774203077,-0.0023733911269335555,-0.0030853933430831123,-0.0034457573732820596,-0.0033508802873245744,-0.0027860790657743186,-0.0018470573049991022,-0.000718175071396156,0.00038544334335062545,0.0012844896898939254,0.0018803284868154065,0.002163318891163835,0.002191361913762122,0.002057152137702008,0.0018581944345938861,0.0016714112662338603,0.0015287211214746088,0.0013972200167418727,0.0011784420024012745,0.0007408607229470393,-1.679354900497275e-05,-0.001096240257719336,-0.002360207592741573,-0.003548980437423801,-0.004354113917745774,-0.0045239858912765555,-0.0039597815686575446,-0.0027612470466395304,-0.00120006141411525,0.00037123369549337817,0.0016385509146063905,0.0024251843758934344,0.002731044172774483,0.0026994057311269513,0.002530370291698031,0.00238350119953536,0.0023151573082125123,0.0022765394580812025,0.002166144133091169,0.001902067963355858,0.001470280890687768,0.0009203501011956367,0.00031355024469235417,-0.00033820801859803717,-0.0010925689869086042,-0.0020284848289872006,-0.0031496176444955467,-0.004302603434463826,-0.005178616423243288,-0.005421948273400757,-0.004798679298093628,-0.0033304885101734195,-0.0013111374069377478,0.0008084400026338065,0.002602334000317391,0.0038196212610091037,0.0044302260750897025,0.004562274767395833,0.004387245167485374,0.004026690350312065,0.0035247745674106506,0.0028809120294739092,0.0021011513433983144,0.0012251475831307045,0.00031288410556331355,-0.0005907805684623477,-0.0014793793455337716,-0.002372304719980563,-0.00327028423001842,