147.8339339831272,148.063432069348,157.34157570946616,157.66549814763175,157.96787085651596,164.48609021105838,164.63631800455616,163.85149654643132,167.96863567073171,167.9187314172448,167.51140633896375,169.91462767972124,169.76084492140265,170.21760103312064,170.80187896166618,171.24116132939662,171.17533449240307,170.60473341611169,171.29780065866677,171.25752128666036,171.12156640181612,171.4270655594737,171.04410043420805,171.06607729797122,171.3421680360456,170.69686935580975,170.9321299366898,171.18763479511142,171.2163133989402,171.02376717253907,171.37195745164098,171.11379076086956,171.24018554135083,171.31992908068958,170.6517806882576,171.11442673599336,171.4324916015551,171.17318414707654,171.41509362730292,171.20753153831672,171.41696900982615,170.87762683878714,171.32012964986998,171.1002822201317,171.15643236323933,171.14770121424007,171.43031951053706,170.90380859375,171.1665222469201,171.1969240048251,171.3105292898851,171.2874617737003,171.15613578990994,171.7367363953312,170.89306423676481,170.933991409841,171.18008995048945,170.96060617484073,171.3910936079976,170.99110843191923,170.68634992458522,171.08897792561234,171.00849088644856,170.20727368066218,170.5549072017468,170.3882171243455,170.3889077021485,170.40803581505585,170.6706631979791,170.5890653888239,170.5389490361764,170.6699879227053,170.57516684891218,170.37661214514006,170.3258676503802,170.39309513949024,170.44559371121224,170.34295281812024,170.1536641250047,170.74772461195664,170.36353387696818,170.2706085779799,170.50408401400233,170.309265944645,170.81087300988455,170.6047150981057,171.18935783980032,170.652362130623,170.0976613657624,170.87042614064146,170.63735229923986,170.17135041966426,170.54237989541403,170.68761524856058,170.7029394076079,170.88515015637364,170.82330133634483,171.00565355042966,171.0392993317981,170.28134831460673,170.46797660116994,170.48568534013734,170.8552923899537,170.6446715767323,170.81139888571,171.08496016312353,170.90098412578712,170.39554871640894,170.39438417358008,170.2463817022872,170.70589563188983,170.6389619169233,170.45202446620885,170.2703928624981,170.40171068427372,170.37656495989205,170.64726671178283,170.40041260315078,170.76120245306444,170.63510210221503,170.39224590902268,170.42742784125076,170.53913402371305,170.07329842931938,170.5894622120335,170.39586377430595,170.25394864885095,170.0239250522544,170.96533645141824,170.58142857142857,170.41646970549616,170.53997300134992,170.7311815822142,170.64127985579088,170.86488624378484,170.65731477999248,170.33035045679196,170.15230423379543,170.8534508740205,170.37289660083198,170.70008266325993,170.89163841807908,170.5186214146268,170.467645622864,170.20875458698418,170.84915758923523,170.36720536953015,170.52006016168454,170.45742083317683,170.50703695341312,170.57308025458516,170.41986769901527,170.71221641145266,170.28939172201584,170.20345410174582,170.1341637277707,170.19919690771945,170.5169826968749,169.8134895384961,170.43533348372057,170.11693578670673,170.18827948910592,170.6362746205702,170.28354782870474,170.22445983588045,170.11404002853817,170.2700296735905,170.42506123987187,170.5110130497096,170.44010397046637,170.19776750479198,170.8153398351856,170.11340167473998,170.66561002301972,170.6516697413501,170.68133027004632,170.14883651215948,171.06862374215027,170.55980429055325,170.3283133661321,170.29387432783062,170.72499245624624,170.8974765790269,170.9215708465369,170.6566630266973,170.41301735146098,170.7046833201462,170.70663956639567,170.17928943132043,171.12785577176408,170.77660849374578,171.0209800745791,171.16454884808266,170.7282808916958,170.6491155593946,170.4983867336985,170.49067507223535,171.11876932358044,170.5830265234052,170.29823904083926,170.2592800269149,170.4904599467706,170.57213594418187,170.00317875841435,170.70093704135778,170.5876563615191,170.62013523666417,170.21117523609655,170.51702519052446,170.49741243531088,170.3484649698242,170.9529127678841,170.56273478587528,171.1233560090703,169.97326562616684,170.7541785875621,170.39652193509616,170.6256298413176,170.310475404919,170.79814376432572,170.81854414197625,170.63037356861273,170.77187969924813,170.9454511136278,170.4675013119424,170.9535872920274,170.42352852909178,170.99562808577997,170.87706491063028,170.47217949198964,170.73643265183404,170.8601704502602,171.15444570563753,170.51055026892843,170.68519285042333,170.78452955367914,170.6275423888116,170.48601779212493,170.88859146433418,170.77232614270628,170.84683224663627,170.36441920806226,170.47781209975136,170.55768723380197,170.56506191892197,170.3762450667168,170.28134499193155,170.6567670448121,170.63259543709057,170.06034515030134,170.93390891268285,171.0381274675691,171.02147944379544,170.7276493183701,170.6359662345493,170.75280771839903,170.4906164203242,170.62172143503165,170.32087531959692,170.52330181215387,170.4866624026487,170.58809827935983,170.36184481660484,170.83266782189406,170.9591821336955,171.0857250755287,170.71430183993678,170.90781426953566,170.53891181988743,170.96820678756868,170.80972769953053,170.43399407951438,170.7121206423226,170.63427196511148,170.95443400852477,170.86941619585687,170.72542907575018,170.58831032412965,170.27386559019212,170.8627671963635,170.73182637428658,170.7245713428132,170.6726304339672,170.96261118649178,170.63995502248875,170.34500299222023,170.46269160139414,170.5014427581038,170.8311009105275,170.98934568180107,171.32520294506324,170.60497713814556,170.71628622916353,170.7368796992481,170.80465046278877,170.4539734851322,170.68363745588346,170.36434486117875,170.7410663961222,170.62890815598843,170.50444936732626,170.69403993394386,170.8227067669173,170.66813063063063,170.5320754716981,171.0684705617809,171.27558729562114,170.79441215075943,171.0581530938499,170.68497673720546,170.97265419577792,170.58031631811707,170.80081881009616,170.97201928146418,170.65688114723326,170.9402664859982,170.10318795081662,170.74966124661248,170.42233574997184,170.4777218423623,170.34563682787623,170.53432275032876,170.30767499437317,170.01056100666617,170.36382465918507,169.90613529103302,170.18683588029887,170.42964776794122,170.29335689311628,170.4790685406383,170.59624006329352,170.21609057509184,170.64225097122167,170.8934884423629,170.63544256120528,170.5983208463537,170.65195450779544,170.48040616773224,170.457996313156,170.5872752629,170.1109569521524,170.6700727725199,170.50272751213274,170.50578176202492,170.83998941078588,170.2784419881194,170.67002936083716,170.34583474114953,170.52266235718582,170.59114857744996,170.54118355669326,170.4847015486393,170.60550286058415,170.6181504278637,170.46393762183237,170.96084042473078,170.5995427629113,171.10260279139948,170.7140871525169,171.05508043551973,171.00169734459868,171.1371348675509,170.80214285714285,171.01799456767768,171.20015864621894,171.19662963802614,170.97214894098138,170.6004277513039,170.78366810587573,170.9089060440595,171.13715532483167,171.49043287919386,171.16371981039802,170.65811965811966,170.75107956892344,170.47393098274569,171.01964769647697,171.21112744543706,170.87276012648698,170.1615387491121,171.3038046350117,170.94878848400347,170.83131442329395,170.76450229478596,170.79835824829613,171.0431288204664,170.6613334337236,170.64237987987988,171.02933625311485,170.26169694699382,170.43418039863369,170.06445686002473,170.51937984496124,170.57755278708268,170.67796610169492,170.62694768535943,170.64066087087426,170.53809416365823,170.4251589361622,170.361110067971,170.5828629487469,170.2951127114512,170.45358459339502,170.15599534342257,170.69619345833175,170.26995384442193,170.29413311298077,170.5568909652626,170.67586596385541,170.6494888142755,170.229743936322,170.5693570863621,170.38201866626525,170.51431904564785,170.23454285928932,170.66174972648733,169.9702175543886,170.44689499435452,170.19299628420222,170.24441855220627,170.38871179448716,170.28233041780848,170.66064098218658,170.95948754771172,170.48524478950742,170.45919981916816,170.56607547169813,170.37004488364198,169.86604630220253,170.01209525955977,170.60729005180173,170.22737032433042,170.381631037213,170.15231613776507,170.44317838816784,170.0636250892555,170.45601965601966,170.81934458487854,170.344052415559,170.59931364784856,170.6246414011777,170.56256373456208,170.05471627207817,170.47131595820917,170.41955408255498,170.00874657457112,170.66394865987164,170.00443458980044,170.42055863394776,170.16463689670726,170.55051686410624,170.40142464101308,169.74591331733654,169.83921142385967,170.4574219339267,170.21986829727186,170.25653108153958,170.21053423626788,170.31049436253252,170.0571289245658,169.99253171207687,170.18225563909775,170.27037204398252,170.58297486982116,170.4162361901889,169.98825868407232,170.2670302802332,169.9554056586097,170.2228696011728,170.35050964757212,170.07648320228733,170.38016871281164,170.36892802046881,170.54462095769972,170.21723296414493,170.09999249305608,170.13921340295255,170.6157587181904,170.20749052426163,170.34198352702245,169.56940033626003,170.13255455808888,170.55973017787156,169.96981612552898,170.08998385097834,170.88008322299982,170.4425538322542,170.57673174040852,169.83937455579246,170.62037909334137,170.18909295352324,170.31729362787382,170.30932792366355,170.8185765527657,170.4424525459476,170.51678810185533,170.76056815612992,170.5708052807763,170.29844466150726,170.3140917444957,170.42786706311867,170.35327560240964,170.40715656394627,170.4126304723286,170.91179692516903,170.53036299898224,170.2234992651769,170.20406546990498,170.4110431763285,170.27961406550332,170.25259306755177,170.16871962933664,170.0380912987892,170.20731247644176,170.1559058681551,169.8973029824957,170.30749188127785,170.00857078415157,170.13444808496214,170.28896348823176,170.28443136367068,169.93286923800565,170.47717732481186,170.39724007561438,170.37013526789087,170.4321071752952,170.4046052631579,170.17086623096975,170.6164196641777,169.96890664455583,170.55640520896426,169.99722180507584,170.2745815110843,170.3558606124604,169.93784353587833,170.10382122399758,170.10488062062214,170.10044013091073,170.20087418516147,170.28301247033116,170.3358698108943,170.12732265101934,170.2108692377222,170.68924076943426,170.53876364185643,169.93946339996995,170.04300063955458,170.14167388276044,170.61779273318461,170.35725064131583,169.97053303303304,170.31829328102012,169.9095886301421,170.11268982107953,170.36229149369763,169.6870694818808,170.1033472331793,170.25862393967955,170.2543714199578,170.44965657785494,169.93386322735452,170.48620117629318,170.10270006016847,170.53442746651575,170.12022412755715,170.73671497584542,170.08773510530466,169.9759203606311,170.02914006759295,170.24320156467448,170.13232862297053,169.87764582474807,170.13969149736644,170.3985444398356,170.0495190862639,170.09721648322753,169.88017551755175,170.2581823660126,170.48697455230914,170.08555768292226,170.94981658662027,170.47330316742082,170.2898528913804,170.16092904389657,170.1887757019885,170.09200631673937,170.45869589784155,170.2291509860003,170.21691770273824,170.35292788552061,170.4530624575183,170.00278362925067,169.59195359281438,170.3580409576871,170.59241973728783,170.4709992486852,170.47674155609167,170.8770841997807,170.13020931193867,169.82728603054295,170.20605992000603,169.94451967200783,170.16528333207575,169.65479864508845,169.99554666566027,170.16737192081004,170.20694869759177,169.87333383537916,170.37795662359252,170.57517429524097,170.02824390059956,170.16069272562632,170.1576880969459,170.40164895427554,170.0463493739629,170.03721737817537,170.28332386901383,170.39537611624036,170.13327299468267,170.27626811594203,170.34567854578435,170.0829842635571,170.59413240100326,170.237298379481,169.98154438405797,169.5558145655525,169.44927971188474,170.10941149875669,170.1924340242383,170.34894436680892,170.08836858006043,169.8176965869794,170.3458788818701,170.13960855300374,170.03520489019698,169.7887451098405,169.8402226652123,170.11465640793543,170.0848679245283,169.81737067991867,170.08893236024377,170.14867617107942,170.01524505006398,169.9198148705599,170.02850365238345,169.98373861326507,169.82898289828984,169.94880930058127,169.82851796407186,170.33038570084665,169.87895032802248,169.77669939294012,170.09424398302858,169.68733888743603,169.7375440173822,169.892834376992,169.69044238529366,170.03179494888755,170.33384765919013,169.88558258066934,170.06479010860986,170.16081101414386,170.2135984364429,170.27288745594961,170.1751439898272,170.59457020380538,170.74142539814014,170.52113949807824,170.24396480409115,170.2924663204636,170.17308197829433,170.41077898550725,170.2664633457585,169.9672667142696,170.0686068343973,169.86966789114626,169.95627861592735,170.07320187793428,170.3934055155242,170.33813897462923,170.23530297327812,170.33688370342492,169.95081659470623,170.7953032824081,170.59921636589684,170.47643091299597,170.1856143254834,170.40688823573743,169.99548600662052,170.4067943921702,169.8628496339403,170.33079532604597,170.16741568790363,170.01148819164564,169.94397590361444,170.1679259539101,169.7099845696436,169.78067836081584,169.81477572559368,169.6068511198946,169.69161484831355,169.75879737774093,170.2068926468368,169.852196168467,170.21832182085834,169.82159677480126,169.56851914477886,170.24285443876585,169.78651558500226,169.97811072951654,169.7211466023806,170.08469252601702,170.05933675781841,169.86896005431709,169.83733574988673,169.87988531763995,169.5037206855081,169.89911751395383,169.92084323264322,169.70014676551386,169.9025697143504,169.79912696620758,170.21265669838394,170.0308175149361,169.58538510694282,169.6877494164596,170.06385792556208,170.06240578836298,169.9422331011109,169.43807597212856,170.39139158086007,170.3011443030326,170.05892991710624,169.65087758775877,169.96003013750234,169.602808124038,169.91437481214308,169.65147483227764,169.771199819576,170.09561482820976,170.1506761350759,169.76977093503567,170.13997135750358,170.49365175332528,170.26263388143008,170.15072835685712,169.99153148406037,169.8169765258216,170.52427294759164,170.1362267560039,170.22918238044954,169.93252295649555,169.4836403114705,170.04128336600814,170.36604614280859,170.60850484261502,170.1086138092011,170.0976500715523,169.88396814664563,170.0144666140608,170.15060853837747,169.82880312359214,170.0416211944455,170.05877704609597,169.8642234905377,170.08681587361295,169.7589841698552,170.24980204366352,170.1885761651784,170.34292611171878,170.66628895184135,169.81282300951239,170.23643542019175,170.6673591176915,169.87922034025613,170.34434762928595,169.90432399969973,170.3513360720612,169.84431856548,170.21143501974797,170.1896233868844,170.29001883239172,170.04410660660662,170.16968215158923,170.04623081552813,170.38661429218917,170.1240969295605,169.76863598828916,170.09247465802466,170.29403763318976,169.80335262722693,170.11359011080123,169.81196227974604,170.09635014501487,169.65742544582648,170.15323884356556,170.50706086693853,170.03872351635118,170.47799598895068,170.20743595556564,169.80783441411552,170.05471940704885,169.65384326113116,170.21568404710516,169.6061268322092,169.82801418439718,170.17644392399802,169.7335165869639,170.0276149044827,170.07559656619898,170.00045366904843,169.9407404606134,169.69327144420544,169.98424155392638,169.33869754850355,169.65740147086555,169.8448249849125,170.31370546857272,169.5784144603615,170.18414698558817,170.2431012323278,170.14191406692066,170.11770031688548,170.27818724723136,170.5225074898555,170.06848228450556,170.04315133194785,170.02451904941532,169.8987403831649,170.14804036433728,170.0504981884058,170.32076684564774,169.87889715273081,170.30280359706794,169.5206853793259,170.07805835503717,169.9270754859123,169.7281527798704,169.8632256607183,169.8901670878437,170.10487160120846,169.89922246546388,170.34706394578427,170.12990594190308,169.85071474371063,169.8285950973378,170.05317984525382,169.80492952438382,169.92830757632868,170.27712709687168,169.97768816191157,169.74716186752875,170.22800060427525,169.88788883030804,170.17554716981132,170.00305073255245,169.98537559835663,169.80605558484598,169.99238253261936,169.46829652405415,170.05885904014488,170.4645437010703,169.68516570226197,169.8827677224736,170.04922670690306,170.20841978196086,169.91484395587847,170.14752366942025,170.07595747889022,170.34922134865437,169.88247244272225,169.8165406747151,169.8456678700361,170.26820892142803,169.97625608697294,169.96017782466188,170.20762264150943,169.80496800903273,170.11506828642572,170.07774970777874,170.38818597273104,170.12104668674698,170.67272042200452,170.39127154765947,170.0713666679227,169.59582628313592,169.78787193121394,169.37574075463206,169.6023039566314,169.89553083160476,170.05816504046592,169.92716208043544,170.0787711399493,169.6655866174365,169.5901082732863,169.74012238422603,169.76876604742486,169.87858411091383,169.9000945000945,169.60698640483383,169.6114733707738,169.97469792810878,169.69479048697622,169.86263757043986,169.94362893462468,169.62054380664654,169.50552309142319,169.83973850281527,169.34647802528596,169.5893167232918,169.35796844998305,169.3757454518004,169.72397864526144,169.787336987337,169.52853588661037,169.2979995487704,169.4587912087912,169.8489110707804,169.81408344345857,169.52059798162375,169.502369133574,169.42819529075453,169.89938460376788,169.74838029230074,169.55098968916985,169.5918329013111,169.66967712801986,169.49640855928698,169.76674713337357,169.66974169741698,169.5608644903799,169.92682374263705,169.5433636979598,169.95937877871825,169.54531085353003,169.4906420636415,169.58829514621647,169.60099393848122,170.20444646441692,169.62171707683638,170.15814251280506,170.08572072241205,170.3540314057074,170.4569443920118,169.45541365491928,169.98997021228462,169.67648605996843,170.17009881572,170.3450363196126,170.49071336517324,169.93789053677634,169.85200240891297,170.00837483023992,169.54221888492586,169.81934973439326,169.50736454497633,169.69254202865847,169.67512518353976,169.6599095704597,169.87932205948965,169.62026411828887,170.0626629880192,169.65218045678594,169.68458754335697,169.52614747930775,169.65902416986674,169.87900825200649,169.71835645276494,169.8646664658937,169.86521968101113,169.81077415709174,169.8018231815271,169.92421330318447,169.45687549325416,170.05405507498205,169.86427333684924,170.19104692048847,169.90795625942684,169.99981122102244,170.00347209118013,170.07618759684064,169.67644297570317,170.05393503707327,170.12414574287334,169.88493975903614,169.84006170284812,170.0217980573752,169.60696704370372,169.36820933117787,169.76311928676222,170.1339855702036,169.67301694660503,169.85443942814146,169.7001953125,170.0338471976179,170.1350322313115,170.2925005664225,169.84494407326778,170.17053534479516,170.31076911499096,169.5731018224002,169.71241780950592,169.68661932138428,169.69768490679496,169.86212743509552,169.9002372613264,169.8878765060241,170.28045144000302,170.21203319502075,169.99664846544906,169.6887267804768,170.1028541266071,170.1088769004414,170.08175105485233,169.81203431925942,170.03523218650122,169.89427230046948,169.38277279521674,169.89615803507718,169.70138210771427,169.89343922911883,170.2880869696512,169.8680487621341,169.9404999060327,170.3562502359648,169.71754379384072,170.03350525166584,170.34462466993588,169.96554056593138,169.45191947915887,170.07705337649628,170.07564416024073,169.73146029483476,170.26403099608788,170.0158253956349,169.46249252839212,170.10152723442673,170.27658292214397,170.37112158341188,170.58056729028365,169.97903043968432,169.99804680163768,169.93701674048495,170.10696414462546,170.29008581752484,170.06590107333184,170.23593984962406,170.25217031831335,169.83072721831513,170.56943661442477,170.47031191281474,170.10677902621723,170.30220687584446,170.0156015037594,170.0360153545085,169.87619583567812,170.40985958025064,170.07870283285052,170.0162048351318,170.1970588235294,170.25752659775145,170.0712081294693,170.07911797964567,170.06261523988712,169.98704136216378,169.72907439381427,170.32748538011697,170.20400481782596,170.10649751543443,170.29924471299094,169.8738507912585,169.34122228879568,169.92902642192152,170.58070866141733,170.03358715319663,169.83951315095334,169.82922978611435,169.88039141889348,169.90537180742862,169.99879377285234,169.85008665511265,169.85375866224766,169.78398012571986,170.0477502642307,169.86943441636583,170.37524119405245,170.1446842224402,170.54319490754773,170.40121614986592,170.2211466023806,170.39288671433948,170.42674655211394,170.2480102117435,170.84365313374158,170.51477637290054,170.51554902182517,170.73588321828674,170.68677792041078,170.52944725133852,170.50504936317733,170.75284626404283,171.26889771223293,170.81247409082343,170.60218620429703,170.675687934684,170.31687010247137,170.45728813559322,170.61450050872367,170.30667368896246,170.5513299377476,170.5919214798037,170.49159442140973,170.43332580377984,170.39084533594752,170.20734463276835,170.3350276742347,170.06851322910404,170.22997853834858,170.57182821714804,169.76436803183302,170.30737596679873,170.33120108368453,170.34563340997323,170.01104266826923,170.2114442853914,170.5140462165836,170.64151655904234,169.91697306220453,170.08699410018414,170.426551542116,170.21347976530765,170.16062565799368,170.2987834733155,170.9074516949474,170.0900823029802,169.93614864864864,169.96917654117294,170.1809484349693,170.06016254044698,170.69677932104605,169.95623098020062,170.0427684784653,170.22476441764042,170.3991477808364,170.34824726724463,170.02399308036553,169.9548014115174,170.55845283018868,170.07112231081692,170.40273693734449,169.79103637250853,170.165888026524,170.18203345235858,170.98771936474245,170.10449163691035,169.86503711479344,170.2119135477069,170.339232594043,170.41638663394374,169.93829715188681,169.854079831775,170.5065274151436,170.1787601932951,169.96437314051144,169.44836375904336,169.84262640713828,170.22351474864976,169.94454908460784,169.76133795389484,169.94517965539345,170.43920275851616,169.82155250452624,169.5038142121679,169.8648913699457,169.5831859406164,170.03332703570754,170.1389508717522,170.5437214611872,169.96126163469873,169.81338345864663,170.37633839052629,170.16923716640207,170.0831509846827,169.765243902439,170.10938442969223,169.4484274602638,169.77894379223133,170.00351062625043,169.82236344378876,169.84758954208857,169.77002262443438,169.57335849056605,169.8302336130642,169.8999848748393,169.64546857938927,169.57058845704375,169.87219408963796,170.1014372163389,169.8782667722593,170.39892367164404,169.4894833878918,169.77242731626382,169.72001506307663,169.81460525819472,170.27626739468397,169.97696410334,170.26967697907187,169.84401870568712,170.04682362722497,169.67587844970592,169.88033801116643,169.83192612137202,169.86732576129202,169.56555588987513,169.8581236561168,170.00407824182463,169.60088725140042,169.98807322136253,169.87937273823883,169.76304766217592,169.62280338664158,169.71404386591928,169.9436550710436,170.07725402875798,169.72700263256863,170.20684174676455,170.14200468313317,169.6731687149998,170.2673042755075,170.13616088304227,170.05595170722506,169.99901842343704,170.0823746841172,170.0194636188752,169.87218725264785,169.82401687509417,169.88875489900514,170.09269525210243,170.1787182678888,170.09643368770264,169.91337071463516,169.7828491872366,170.2078324638996,169.82856496664027,169.7973171558838,170.23133086176892,169.9434731714685,169.84377355646012,170.13480725623583,170.0735377518999,169.94746390505708,170.1628812214202,169.81645736697214,170.0688911587788,169.82844081756016,170.29045454545454,169.7502636336246,169.7615346889501,170.07851958264024,169.95753419495836,170.38805857487924,170.63119494953312,170.4374834687323,170.43169440242056,169.8664957973691,170.15380549682877,170.20055163033211,170.05601965601966,169.79464454082594,170.0250320924262,169.9985650088743,170.43092979127135,170.11445532574584,170.12760081712946,170.05887239907858,170.5769536423841,170.09236221066124,169.98641150492583,170.1197505197505,170.47641795571732,170.17273653621166,170.4028276565985,170.40333371130512,170.51873035112305,169.8155609847773,170.4246891181918,170.5987595961124,169.824985910201,169.71387718242022,169.71563570648695,170.10096735187423,170.108854835057,169.45983920655195,169.80981595092024,170.0616572504708,169.84429494888755,170.33992363815068,169.72947059708227,169.56404384713568,169.93089323963775,170.16563537579233,170.30758474736405,170.19630118890356,169.8329073962718,170.1664343042315,169.80339021273397,170.18285412421704,170.28584923483848,170.23182177993894,170.4043717909997,170.47884397431054,169.9636117585144,170.14314220097134,170.12558402411454,169.79683625159691,170.10542384380537,170.24017813337358,170.49402284936068,170.26814105945294,170.53088518644452,170.11330975848318,169.7885401432482,170.39582625759462,169.78323959505062,170.24300475148956,170.04937760896544,170.64600363306084,170.00868029460395,170.44024137280783,170.28434480676327,170.34691796343859,170.10827713521456,170.08371425333382,170.20297571843963,169.8888429130304,170.0748916933509,170.00387436524355,170.19119586929483,170.03933536792132,170.5072150891944,170.26484121596138,170.83884815560538,169.96051738441813,170.21749310774575,170.37274450341167,170.0077677224736,169.88835719668424,170.34924841921926,170.2858113720456,170.66266019564722,170.24795949214027,169.8537256083779,169.88986883763002,170.00412004838222,170.19099208303345,170.19503800915246,170.09026074487755,170.52830904675167,169.82220298147868,170.1195232690125,170.27832633450612,170.24341132304426,170.56384352449678,170.30656078653809,170.33551536249433,169.9649864171446,169.75786104311806,170.0150937700464,169.63831068618964,170.0599803343166,169.79318515175447,170.60269092287285,169.73514284641664,170.23020577685483,170.38783528522856,170.44721413170936,170.7823779193206,170.20795741950096,170.3422522454525,170.23649210307565,169.8168590442531,170.37405936850067,170.26768707482992,170.19996975310977,169.8405131871026,170.475117228861,170.7224601159574,170.21327747584542,169.99162990611921,169.73605682501503,169.73506200676437,170.08264213542452,170.1671568627451,170.2646558566731,170.39551674604974,169.93770714070504,170.17063507037471,170.18950349254294,170.23796397689082,170.02155237377542,170.10643835099762,170.06411270576714,169.98662295576156,169.3703011034225,170.2436124844322,169.87221575329602,170.28362264150942,169.8775540921919,169.97662513644747,169.70501087690346,169.9435083496314,170.27014074940567,170.2732483596048,170.23947865508123,170.1570291577081,170.12432044699486,170.25330612861785,169.98533680123637,170.1782327830456,170.1966506634408,169.99366921656554,170.3990158970477,170.04958240429312,170.54522346156764,170.0163383895555,170.32258308728896,170.44471308224095,170.55464377552565,170.4057680677351,170.40498619150304,169.98776296408204,169.88326481348773,170.22147752660078,169.9967162376387,170.56370055424796,170.43838161686637,170.0410912255477,169.6102977153826,169.96109917448828,169.93052146660122,169.77757671718314,170.0320214736683,169.5452969550799,170.12166464523955,170.1610047665885,169.96049448056857,170.27336033001552,170.08263649778652,170.00022651766838,170.24089858696064,169.95450938905051,169.88651117149757,170.07770512868967,169.9687877415459,169.8947190123085,169.95382003395585,170.25989920806336,169.88063640476548,170.23714652956298,170.24708994708996,169.81060920016577,170.05793650793652,170.66139396935245,169.89319766346335,169.80012800240945,169.98965725502038,169.88576814326106,170.11251322351518,170.46047797598757,170.17797569627896,169.8705683101242,170.2320469163829,170.21956932376276,170.17860500094002,170.46788403614457,170.53773158608223,170.37584650112868,170.44776513152937,170.8574184032374,170.70431605905392,171.45221630200658,171.90847689155348,172.44426322776408,172.35980195774596,172.81069336860003,173.56145017861215,173.88930817610063,173.34535399068147,173.38517000607163,173.11230472443924,172.8952517659502,172.82044803137728,172.87351928244334,173.4702306318629,173.32570215669182,173.57232895436252,173.14700661000944,173.3389431295825,173.23418946090518,173.32295986303976,172.7763944600015,172.80737875857886,172.41858088930937,172.45273216791173,171.92664472439753,171.93880959611297,171.357342393356,171.2559915722939,171.43245994344957,171.34438083760168,171.47100600657322,171.46159945627548,171.0796096752317,171.05719883944383,170.89367155403113,171.23776619845944,170.11318073010173,171.06845799682995,170.85459135611742,170.34909131871433,170.68867924528303,171.20904339922745,171.0502133121909,170.83126438516393,171.06060262800182,171.03489162449966,170.55922636965684,171.03747973304175,170.58807852558087,170.60466516177578,171.1255771705397,170.78649814576553,170.22636394442563,170.31334564504579,170.85007575757575,170.79226084654084,171.01781922960268,170.5424080217129,170.75822430613326,170.73669277040062,170.92913356034808,170.59230333899265,170.52625428776057,170.50235893564823,170.54578782266904,170.4529872673849,170.56962311842156,170.68461799916915,170.877161055505,170.57419914726634,170.5902586369643,170.59628831689156,170.27634908047278,170.3582654800227,169.95898016997168,170.1864034256698,170.24407062211108,170.51211478761263,170.5709424974481,171.0021599909053,170.42085625989296,170.72593881178383,170.76223062381854,170.7393570807993,170.39031285337353,170.54050790536206,170.18011278195488,170.87958967370733,170.14971072206777,170.87053487053487,170.7693470946278,171.00056859103142,170.96137274170383,171.0444032251959,170.86609471257418,170.62928735114016,171.63635330656768,170.96515823498459,170.89941251788807,170.74423606656353,171.1844829547609,170.58140673243466,170.80294749538277,170.8082109227872,170.89819252103695,170.9083525367383,170.59573507841588,170.6724871109773,170.90494526236316,170.65467057761734,170.62692683660427,170.81041116559788,170.67350626858928,170.75990509189515,170.56965220995517,170.76825265064332,170.64646274391623,170.495169717701,170.34855706083238,170.58943058894232,170.66258938652615,170.65115491686103,170.64988919355446,171.00964010282777,170.9813702150172,171.22749763928235,170.97991559273495,170.376122754491,170.58085002442598,170.73868969401164,170.3957997374836,170.52818222755928,170.63631242959067,170.84903737259344,170.4461631101577,171.05810652231517,169.95901700756724,170.5215242407093,170.28402344630646,170.71481914532492,170.45736871823829,170.8810369586577,170.53004372738238,170.11205471215993,170.22226819635134,170.82469546795792,170.29161645073816,170.4777790342644,170.69406530427568,171.08325449385052,171.0601748476706,170.60891873538066,171.32011234675676,170.98814483751232,171.16101020059915,170.78904803295416,170.78750566550838,170.85218771253685,171.06065536552143,170.84910447196032,170.5598311536577,171.01141517992139,170.85019433228933,170.59105599398723,171.33285471377292,171.61057964986577,171.23017430015847,171.5024244260929,171.3545876931213,171.05647014503674,171.4120132810142,171.05858228610128,171.3210552137978,171.5176448386488,171.01465215262346,171.5442601847645,171.06549593005727,171.25097239530228,171.20366875518985,171.42249688173263,171.29194630872485,171.29803419447165,171.15548780487805,171.25548270404704,171.29513326045162,171.51258123016473,171.43352579342616,171.60300332025355,171.5289584041709,171.19039716365558,171.31449788902293,171.5015506807867,171.68184913369146,170.898057160003,171.10119875239562,171.79014964955485,171.46297692655708,171.36823853141846,171.5752523534082,171.07061785929045,171.1190404572116,171.8385398917036,171.31620642824808,171.17469154378574,171.3096779048766,170.3869344847006,170.63924741298212,170.80563083408612,170.74398431017576,170.97004972875226,171.09516975716605,171.02078069017537,170.86958817317847,170.53108214701575,170.70311853440168,170.7960212101839,170.99396658999208,170.43622601918466,170.9206947217722,171.03914469962666,170.88710830229846,170.86839826839827,170.73212404034322,170.81257065340267,171.1082879612825,170.4807743004557,170.6072895857676,170.98684210526315,170.74463349303957,170.51130284078064,170.7547262367458,170.78270066100094,170.7030140504608,170.44258030462976,171.06456132379114,170.47487380396294,170.7005281026028,170.50239722148817,170.74907302307983,170.78431223948465,170.6181873157457,171.1141502276176,170.71167151877196,170.73682615448726,170.92653587826814,170.98721790252227,170.4652329749104,170.25495889584434,170.8782364759847,170.83976812033492,170.6214312760318,170.65380545688157,170.36333798619233,170.93117562343667,170.2578734960208,170.48052486708647,170.76338965113203,171.01129087257985,170.95041541788385,170.9951448945532,171.13675246169637,170.41258926209997,170.6699621212121,170.66680519873054,170.57032106795748,170.43445381328695,170.81388815065114,170.78766941270263,170.761181594395,171.3944244263228,171.19067282921654,170.69101017359404,170.5000943503038,170.51650551442816,170.64786389413987,171.08946729397482,170.32828225715255,170.93390216154722,170.73778433821582,170.4551560200732,170.31159338382125,170.379883843717,171.06422122752446,170.33049602651502,170.6754183823807,170.27747883349014,170.54737199562314,170.58886242486108,170.61710163538166,170.8303277758875,170.35434226369657,170.6409219724164,170.4100524112967,170.52960018087953,170.62499056532567,170.7247324838356,170.27397569509765,171.0731910700072,170.9369249990535,170.9723357553739,171.05505941118597,170.58861258017328,171.2699886749717,170.94267299864316,170.96447561941397,171.08258996068943,170.62256911792363,170.8240129718315,170.71939295556646,170.45112980497188,170.65336507576617,170.40268886043535,170.54663251469037,170.88160884714438,170.74541813097534,170.67324677285424,170.5931672329181,170.71989419988665,170.8361443049463,170.72172630304865,170.34933313239395,170.65186024551463,170.49878962100007,170.5105769959815,170.3627810315511,170.36298367593713,170.06411897590363,170.2313615945038,170.63379320800485,170.4499489081482,170.25180508826975,169.88156508653123,170.46505111700114,170.317531779661,169.90218087310257,170.24776684330052,170.02855847688124,170.28340341705496,170.30339207883267,170.44425457583353,170.2264329522223,170.31255457271934,169.74888704444277,169.974810892587,169.73404615790068,169.72165103754756,169.9935123717562,170.05030066941492,170.51732645082933,169.88620741747866,169.93646179401992,169.66375874257352,169.7140598531903,169.87590965649864,170.23665910808768,169.92131184662415,169.64280340079753,169.9171666855353,170.12023117020473,170.37623874725773,169.7626544139801,170.23634370392773,169.7011481272351,169.92321314193134,169.88325178773053,169.659165195176,169.759795634697,170.14311607884602,169.8446189688862,169.67146346045462,169.7799819657349,170.06123832479662,169.9954499304328,170.17145330673392,170.12191178129584,170.32428862555665,170.0413260501036,169.96687596345453,169.83220141833328,170.17772262334537,170.24738623542686,170.3071041133042,169.89046850969655,169.82577914294276,170.42786687749415,170.12670448142444,170.3620209321587,170.4828534820621,170.42936235923318,170.19870662104748,170.06991613073075,169.8753991209947,170.58357926598563,170.1979735583261,170.61567277130317,170.5341312391452,170.5893260967888,170.49845620905188,170.88493399402353,170.2589097744361,170.6333785719671,170.44050585126462,170.5552533151989,170.16293701024713,170.5584690369139,170.6977263269398,170.78181059657905,170.2816943910075,170.2811757159567,170.66767830045524,170.73634608833882,170.91195540894097,170.77958966968788,170.61172729681644,170.8112942960015,170.97115823073415,170.6793068143036,170.63129571379847,170.73137158242008,170.6659348978047,171.10330547112463,170.87140144322066,170.6582187369777,170.93368277119416,170.93291619264315,171.02850735489756,170.66926511768713,170.7366724804732,170.68701510048064,170.55259074221263,170.81256163240536,170.55893262679788,170.88996726802162,170.1828793774319,170.68122104943427,170.49316727864633,170.53115412294989,170.36096933953348,170.65406943653954,170.44934553983506,170.32139352306183,170.856616249905,170.4914303048688,170.80695553021664,170.73039383236488,170.71594961681464,170.5993115709044,170.07890869352227,170.47606614447346,170.13102250415346,170.75087174044876,170.52269549113723,170.4249687606498,170.3101246694371,170.73418009478672,170.55086184136084,170.62517942131902,170.4195107218363,170.81663387316482,170.67297430269085,170.7165494289388,170.43015412443003,170.51830624787905,170.45478572777043,170.89881380983059,170.19951118631323,170.6376434178744,170.57952916320832,170.78540642722118,170.51735443753532,170.65954152347143,170.5506962001434,170.75418255976433,170.48255177877542,170.72081429164936,170.87176773022833,170.50633054487903,170.35081967213114,170.5740677902198,170.46949952785647,170.43116364868425,170.46873589164787,170.38851504612128,170.93434151531272,170.938480233927,170.54852624011502,170.64787294384573,170.4183461262147,170.16216216216216,170.7232399697199,170.25182811911043,170.45015322916274,170.59846276172806,170.3788639365918,170.50374121381603,170.73882549190583,170.49522046321835,170.26945093018,170.90923205089368,170.71095465213114,170.5282491213484,170.17045497380226,170.82435916881542,170.79404071420447,170.36533303109297,170.20034000755572,170.54704189076585,170.2979969765684,170.53057513071153,170.51022033448368,170.3255224106602,170.7975525405693,170.746664639477,170.89261796042618,170.41859056846567,169.87421880882465,170.72851711026615,170.10360955003205,170.11389435447254,170.19885096571795,170.1258550965645,170.0377757630704,170.6516349809886,170.34374172060103,170.8930623739392,170.21523341523343,170.3150923402967,170.1805303717135,170.26119177253477,169.64402061467857,170.2581353941736,170.35440163500112,170.42937168811505,170.16837216327454,169.94312903591253,170.7290273556231,170.34286471746705,170.374753825178,169.88394605996686,170.24733217286007,170.156872378217,170.62853786988975,170.3247824441922,170.42545537168175,170.50161125222732,170.55008147951642,170.33182213155013,170.66290090226704,170.13529212084637,170.52618822192767,170.25889686437478,170.24445199275362,170.7339578276699,170.28548210303512,170.20026435045318,170.11725413238736,170.14723510121,169.9630494557234,169.79709654368347,170.11374103435259,170.34508615792464,170.24465513333837,169.7942867881977,169.8761581920904,169.94142165145882,169.99328002402672,170.4607736055139,170.11567009532422,170.20830983267533,170.52901667798656,170.2228381792812,170.06393726909448,170.3501394227146,169.97960410171657,170.26176061369534,170.29360180654874,170.08445692883896,170.43940134621894,170.13302304631785,170.1419871433405,170.220863282279,170.23830684642616,170.60741581536132,170.30646255938467,169.8682447689297,170.433647406062,170.52025158185882,170.82156006832415,170.65082370763113,170.19778439278045,170.47923901555185,169.97184159012198,170.4330091944455,169.94605699638117,169.72252157202607,169.89434232333886,170.08718316775582,170.327930316228,170.290069389148,170.0421577515866,170.3009406766803,169.58980829347294,169.9965276467258,169.92053927845146,169.40652908067543,169.96288745422282,170.14855086190568,169.2619574595791,169.47004209893248,169.75224173008817,170.12160018132366,170.24538717483364,169.49225039500413,169.594686135782,169.94257650170005,169.91006229941476,170.21649640559968,169.7438904812189,169.9008801420315,170.23458333333335,169.75329666189435,169.792637851701,170.2267373603484,169.84718761796904,169.50001882317508,169.7474614019856,170.31792148681964,169.8500132330145,169.80046895091144,169.66532440162578,169.87050169747266,170.08317573190106,169.68873648113953,169.62154925328105,170.21984715496367,169.86028718953756,170.28147839587987,169.80000752700312,169.54801156633746,169.68757534659434,169.33092876465284,169.36717517096264,169.9403222146585,170.01894856278366,169.43808485850653,169.86781261805817,169.82164691674842,169.98574992440277,169.6321046283733,169.85828997964262,169.94624750273286,169.55663540136362,169.92509448223734,169.54874462791224,169.68454959876428,169.48419113500506,169.75773798303487,169.33330830173094,169.95189949824575,169.66711823586965,169.80243195422204,169.7896185162847,169.69424068013393,169.72498116051244,169.78494745168945,169.73554869787748,169.80620855937312,169.80467748019615,169.9799698227084,169.15154693235448,169.46110128345063,169.99686425629983,170.04256603773584,169.91156822041896,169.8824971708789,169.6778723083873,169.69595967195846,169.79023085903665,169.98483533894148,169.53694599767329,170.07182695206512,170.17145557655954,170.01147083239002,170.07892447906818,170.1705109267886,169.80510458355357,169.35607114654232,169.35433604336043,169.34666917576214,169.72766744695312,170.11286109112936,170.1424308807977,170.21303296038707,169.95404904961646,169.82150822150822,169.73829939938807,169.99269271543238,169.9773287333662,169.26550541039853,169.45576893996673,168.91877943115463,169.19166980776478,169.47374584466607,169.7662854113013,169.69249431387414,169.51995309603964,169.86194468682424,169.67349721601454,169.8944285985929,169.31837275307473,169.3705795398552,169.2323461553009,168.93993586115826,169.03730581698605,169.32437438572617,169.49848553687718,169.32769492165377,168.99671586576574,169.14123161834198,168.9511818147548,169.36393182419408,169.33518623558328,169.85852566049195,169.23156108597286,169.31130257340436,168.97151565322096,169.62232473720033,169.51143246517262,169.49893979553198,169.15857983700573,169.12255973468004,169.32389474081626,169.86208599209968,169.49509079191782,169.16740835721828,169.51129184792887,169.41591149373207,169.2362697425459,169.4112071895178,169.6260836645845,169.51093785481797,169.28907753254103,169.7446768204895,169.37851401833893,169.35038314899398,169.45688059532353,169.17278650246678,169.83886076905642,170.26067679715032,169.81459081459082,169.51409087483987,169.3797749426066,169.690512161958,169.54429900885225,169.40668302812912,169.54231016123552,169.28118170171075,169.57457748875194,169.26136106714898,169.2950424128181,169.57565565716877,169.99874758055333,169.3948499472176,169.51297721442583,169.54573274396463,169.7875781102064,170.06762497155427,169.45745723114024,170.00861512770882,169.7496029645315,170.01638598088303,169.626593738212,169.98102128949162,169.8351307375033,170.00223747582388,169.44583898688376,170.045401144503,170.0425789832563,169.63838528513813,169.52710083242306,169.6537286409415,169.71764172678172,169.81905121905123,169.30341558832382,169.98354814253221,169.63803727365516,169.53870308716708,169.49062157980148,169.40182648401827,169.79962795641777,168.7310554803789,169.29076004835298,169.3686375127344,169.06419427710844,169.64182947145238,169.44816230743027,169.41585130897963,169.5305721411836,169.55873556691273,169.26946899312637,168.58577594295366,169.75233432020042,169.35777635203985,169.58554672720393,169.2916619484392,169.55827501418574,169.2015600271309,169.51866701970724,169.3104571450214,168.93351936347526,169.43938361350902,169.60000757920267,169.3690696707368,169.57214854111405,169.42872256016926,170.22855841148106,169.9057839351957,170.00268573157814,169.79423447962773,169.59372400756143,169.44695336434813,169.9625284738041,169.63821261152276,169.53072646825248,169.82584014532245,169.6608649589466,169.65593675530508,169.6061568716436,169.6199788183675,169.6749365554335,169.48297131612804,169.38328737108534,169.14816765746104,169.4892901665974,169.76319775808528,170.19871551265487,169.248200489919,169.3796642142992,169.47599093997735,169.42857681717024,169.39615370083501,169.30108175342053,169.45933177110894,169.84354257538402,169.52422924153583,169.94188430003038,169.42088583716895,169.47681170349145,169.85504002428013,169.6047935883865,169.8264656870171,169.6521246030546,169.3663713477851,169.82453016065475,169.7211611338487,169.15847735230994,169.42889014936662,169.4143131857773,169.69898982255685,169.57978904389248,169.24858607948119,169.64064567345858,169.38417993810853,169.41403482324566,169.60221474734496,169.50949724881283,169.19181528064576,170.15204390613172,169.87565509180712,169.89875377643506,170.22336430874265,170.24133616440434,169.98982332690198,169.57587988984872,169.7540704922368,169.3944075972264,169.71340424726503,169.1270295724242,169.57082308420055,169.34639362224658,169.65782091136552,169.44504974842053,169.99516650808752,169.5139246253973,169.27121080304119,170.00440863484343,169.78931175934366,169.67422289613344,169.45018170805574,169.46140736252082,169.00188700607615,169.08360395740502,169.0779406776467,168.97363961589156,169.32139077853364,169.15368063420158,169.18874059510756,169.4448947129223,169.5491346991328,169.04255319148936,169.19623869527376,169.24678127840048,169.42551175132675,169.45413471030452,169.0765273311897,169.28844916953577,168.9918475183997,169.42520728429182,169.58246093157337,169.74610042126835,169.41464977757673,169.35630017715127,169.76605973426203,169.3790292141617,169.93692120844088,169.76289050652107,169.34613061532653,169.9964229993531,169.34951089624957,169.18334782773093,168.8032435279952,169.33478573864284,169.27544774427568,168.83098379193365,169.0456847037485,168.92819641170917,169.00794822300443,169.0003775294473,169.43694035513735,168.93585190782017,169.22050620422723,169.01385733757382,168.9310657596372,168.72280926862405,168.62781147571866,168.9819144911086,168.5429388953729,168.50462823600242,168.91097574817448,169.00060539558817,168.76801478910434,168.55072190598258,168.22453808021632,169.12877408587468,168.9652938279089,168.91245268735807,168.43993818551883,168.43735634349449,168.76230560169108,168.22857357470141,168.61244524996224,168.36264606106295,168.88930140930444,168.3639065497912,168.3052358384112,168.89779779022248,168.23982700263258,168.8302970746088,168.71921536019352,168.55624269391757,168.66025544135428,168.5296268375424,168.8606083506518,168.56735878207786,168.3001469092553,169.03642773207991,168.53843249773482,168.5975628159662,168.50169798505775,168.33765007928716,167.87178040985148,168.63431621181726,167.76632392674873,168.40744942333146,168.07055805003208,168.29075122687806,168.344434375472,168.3018532526475,168.7751914474183,168.19275334968862,168.53916335415482,168.28324528301886,168.12783683932744,167.8545009416196,167.9074325342982,168.5841925701289,168.02190605239386,167.58713599519663,168.07803424605868,168.09946854622893,168.57278169280897,168.1927045927046,167.93109167671895,168.14186354186353,168.19815129220902,168.18231626676743,167.8392313188673,168.1282543988546,168.18576821442053,167.80774862034013,168.47097894180692,168.20446405006976,168.4003023431595,167.986568343429,168.33827365873947,168.45519090600098,168.85077739855896,168.01319945848377,168.86068934102641,168.22703802811594,168.2194164496282,168.26055301972914,168.39442848503174,167.94974439933844,168.30964696998302,168.02450316169828,168.41199138614982,168.37746265834753,167.91132132358484,168.34427653947864,168.22034537365207,168.4265639165911,167.5930455005814,168.13457408732998,168.341724853746,167.7786916028241,168.44523782538064,168.56511707077203,168.32649134060296,168.3971652593486,168.2624844298494,168.41963644609046,168.32319649864172,168.24397499623439,168.2394653375623,168.28772180989338,168.39697107032254,168.12966519790606,168.6171324698932,168.43986695895381,168.58001135718342,168.07427345279325,168.70168401135288,168.04146772435055,168.65662034758245,168.3028887800836,168.08456850500338,168.76946946189358,168.1738999510671,168.26958881392983,168.8285822449366,168.91720926711085,168.49785003017502,168.57198913371568,168.8669490563897,168.9004954426837,168.40803430376891,168.9499128589831,169.06787450622912,168.17116913454655,168.8719348114459,168.8946531354135,168.5696552246149,168.51407732134084,168.77520585891548,168.58740597951393,168.81218485802023,168.5158264947245,168.43085990630195,168.7522553256008,168.99996200463542,168.8409375355558,168.64791666666667,168.18778988649646,168.79978765357197,168.75197059269365,168.29220681338558,168.6517590032946,168.93738615664844,169.1219475143367,168.45593898663444,168.47884237569895,168.26567625655142,168.14993412384717,169.0686944634313,169.19134465595198,168.8479390239278,168.56200817191282,168.6254583947677,168.62756587154576,168.74970640603098,168.78911127085618,168.4229302729435,168.94153822792498,168.73978299497185,168.77389233328293,168.7457209936383,168.6813448941729,169.00671879744914,168.72625677160283,168.63297127502554,168.62358379750674,168.88893532943231,168.5922598741566,168.71848707647996,168.2513768389287,168.71409649952696,168.79335079130138,168.63216343238327,168.26783427495292,168.64729882886286,169.07740031777257,168.98273451962675,169.3618870502505,168.70841827104567,169.13599453593383,168.81695634064144,168.8131747414675,169.3108940246313,169.05881238394787,168.44699766443156,168.11451558329262,168.3996458309785,169.16369850009494,168.72869038607115,168.43437854174536,168.5009460379929,168.42751462540102,168.67129751972516,168.88243304584657,168.70273224043717,168.27661893486678,168.33070422535212,168.65351836488423,168.67598733795597,168.61544555949595,168.95581008543132,168.97669675567474,168.73913536820606,168.83511404106994,168.5876284764208,168.73062367544657,168.93225855283077,168.55561424690612,168.66796167773083,168.70060106604166,168.42740963855422,168.63012407135045,168.65777441904402,168.7358533444436,168.5858738875213,168.18085708891826,168.94909781576447,168.38639794685992,168.26226044967558,168.45934713616444,168.63857429642817,168.77662761157245,168.663890991673,168.35805500982318,168.62026368478712,168.26037821140662,168.73548582689102,168.62292472140095,168.71624288425048,168.8507570295602,168.9409378672429,168.4152865280869,168.94690500588257,168.6445302153101,168.8279569892473,169.0811857137435,168.5650942327303,169.08825314918803,168.537525048206,168.90961888855148,168.3977495846549,168.43820649502854,168.56741105223315,168.66757544776402,168.67492634282692,168.72847682119206,168.8518223536997,168.51899451899453,168.479173747215,168.46882661335948,168.99524187153054,168.618956023233,168.79109951603147,168.49964160410457,168.74299560805693,168.52462056697325,168.47130915005485,168.46894985808893,168.62906099548883,168.5696571018109,168.65263995151884,168.19945756582663,168.68184400924278,168.60274594349258,168.81113764737103,168.19248914889602,168.27027027027026,168.70315637906862,168.60575212866604,168.92613248349647,167.87625455775665,168.45103521233187,168.2374641292856,168.8703745829542,168.53007220353078,168.22768917543263,168.2157025416698,168.58718161892526,168.81022921007767,168.4871756128886,168.98773262438283,168.4730536659108,168.65065799425201,168.55717145771163,168.79091873059153,168.8817388003037,168.58399123635402,168.55809559795958,168.55738138410396,168.57552733046043,168.6075236294896,168.37058380414314,168.7232139487489,168.8788612045824,168.94393302269197,168.81576559546315,168.77282859193775,168.6582541119662,168.65893376657723,168.92389206373235,168.45026435045318,168.41034041271277,168.4253216131588,168.14706213628685,168.13035633739287,168.61668430601753,168.6070552725901,168.5905259989465,168.81852117190152,168.90053225623797,168.9230332829047,169.0120377029943,168.43960187000454,168.56989612842304,168.56330046469455,168.4553406477397,168.54979989428378,168.43230879739897,168.51921260437527,168.52086325497015,168.6839931805266,168.28357646349278,168.6342831160958,168.54885765165005,168.622991206792,168.25316694314583,168.66103364655956,168.3907672547316,168.21316047335495,168.46407230920505,168.55935408236584,168.39096920460986,168.6569912845775,168.5536253776435,168.62305342935787,168.89679984851355,168.56117332126834,168.42004449304324,168.67269015575383,168.87462550722438,168.33186124636697,168.4341369407497,168.4250595665822,168.3438242952564,168.21905945253962,168.62380466417204,168.36214829901184,168.23974692125185,168.57614817614817,168.35099162959054,168.59203473008682,168.40920764408187,168.30611245100994,168.58954603822042,168.34647271630993,168.66197715755237,168.3843456622554,168.34013041347856,168.52469461619665,168.25794653293616,168.3912517485161,167.85094077440192,168.5492382716516,168.20030874656425,167.92656660412757,168.26650845669943,168.18466229952563,168.09851734778354,168.24717194570135,168.31828969674137,168.60984547961766,167.985777544281,168.2775751194013,168.6042099693889,168.06692218088904,168.35923024779694,168.3686668926809,168.43129051711142,168.6530157771571,168.358050767548,168.29236506083092,168.4513998943476,168.31591645932292,168.5299788295781,167.98728988831647,168.35404711567503,168.3681011702529,168.02455507997297,168.5837617175688,167.94672331465955,168.38776049531864,168.49355363151727,168.49933944815612,168.05883681535855,168.0709548571859,168.40801298995544,168.6575358035917,168.11591473977555,168.3025794025454,168.08154571159284,167.94982281535098,168.2460638097036,168.39712447975785,168.13851147342996,168.0298749246534,168.18842769195905,168.45544104274023,168.10811933534742,168.52809713526844,168.16959661260444,168.52665326099327,169.10223508357765,168.24722201224583,167.5783164223976,168.36256822316557,167.82318884168578,167.93537581391848,168.46158799909085,168.044657699864,168.20042345646337,168.55547141234382,168.08828292719673,168.32277361827008,168.58871667232341,169.03665594855306,168.16946605042648,168.56612976406532,168.55743102600007,167.94280873493975,168.70327713582117,168.571860473905,168.50287465012482,168.24388589516525,168.49873455974011,168.18508871272178,168.1425828313253,168.8708271759312,168.87163851223391,168.4540093002155,168.37204390299098,168.6461608222491,168.70914661824784,167.98085962471328,168.79524783992724,168.24435395694303,168.20715147857575,168.37916588035478,168.40714258691787,167.6943172434502,168.0294327976213,168.26830736810416,168.46390586105454,168.1649600540115,168.40457957957958,168.77100388576602,168.78790511445192,168.3995633187773,168.40052691004894,168.2490137881805,168.7616652801936,168.70491246604286,168.45355541319668,168.41944716426903,168.21493433395872,168.3769387140491,168.1931314345833,168.3649764373233,168.27194336709718,168.38609383832673,168.2317893234156,168.62890846534842,168.76239045028709,168.4661761931711,168.66324644460371,168.76123913864754,168.54616487996375,168.50659779822047,168.57871330041834,169.0818759936407,168.78325774754347,169.07102477520203,168.6889972039598,168.47664679695163,168.80831312518944,168.4652444780064,168.12242132209005,168.65569802186164,168.60587769268494,168.91395612708018,168.83967875137327,168.4104933614967,168.62470677260688,168.46367134449977,168.48507631857336,168.11174763502055,168.5687090792113,168.45448361863734,168.150993826231,168.65174110522332,168.8300641195887,168.82770116684347,168.39668859151735,168.64438057782485,168.3946005217983,168.42216428625406,169.08580544687962,168.6024274047187,168.55421777979706,168.2348995817476,168.43040272263187,168.426996413064,168.3771402653362,168.50289367174793,168.70940721649484,168.22158447247187,168.36238185255198,168.3090922821326,168.39238498149126,168.79879344361814,168.33396304832434,168.12906140582055,168.47416367416366,167.9764436262539,168.29003464899066,168.14030794714452,167.83017522794643,168.30305429864254,168.05024634247246,168.38937886325945,168.65000567558363,168.6462708593484,168.28848183325795,168.46414951859543,168.27230896884666,168.06693032015065,168.27569546672706,168.26589246663147,167.95665762916101,167.70765417261325,168.12269730646074,168.2172286059873,168.33401414576952,168.32882967883157,168.10989632422243,168.79081651966536,168.71785362900175,168.6770226292288,168.5625780097583,168.5121196103602,168.958330170778,168.75511819929872,169.0808787386093,169.04643951140187,169.1134324968775,168.77913484080767,168.68516421291054,168.67292437863566,168.0991322640021,168.76758189736793,168.66643954879248,168.37772925764193,168.98995945894745,168.04648368565313,168.23107584702743,168.48424662696917,168.7407505385284,168.82456671459926,168.49344336423243,168.69778767743884,168.25599488837105,168.4126541231477,168.27604912227832,168.36216073383414,168.90164058651916,168.96738512822455,168.6893046107332,168.89281124801573,169.12768863093206,168.68349697885196,168.2812935285924,168.6859875983061,168.2444888269209,168.18665009228914,168.11313497001925,168.49772864930344,168.71799924213718,168.1036302635051,168.3817183951552,168.52544298046342,168.4600553051252,168.34060953963518,168.5070763641868,168.55752714615414,169.1625209189107,168.34285174693107,168.72454817565264,168.5245120290513,168.61980190533797,168.90120362987432,168.88078967350037,168.89193297108332,168.29101149077715,168.572256744468,168.04786331233734,168.50553491545986,168.6711279620853,168.95041825095058,168.4852088936025,168.47072191500644,168.05064724308411,168.20901716657235,167.9535592073102,168.1905193578848,168.05018678540432,167.84049748252798,168.08488503580853,168.36646548472274,168.3634337099029,168.01566324033286,167.6036900922523,167.98866332718165,167.94533749952942,168.16156462585033,167.91845800549638,168.10753579502637,167.73908808212505,168.23649437187063,168.29910528898787,168.38883436509136,168.53409690302163,168.79402985074626,168.40388239728608,168.47648879160693,167.89303370786516,168.52183760522442,168.35882153230978,168.4569728467593,168.15900116580798,168.30467395401433,167.96460908441972,168.01056470411308,168.36109644823165,168.45018324706237,168.1912191445261,168.402197304338,168.55001322601368,168.37138978960863,167.86690228221227,168.2817060753479,168.46399788111543,168.41580080855405,168.26222289133952,168.36558693766733,168.28048918156162,168.4067438615019,168.7865313233846,168.40022628700734,168.34787851382922,168.36423492230708,168.30957406709385,168.78306176582038,168.23928166351607,168.18521033767215,168.08656783976463,168.20252925632315,168.21234717438207,168.12884688090736,168.19237310555954,168.14541742286752,168.30899791627203,168.2956277729324,168.02045687009888,168.26389626146963,167.8490722896119,167.6599223842357,167.88814046772117,167.813288509481,167.74155564780918,167.76729346020238,167.37815347541232,167.9323644071004,167.85365669386522,168.01447030376303,167.8996824916843,167.94270557029176,167.53443723596862,167.4835455472853,167.39791148307322,167.76410198128576,167.85319261612952,167.66275471698114,167.65025857838512,167.73642619479733,168.0399105518496,167.86138501643433,168.03059989409184,168.07100927854572,167.60978830987509,168.23420483436422,167.43743886840718,167.75196108010257,168.09123631265865,167.96455993040584,168.22950259893008,167.7528835280814,168.27124492814076,167.97039897039897,167.51882813676758,167.82667119616502,168.13169752735809,167.77055182305426,167.75816499905608,167.78574665760254,167.95632923368024,167.99107817934373,167.76892925790526,167.72944327097164,168.08607719351303,167.53106792467014,168.24249763481552,167.79788957980026,167.68313778580023,168.06339251983377,167.48823662056523,167.94410031726846,168.01966928420416,168.00052922053376,168.248628815675,168.1234082750803,168.23187582812795,167.86843195600588,167.7873323565874,167.71863603894883,168.15371251605106,168.50954545454545,167.93805442790557,168.26414738904379,168.51082283731805,168.77509918760626,168.3853715490942,168.34696028609073,168.97793505412156,168.49618810386474,168.12547485613268,169.09062962541273,168.95510513354802,168.58609484224448,168.5066435150234,168.82909022129752,168.4175314139089,168.4437283280567,168.32979567171506,168.88090988493525,168.71846351996362,168.33057882423967,168.72386251798017,168.77777356343637,168.33348452205465,168.66877677116105,168.39181639740298,168.34311947404217,168.5441621294616,168.40123782927014,168.52204965423422,169.00307237141556,168.55165883956977,168.31786727169597,167.874515412699,168.31232026638415,168.0875716872925,167.9276595744681,168.36377750009467,167.79351465222135,167.9480637125387,168.23387096774192,168.36713711207224,167.99607087536364,168.08147448015123,168.12443738416732,167.9091458577311,167.74072957491708,167.9897214979405,168.12049694131863,168.06381852551985,167.99694581652275,168.5276345716452,167.8719885744353,168.61557380150592,168.07149051694884,167.7349945503063,168.38103689159084,168.27254909351325,168.26720434159947,168.34249111934093,167.94705550329257,168.45976967952117,168.18479205227968,168.11112787058335,168.29976943719998,168.31907882277187,168.58213770591362,168.09448283675087,167.846342106254,168.24511987917688,168.28105636995616,168.37859708829646,168.35574452003024,168.01091251175916,168.37812429207884,168.3241639901757,168.02532408803134,168.55006437930774,168.04021992920087,168.0994423091416,167.87995934653316,168.03087187606016,168.35419657021984,168.46014889837875,168.15078198605616,168.0638963191802,168.39674735249622,168.03049674726432,168.3200286446555,168.33544566406397,168.42114005285012,168.2329376295459,168.42084213703592,168.27785746640495,168.48911361835403,168.41163159085767,168.19206194091558,168.457111547763,168.46343854885546,168.19569795427196,168.3885556938629,168.4484697535756,168.20876928867145,168.3957932102262,168.25935425467713,168.34790802864683,168.41012190059251,168.41253677302558,168.4535459251143,168.0311087677011,168.0371652121577,168.35609553321746,168.449526039503,168.09057329162113,168.7444103960958,168.6492500661151,168.43916004540296,168.57113667322537,168.44168903337996,168.17322478516508,168.6305021933142,168.45959557709784,168.3823073725579,168.26109581809268,168.25081199486365,168.1107968473055,168.21106248113492,168.46520423600606,168.17944848919234,168.6428273640326,168.57030895047706,168.64704327467715,168.6568509162205,168.96645741945244,168.60233277970707,168.6482823707059,168.52977606585853,169.29280548153787,168.16857561305343,168.83377488456588,168.93067091440057,168.70751615463098,168.0379818168157,168.33388654194326,168.59271985802212,168.30618867924528,168.3028769916182,168.55691656270085,168.83617657071528,168.25078086779814,168.3445223025919,168.76295567248363,168.44004375542227,168.41612562282953,168.38125753920386,168.46911153119092,168.41837119782625,168.33457655213985,168.50817382111978,168.8637498109212,168.77365554799184,169.02261687917425,168.3409219190969,168.23581954547168,168.4249395587791,167.79582941950028,168.04696872524238,168.05645496056454,167.57315330224162,167.77964053768312,167.8746828252225,167.90507834623372,167.9071153701049,167.8847995776613,167.91725205831256,168.16094607379375,168.1167535706189,167.98421986484956,168.6234945480795,168.06609727523525,167.89147900871336,168.27780507161484,168.5472399150743,168.23646734408644,168.04393905106735,168.47793309845815,167.7214704555706,167.82002258185923,168.01266490765173,168.22814233425154,168.45362105976727,168.56081767872604,168.7987478313344,168.8333081570997,168.3930531538982,168.75738571968267,168.89897195555218,168.7500283328926,168.2673740452271,168.570872391896,168.27279253409907,168.46785484542323,168.37305307727203,168.3147826743133,168.01553273910264,168.42419769906147,168.90309694110485,168.24902723735408,168.86716639397284,168.36326453323235,167.98151919740513,168.38058120175572,167.9488803438136,168.37818814803603,168.5385052679451,168.5209012973219,168.47392916603602,168.09155990957046,168.4659056546719,168.21673592746507,168.5840402969247,168.82191416635018,168.34011781587495,168.2546443135478,168.6111132154085,168.3377080181543,168.68282138794083,168.41539392106458,168.34530178584885,168.4119960668633,168.35527607825364,168.50548287075551,168.63502021996297,168.2848677009021,168.57944490660213,168.48162139700048,168.39003773584906,168.72139397608598,168.58633854993573,168.30871547533818,168.48007253220504,168.63588250860016,168.42304647743978,168.70921932243078,168.8525036902464,168.67581254724112,168.30036174542167,168.5484272929804,168.8521660102999,168.83204720835224,168.77051774813475,168.97187770950353,168.78573043871552,168.90873375642187,168.3714769520226,168.27211447938242,168.3561581920904,168.1593603010348,168.691723642957,168.16187577499718,168.79944763922518,167.86861642294713,168.3938766287565,168.305745914602,168.66961050724638,169.00602158682068,168.67161641351169,168.95278207985496,168.97065163949927,168.62101490284851,168.68834657586078,168.34502219881105,168.38491929111638,168.60677633564745,168.4348594860991,168.68563787713285,169.20518456757372,169.2757496493423,169.59406503448798,169.72958333333332,169.62315010570825,169.57979904414256,169.862540101906,169.75551961484936,170.18232023300678,170.44523611005837,170.55983811180877,170.84090823227172,171.22212956294302,170.99058167570826,171.15530016633903,171.0627223862518,171.04562838426295,171.18049776836372,171.36872674815882,170.9562485807282,171.1830707162975,171.0596992194936,170.49123672230652,170.8293315039256,170.42194204989937,170.225845639877,170.6804437015651,170.78990221816383,170.62861266188142,170.26520027258272,170.9643237892172,170.88638093788063,171.1474094452086,170.8189117199391,170.65230909228785,170.7748243782039,170.85892510745123,170.94620349278662,170.62928325318995,171.0312915353359,171.17903415783275,171.6153054221002,171.14280285757715,171.23475389928277,171.39162514737762,171.4461415403367,170.9161615396272,170.95060418955262,171.24489795918367,171.26655522206602,171.24360095843,171.32535467718685,171.32277446096512,171.19943852194697,171.3110654333676,170.8900428306106,171.45343929426974,171.23894073905456,171.0352918877938,171.06159324216827,171.62626262626262,170.93402147610405,171.4686337054758,171.14823502705156,171.22465472757625,171.21412895413954,171.6688220303526,171.137181663837,171.50122989593189,171.8851825177211,171.97515008739265,171.77428669123515,171.5855500322544,171.87232346241458,172.07236942287193,171.7200911507786,171.74866188361236,171.93223109084,172.2079814349844,172.14222661897878,172.01780899943043,171.71046745270502,172.1138845553822,171.58303378864127,171.6278955336866,171.85258525852586,171.79490097882996,171.6732793215719,171.6059586373776,171.63726642155933,172.0167497811108,171.9138732287064,171.55818981867841,171.93066484205724,171.6280756379101,171.37357561991294,171.64417154589006,171.4558588700479,171.46781246435225,171.08180028768265,171.43555050217927,171.7957287004021,172.01361757007928,171.98264494126562,171.84838173018753,171.5050115359885,171.67044039397715,171.8495455059782,172.1185947131566,171.76045985676592,172.53962364166446,171.98537449583475,172.22067639407308,171.89449109462666,171.9635918674699,171.76293038640807,172.13847895829403,171.77108660468969,171.63658959102207,171.80124669437097,171.4387651249576,171.6435587457499,171.47070798461885,171.28875735183232,171.50311544125978,171.34245233250434,171.96536024585498,171.63835326968794,171.6635235544827,171.98564991859453,172.30878165458066,171.7896305799781,172.20598711633195,171.67081870682821,171.7454325834214,171.7952138684756,171.8031035263913,171.63226705851324,172.22018348623854,171.77612898353723,172.20299696509863,171.9783859489742,171.68540855295495,171.94632650743782,171.66265922966758,171.8850939899391,171.45009629545712,171.44159770245247,171.80569007263924,171.9587074288745,171.63254285930066,171.70746989770882,171.97612460681395,171.58001584845854,171.63700367159998,171.87887516107025,171.2125833050943,171.8646539641653,171.99996210398666,171.7266268611594,171.84602279180706,171.51145817576767,171.6377660982342,171.9681828536715,171.47774076317384,171.00452471626258,171.20004531037608,171.4869024602904,171.00173323285605,171.30551145384442,171.15890390277045,171.01752464403066,171.19360333081,171.2321874763383,171.247652226598,171.34493203589415,171.2285249375615,171.29965921999244,171.1485208443671,171.2047595626348,170.90441204174672,171.1821993880095,171.05997431830198,171.45365983093893,171.600409370025,170.71380268990907,171.43395726980526,171.48940043232582,171.01674145017157,171.0417671893848,171.51013462411132,171.30600927986723,170.87138130686517,171.55140540950072,171.63592932433457,170.92186032533152,171.5310992159228,171.8587166382737,171.34611602753196,171.13564633041378,171.09538566191753,171.28866681807858,171.29794741434912,170.82304697834385,170.3038322541786,171.12014724298888,170.79802825413614,171.11396292224288,171.3055734964477,170.87952720109107,171.3603517855783,170.66396134536257,170.6024825915834,170.99119711629672,170.96454035194174,170.63321877714415,170.4005435192874,170.67562656167183,170.75422862981043,170.63875453446192,170.6443729903537,170.82672534810487,170.94612436923776,170.88403374116575,171.00003800691726,170.32703691135995,171.45643232538654,170.73388867853086,170.70359009316064,170.72890654559214,170.6899984857662,170.2992871421567,170.43548326082845,170.95942403404126,170.30048013307626,170.61174594738242,171.1080761002445,170.43735108354448,170.5977194378149,170.5319614876345,170.8955979150021,170.10104056703364,170.1369754253308,170.4131430518227,170.79850377852884,170.6153408660044,170.0807448733414,169.73491711461114,170.17012683074137,170.56774095585166,170.3900480933086,170.20389963724304,170.4268985902683,170.28932009398923,169.89121798024897,169.85281188418978,170.2260995723885,169.4524828604977,169.80908607460304,170.20173840431184,170.5090015128593,170.00210518401565,170.9228351823104,170.3417688200346,170.66008366939283,170.6719876221744,170.61186715422022,170.53511907001243,170.5322659634583,170.15842178299516,170.32528852298785,169.9430389221557,170.90727375779332,170.48574544907478,170.3206330158254,170.5489753713104,170.42834053749294,170.3565312100954,170.2412368035466,170.53674807779285,170.13884613940917,170.7532462630228,170.11591812251632,170.12875890513686,170.61722073717104,171.09244427653948,170.7828838330571,170.54351914541488,170.32558751645047,170.11171090118458,170.31494641849972,170.28745729624208,169.9219421101774,170.4092874600489,170.3067493889829,170.59107358262966,170.6822348813521,170.49498831863744,170.20290400240745,170.25361336946702,170.1806245297216,170.65445046000076,170.4966689378454,169.73685397481677,170.41479524438574,169.90822653989252,169.7209354705507,170.23876425711913,170.0693700490381,170.10346388951777,170.32557610673135,170.42491758554053,170.21919824852785,169.7213909774436,170.61268831857066,170.12203109120338,170.322803442029,170.12887199367685,170.41938528923123,169.9989850005639,170.60494993387493,169.9376687668767,170.30290831107266,170.55861704536875,170.240513476886,170.5503045896553,170.49519828267992,170.35475365375922,170.7015365982893,170.23542051494704,170.04929948779753,169.79551589682063,170.3556627232311,170.3678446426555,169.6143727344071,170.02030628331207,170.4424635332253,170.3038264922568,170.18944204396018,170.03411945558847,169.9196749550629,170.38464430741465,170.06723885911322,170.05588897224305,170.49344484629296,170.60413288585542,170.38055158938906,170.25353645266594,170.71010177157933,170.82988366822784,170.6052165391429,169.4200947301682,170.07457487452243,169.8546537769784,170.2772537672391,169.86210900917774,169.93509814243814,169.8861633097033,170.18430560782838,170.03677797833936,170.18614734937034,169.9160689473882,169.74110153615587,170.00504366154772,169.79970014992503,169.71476270868504,170.01810176125244,170.08149093502496,169.96178870961677,170.22994712990936,169.81289497442071,170.38672613198275,170.29808710116438,169.59054201254554,169.52055618188652,169.79208890563194,170.48650290443828,169.7996537317927,169.87678921199338,170.23072555921425,170.2984565209147,169.92879245283018,170.22466510255052,169.79485150007537,170.05851465699607,170.16571514991114,169.85323627036814,169.78104945262362,169.93992130750604,170.06718365802914,169.80454219640094,169.43487908533604,170.1104169033284,169.64798189362506,169.91825303712673,170.07167494219763,170.14595802712327,169.83398179277,170.17326620230165,169.8627399322544,170.1660633484163,169.97722044125967,170.77719832508564,170.2265894202734,170.6922784328642,169.9532600898554,170.1122818944029,169.95270244785576,170.3800915245263,170.18114218850263,170.2854931279263,170.0850814971325,170.0140876902215,169.66275748007817,170.54987483880757,169.51373564512497,169.88102857573134,169.86778384485032,170.16284420973219,170.15762264150945,170.05142425957368,170.07901495694213,169.96464608433735,169.83690744920995,170.3231158817749,169.78980604420389,169.91816915722512,170.0592305667331,170.1516075596717,170.66298300722855,169.98700518290394,170.3495306668677,170.5623155505108,169.69243513951125,170.14570337605383,170.11234004001358,169.74449372322033,169.86638320288984,169.8890603824725,169.84534065686017,169.92308561102325,169.71164239603664,170.37616239510092,170.12513692162418,169.61534698178534,169.7718459395354,169.98672449556855,169.9146520837262,170.16934599235918,170.63021702838063,169.9584102467508,170.12806858524058,169.5001123427202,169.88985888993415,169.92012960102474,170.19495906123836,170.1941820929354,170.1328246005062,170.09392431780492,170.43940827059134,169.96283145727884,169.09441643323996,170.18536326808768,169.63926699596547,170.0379598472532,170.336841308298,169.72854720180894,170.12231848965232,170.12884295017417,169.79539100868908,169.9130007558579,169.6397388974833,170.18831734960767,169.60584795321637,169.94041038843037,170.39956630906187,170.30448644955592,169.83534166887017,169.82299076736794,169.88549589435047,170.05679190203585,170.27528580652512,169.94113187521322,170.52808518729796,170.0769929937512,169.30408255498645,169.8504580904066,169.4733857553304,170.0802689560857,170.0104884513442,169.8289453775155,170.11860421012707,170.12447313461175,170.17467912204754,169.65494688291557,169.80293516907483,170.1791995148575,170.0400196880206,169.8416216011799,169.5040497268789,170.00679553005133,169.7813018554835,170.02541315281928,170.14258130466058,170.39816499848348,169.87008230763422,169.75032985260302,169.9245917750227,169.52066551230897,170.1324302849143,169.95844509085416,170.08376785309454,169.58766380478988,170.00789573101625,169.92038240628779,169.90454819731482,169.61423305499136,169.7891523123893,169.5536876151792,169.69221791348218,169.87300030184124,169.8625406181516,169.75784077201448,170.20508352589113,169.51230063195908,169.9032172896315,169.58257726913376,169.76024427941343,169.45800436123017,169.95956577653376,169.84238310708898,169.5496344312957,169.84915799432355,169.97893460634992,169.89245646507763,169.6336387286506,169.66705739998488,169.58788679245282,169.58879668049792,169.83740144112875,169.41232923111664,169.4953724604966,169.89794216849205,169.278028592927,169.65607307314863,170.26041547985264,169.54850619749087,169.5542708647183,170.15416067237072,169.46948833709556,169.66847478057784,169.78806071590395,169.82189709273752,169.24633265628526,169.64159074585112,169.45360669329915,169.39384336803982,169.34152417619748,169.5991602678065,169.2404233681118,169.3194167074871,168.94487271086376,169.2032913112403,169.58199636748904,168.8653513716648,169.1860088198711,169.54499395039323,169.71712723959914,169.6971718856623,169.6206504865397,169.09068332329923,169.46396004389118,169.32552870090635,169.12444796738762,169.38765254845657,169.343680205928,169.27714718123346,169.26679266679267,169.50946754525486,169.07552870090635,169.1984259119116,169.1692493763701,169.5136885152789,169.29353365293872,169.73689600242736,169.3549376870336,169.10669984541718,169.6378781568286,169.3639146041942,169.45945537065052,169.16550450416494,169.27488581027518,169.1973287051011,169.4522097775087,169.54704412989176,169.38614872531963,168.7898834148176,169.05684774003845,168.8854001957684,168.9309162175404,169.4166950854458,169.152343897556,169.22971851181043,169.14267405480794,169.46104633555422,169.43216042376088,169.55180504049042,169.27401343092131,169.48459330866248,168.78494987045173,169.60893431762256,169.22109946459543,169.22396716001958,169.7766688171227,169.49654155799976,169.4867824773414,169.17505931979963,169.55427190697324,169.45799682994942,169.20903571293886,169.5828474062855,169.1317654153475,169.41361573373678,169.444461224798,169.13622151064232,169.2470045734588,169.3636844691386,168.94442558007924,169.2486508924865,169.2157698254082,168.84099616858236,169.13684210526316,169.1912840232225,169.64462184556012,169.49288115110087,169.4839087406512,169.41943888532265,169.32388206017646,169.25954772923956,169.41661324987746,169.4472411186697,169.33861094316808,169.31164810269965,169.43860577650082,168.9922845314264,169.16003166704365,169.10773928450257,169.45594796944718,169.02003540089632,169.52174078008804,169.4228320194057,169.45525866969868,169.23959041789465,169.20912907007525,169.2554399243141,169.19361911242157,170.1264862804878,169.17646836923308,169.50687161624958,169.55299067546053,169.29647405615813,169.4992806844855,169.84027039343763,168.8302348336595,169.23281202780296,169.45172766150702,169.42445580162786,169.34724534584532,168.83215600811602,169.66748796482318,169.73165016252173,169.8987910842463,169.41210429008038,169.87148167817313,169.38831835686779,169.3297113752122,169.51532559809516,169.71350489637896,169.88693476860098,169.29815164089024,169.6129252216077,169.517134310273,169.44832143801216,169.69744404113732,169.52987445167145,169.36711302768953,169.1571353224834,169.16823311818217,169.56769335553201,169.08513044789623,169.25633579725448,169.7566593306519,169.46931831071117,169.43083720403308,169.5368014538846,169.4136394532135,169.69120933227285,169.67280163599182,168.94482291392225,169.042437022254,169.39793798859475,169.5307535179301,169.07829784031907,169.34003621821475,169.51294241944004,170.1537671623626,169.19996230682247,169.0516184818978,169.46506087877185,169.4930579200242,169.06308851224105,169.17849600241362,169.62224240360237,169.5374872395932,169.47361263269238,169.35909159613058,169.84956389836935,169.21245103946973,169.44892178707656,169.0689901228077,169.66142862539192,169.64863031764574,169.85261806787724,169.57298171695132,169.75683420685493,169.8373897973024,170.00464045876404,169.9940716686176,169.87354365259495,169.73068491079528,169.57354661032934,169.77988657844992,170.47916825058923,170.12986274361114,169.89645127118644,169.51816983618903,170.06250236607988,169.4816168160928,169.8561970338983,169.56845361602595,169.53198868991518,169.22026564322533,169.409850284723,169.66693127693355,169.70392600981504,169.41142427658775,169.9158571158571,169.5256918488315,169.503618272275,169.73514739229026,169.80965876884707,169.38593844296923,169.4959364959365,169.95381290053467,169.57910255925603,169.82304029027136,169.58064516129033,170.06392088511672,170.14326875687152,169.42960451977402,169.82960217818786,169.7365240055906,169.3929431236834,169.4817554054564,170.00825945290597,169.7128619426932,169.7268504531722,169.7537722648716,169.49945309848,169.72485251852973,169.97573091653712,169.806426006426,169.5605751811594,169.60223484848484,169.67162882079572,169.8859868271633,169.55278752878118,169.70223381335754,170.09609256449164,169.5642905737395,170.4101211039824,169.83062049171042,169.98396451722962,169.7476401683157,169.51119417072528,169.36439588688947,169.36399439542546,169.30906754356124,169.35871128946772,169.72096026741625,169.6063341551299,169.4427053797588,169.48933833276521,169.70230020084125,169.61124777655832,169.73097486065294,169.4464650283554,169.20294882914138,169.76319781553397,169.488121358856,169.24294168645633,169.91550043615126,169.49457692453043,169.53147064376063,169.3381609715622,169.7364552549822,169.62701597637616,168.83867449033326,169.4076312806951,169.36215420613655,169.7533827197823,169.50551651175093,169.74852384557153,169.77135174033253,169.51636281281847,169.58970687966243,169.7095664663416,169.47006292625946,169.94802045842016,170.16872771413398,169.7634404536862,169.94306049822063,169.78549050692635,169.4307657555907,169.91271792156715,169.7153215755882,169.85210363320493,169.97290854742897,169.9249895766213,170.2407794279637,170.08015310569598,170.0633540844215,169.98495414234822,169.82806765295697,170.14224383572054,170.30277007257666,170.29165082503232,169.57978983842418,170.10354872881356,170.46229805909726,170.31088592278897,169.9101636130589,170.16072578506763,170.41300394058806,169.9414297043163,169.412614238971,169.7393370290757,170.30385547644298,170.23985603333963,169.9481153496821,170.13490859440188,169.69124929124928,169.3709306273341,170.3917972911277,169.95347690907712,170.17160325055062,169.80480980110414,169.79054181969633,169.917359134889,169.7325145001706,169.8918437701254,169.97484920905885,169.55103662227603,170.36705389449628,169.95982718108087,170.2651610204935,170.007215007215,169.97627633327008,169.60500359018934,169.9835052328227,169.7560024236916,170.04722074366967,169.86886363636364,170.31691053193111,170.08666539851626,169.76744626814752,169.88936121759593,170.21171051128792,169.93723165773775,169.95202980082104,169.7763642577754,169.97965226634273,170.1472131396852,170.27706994257028,169.5597308332073,169.44158692938996,170.06396871796818,169.95936623455387,170.6323417238749,169.6066638963394,169.98540173662457,170.04040365719487,169.84284470026887,169.75528575210862,169.56160501756904,169.63114257590672,169.91337897643453,169.4372177055104,169.61500471253535,169.55342589797766,169.6521196063588,169.85167518455424,169.95724456562903,169.61581814055526,169.69779222743082,169.48870760631468,169.9493584648575,169.7405729815423,169.80359972832238,170.32081988992218,169.68519915509958,170.05402233579406,169.869079096472,170.2403233151184,169.9561676011517,169.7925634527367,169.78163912157572,169.5161545711593,170.22585534043117,170.37628572513,170.1816321891339,170.33914427559026,170.04101614183645,170.52401215805472,170.14910220471248,170.1402462049694,170.51194125884712,170.36034639237633,170.6165407826318,170.67290572928556,169.96212149850678,170.36630356397313,170.00749574105623,170.17327426256202,170.0089001666414,170.2423129354741,170.11961414790997,169.985288015391,169.79613992762364,170.20454115421003,170.09780635400907,170.0246796931101,170.33694992412745,170.02000606244317,170.16657180800607,170.08987231462888,169.85146791767554,170.2773476049495,170.01742596810934,169.96819198544185,169.89442193357823,169.8079226686884,169.75373557783243,170.0161284201738,169.81735540320443,170.42950282141223,170.19130732375086,169.9330551868007,169.98344911361653,170.03469504085123,170.4205493542611,169.9335560786696,170.22120359099208,170.24034073623363,170.3945247148289,169.931339096148,169.81621273044533,170.23929087727308,170.19377598108386,170.33100233100234,169.83120437956205,170.23545326372746,170.02213699878493,170.04176960206757,169.74334773709347,169.65801439939372,169.4435882908404,170.30030018619144,169.55741726102872,170.0170648464164,169.61274491298275,170.01783884313204,169.54785727770437,170.3099733536353,169.92451970536868,170.03205614567526,169.72273931138858,169.88029103035356,169.71723250444722,169.8145109455934,169.43020707376058,170.27309772259883,170.2075134847679,169.8602969022192,170.00841387151792,169.69731713777577,169.82639204976482,170.09362882992474,169.98385017817878,170.09037425036058,170.13245460761226,169.45741550995774,169.78683433073252,169.66328692493946,169.73736417673115,170.24836103064493,169.99992414760877,169.7667171525937,170.23727075976763,170.4668014187102,169.86264193792582,169.96646584062748,170.01448945531786,170.14463594260116,170.20123133052104,169.72412491031983,169.90240302743615,169.5728118617142,169.75657670615846,169.39742767698866,169.8190804423572,169.9703409090909,169.77383071387996,169.86036377415687,169.94205919132972,169.80964639963656,169.86154137473963,169.83321972279026,170.16204407294833,169.70797866303485,169.9676048858205,169.76531770045386,169.45415818442282,170.09917324029126,170.15006070723933,170.36775981173614,169.25217587882898,169.90164431310146,170.15048211980866,170.3795614871306,169.96402795715264,169.97134485120634,170.46299969484284,170.18433565369546,169.82914153484313,169.69169002348306,169.87519471144714,169.85404871375917,170.20326782449726,169.97027746104143,170.21392390600602,170.12466165986808,169.8231318347509,169.95308876639422,170.3032796251857,169.94843595402997,170.22404850888566,170.3556106870229,169.7370979379486,170.006359724285,169.7203357642054,169.59067259124225,170.1020774459635,169.55797019001025,169.76111111111112,169.80193494324675,169.97494478714492,169.5802581624905,169.90024728932852,169.58556372734856,169.55345553910965,169.5776835088251,169.64438715547635,169.64391297756217,169.75778283978738,169.78779356996276,170.30188103323286,170.0258174904943,169.9358686979978,169.98806673507391,169.67327520849128,169.9667844791548,169.84079526483532,169.6668936041454,169.52291248152218,169.55205453512593,169.77588561025564,169.7735791789969,169.61051115910726,169.59024408732566,169.5660191601348,169.36526379532208,169.61706484641638,169.93036677044574,170.4667022452636,169.8448105686736,169.60351606805293,169.6734894631304,169.86546337024117,169.9575833523202,169.81842643826272,169.8365978405001,169.8028563851953,169.75290642632635,169.77863231672666,169.40492625702538,169.6354687263365,169.2676862804189,169.43648515973115,169.23247482936762,170.12540927434708,169.481840833585,169.35569481671638,169.831054724484,169.56850560775993,169.4935732647815,169.53108925869893,169.4821860816944,169.69771489104116,169.7748657438923,169.45285509542128,169.38889936988267,169.25141200391596,169.32484268435132,169.82468220338984,169.73617615954072,169.5691437193512,169.75848242992774,169.77609115342392,170.21382502466045,169.875018919328,169.53854288627866,169.84050124933748,169.69384743453912,170.18906813437084,170.68509065975925,170.02217000795847,169.9378035822708,169.93490899418626,170.06717667656238,169.98783316223717,169.62870911436593,169.39158269565877,169.17273688982922,169.13569109987168,169.54300117499906,169.73802742015116,169.4338010059373,169.37510872442613,169.4471513959295,169.47638525925083,170.06032084746408,169.59797297297297,169.64154383832243,169.81299542682927,169.70410301344813,169.25355800979165,169.46109060466532,169.3957644196038,169.26535635840338,168.90989459367563,169.7071480254389,169.44996024082698,169.78282981630485,169.6538344722855,169.47628975398962,169.27111902416848,169.7691899070385,170.00913554870388,169.4401329958061,169.39301806065654,169.54248588854793,169.61892311772954,169.236617591544,169.36062974289274,169.57641838592232,169.09756650544136,169.07209249603264,169.14053992740472,169.2086270942309,168.9381614756577,169.24306347396427,168.69612068965517,169.0489441558934,169.01655303030304,168.68464510264374,168.69919532376832,168.5520963526872,168.6945003226174,168.5630239350605,168.01578669083767,168.32061793061564,168.03566020593578,168.36470097779124,168.89028201219512,168.65894656778855,168.21552539040346,168.25114155251143,168.79749962000304,168.6447787208245,168.39583569941323,169.09092637663522,168.72167020631068,168.17427103792113,168.6114862301798,168.3835419581742,168.59706115665017,168.43284371105992,168.78604739336492,168.2613550626226,168.35041409824908,168.4195107218363,168.7830210150975,168.1964723174914,168.84960722553222,168.7968506924682,169.08478831450415,168.78146223014758,167.9977376418687,168.6003109830097,168.49812379183564,168.57090743274054,168.82740538075694,168.74582778939364,168.50796654429854,168.42513996065972,168.63158892681076,168.86815778462474,168.63453127971098,168.20402222810267,169.01760415473328,168.36521607163183,168.66201573964946,168.3503981797497,168.54194503492258,168.77842898462475,168.47911529268941,168.62952963991026,168.62196883314328,168.81333282570623,168.62985459929388,168.71443232353948,168.41555386949923,169.22098308062482,168.97929748449215,168.86728829686012,168.93503029379264,168.66186804421318,168.73781066211345,168.7180070526675,168.603711418292,168.90608867294262,168.73904458114984,168.72516418023764,168.8861053031743,168.77888779153687,168.4814842833907,168.78120617110798,168.91761892107363,168.48319836524635,168.33103995766075,168.48799060463708,168.63494108286287,168.90262428316433,168.94500933013444,168.669093114953,168.57656941764105,168.68432637571158,168.94123680012154,168.88666793096908,169.36119380199986,168.327416918429,168.8463523874592,168.9199543899658,168.71231837323114,169.04969133450194,168.34173287930383,168.82020424433392,168.68670033030867,168.57296210598187,168.28641509433962,168.80767193765604,169.58083079268292,169.74458346048215,169.21753653444677,168.8217814286255,169.029970067821,168.7642821941696,168.79633555420958,168.77408486959155,169.3501219140506,168.7949243200182,168.77594116085984,168.83579769487412,169.00820543990275,168.72460812086874,169.2170551492992,168.50152939843662,168.49932060089077,168.76129740367875,169.48396201228118,168.95187855787475,168.22753338866673,168.90117781155016,168.7071913264339,168.5491213452507,168.61391805329188,168.22825881909074,168.74008207934335,168.59170835228133,168.72807848187568,169.02744099426096,168.7644044636757,168.83367533059734,169.00962196698868,168.9024029153855,168.50582362728787,168.60471095315512,169.16987020895976,169.41036675934038,169.2792439914816,169.35286721280244,169.39985505587978,168.85006444764576,168.6670579326013,168.8828968810399,168.64178369989023,168.85454476421899,168.83282801485637,169.04995817808532,169.16243539069626,168.64518936097764,168.64353025773002,169.3130352045671,169.63251193887297,169.51285273620474,169.61730981676888,169.89719911470655,169.63791073124406,170.22556103528692,169.5805128205128,169.78516633753608,170.18211264385337,169.94800015193528,169.98710509348808,170.56217289987393,170.46841482499332,170.55885945492022,170.3884045833492,170.67747219259485,170.91634791921663,170.7055357894334,170.76866982284668,170.7061396835058,170.89677813406627,171.01484562836316,170.88775238602227,171.52184066459935,170.98693781179787,171.1361091006057,171.62345441978343,171.34285386117386,171.7668817699931,171.34644373876114,171.46095457159288,171.66784384476603,171.53434087063528,171.9766661524221,171.81451147767908,171.43464766065065,172.14714599130133,171.62936580882354,172.01428021555043,171.79927105313638,172.22803911001617,171.64242191990803,172.02433679354095,172.20177366493155,172.0088097253212,172.02249433802925,172.22689886859482,171.67395306028533,172.22529293863707,172.14014114380473,172.35865615093172,172.28744829718968,172.1621600801171,171.77805036991606,172.2345507782401,172.27204350844713,172.3647721138274,172.42199853445948,172.34103690008473,172.05496107083957,172.20668973471743,171.73117908616987,171.8009582215408,171.69066871048094,171.84110389360802,172.04009851458477,171.80285099515868,172.5186034757591,171.88973252139058,171.70531698127715,171.99941952710807,172.0622172383125,171.82037916521872,171.73099189502122,171.62177263969173,171.4766638519997,171.58583682732623,171.3681987482241,171.2445143470922,171.7611675908811,171.54751183466112,171.42542158030193,171.80922318885212,171.44156691221608,171.41390181077236,171.01554840686273,170.87637310062388,171.23982943413623,171.13401428461717,171.19927800606783,171.1254212622549,170.99973214969006,171.43751201322416,171.5705731065986,171.45173153539687,171.45051377057948,171.69714964370547,171.48621707625657,171.40280438280593,171.41157062840483,171.36273534363997,171.67361350988293,171.3820973237873,171.6609791714703,171.3558197507191,171.13477626832452,170.96145577395578,170.80251036388762,171.19553437608087,171.03647731195582,170.87026551381132,170.87966296438145,171.26959920300405,170.94176423477364,171.15914052625533,171.18213190184048,170.8635842567826,170.67969614841394,170.7399212809049,170.65845178052882,170.63291139240508,170.5817270919382,170.98319779039434,170.7934045731357,170.3994352653871,170.69118715350794,170.78705972434915,170.60058175137783,171.04577721499558,170.9985813971321,170.9984302013937,171.2220124817012,170.71082724595556,171.39859252422704,171.03629805847595,170.7657799043062,170.97074294490307,171.05881223847365,170.88094964579744,170.5610249751776,171.092456019052,171.0385546799923,171.39899203631748,170.90743719362746,170.70581488702834,171.0789806961661,170.61546986662592,170.42864774114773,170.70083834169122,170.8314085101485,170.9989627353054,170.88753986245052,170.9545646255895,170.58155566619433,170.7255660702655,170.93004415434825,170.5337491390526,170.71988795518206,170.53598927408544,170.4137127578304,170.5327696369132,170.61589074633716,170.88742533312913,170.43240662949668,170.64312750908047,170.47409247229652,170.68710294680443,170.64822966507177,170.432519206513,170.4725988161161,170.62703302590793,170.58667125750793,170.6404042724245,170.3223679194938,171.09297052154196,170.4814814814815,170.50513692090288,170.7877801187512,170.59729265967587,170.54190050776924,171.02256445619278,171.05158745356363,170.77115017195263,170.77168094218416,170.4465597989567,170.87026367001184,170.59932159463375,170.86011154404463,170.10837700311384,170.53030245387103,170.9658331742699,170.6104564695115,170.59864360283473,170.60265254011205,170.64549578742708,171.02605202754398,170.91105080081036,171.0657738664626,170.93929785689727,171.23692072003064,170.6559516110625,170.6449661365193,171.05015482243206,170.64985717006286,171.12774099728293,171.0374880702424,170.86057051452946,171.13232037871268,170.70916698364397,170.92039914686168,170.5480045610034,170.8894983430465,170.78701061522656,170.79661081492765,170.9439248768943,170.78746666666666,170.87295113211863,170.86988493484722,170.89365115746045,171.29031887608622,170.72693024848738,170.8452690308774,170.80976000610477,170.32903421591686,170.78443935926774,170.30336523852932,170.88290656912056,171.00732992288312,170.42993811928173,170.94287896143567,170.7847341011898,170.96559606812207,170.458238420653,170.73746907706945,170.94477475417332,170.6742231181773,170.64938919968034,170.93179040635502,170.89957918898241,170.36580358161288,170.90603230498354,170.7642985577107,170.40835363996345,171.07984688995217,170.8267713519724,170.80388780469139,170.8898945349952,170.2759645047035,170.81291776479125,170.42305053738852,170.32339370829362,170.707199448846,170.60224228973752,170.8753730772174,170.64505759442807,170.68804597701148,170.9528815900545,170.894799508373,170.98620398124663,170.0356788899901,170.69553211888783,170.81509347050016,170.59323915623446,170.36712192888754,170.39356388454647,170.33511328095202,170.8656006748725,170.34376311672455,170.62867084735393,170.58609486679663,170.96947825085422,170.6029445506692,169.83062680224617,170.8213285237346,170.92900249855853,170.72013481941093,170.81359372008424,170.24115804751355,170.66437229933845,170.6103742211689,170.5020253745032,170.31018306636156,170.4611240591449,170.51789401238815,170.50996563573884,170.71789868380776,170.64029822213726,170.88951906495498,170.30418526572814,170.426953005798,170.75757923309249,171.17571725251904,170.55901902360762,170.52218234575443,171.12331340079731,170.4504716981132,170.46312021629032,170.6746499349606,170.70135486834047,170.23282807071132,171.07429494825132,170.40722200993503,170.31818355567447,170.48246887174395,170.58029756883195,170.674504097419,170.0886915424782,170.1931116027157,170.7439015035287,170.13137852246763,170.31282422947817,170.61685750392525,170.55524100994643,170.31862464183382,170.49323187519119,170.18992986735782,170.42927480916032,170.1950308665498,170.28797032731723,170.83427300272314,170.30800978294099,170.61635388739947,170.36667812535808,170.32766721417931,170.40531561461793,170.21284312602603,170.6331417624521,170.3461965043791,170.39753690813126,170.17970716083275,170.17473282442748,170.37414913957934,170.13130696769764,170.3811786343781,170.26802310016444,169.97371833994507,170.09515981036856,170.1993807576163,170.13957576915726,170.70217917675544,170.62664669508777,170.69110128771862,170.28438576349023,170.4131217904499,170.3451521204671,170.27300531406507,170.57244901877954,170.59239923224567,170.1411049977075,170.58696069768337,170.6362831858407,170.2300685115015,170.2605512324146,170.49435310387216,170.75305933964444,170.2700576621988,170.0533856647487,170.59264525053797,170.67619157352996,170.74744368417007,170.22335626911314,170.59077135514556,170.63822774136676,170.53852050594097,170.22161646969118,170.41235379558137,170.54963819441787,170.12944811014913,170.36527427128757,169.9801158007009,170.07152661278025,170.28509727477737,170.43929638997471,170.5856940238433,170.72009367321868,170.6067910933967,170.48876404494382,170.46027689843243,170.90336198956095,170.20977899919845,170.4122195850241,170.74337506720946,170.13040321039557,170.03904075641466,170.68654943876183,170.37247474747474,170.29505381268606,170.3399961781005,170.82812680115273,170.5380992495022,170.26467551340394,170.47142200429053,170.03332063975628,170.48584328129783,170.12336669977842,170.3500917571494,170.33512976340634,170.64294473825402,170.5253912976924,170.21258970835243,170.23164058015385,170.0201554522594,170.57956371986222,170.63770447841245,170.49691535425526,170.60146951896215,170.11049723756906,170.59014763252506,170.171974522293,170.03958055290752,170.43006765796414,170.4078741360217,170.50426565668158,170.17645714285715,170.90231737262124,170.86412939327738,170.81171098576417,170.5971558545816,170.38034841075793,170.35475863122517,170.74983685846993,170.70662883870722,170.34539750554748,170.59637884076872,170.1396912731163,170.2397859736289,170.1636252343242,170.31851228284992,170.0825674078029,170.229018437763,170.56764322417362,170.2036122909731,171.0429318164348,170.98864900103538,170.88360718379823,170.46822308690014,170.22275982932032,170.41385231825987,170.2862934067615,170.54616384915474,170.0218610507039,170.3237654792845,170.2080354753622,170.3948424068768,170.5512565124119,170.42768065490992,170.70934030045723,170.5659920893975,169.96807780320367,170.40501874378396,170.03165160355414,170.14438808588537,169.9871619047619,170.26385496183207,170.14985327184726,170.28769424611508,170.6846895280519,170.2980497131931,170.3283981789663,170.27531246416694,170.4173095375168,170.71214565568104,170.38670451494113,170.2681098447181,170.26490066225165,170.69793469481942,170.65992541043485,170.3634136069528,170.43962611094085,170.26703893520997,170.65702225633154,170.55090141925584,170.4103880185391,170.36326093606607,170.30233180428135,170.67943061044392,170.7293738242408,170.86970558843876,170.2926187297349,170.6280826909063,170.4139714898835,170.3775303256419,170.56278713629402,170.03909527805325,170.61342636966606,170.459527727812,170.65845138009138,170.79364470199945,170.50573964949874,170.46325158530064,170.45631884944922,170.7912189131102,170.5874372437052,170.32804152037858,170.9811986800706,170.3892220142841,170.51431410770937,170.5432863203761,170.49129505192425,171.2668537166577,170.4718433285072,170.82617853176578,170.67847859327216,170.71910542641595,170.64228977316122,170.2358986069879,170.61662526275558,170.6633776961909,170.33048682856162,170.51607741542213,170.45044838771227,170.6306985645933,170.355017380343,170.74043988045062,170.43198072436607,170.24101172964507,170.32672585335987,170.8915324595457,170.29793680012273,170.61091326823666,170.76164488854727,170.47827086686596,170.2433363970588,170.42007648183557,170.19538779256538,170.64077147687107,170.52834814587803,170.22679232324774,170.47950143815916,170.50168543629817,170.19268227475843,170.20009941878251,170.64313920944676,170.4951489818614,170.65943833569594,170.6974873601961,170.7061165122866,171.0521398085131,170.6323439177788,170.19522155642915,170.13357276582738,170.54746094499674,170.30871045484105,170.74492697924674,170.6808518802763,170.35660399034964,170.6276943174396,170.08963831493716,170.53885135135135,170.5999156991225,169.95646538578836,170.88026760996615,170.42748909466596,170.61719290159022,170.8596760574192,169.93001638157645,170.36384430635508,170.45603053435116,170.0327177382581,170.38661582459486,170.28154303575513,170.37982014936748,170.5735945615643,170.74623154028617,170.23395019419695,170.5254813569682,170.08158765159868,170.54127457730854,170.01849255371556,170.16244717706627,170.66454945475417,170.13791661916164,170.06078252264595,169.738542022063,170.47087786259542,170.1562738513204,170.3507148864592,169.8414601753121,170.39261911109418,170.32572211439663,170.27314285714286,170.1324352094988,170.5029805120367,170.25318386334172,170.08009597806216,170.0472728656796,170.4719538737638,170.27251211970835,170.114420659709,170.14095673718316,170.57487571701722,170.13665092902832,170.65602294455067,170.46991218022146,169.8715247404252,170.1993597316971,169.8801566480362,169.91395145002096,170.10308296177737,170.144494536563,170.27453454142295,169.9737052399254,169.8846329750743,170.0969142857143,169.8778675405838,170.04000305075698,169.99942826650405,170.01438683757414,169.9632894485785,169.6945839038491,170.2672123623011,169.83660727881832,169.86921283021752,169.88142775338804,170.19918061033044,170.08682863473146,169.863353800389,169.86310001145605,169.74233643434496,169.47147638244468,170.23817729274364,169.8824583476305,170.0801975270834,169.9186153140761,169.47530253443946,169.9405982091827,169.91005714285714,169.65782452930864,169.78568706653456,170.037866931328,169.54336860469527,170.1675256747986,169.86862842133314,169.9819013145361,170.00045764844972,170.0768056191785,169.75171102661596,170.00064895403878,169.4889116731222,170.08315833683326,170.08164665523157,170.27652659350744,169.97141765380206,170.07064406260764,169.76110920395163,169.66006085964244,170.11122144985103,169.47506262810293,169.71300806819912,169.77882819349674,169.6869449209072,169.4561276563333,169.23026440575092,169.67107915858344,170.25749006420054,169.86816034141137,169.5444279685183,170.12576933369013,169.75053361792956,170.13739436350426,170.30279859305705,170.04124852138742,169.96491027109585,170.03126073514255,169.84055981390384,169.36376756551462,169.99342633288745,169.58099368485125,169.9657562945187,170.1192678080098,169.64266433486674,169.59428723566103,169.79873446672258,169.52271433450986,169.9494945641808,169.88625104793843,169.7443571755376,170.16604177825388,169.81653125834382,169.73376969327956,169.61765489927262,170.07276069390724,169.83910674135893,170.03830714531483,170.27448577009997,169.78162938077423,169.83144011588016,169.6343201127748,169.96194365982137,169.922235815874,169.53105601888876,169.53659931376288,169.90975488509045,169.69695698596706,169.2536724236098,169.40814152558494,169.83372132961875,169.3884476534296,169.21095619800175,168.96880324082838,169.70547840683656,169.88764001987997,169.49975263538457,169.3992996079327,169.20456617535328,169.58785175017158,169.63878080415046,169.41078491025252,169.61761673857433,169.86035760678536,169.7339309555598,170.33397320228818,169.4333739435011,169.5853510205633,169.64478338594955,169.71616269327444,169.51892324093816,169.49616426853936,169.65602499142824,169.67017303148106,169.40561456752656,169.29453771936488,169.23064056263067,169.75041000800945,169.67883016853503,169.6950681178172,169.77330637778456,169.66154256942326,169.7356738997555,169.80512898677742,169.97746907706946,170.21396396396398,169.83603871361072,169.77836602551895,169.08702405758666,169.39305412910343,169.21554341226474,169.20292934658875,169.3513657663149,169.6948089208523,169.32768340062466,169.39913166012872,169.17287234042553,169.57790076335877,169.76955990220048,169.6384659416142,169.61033706149558,169.42161113646736,169.54508477153502,169.63237201495383,169.47747885069737,169.09061280175845,169.3706591609296,168.9781990521327,169.25122590945375,169.64745594629645,169.42135301727419,169.41506056220004,169.88005045678682,169.60623477466504,169.49979073926113,169.66358672826544,169.67889978255064,169.47002854424358,169.53990091463416,169.3622448979592,169.51696462533283,169.3170286409798,169.46903429637243,169.15561544008804,169.38403230107036,169.64145263318343,169.52060696175988,169.25390788422774,169.49103096317174,169.3544727826418,169.28867745004757,169.93258426966293,169.94476977839017,169.53603380667758,169.67214744570205,169.44398688324563,169.62280065646348,169.650128053209,169.4182525456695,169.67801207120482,169.2900699513382,169.68460862589296,169.58221137343148,169.4455207657984,169.41841131830836,169.44303749189518,169.504989485758,169.84754393353498,169.72020507326778,169.77474272160373,169.73969091882793,169.42935114503817,169.4602635096429,169.45102974828376,169.4303980516021,169.57748359529987,169.67419883397477,169.77391901690646,169.7578617553781,170.079796004448,169.5081491659987,169.83754983134008,169.89299766971004,169.72111720774274,169.689043915828,169.71035087050936,169.43887409661468,169.84589550814792,169.81042509349004,169.85215629301118,169.60739329268293,169.45241179608323,169.59802425814325,169.31661096764392,169.96884080134578,169.8910528124642,169.39807597247042,169.93674894136498,169.34133758203407,169.78095491928116,169.37013701749726,169.6503104880186,169.35818230175917,169.65833238193096,169.46831976876854,169.7069942570266,169.68106995884773,169.84289903644742,169.42328444410668,169.6138625185863,169.42885900941963,169.44979644637218,169.7774848102717,169.98680335080135,169.87629417383,169.9053145998778,169.69335773659728,169.9358444342367,169.61038020058726,170.0162791588463,169.31143312343525,169.80084697264508,169.81682356976788,170.016279690419,169.7529746115953,170.26816003651024,170.12940773707635,170.40038189803323,170.13591640607123,169.95787427090085,169.75185452885458,170.67903361666285,169.6602620087336,169.68388398294763,169.90141922650244,169.98419622699268,169.91940469376073,169.7923411728772,169.221817491937,170.00723278864183,169.86706925546554,169.44378405151065,169.16583697510924,169.71545555428003,169.83233762254903,169.6434928759693,169.6684612447499,169.93333333333334,169.85424325980392,169.94691315497377,169.51133031191682,169.87929252325716,169.92003367003366,169.79696285812645,169.75664934270864,169.88555576812703,169.53439981673793,169.78455300103286,169.58416634872185,169.7348705377662,169.72191451163147,169.6803974016049,169.56610104861772,169.60714285714286,169.5692049443003,169.67761877504293,169.64185869358218,170.00268209509943,169.90318880477173,170.04378498581397,169.87104632131846,169.94327131605982,170.61692343067372,169.98819092605996,170.1449961802903,170.29548150131995,169.64896564813057,169.93814707673567,170.00327319783815,169.98882447173696,170.50555555555556,170.31711505437895,170.18469907935784,169.97035768645358,170.30571035956945,170.3748330216404,170.09892783818722,170.76777251184834,170.83642824392481,171.23640471813727,170.5857490679449,170.8646478550126,170.0702234382125,170.24043258063287,170.765374024782,170.138104492969,170.22501715069745,170.41322187869767,170.23349479385178,170.01628181230265,170.187048986293,170.01542974702835,169.74486236444983,170.70452804167942,170.10331443357813,170.1652561756633,170.68717653824038,170.14595705801736,170.2918859147411,169.99418781340222,170.6004655067155,169.82947647951443,170.0829431692741,170.2257941501735,169.7620622790008,169.76065024555527,169.82752188808527,169.94162726856794,170.16768001223662,170.01610932966867,169.70645480118606,169.7278367781965,169.7717647954909,169.96907137668694,170.19837112377166,170.12498566239725,169.86378039934334,169.44234936323892,170.01307439406682,170.00809654750992,170.1066529099316,169.67424328954883,169.89737807674666,169.65178945763617,169.6638700327969,169.8727861359741,170.06227989588118,169.71116532611597,169.87773875868388,170.0745308310992,170.3658087530206,169.89309185388964,169.7143129479945,170.0556108770586,169.71268400579666,169.66416431674415,169.60801798711938,170.0522271076276,169.46422869307384,169.9623304680038,169.60599840346677,170.1635524710189,170.30914512922465,170.17443016674315,169.9607895540623,170.42072189439804,169.87709880068533,170.32016655842915,169.78447259309976,169.73157294832828,170.27613223772215,170.00541509362012,170.1772668344391,170.10520090052276,170.6395143995098,169.4713890258238,169.54912965982783,169.88572082030953,170.04559166062086,169.67712219261514,169.91569623152992,169.70688148345175,170.00691209043,169.71936969512427,170.1928675400291,169.59252065958339,169.78004042252985,169.43709867396177,169.9021606352115,169.5663104248279,170.14680721051025,169.6660837166863,170.07657657657657,169.63664407037854,169.80088360755636,169.95584197681512,169.81021675364747,170.14251401120896,170.6245414246408,170.54699878123097,170.43961536993933,170.18063803867824,169.92925299372743,170.07646319637485,169.76423659917182,169.78698494754448,169.85843844072704,170.57688909377282,169.587314849981,169.88370938800443,170.28003533568904,169.71642359392254,170.16024170108614,169.92584269662922,169.80995354504608,169.87383088375645,169.87836088049357,169.8878115814788,169.70266463646746,169.78121302339784,170.0323494506336,170.08663707332008,169.61866859623734,169.58708891595614,169.89449768986978,170.19738151749482,169.74670827308015,170.16230446394505,169.78765976871577,170.49061005928476,170.26581603504096,170.792116754769,170.33273689420184,170.38913340415846,170.554022726409,170.6691221142163,170.71353217972072,171.24496734023455,171.19487589462463,171.02822197743762,171.03605413807483,171.1256264236902,170.74645758549028,171.50608828006088,171.178250142342,171.09282972983243,171.09235850130963,171.3499124076472,171.26041191670467,170.79030119340786,170.98193342695564,170.49147415781314,170.6625662376987,170.9701016846259,170.93328020038712,170.91649617337274,171.0745452474082,170.6947440118061,170.61774266706985,170.94600431965443,170.93876315191886,170.75770276393294,171.18935606060606,171.66097764938422,171.5119702545813,171.7485000379737,171.62700428338576,171.41705173850465,171.38191183154066,171.3174663235962,171.7362416616131,171.71521476104053,171.74976353524272,172.4434091427702,172.54762536481826,173.34537907924297,174.09275473140892,174.95107797548135,175.20504914241664,175.47998144999227,175.34677605731454,175.61675303581097,175.43581628714782,175.0899511594816,174.81743963204292,174.90042925034493,174.45261262641742,174.30847807789425,174.48919623017395,174.35930090255468,174.63282863041982,174.5675955383495,174.32495023732966,173.9973253859086,173.5484462090555,173.59482329517172,173.297123623011,173.11839001749982,172.9921112804878,172.70570536258379,173.0198829962146,172.46211401876258,172.38453659091772,172.09698349459305,172.3121261762353,172.23731656184486,171.78268785798278,171.74265734265734,172.24160844471447,172.29405512109938,171.6403628117914,171.87613030153986,171.71720072551392,172.1944539541253,172.2389303104078,172.0307826615046,171.9477424749164,171.62663879916397,171.60515655169803,171.91665081599268,171.7571031912061,171.86825801056673,171.81930768065445,172.2110392082223,171.8024611644954,171.9046041357249,171.4962794229309,171.13132461625923,171.55159817351597,170.87182496119922,171.14540622627183,171.52980208214163,170.85081425805717,171.24642925157113,171.64267430754538,171.0906980284692,171.05757529662307,170.89316077121603,171.1521548603437,170.63860843259596,170.61051835035943,170.44574170634021,170.67788843867157,170.71608116293154,170.6190187764991,171.06544472753546,170.83014435645816,171.02796883906518,170.8900322764382,170.8606056000912,170.35978475064422,170.02983999393342,169.97678042106864,169.6083910787989,169.8467952848425,170.13262710255535,170.0257237166597,169.78229927698072,170.3517968631034,170.42997262773721,170.1935520576522,170.66451097500666,170.85290646769957,170.4396171958074,170.64005026273705,170.47519562409784,170.5760036427108,170.2524452195011,170.22297604608855,170.08543131473502,170.39769321242935,170.03616828087166,170.319131192904,169.95503875968993,170.42130612864077,170.4476071198148,170.2396074121793,170.01751730922024,170.17616049757282,169.94857056421117,170.25327361748967,170.16717198514363,170.0101878503257,170.3330294396961,170.31543777052167,170.66673010314773,170.31145553071354,170.19184834123223,170.66375928394592,170.25421220400727,170.38301671732523,169.95564531350269,170.1700576981476,170.26098171610653,169.96607926183634,170.29910765141446,170.72920003050407,169.79981842941444,170.2842533454988,170.27598007528803,170.22303362239464,170.08296893418,170.28749333536447,170.04375735936492,170.31564905861728,169.7421347888712,170.09889984392248,170.3832257571707,169.6605310002651,170.46269396469557,170.33324427480915,170.0855700239171,170.17902687110976,170.90911869198152,170.38716561237712,170.36866201213232,170.1998703131556,169.75124340331828,169.7896215313366,170.08744812883086,169.9917330184007,169.94592431690864,169.7363063131505,170.13919259882255,169.9134293113955,169.88164959445567,170.1880870561283,169.89533686658785,169.57519808924442,170.05812845435486,169.8678449258837,169.502765570541,170.0478146753395,169.74790107510543,170.19762830778618,170.0209893912316,169.94704498899932,170.07107544873745,169.9273314339981,170.05962657337338,169.96354245784596,170.39358333651242,170.421667430142,170.1974306190912,169.66724784899367,169.85811375199333,170.06424389873033,170.08930745814308,169.83327003418154,169.66550258123291,169.48822748815167,169.80746831106543,169.06189810793458,169.3985790813419,169.34864649379247,169.32125356125357,168.90348454466346,169.5321702030399,169.093426785376,169.72014470677837,170.48062727098872,169.518720837601,169.2169907881269,169.198954862163,169.54424745092072,169.1514692517419,169.40550298331624,168.95722875619256,169.33177623333714,169.44727037712894,169.2392407940597,169.478025744535,169.28870483644238,169.27464253118345,169.32078771289537,169.2738911404871,169.38744646173672,168.91980347694633,169.26938543247346,169.4228458437904,169.60573954800105,169.17366861657678,169.49132947976878,169.3938080024342,169.4758150517977,169.29206433704704,169.46978691019788,169.073712222011,169.2177333536029,168.99540552855407,169.09828897338403,169.05638669501823,169.0312974779702,168.94276158260803,169.18327741345126,169.02944533211596,169.171098750381,168.9743959884516,169.22730742804794,169.03236517690164,169.0761483290096,168.97752980157674,169.07270227958304,169.2175727411945,168.9654435883744,169.07812261705047,168.7163827198053,169.25497308235654,168.9732047568227,168.87943370376007,169.18930872764707,169.2730044979797,169.1292594707786,169.60071198897566,169.4955863808323,169.11734033645428,169.2498953537045,169.01679586563307,169.23467834031214,169.00045660363,169.33860458026902,169.50888228118328,169.0544473574224,169.28281291598523,169.3912977040914,169.7003131683471,169.49133455489388,169.41077620698854,169.30506473724296,169.06015636860482,169.46365924344113,169.24676560121765,169.35007053261657,169.21824277985218,168.96529836564045,169.22270476190477,169.1554762266444,168.78652409661396,169.04115836278646,168.91477725874444,169.32833263526635,169.0756832782149,168.87990437884193,169.03820881917278,169.17858362098394,169.3394662814567,169.22650483220454,169.37655660916258,169.1860960127713,169.39184869472564,169.01379101310903,169.70724737082762,169.56979134937558,169.3089588561868,169.49893186846722,169.0924034774686,168.9155560618142,169.28126187761308,169.27647595861228,169.39653205566964,169.1773765268189,169.60211281034285,169.25696900551435,168.93307295616563,169.40529322162985,169.14596403178587,168.96771011193323,169.4847929084518,169.1076291169088,168.84783186008573,168.93037565996886,169.40682113634625,169.61819923371647,169.14103734124268,169.27026511539196,169.27355507296073,169.28055300947145,169.1726808056149,169.51516774415668,169.12182025894896,169.56564342034756,169.09605939463165,169.60501147666412,169.0251256281407,169.14004876562024,168.8233773147268,169.23607558694408,169.2089500991912,169.2339758298914,169.30782734801357,168.73406116859402,169.17684973302823,169.57399770904925,169.72330430797433,169.23868312757202,169.6075620292847,169.11013886246909,169.23196524522695,169.2656142759094,169.33158919909866,169.14426629089385,168.8515719927096,168.87726098191214,169.09709774608137,168.5268642012731,168.64375711574954,169.08283212790255,169.1065318226751,169.40768201796294,168.82224417676787,169.08515183885243,169.22468486994936,169.1531439004907,168.87475285171104,169.18293752144245,169.50742782755188,168.83133903133904,169.02252663622528,169.188716695931,169.0189017186845,169.17539837211967,168.6191379572014,168.88037440073055,168.78212354330108,168.51872794201358,168.95049391662536,168.58355145859414,168.94278862624185,169.15567262177433,168.82362570427898,168.77704345183835,169.1013840698517,168.94461351186854,168.71430200296453,169.01847478287368,169.03291177815024,169.1350630548253,169.3234260391198,169.21427210728845,169.36901280054695,169.65009334400122,169.40799178769674,169.086735081718,169.22926810712113,169.15838119508578,169.2829145537042,168.45653161681182,168.53870673952642,168.92772782688206,168.65042718815266,169.1800906355916,168.56538388625592,168.73554567225455,169.06156894121233,169.05020363110418,168.64552648517662,168.9957048918621,168.94494471674454,169.12939923144236,168.6504887474426,168.6700905886366,169.11424004870995,169.20402792081475,169.47645482388975,169.11615950032373,169.23741501795126,169.14890616662856,169.45128440718196,169.08261565429464,169.0934608030593,168.6011868533171,169.32138489758484,168.65994444655834,169.08708122992198,169.12163505659223,168.91521996260826,168.89258820381485,168.87416485320506,168.7156436097114,169.1492508717477,168.30999315016365,168.3775335589611,168.9878850416571,168.3861099470456,168.67991743750477,168.32412718915018,168.89679266895763,168.89496375429226,168.64166984369044,168.92776886035313,168.81865067237163,168.75941398649422,168.34883277387854,168.52832135759058,168.66647500766635,167.95384615384614,168.09237592720044,167.5835893934221,167.69064282997337,167.80737751722563,167.61080669710807,167.58508815353565,167.52475398001445,167.69786065667543,167.44369549487794,167.5953708654801,167.2395098262387,167.0096682464455,167.20380879832413,167.30777735417462,166.92676997872988,167.41738798856053,167.4702781173594,167.1039208222307,167.29038278423158,167.410261300782,167.87529618589008,167.44561163127045,167.36881724518116,167.39136046158518,168.01062000993238,168.15126275169067,167.7312445340127,167.8601427811954,168.3384339464245,167.82793414763674,168.26569771877624,168.3982875926917,168.81299318164406,168.6302953972979,168.15561456752656,168.28163884673748,168.1325924798295,168.33316833568136,168.30411469425007,168.1362721646353,168.41968299931418,168.63294378246258,168.57346189164372,168.90206659012628,169.17577288031833,168.64648348302634,168.73986163666245,168.91407237219988,168.44524407889728,168.04758288079597,168.77456978967496,168.44985706117782,168.84059690070785,168.41604612975905,168.0386354138966,168.24519468656035,168.53170321050013,168.73051412797608,168.96985059722704,168.58811820548155,168.22408664480207,167.8865372192879,167.9247688268199,168.53375713246277,168.3396211976277,168.25910187205696,168.03576199381703,168.27270291990357,168.02019469364382,168.35365106122137,168.5909842686257,168.1422227326672,168.20512133506853,168.3820237638942,168.3556928508385,168.14363817097416,168.04062428276336,168.09528359578047,168.07840061220585,167.903677958981,168.1179333869917,168.25818838075492,167.67969585816903,168.2477553526207,168.04002144689977,168.0826667687244,167.71954058076088,168.30596957590657,167.90789322507754,167.86066452304394,168.078733517326,168.10888658765774,168.41748394292526,167.95319556065826,167.9934155118291,167.39215761139323,167.91503693214437,167.22922374429223,167.77519972478117,167.6395615308227,168.07118514263834,167.35217275393228,167.7534723550794,167.77586932405035,168.00970054829185,167.7035323801514,168.05656108597285,167.64337505724316,167.83860334981412,167.55633722041674,167.6399037910892,167.6323394495413,168.00310988251556,167.20806008845508,167.78321330064358,167.65818376640772,167.80158578159114,167.63929730761888,167.9147046437732,167.52628166005493,167.98098086583076,167.859385770085,167.90446418359957,168.05103796306915,167.84102505521287,168.05588190418067,167.95151515151514,167.47925531914893,167.52232669686703,167.86590052893945,167.630066603235,167.44338081671415,167.75280384527352,168.12271041260374,168.2992955050157,167.50904255319148,168.07278758531285,167.83051106025934,167.59332725338197,167.67054661645554,168.22588415216975,167.9918079634216,167.7138508371385,167.6078148710167,167.69697200243456,167.7832883276918,168.12323903332953,167.9433329522503,168.08804455634393,