159.63646152571854,173.37341901682288,173.57885238505395,173.4152158845354,184.8941991973732,184.78219789132197,185.15930605777436,189.70856399932896,189.90959502604605,189.83391454140582,192.1870369586385,191.7580010992263,192.0591918764544,191.58997381219604,191.87342564017015,192.26760857751955,190.39789936492429,190.67819420088904,189.9562644400308,188.9699440447642,189.88763954378754,189.58148311719597,189.01094527363185,189.22095298957544,189.76348827969807,189.49820186068328,189.69328514805315,189.38327458651275,189.0953063279374,189.72947488854697,188.99409890239585,187.72503691040484,187.15997519764377,186.91130623138514,186.6739979127208,186.29786577129406,186.91877305377596,187.0486801242236,186.9738627990848,186.35794907353903,186.12097861683682,186.2834785290263,186.40665198748405,186.22926716319995,185.96027228674717,186.40822858024217,186.70927395934171,186.6137488400866,186.28963308769627,186.26667952923017,186.28450106157112,186.19371626831148,186.83632842757552,187.36439553578396,186.15466265246255,186.69444983128417,186.31512100677637,186.8183551198257,186.16595019557724,186.87792713812584,186.18274072352622,185.83313482153147,185.767761972317,186.8122074807566,185.72337488015341,186.15082446092939,185.5538726333907,186.24482891195694,185.9944301463527,186.09986950180394,185.9683932265727,186.19949349602854,185.89806234203874,185.78020422993077,186.22269618015525,186.50744603070765,186.2311563580484,186.03973509933775,186.0254286043033,185.68521062271063,186.72712236027235,186.017190006876,186.6117389298893,186.92262683809378,186.03295948729686,186.3103686106215,186.26002378851246,186.03922471694491,185.25716678722353,185.4403746573256,185.64734097224866,186.1265057937206,186.06302633083106,185.18010661222638,185.44383405948096,186.5998929172403,185.62249194007205,185.57270456437817,186.3197758633834,186.7174660149687,186.3384030418251,186.53097311335168,186.06532644219806,186.0675002850519,186.2086043592377,186.1365052823592,186.23254930273208,186.72916189166475,186.8698062000688,186.8849587912088,187.45374990404545,187.44182649805896,187.40448747502688,186.5965733866362,186.97940110623688,187.45509509049862,187.86717580688492,187.65163541546838,187.28934087781008,187.09652597897303,187.484179150107,187.38741012696957,187.31124966530237,187.26525615028504,187.3195533289992,187.63774628413412,187.09750324501795,187.1238335627964,187.52986246791556,186.9135217723453,187.5259765175351,187.8291690654385,187.17360394450176,186.79301157125457,187.38527194090403,186.92053156652196,187.16794097408058,187.2263732905493,186.99767362038062,186.9311396652305,186.66481446241676,186.80880335365853,187.20191168036703,186.89468661729904,187.10857688634192,186.96783302171175,187.1744394790115,186.87584787744836,187.3665824915825,186.417704221075,187.11513371228017,187.77176705133613,187.008413919135,187.27456294373616,187.22178973478344,187.0530612244898,187.3980036714089,186.85499638632126,186.8466714823404,187.24499923652465,187.30935004394178,187.22822512808747,187.14917782026768,186.74901990636775,187.12375576827733,186.6240392664181,187.8210158559527,186.77981686379243,187.38100901592173,187.15057352207774,187.1796815189098,186.60436967113276,186.77331808652562,187.2506025940238,187.68036547136631,187.58025210084034,187.33446603795196,187.08701130116066,187.15069539966376,186.37398157313638,186.80529112665826,186.64754129630336,186.01987257281553,186.7762312633833,186.07214299296444,186.99709324562073,186.4918739508622,186.24255092733353,186.71261557270574,187.40386091495242,186.5647386069197,186.7752380952381,186.95400366748166,187.31734713436842,187.2856923960927,186.7218219935201,186.6143009442583,187.28343924661206,186.51345078193373,186.11877875365957,186.2806250475249,186.14171732522797,186.81646392777904,186.46534465040156,186.28986168110654,186.70714476648718,186.76678499179357,186.88130597871853,187.24589599357134,186.40533140662433,186.81144164759726,186.1327114852311,186.65970263057568,186.53296369436427,186.0092553958199,186.8233611714907,186.80993059263213,186.85811920125235,186.22820678391005,186.46832794369413,186.74626068376068,186.15872594054895,186.79810556871132,187.73036215987378,186.81349327628362,186.47675527249152,186.85559332391247,186.8552470552241,187.13360168679318,186.4309057667403,186.88653757844787,186.28291103067252,186.96695100026776,186.61313062033227,187.18405119558554,186.81661891117477,186.8559672357039,186.72591374827957,186.81814705769892,186.7892884468248,186.4597771332621,186.48745096545684,185.95823524944947,187.04733455882354,186.21057439762475,187.02274729062154,186.88601095827426,186.35224847560977,187.05329141586475,186.26239811076408,186.89745062011943,186.39918042204434,186.12707351645406,185.59774119448699,185.51642635866446,185.2332405960593,185.8664623635319,186.18098818474758,186.58228237465394,186.85659927742333,186.01705936352508,186.23562932650017,186.3718454409681,186.4448702717204,186.52838947287654,186.56131459725103,186.32100376026398,186.27274121797822,186.20267422704111,186.11628085236853,186.27741960242537,186.1165242056039,186.02987818892208,185.99425243313664,186.23718735614545,186.1735480161012,185.86486383108934,185.9604221635884,186.0659555691977,186.00602086209543,185.58546093869438,185.940757749713,185.83397077946913,185.6504306730696,185.63877644542885,186.20381603194105,186.56674500134838,185.8540757749713,186.53978892227101,186.1650690995881,186.2138330965091,186.07758488247043,186.34962637701256,185.71206612835329,186.12496636555832,186.41418499826636,186.0910173201736,186.00176245210727,186.2005537822559,185.5151688827755,186.21981864289558,185.83901225114855,186.72997376138292,185.82107317819964,186.67299618688133,185.93686026451985,186.10351974820557,185.71681212677998,186.02458607045446,186.06241112947234,186.77637783102728,186.45617145940946,186.45514694568396,186.0886582083814,186.0809865918783,186.5583433048983,186.33779985368295,186.4925580319272,186.5102536427415,185.8750718748802,186.45295926210608,186.3149421754332,186.32849963555452,186.50569816967882,186.57025999462346,186.93704918032788,186.45534069981585,186.31717249327698,186.6104758250192,186.07430364248546,187.41173965230186,186.8064838672461,186.6079818524357,186.6145380382499,186.5619018334166,186.55657985710994,186.28958269407795,186.96849452414006,186.67740943004384,186.64563106796118,186.59798531277636,186.2127977903096,186.45352545629203,186.22011975128578,186.43744004911176,186.4762598757383,187.0735537508179,186.41150831580958,186.71221008242284,186.4890687327401,186.82211390850475,186.68614536264073,186.89384402824686,187.04942162099843,187.3324858430602,186.49471750114836,186.4763833690003,187.17105263157896,186.57731958762886,186.43277134227932,187.1930067775724,187.12500480639827,186.8815238680441,186.41876245974544,186.19238714613618,187.27131723126786,186.4447297815255,186.67766692248657,186.63405073020752,186.34057637771136,186.7493459526008,186.40996006757794,186.28507846372253,186.90802032019704,186.523325794457,186.60908951328113,186.89426109700747,185.9467959238197,185.90680100755668,186.54718863941662,186.82143269563878,186.4975273145486,186.08690987124464,186.34540571647804,186.30273190543699,186.33021113243763,186.3619139123751,186.68788754092046,186.25128460771532,186.75772758806752,186.81248556693095,186.53245506222154,186.8554059253559,185.83358772800122,186.46061466446687,187.11818917980952,186.39118119880578,186.4950942817722,186.59673829623944,187.85803112810413,187.1995779781316,187.25062425569513,186.97403495294796,186.42045237092884,186.56468330134356,186.84791971083595,187.04615087786996,186.78364775041302,186.7023141385408,186.6099323493235,186.5111051440408,186.48294496397364,186.76799693016116,186.50415120327506,186.73837767284732,186.9377406437702,186.8689419270533,186.94015288287943,186.29791380100872,186.5501243067508,186.81109704155634,186.59568681529151,186.07997098904454,186.12375272393624,186.33428942940188,186.9064316231092,186.71639438785317,186.19620519490456,186.49133169683952,187.25661324580034,186.23101047961447,186.338282565437,186.15450447008482,186.84456137655553,186.9366524528447,186.79982332834044,186.54546152369986,186.33675423144675,186.02879210797997,186.61835990013444,186.09522897840404,186.20245069883208,186.53368174307343,186.51868638371423,186.24326396075276,185.9502195075396,186.11898753536744,186.6597232897771,185.95380965137193,186.79774977844565,186.54849626951773,186.89977685441676,187.2150604037207,187.00686119569826,186.39665104846762,186.41391491322378,186.22057357564603,186.48843553096665,186.8275609379821,186.6117080685538,186.44630356181244,186.54590208068922,186.09618338196898,186.25116974764134,186.10100739265332,185.77533712801315,186.21694706921718,186.5960055521283,186.7879314338661,186.89831623766207,186.52818395771442,186.12949087415947,185.8079566836911,185.44985837862666,186.27271676300577,185.79037404374736,185.6698790554809,186.02904132804375,186.4900779862559,186.05524330150908,185.40068204460113,185.8763616767389,185.94379427163537,186.36396618935504,185.84426166500114,185.84505959246442,186.01774691358025,186.3669653893696,185.59263384284506,186.11350934669494,186.14131985960583,185.61747520565848,186.02775315113902,186.24559437316432,186.47661487193398,186.05392062328846,186.00115482331202,186.05287719839555,185.69167467794654,186.25701510946655,186.18823075438934,186.24483423284502,186.22525268112028,186.18290519169946,186.45970922589126,186.11412603584506,185.69567553048617,186.08012338538654,186.45747144180302,186.26174522489217,186.81721720946442,186.44588594154214,186.19191255986405,186.49615815282442,186.5141886413652,186.22362755651238,186.00457463575904,186.67511983918354,186.16677582155103,186.60710283263128,186.12241127107552,186.29388149005985,186.5052095392452,186.81083801045094,186.40049329428086,186.36350674373796,186.12268571867557,186.40111012604555,185.9562946462862,186.3415169968396,186.93300305763054,186.55234197011237,186.4605501755469,186.44697991751147,186.47218045112783,187.15434158454255,186.83128383604023,186.74808599489597,186.4046985302627,186.66203220947747,186.2112497112497,186.71614623589426,186.49331220040204,186.0754281316144,185.79180138568128,186.13163064833006,186.30717133015983,186.45592046729334,186.3044485634847,185.84739959993846,186.0385266723116,186.23846688818483,185.79526590839225,185.83832634695997,186.1450419909084,186.26421133821827,186.1516799753115,186.6195286195286,186.12999884308357,186.31448531398357,185.77619120929876,185.8412478336222,185.615343244593,185.98754338603933,186.10410641989588,185.62358686456972,185.63033703547134,186.0634375843585,186.14713024708013,185.96243588260248,186.13304522302823,186.26452085986648,186.0033515679174,185.79496140404777,185.49862100666513,185.8861475693776,186.06219948455592,186.72303656843079,186.40825723275267,186.7953783939919,186.37346248462484,186.34254335260115,186.1122060125486,186.53217955651704,186.1634467364532,186.36858751832136,186.57697072944092,186.54064286818112,186.60390062688646,186.3910992537602,186.1420699753391,186.6703679343831,186.15885907848647,186.06590279913874,186.49571362372566,185.99946060489307,185.94172968408122,186.3346598153228,186.09191728599484,186.31183956806788,186.1405311778291,185.7773850232451,185.7916570638396,185.96212995001923,185.83391056722851,186.1803986582874,186.27792157620243,186.64294274558318,185.98881949263628,186.0078263551546,185.9467622019338,185.9641148325359,186.1599938166641,185.8061839830997,186.05051713491818,186.08412729026037,186.73497288923315,185.90426554867494,186.0880178653935,186.39413240687125,186.05902283140185,186.2130616025938,186.42594022704455,186.34350291202222,185.86305744738158,185.84166826830673,186.15943370751842,186.41998146288716,185.95654853620957,186.07736511242237,185.815673884565,185.90625,185.7150440435435,185.91738946069927,186.33212144652873,186.23957769355712,186.0681344952572,186.18278739184177,185.85879995375544,186.6610031420924,186.12411607867384,186.1989110287303,185.9084040092521,186.1502546689304,186.0368412931101,185.77799175750107,185.77418858044894,185.97363857093305,185.78828915477243,185.90646317493352,185.31487596958758,185.83138795793366,185.7188222599044,185.8876992990834,185.73603238866397,185.88507341889235,185.96398550165804,186.2772215994743,186.03122826002937,185.76477618845664,185.9661075766339,185.61545545238278,186.1931747992588,186.05272279134252,186.62522738708054,185.74168876590184,185.8265671297187,185.8835626970093,186.5862736744258,186.7320134826237,186.3885862215525,186.16772078673353,186.2775316821386,185.89798115746973,186.1909631115913,186.10007692307693,185.9376441642319,186.17725713845323,186.11806866787407,186.07198705850632,185.879990759635,186.48538327862522,186.29786331379205,185.97638702246113,186.41996226269782,186.17223739374592,185.82869625201195,185.95792136123248,186.28281388450128,185.74220246762204,187.10693138279345,186.3250144203038,186.1302093335894,186.42107692307692,186.1150347368825,186.45732317401678,186.283404386066,186.65153383690458,186.0273048013499,186.39553330766267,186.19160457792458,186.1570791355841,186.14021956087825,186.54380407911,185.50610386131416,185.73495822794513,185.93315394964443,186.07109915449655,185.77310344827586,186.1694687031124,185.88902943882243,185.94701732863058,185.87176240359156,186.34176094820288,186.47427757897572,185.8609736448383,186.2525571022072,186.3073934451454,185.89866963156078,185.81549900352599,186.00391149288646,186.4834902940611,186.03383848072127,186.4845388648982,186.05258912108175,186.06835277863064,185.75159064775775,186.22079821421698,186.48134731000462,186.5938623275229,186.66305734947213,186.49536858355847,186.2593064074374,186.3000771307366,186.09840169458886,186.24063222821897,186.21480966720716,186.5916782568382,185.4954634202366,186.58208724546964,186.44928039510745,186.3892490545651,186.4882026370576,185.5916577294316,186.46670269852913,185.9956976029502,185.41233803462904,185.63083521617585,185.95294253226797,185.84482626371098,185.58672746082226,186.16316397228638,185.8096865878015,185.70321614983112,185.8775785098522,185.61391531144523,186.0680198744367,186.15159206275956,186.31056835281862,185.7767023850674,185.98170708274085,185.64148846478116,185.99969234319116,186.05781123958053,186.29186234506122,186.11463593262152,186.1365611660193,186.80154708953782,186.01930101118845,186.18779830638954,186.17382271468145,185.77119975476108,186.34469463294263,186.0478719310398,185.88822715745792,186.06959467262018,186.717126387868,185.9747715229245,186.32807619635213,186.18497731990468,185.64372918978913,186.24838287386416,185.79363071970567,185.85389772074316,186.37576107899807,186.16429669485012,186.57577277814224,185.8414984486919,186.7571020534198,186.48837209302326,185.64669926650367,186.14213841308856,186.01003792958124,185.8831193715271,185.98248035269313,186.28590108453196,185.81692566791702,185.80615914307575,186.0609316245875,186.09094055218026,185.99277589917,186.4456220132573,186.22222649047328,186.0054875474884,186.24748483219415,185.9505090714231,186.3165553251939,186.1755707587055,186.69348629504157,186.5864892921681,186.6956069364162,186.13195749741072,186.2568241067321,186.24654484029483,186.44830104551045,186.57892912172574,186.2661472924742,186.37993932644676,186.14931658945596,186.2957303025649,186.55696494464945,186.5528139194703,186.48992385201137,186.4352859725374,186.35425490951098,186.07079035165088,186.4648380395476,186.20110637317046,186.18305149884705,186.91544828653207,186.08988332821616,186.13633398564906,186.37944815924988,186.31651693158258,186.53377315791494,186.3053180476209,186.24506642094755,186.39743737292363,186.34486461609265,186.88186760226702,186.33349963541465,186.21528070915997,186.2373628902355,185.84503483653626,186.34423269038655,186.02473498233215,186.14329069186738,186.65212716940562,186.80918524212146,186.16690900742327,186.29107909258124,186.05188102156293,186.46541315799593,185.86131219119844,186.0660120440336,186.41171944134507,185.98012355627182,185.9245738364298,185.86559675195343,186.32743668457405,186.13159409169384,186.15584116631499,186.3974186091312,186.21507607192254,186.45333333333335,186.65374816644794,186.60100289296045,186.79727954246852,185.79844068056997,185.68864877336,186.00550635348478,186.01155446002156,186.28690646370205,186.4008114374034,185.88349178245642,185.86960369372835,186.51020723189134,186.38435177698202,186.38480212708566,186.6871497584541,186.20731801060805,186.8590432731351,186.60860165238205,186.53753454098864,186.65617321867322,186.6292726015823,185.96072635135135,186.01407313415618,186.22041826123933,186.35287289611142,185.83980601208575,185.84044519756605,185.81991452004158,185.42296165373088,185.63339738662566,185.85337085148208,186.12406507826356,185.8776804242564,185.68483776718438,185.75593128947773,186.19852543812243,185.96173832711037,185.8008076923077,185.65521999080178,185.71044546851,186.06437553035562,185.5249146495838,186.34039427908775,186.6626823967712,185.96041361216143,185.90713267311472,185.5540613232921,186.17766967801714,185.1014204219151,186.45103432246069,186.10777310113141,185.9988035507526,185.52238289362356,185.84799969136992,185.79876614613457,185.79869804707062,186.31072549095558,185.36137549892538,185.81008649984554,185.40825740975666,185.525900250337,186.25568357562636,185.55312355747037,185.09002106876076,186.20902796580668,185.54111589302184,185.70103291451477,185.20116573356853,185.43206271134338,185.86779634847724,185.58851176946487,185.40329091538194,185.49601478572254,185.71684726024756,185.2165443577823,186.0028260617088,185.55709888418622,185.29405666897028,185.7114703618168,185.80784646215508,186.3572092302927,185.98778696761227,186.04532643527276,185.78246941217338,186.36988689185003,185.5230479412556,186.10280193236716,185.94996136012364,185.3652444171591,185.07316045505036,185.61260358450568,185.8763914656772,185.29745303676387,185.70137070691513,186.43309408341415,185.70330728063757,186.30576848625628,185.78852825533883,185.93322538360707,185.83468563737742,185.7217458181119,185.7917083686196,186.10457667669985,185.689451249952,186.12607283692878,186.02709901563404,186.0861789871271,186.10659056727468,186.46913914455874,185.70155919153032,185.6207891093678,185.58218362092157,185.77034267432447,186.29160535894061,186.07022829991888,186.18298959099175,186.33624132449305,185.92362667078729,185.61713011038037,186.10432225360833,185.7860590847654,186.19735822745585,186.22578397212544,185.29218882140387,185.77248697665445,185.17417647735553,185.73445022145197,185.97761827583545,185.91422408812542,186.1267660001544,185.34051773729627,186.0592214619815,185.71796844940363,185.6978212333513,186.20908563696113,185.54801999231066,185.68271747498076,185.4365753372017,186.08127508490276,186.34579656293545,185.81451240178708,185.68247430617038,185.75220557075164,185.95966276056774,185.8640664220892,185.73338473400153,185.83501813411527,185.06862782748954,185.40458221024258,185.11839778580764,185.64777546456935,185.94376858610434,185.37543239295871,186.5020348048525,185.6667693848465,185.97755456828278,185.41769381407673,186.05473521453422,186.2649761544725,185.61670260280303,185.15785840300683,185.41408624072008,185.66119776622375,185.873061791252,185.40400122878427,185.80791003966573,185.5384822596783,185.66649996152958,185.47393510687374,185.1861642942102,186.11294744565006,185.78008234886673,185.72186983431362,185.96240253223192,186.25130465035372,186.25125550490614,185.58906789413118,185.3367284423342,185.7405671251825,185.19644631257165,185.9159130267462,185.82297110359667,185.7962037962038,185.9658536585366,185.60106484850806,186.00203877519618,186.2622843499692,185.83085130882014,185.34653200198937,185.7172371497566,185.71063846124315,185.88921787279858,185.70894002842982,185.4160986444053,185.86256871564217,185.98832729794282,185.74701991848036,186.07878321139776,185.6706784208509,186.0103211449181,185.9710873905698,185.91867388882486,186.69296383496084,185.46080269349963,185.68282781862746,185.7353245261344,185.94679954005366,185.94965543644716,185.70902753839673,185.74904302557036,186.60638379793625,185.87702339854238,186.13566293776188,185.90235587052288,185.76030622009569,185.92854129108972,185.79350659306962,186.0720378054403,185.82669735327963,185.9315310471948,185.37321305710572,185.83833001073455,185.55461798097576,185.91772200475862,185.56612662300356,186.22090023487738,186.36711052955664,185.95175085337323,185.69299051117233,185.94989265450084,185.6004663965135,185.48487507152393,186.2578365089121,186.0642859882628,186.15326758509536,185.56962461255884,185.78813656742153,185.80419124971266,185.5249885022229,185.65214893128015,185.35325131810194,185.5142113920661,185.35585051447805,185.70141471456503,185.4083202571855,185.9149599630428,185.4438777466733,185.49222758251014,185.4471351268373,185.34424910950247,186.21672959852046,185.42342307839607,185.58238385698394,185.76924552920408,185.7127455494168,184.99893365831366,185.90000768285188,185.08549064528447,185.68779216798222,185.35272518646013,185.78987176533826,185.88438640291915,185.8793825121923,185.66945029687798,186.1831208350988,185.34805869764597,185.72383141762452,185.51586693239307,185.7269167274542,185.31485299732722,186.13930233452558,186.12171002000923,185.40400214263852,185.72579223665556,186.07707965281512,185.76334737648412,185.90531682447195,185.43095210793868,185.51947505356597,185.77467375913665,185.94006212371056,185.39935784725938,185.44651322832237,185.13816741564474,185.8318763898474,185.5974373685217,185.29986250095484,186.13049498096228,186.3619341167405,186.14888289676426,185.86107913116894,185.5744322960471,185.56550561367206,185.41441888897378,186.05448878285296,185.6845645322469,185.9676836766062,185.31460029819934,185.42128798012612,185.19655317039692,185.4641120851357,185.255793499044,185.53066146072578,185.7199004022218,185.9277214801167,185.77238734419942,185.77976236105786,185.81718247280526,185.91946257197696,185.1891665077246,185.96144689347977,185.54764462175848,185.70327219594725,185.88275491400492,185.5701697252979,185.63336019339243,185.41480687516747,185.38462716862625,185.5051265312392,185.9383880780931,185.4060375619311,185.78342060680734,185.73685221466712,185.6706717850288,186.06884057971016,186.01380161147307,185.64498540930734,185.9072689431897,185.28582393123034,185.48566927923775,186.33718592964823,185.87838774253157,185.32468923312297,186.4205654531371,185.72837749490444,185.4225941422594,186.34716966561123,184.93902625736814,185.7341523530771,184.98573236681625,185.52898970026618,185.59881255301102,185.55077718208818,185.2268564832628,185.64928946555452,185.55001736044133,185.11968800430338,185.3592016029593,185.01287174364097,185.52450034724902,185.28010149161926,185.43398990093667,185.14395017109462,185.7530659467798,185.50665691857782,185.37264766879176,185.4650392730633,185.32916986933128,185.1795442338679,185.57013731297357,185.90456351502527,185.93996523082868,185.53715253715254,185.95731707317074,185.5223702448791,186.09432722776103,185.5057325330871,186.0354310911693,185.45749673051773,185.97732364984935,185.618352651238,185.83418190233743,185.90174992291088,185.89607283388628,186.07683402153359,185.69761171032357,185.48902364138777,185.9177918370496,185.57677240955528,185.80033827938803,185.85212540873246,185.80250144314027,185.67126657697483,185.88005852681837,185.5454755131852,185.95167558000847,185.8821853463212,185.26589905968143,185.55719387167377,185.96927288148663,185.94520706408576,185.6712512966307,185.59533971623026,185.85304190556818,185.38879938626775,185.85170371509884,185.87125667935263,185.78204339129096,185.85095433772418,185.4442573385893,185.94865394216367,185.82981985435032,185.9085004995773,185.4691796516957,185.57204539375644,185.93026381475366,186.2344888411688,186.69940087564328,186.75046146746655,186.39312331924702,185.73836497244335,186.11041410098522,185.77000768049155,185.88240947182285,185.90916074515076,185.70069383217694,185.9825087456272,185.77814493199108,185.81942791322712,185.24397059949467,186.09595998460946,185.5190149745318,185.5689192298842,185.67277265745008,185.1992126285212,185.9152880666334,186.20959188379064,186.02098869839318,185.6479769894535,185.88494929317764,185.91582465711323,185.59342427958308,185.63870053250585,185.33735676088617,185.35096576783323,185.8022100295438,185.5846483836372,185.36742656058752,185.04644871208657,185.55516818634587,185.29369452096725,185.31404326886323,185.36102701666985,185.75812898762396,185.31030391181199,185.08359488632013,185.01517874211433,185.21414063996934,184.95039014687882,185.07875191424196,185.21633621679553,185.61368348306843,185.431848697587,185.6736081761248,185.3106758979459,185.3763860212587,185.16838606143972,185.3389687882497,185.36755638953778,185.7663156276424,185.6314841084231,184.71629855293222,184.93671803478793,185.49451560941935,185.19589716163043,185.85172241637542,185.60238332439266,185.9947629866379,185.33330784231254,185.65611450059475,185.0706550751163,185.11853662262277,185.69212767589963,185.71002751452156,185.61727732638357,185.65725018206908,185.78135417864124,185.51613149847094,185.93450891310206,186.01580830031924,185.43799159984727,185.5674269095362,185.21358222629408,185.67985597732408,184.95976989599603,185.33876707611066,185.16009165552796,185.33589361458215,185.92158444751806,185.66238644639503,184.9378839330001,185.7985953870361,185.66950289371815,185.226937339909,185.51006171183258,185.6323940962239,185.36068709591032,185.52214765100672,185.47262291945665,185.6592283548955,185.6563302541301,185.7245081872915,185.6882070949185,185.63686893855177,185.37467957301908,185.51741141393677,185.58211811535958,185.69194222000843,185.64388916567663,185.2230751604033,185.35420646443035,185.8314265970516,185.5220137825421,185.30411996480623,185.19892164735575,185.67771072760118,185.61126901213703,185.02512793095548,185.18254817987153,185.49098304044202,185.3167101427037,185.55833621650714,185.4517402637228,185.23885057471264,185.0487935451799,184.7381588999236,185.62196060326255,184.79662437611918,185.57541254760164,185.08337162990196,185.2216172692765,184.89409064830753,185.46776548332565,185.16349911870643,184.58895799152964,185.0520865296103,185.453741784218,185.43402244082387,185.35119849178562,184.36480621335568,184.83184859491493,184.94905190576517,185.2433315397033,185.48096392963006,185.3976810258773,184.94442529395994,185.8802210115529,184.83124784754906,185.00176211453746,185.3031465848043,185.59785873835014,184.9802014322368,184.9500841493268,184.87613397129186,185.32387561826616,184.8598959926583,185.0522550782296,184.67050612151493,185.1708633093525,185.23875671527244,185.4790235289602,185.37673364324408,185.46288814498442,185.34420498636243,185.5020920502092,184.8057031459042,185.62556252163546,185.18085514700238,185.50879011208352,185.45690019599553,185.5870066928225,185.2598911209937,184.84609804520466,185.32034963962582,185.03988245172124,185.69622974737004,185.67488763397486,185.923,185.34823034245264,184.65082927571515,184.88949496490693,185.46570355610055,185.38261535515986,185.2334288443171,185.2919663351186,185.68996622140335,185.74016897081412,185.65717684073206,185.48060617686554,186.08611314642707,185.36582656656964,185.48599815866197,185.09797168006122,184.9299472598028,185.43871289407073,185.74279234258475,185.17489853740716,185.3864001837813,185.60962217785286,185.79406450620843,185.55367816091953,185.6162273980999,185.83605173273978,185.48419282082648,185.7153707468641,185.89174627435995,186.48063562737497,186.3752879741975,185.95451064481543,185.82872038641418,185.23320881299077,186.12435611593756,185.13149263976814,185.37114268255422,185.44723233097108,185.4036013304278,185.90354549994237,185.3562115244905,185.5282360162664,185.56212767592913,185.42589111000268,185.85619860118362,185.7485312751987,185.31647166781372,185.32033554219174,185.3034451114595,185.70958451731818,185.23913458965635,185.80991862428988,185.40615785241067,185.20743341219568,184.81379836096818,185.63039975446944,185.03829138062548,185.4100760674286,185.2533516672396,185.68489423666463,185.93406677950455,185.23757538743416,185.59459874175235,185.38056277718306,185.2710970060796,185.18840469006608,185.59124003678724,185.89684978870534,185.43330657185456,185.15049580472922,185.71481154863693,185.60326752372208,185.4215087424601,185.66423050432388,185.29097985347985,185.24442244727024,185.10767242034825,185.7419971698474,185.82788954333358,185.00117946961913,185.21257986005477,185.74390850323223,185.25662302070646,185.71252629565882,185.261409997331,185.64378634833182,185.76101785851154,185.8797652834241,185.4749235474006,184.88575233022635,184.96877733409394,185.5384350882555,185.31356288454924,185.88045897613017,186.00242112140194,185.41896176324536,185.45938001068947,185.7005999465016,185.89317450589857,185.64000764233856,185.4913987107602,185.64317365726947,185.8254144068444,185.53260952380953,186.0242491572173,185.41266025641025,186.25698388334612,185.6573709745196,185.18199444930235,185.0977967198143,185.0912858337769,185.51380730795637,185.55327837569652,185.5842881148793,185.6745813259922,185.24203918584743,185.5414533506533,185.83423319931075,185.35147002672775,185.63027980068992,185.97723957933522,185.7911482062866,185.45671938268777,185.98341650671784,185.682317797097,186.0567335023431,185.84014413861843,185.91734272156742,185.91865056545907,186.08540050687353,186.16018764178875,185.14983229150786,185.82159247361176,185.72637463623832,185.55884264037,185.523202077684,185.63881762836468,185.2755689398849,185.77620983204233,185.93568082328545,185.50120481927712,185.79217237670917,185.44367570047015,185.24343939799076,185.0645346171481,185.36630975143404,185.57903201102772,185.01430205949657,185.0482079468682,185.33664277226205,185.70244089948108,185.2215793708571,185.1991113154064,184.9296490088989,185.06616213736956,185.05460319889798,185.13292011019283,185.26711568634954,185.5186221166373,184.75892143047568,185.46668199409893,185.1455463728191,185.57894736842104,185.54701544134593,185.41457902397917,185.1184326330693,184.78395273489613,184.74800564907056,185.25411215668274,185.0373828199732,185.1732181095136,185.75981826582475,185.28708280645284,185.69345306623686,185.23182635991273,185.14745697896748,184.5987072243346,184.7638322988462,184.84277113024922,184.88567398597132,185.48728066814803,185.10269630308585,185.21500572737685,184.89381915299504,185.0431627196333,185.3980526699122,184.6694057673286,185.06273218183907,185.25536554573625,185.32266544747972,185.96875,185.2153682126266,185.73412576687116,185.64277758574337,185.12481835564054,185.26511841802713,184.65563622468474,185.44948271220338,185.07633762955598,185.12006729886815,185.6666794788023,185.02749837457452,185.76489557739558,185.02719633307868,184.5222433460076,184.7128048780488,184.71596709072904,184.99088447309202,185.12540082455337,185.1313042480786,185.0606072164162,184.8633521427482,184.81775202074118,185.3806421948042,185.04648500114496,185.71114425577483,185.72206522569311,185.69838172845175,185.63513409961686,185.1259154714678,185.63133445945945,184.90129246254145,185.15377560379088,184.9520681358133,185.62104898869492,185.2193711462602,184.740026722657,185.1100394228193,184.97720939110516,185.0830593991285,185.58261270609938,184.96456392240722,185.2365167464115,185.011500840593,184.81116240033572,185.22271629547285,185.22598069261417,184.89298030500422,185.09472150879748,185.0598313530088,184.92574010953237,184.78769195419906,185.31931446177546,184.80547135786364,184.76774466123828,184.72611733988634,184.96964911604977,184.88875630316795,184.7600245577683,184.94607899696166,184.8498691502463,185.41487234697016,185.54539130434782,185.47583944423002,185.5427335573321,185.28593996840442,185.31099722564736,185.24297157821766,184.91948599923285,184.73241326432816,185.17552762080498,185.46514678085097,184.8942285494421,184.98596099849993,184.86046601193914,185.4238710176307,184.71901016689046,185.3008607047744,184.55041550185732,184.99592040949852,185.54002624671915,184.79770758261137,184.96306403259283,185.08107485604606,184.78394943497415,184.75932657356037,185.29364713121058,185.0330778075891,185.39836897984304,185.08083362065662,184.99122067167613,185.01897060514315,185.02282947077137,185.24890426758938,185.55531144002467,185.52518592348386,185.62516317284803,185.47930968360498,185.63087222500096,185.17993557294062,185.64302782702535,185.33992992723213,185.26373626373626,185.26595130956503,184.59960997246864,185.3182167563413,185.49886490438263,184.87971824515733,184.95478794857033,184.8164258613421,185.29749971194838,184.95116341472763,185.06662830840045,185.3975936138213,184.92542984341418,184.68722028841373,185.09944327126126,185.11088074944328,185.29043933618266,185.0820307999539,185.33654179340084,185.43840258790001,185.70343392299688,186.09953102592922,185.5771563212175,184.4416195136871,184.95889464594129,185.20587329689786,184.77139894781305,184.93493716613506,185.08095732810034,185.0834901493913,184.62284425069788,185.09412442396314,185.17083958309297,185.0695642131198,184.95170716702552,185.10583576810703,185.1571269101967,184.7786485344397,184.62512010453898,185.0525380514564,184.32844698568633,184.75726811259807,184.86509462994306,184.31757222775693,184.79408252109258,184.62613409195757,185.17764277975544,184.39564330523805,184.79533199815128,185.1195404077527,184.5457623206248,184.42540291634688,184.9928579701193,184.96692524410483,184.27237175063263,184.33943548695953,185.01195065535853,184.77592307692308,184.78889616139838,184.73489016273612,185.28071870170015,184.518028385117,184.70600907901823,184.9670426981866,184.49495801541352,184.77608210963328,184.36881036332974,184.47466584964192,184.33321853595072,184.8419011786386,184.73512372913868,185.13967985223948,184.907953324121,185.102939481268,185.42723203950922,184.4729357798165,184.77101226993864,184.61757828970065,184.45486894968434,184.5732659623335,185.0258491364388,184.84580907140668,184.29799405079703,184.9070872781632,184.49334506234223,185.28437824731554,184.85745597169884,185.15994608126323,185.2222350496421,185.45083137224645,184.59714788193912,184.58717909535451,185.05899048787973,184.68555933239125,185.45715274307025,185.1256558538547,185.15600659939378,184.96972361328798,184.5514086386337,184.83575986854675,185.04246113791254,185.3631722390695,185.1157822191592,185.0807852741954,185.07795390152384,185.05536028119508,185.06444946228328,185.32293225868355,185.12005206339484,185.41249136806567,185.16076085289154,185.31330208253286,185.40720221606648,185.46772580396984,185.65885025605482,184.8134033661772,185.1181765945221,185.62244191414064,185.39415694103195,185.65455525191487,185.15935246278963,184.9752306573255,185.02083971805087,185.09143469770646,184.83785127126745,185.11242060151525,185.5978449105253,185.0310092376097,184.66020824592852,184.93256409276736,184.8205990220049,184.90991852503538,185.01346323501207,185.3288144706018,185.04760992065013,184.85902205177374,185.22322526121695,185.13588208198988,184.6807696721625,184.90016103059583,184.78403486638376,184.65179422644243,185.09282490629542,185.43929147775302,185.3261786124952,185.27134812090566,185.97995228567032,185.45325670498084,185.48737886390623,186.23569970340125,186.15944206835434,185.94631595139208,186.17711266247542,185.90669644576226,186.42285337879727,186.1621841260013,186.56777424113034,186.5110955927995,186.35080441946113,186.43924943785376,186.8573651250535,186.87028099945513,186.5460847339478,186.30138099106418,186.70055402735267,187.1116421854356,186.5024750560755,186.6885847926089,186.2121364092277,187.18165244375484,186.58279578199236,186.384058250183,186.7617185988001,186.2881714637525,186.29458021740805,186.14830361612817,186.0186075122064,186.74554520505586,186.42874773419723,186.76384591584159,186.8245179276698,186.34196332254584,186.62290589052728,186.45521235521235,185.7706457175704,186.451242535157,186.72637894329398,186.45732341720935,186.57624826093678,186.12785598892222,186.51944144422157,186.40349388762485,186.36350674373796,186.86467827638367,186.74151264403372,186.62783672837116,186.45235796222624,186.0849288735102,186.09380053908356,186.8450720595072,186.41626424570214,187.18235934946696,185.86093683845888,186.42465066007875,186.26118654528622,186.64935165473196,186.5884494712786,186.60679987608427,186.20087976539588,185.9268677994837,185.56588343699607,186.3605702364395,186.3511004525587,186.02902517056623,185.8623051760631,186.00265558249626,186.16147844894175,185.72684615384617,186.01630937692784,186.34823120046394,185.8797965788257,185.34681128315194,185.94274146905727,185.35927203065134,185.60087719298247,185.56569034440344,185.4610773841543,185.91863425925925,185.3922193632628,185.42673009053246,185.70782114320835,185.62542281672816,185.7798754229468,185.78241453649522,185.95827072014796,186.28108087212,186.1947786518587,185.53174755419144,185.87747872627162,185.96006796941376,185.9501427799645,185.7475657160451,186.20942347765686,185.7927185960591,185.56804483857346,185.76000153721995,186.02690099048058,186.00084794758143,185.789378487589,186.04061694680564,186.24526551750793,185.9121208626456,185.93524350898755,185.99073682592152,185.760817860979,185.62959981600736,186.3825674267855,185.52687636489023,186.15935210181257,185.75682525054717,185.75383788762664,186.84741365959425,185.8152002765083,186.17516193707587,185.59459874764704,185.76157362941333,186.16342487385896,186.13476351871822,186.16802710611427,185.78801012580547,186.1530071434058,186.46577031243982,186.6661139816457,185.7796434732605,185.94097555359406,186.67818841138802,186.31169180000768,186.16281839486726,185.6531345565749,186.0845530329223,185.91277377852657,186.1665705608734,185.9412780656304,186.3185963292162,186.42935242935243,186.10509945472697,185.7969959383861,185.7996853898097,186.5371448398165,186.39714726291442,186.6997952007419,186.4629258517034,186.596794081381,186.66358752367333,186.264195917112,186.45172214739273,185.72419070942067,186.6005013497879,186.35887081266105,186.63838493013202,186.20546098744512,186.20834773259608,186.2382235221675,186.56810028929604,186.2173393930057,186.25076958596276,186.55786751080913,185.7605266188155,186.05509175547263,185.93803846153847,186.37375998764813,185.93977018585642,185.89327789327788,185.69256535633158,186.26511286332715,185.66335871990154,185.12186434835894,185.7824311308033,185.8021600771456,186.15372137036036,185.9461482081549,185.53907483726843,186.367403849878,186.41223857474824,185.8465661512359,185.79739719698136,185.35991867111673,185.762169250945,185.62115029257777,185.43216562956135,185.08456643410258,185.32524701088002,184.99455249932865,185.25841101776192,185.735621091639,185.73664945673113,185.320395065524,185.9760277938622,185.27803379416284,185.83332047225866,185.66952740147784,185.61372647138074,186.01909621554756,185.11440726687363,185.51153846153846,186.10038654812524,185.48871948871948,185.833256226386,185.40651187821942,185.55997535523124,185.73615773430566,185.49559293329742,185.5301636188643,186.0490457941393,185.93503184713376,185.8317818378462,185.69776407093292,185.42631092631092,185.60943033102387,186.23764523625096,186.2413178984862,186.61794303920425,186.34153631176494,185.9741648966982,186.5854992629374,185.85768208604551,185.9653255077612,186.00448239885623,186.0566482476139,186.0045953042941,186.5168992248062,186.02059584991693,186.4334895248422,185.91741312741314,185.56208195586993,185.66371135610208,185.7290693634925,185.96822451582975,184.9894946706541,186.35698473727135,185.43143374561708,185.587583062896,185.2133678076641,185.32290459636926,185.7907428260785,185.4808586484811,185.28882875918052,185.89025382677775,186.15226081894042,185.7589523699154,185.33124375048072,185.9974485851245,185.44953281808745,186.1383101851852,186.0080194316999,186.01992523220412,186.7813008760369,186.70535887018767,186.3274653312789,185.42180637769715,186.48185390661118,186.41258687555197,186.5929758424373,186.88156372889196,186.94983419449372,187.02441281962282,186.19068676459278,186.27057366261516,186.01153965303592,186.0049541073006,186.7703135243531,186.8648471783817,186.7717759310557,186.4160236477408,186.74599507085645,186.97736998342265,186.25965328536986,186.839107389768,186.79173071011374,186.64669715251893,186.91903114186852,187.14606612141458,186.60371576326375,187.25133730998652,187.16539127090945,186.69870737601167,186.93668063511592,186.75692048155815,187.39706561922367,187.40201856774144,186.74818903070025,186.64493361819015,187.6008174912274,186.66064540767616,186.46845095123717,186.91523087525843,186.944706107601,187.00433381913018,186.6588743926235,186.23014450756853,186.16035218783352,186.41151508200483,187.08329491317042,186.28041197787527,187.10601168511684,186.55562351861764,186.58721041547003,186.47725102188946,186.8663153035316,186.64233548585486,186.03415828328806,185.90280802292264,186.34707441699643,186.51342294804144,186.1531911629334,186.08163265306123,186.26346316355534,186.68921678160035,186.13581381105496,186.44763915547026,186.2041073887104,186.15872591006425,186.67773895011712,186.0924308588064,186.37801742334113,186.19151951583868,186.12112276939573,186.32195720530714,185.86178395132592,185.89882343923657,185.78390073909546,185.8061138386008,185.6486538240588,185.8443839398704,185.27219545767377,186.04325924786588,186.21783282686465,186.55587326120556,186.04565526245057,185.64465372688642,186.1238710173335,186.08694481830418,185.92949728835725,185.43829787234043,186.03579676674366,185.53019235917245,185.43896749521988,185.61110898148502,185.87827420901246,185.0195876681529,185.44379355233937,185.67031363967908,185.51526776123984,185.08902541402733,185.3048939266294,185.13305756635643,185.3006791757799,185.0563764055724,185.0599578301706,185.42548113933796,185.86480628555947,185.87116848981486,185.10584936820678,185.73779734321903,185.54265210849184,185.5740769349606,185.47370451826987,185.65161065779805,185.71957220909056,184.48637252271246,185.13888781692586,185.31997216961076,185.51063252895378,184.82381502890175,185.35499477493516,185.2951054362546,185.73731215780685,185.5142502617395,186.07712433614495,185.9212300736641,186.22185262004461,186.5994593112095,186.64781107798524,186.1187817258883,185.98279897027848,186.49941176470588,186.33210779520476,185.9751201031129,186.7145717201853,186.57990115321252,186.25610042233694,186.29065446152643,186.36952015955575,185.49577158817596,185.9786827747467,185.8138873744061,186.2113754443533,186.36384573346865,186.03979866557415,185.87088854247855,186.51825589594924,186.73099988241287,186.11241473396998,186.1177800296204,185.635018639329,186.48243248524642,186.41730746711426,186.09846537352965,185.92135442988766,186.16424820073917,186.01163197821435,185.5346837600217,186.51221892567145,186.1727577339671,185.86865080904894,185.97384172885572,186.4724206581567,186.0750729713952,185.78327645051195,186.25021362541753,186.79314099074577,186.41492456269634,186.47004733452317,186.90587408217465,185.90001550147264,185.76096142663306,185.79782945736434,185.3789628142256,185.55885762869067,185.94534310873192,186.01868361888518,186.06890274603973,186.02044609665427,186.16587273924324,185.70701178288584,185.97067369155076,185.8717413166241,185.89353376467398,186.02388059701494,185.6812171357872,185.6364305071622,185.3893870294504,185.6309661947861,185.57599473092867,184.87982766579475,185.82234801488835,185.67233696283955,185.81621873543577,185.8803498542274,185.9844023493718,185.73533974557864,185.9200233281493,185.82738372997355,185.60022496315258,185.23499632878617,185.66027705560515,185.73759801257665,185.78724725423993,185.43046255080318,185.7646510905845,185.52008358486185,186.3551004486054,185.3928350595146,185.3473195277724,185.78825401754523,185.5310598721178,185.11281616286243,185.72627652133363,185.13804297418457,185.5447839422293,185.11510819165377,185.2416753683722,185.35184037194887,185.26761978361668,185.84846482705012,185.6997592793912,185.52614062923263,185.1823381642512,185.5586925370822,185.40690400803152,185.25611921859317,185.45615322238098,185.14199745399839,185.04585639606395,185.46852417204468,185.46069843719854,185.65855542680572,186.05468659033573,185.37723903644226,185.54722887841075,185.76119402985074,185.38367157959718,185.14062620201554,185.5266123740785,185.57528688999653,185.75928711954634,185.44949280672657,185.39513642669957,186.09679042936236,185.99427266746642,185.71412599275195,185.81600494361192,185.94170074851453,185.9091049561556,185.23167458978685,185.85963829869277,185.79135497802113,185.96435047648444,186.27887737745476,186.2798748213113,185.68390228866457,186.37062422552665,185.89661690390773,185.90435050910213,185.7678130783467,185.6504458794588,186.1318698307181,186.10295142923542,185.84919410812063,186.6707080127458,185.90701713756368,185.80459902935058,186.02702076738979,186.08060035496567,185.76618981695123,186.3890585733617,186.1003663003663,185.84576655520965,186.08225993058232,186.14874918089657,185.37986156258364,186.34468380820013,185.35419384544548,185.76921302525855,185.90535280742995,185.7509419454056,185.71724668333013,186.07548188126447,185.90187312109765,185.6144017242043,185.34180368709517,185.61561261018514,185.418302162703,185.59496743863434,185.51583971669424,185.92265790998647,185.283665859378,185.0737682884682,185.56361185983826,185.61762104372573,186.0303932562546,184.9920263743004,185.4029040209521,185.16008140383212,185.44917957191714,185.51190109382222,185.25434214571166,185.98397188320718,185.1078766465686,186.14834036949534,185.39469729083973,185.1257402137968,185.3124326404927,185.38475464139896,184.93832005848628,185.4697952877559,184.84134486071085,185.1567713350029,185.57965643698128,185.62405346932468,185.40785521755873,185.45274360852966,185.4136111539054,184.82268388976198,185.57021801093907,185.236033680649,185.62022142498938,185.01174934725847,185.31271636279715,185.57933664624986,185.36010621921181,185.93799860584,185.44680933101986,185.50721394954093,185.3086467324291,185.55707833069528,186.13587294190742,185.4898432069205,185.36437637436828,185.9122650649099,185.6499594860516,186.2203376643585,186.04384976890512,185.65014655970378,185.70648226840763,185.45717699660807,185.89662381911106,185.5126082771896,185.5780502853617,185.33957322240198,185.84469770137144,185.91987154685444,186.38742763899143,185.7748349484576,185.64979913473425,185.8892674616695,186.34533070165253,186.05545293619642,186.5362386209568,186.590450310559,186.16068660880347,185.55839796272716,185.58725558389366,185.66018665530729,185.18246683122493,185.23044902678743,185.97564003103182,185.33632044497662,185.16381069736994,185.10121160672944,186.03842720180103,185.08055244782224,185.56957515200804,184.83434685551535,185.172786594077,184.74567920243274,185.34725767772878,184.9153005464481,184.97650553605186,184.90198042690915,184.9528745376079,184.8811774237105,184.50916074515075,185.0938331597825,185.41305272931254,185.0464981670847,184.84065679925993,184.41932010459928,185.11244157750397,185.4104086622424,184.85845488924906,184.77526964560863,184.82082754361588,185.11575252642135,184.98840211150926,185.1924989399838,184.6353934740883,184.95935647756139,185.25819640515311,185.7048710601719,185.53637380006938,185.04855078034905,185.22241053888524,185.01385583787518,184.68126894012045,185.55742448208017,185.09839156533783,185.01435112154206,185.27798334875115,184.7725960983493,184.89734819369716,184.80933358939888,185.54775790815341,185.20093080503096,184.44113718755963,185.52819185911795,185.48230890921016,185.23222748815166,185.07671917018826,184.54090648307516,185.0369728480647,185.2221578622181,184.42745022970902,184.6159763086035,184.743459526008,185.0220752249827,185.48331597423137,184.95925199122706,184.77227608494923,185.2998762280498,185.25069465884533,185.01414568518163,185.01199660546212,185.1008260634602,184.55735565110564,184.8379489149222,185.23019668337832,185.0323410793163,184.8079769894535,184.82554576790503,185.14715372205578,185.09235436427173,185.16904981549814,184.9082832305748,185.47379350124976,185.20035277426283,184.99043684492386,185.00328846742124,185.52253119704207,185.00203213066985,184.87075428396574,185.26786673831273,185.32829971181556,184.90919562296025,184.97603895108114,184.93393370377467,184.713613226683,185.89180416553964,184.93675010541648,184.79619273785812,184.34526259623448,184.6860633829706,185.37110546965152,185.22665030110085,185.42931716117147,184.986327077748,185.28916816736273,185.18421757258156,185.133274762214,185.83049416820134,185.75658676893576,185.84658960422567,185.3843247987179,186.08371379244198,185.6165221046196,186.21291609142506,186.44453397797474,186.09619866284623,186.1954847074975,186.3457808875537,186.3894612781812,186.32417561567942,186.7739266376878,186.71182893885782,187.15015267175573,186.38448118932038,187.3623747992966,186.99714220393233,186.95907121684274,186.3833004851425,187.06262357414448,186.66074344078672,186.27487039769932,186.89034687357372,186.35139952969735,186.80500057084143,186.67554590145193,186.1281408942534,186.48507832450358,186.20668542744144,186.2210698898082,186.66573356852518,186.292817467918,186.03052270125906,185.51650322432937,186.3214052601267,186.46504033807145,186.2204833141542,185.91918998583623,185.8504365140144,185.84621267158644,185.86148842548306,185.74641422834193,186.29590230039557,185.99162427811987,186.3619979204375,185.90609321741795,186.51703406813627,185.5243637196169,186.1966583445362,186.09843185486972,186.03061734086282,185.51031026435595,185.83999079966264,185.99865384615384,185.89181084198384,186.05695471349352,185.7769753774056,185.9446711843524,186.15532447525516,185.26884681583476,185.59082364675643,186.0018492834027,185.2988562904028,185.6610677633855,185.59657673561807,185.31204805448215,185.08769583492548,186.24639358173263,185.81259606517062,185.48282083765213,184.91733832461134,185.36579290258297,185.7159296463072,186.0391975308642,185.65472487808626,185.52849462365592,185.599707478542,185.73636573717454,185.16893701691282,185.30498848810439,185.30231664681702,185.61210183722991,185.15778767175865,185.19166026133743,185.42745505639604,185.21229200214708,184.81340628228182,185.20401427639405,185.40500595032438,185.4336715087234,185.36070797819244,185.2518817204301,185.4594968843757,184.92995095033723,185.45150217902736,184.9422206885975,185.5136696187909,185.67189910521444,185.3534456237502,184.8299129233956,184.61582678674077,184.9379707916987,184.73912043249877,184.68907627443465,185.34809589885907,185.06103756157634,185.59022150189088,184.78252524089217,184.60222749540722,184.79715534427234,185.1157206080431,185.18757209874644,185.17819005915342,184.9828518816895,185.3192481029236,185.19020715630884,185.53421275939212,185.01798685575926,185.33973172987973,185.45336827501157,184.67101737732526,184.76773402788416,185.1752117013087,185.04488730177016,184.85551082997893,185.49712588248912,185.3500269458773,185.08700161327494,185.20786106735312,185.53833121558662,185.59886635305006,184.9972043504902,185.30054896541134,184.94242401041268,185.33819633739012,184.95875933371624,184.79764723856084,185.34282092648075,185.36620205045503,185.0468744011345,184.80519331523195,184.94231356968214,185.19850992741658,185.62192540128567,185.7833731780674,185.19140939597315,185.62962107208872,185.37435621492813,185.74593762033115,185.3547555863236,185.80746683122493,185.21963745065727,184.87554435021775,185.1731255265375,185.2800520813388,185.2797379611539,185.09087783635113,185.34506691207486,185.10026758409785,185.41287922371802,185.93220663754119,186.10840555257306,185.20238958659388,186.3401659911214,185.29011990958892,185.70564919572078,184.5115888990546,185.36425165359177,185.25089193232824,185.2204893788653,185.01612965167632,184.83155233827415,185.36190769467646,185.25613037128142,185.36375529049636,184.4949290834223,184.53412780260496,185.1147534683525,185.22434468444922,185.4890864995958,185.21649048625792,184.99819667728198,184.42335126063242,185.1685466543892,184.84791267713518,185.2685085424042,185.4817481709665,184.96647873278872,184.97236171273047,185.58212234514127,185.35856389733328,185.40402834475853,185.29140372479606,184.8701672292114,184.82540047520502,185.2323737684729,184.80800766283525,185.39630057803467,184.65895356842347,185.12633759061097,184.98388829215898,184.8546880979717,185.13326941514862,185.3052352398524,184.85227751599433,185.4226224839318,185.61849309786382,185.29085105564744,184.8714367706141,185.3472420031564,185.28903310037632,185.03698014669175,185.06883460520766,185.50308308925543,185.3363251155624,184.7972770853308,185.02237084870848,185.37147256977863,184.86519786588877,185.15917127921279,185.23473113733328,185.3365536353489,185.1824082965239,185.25099861729913,185.00053736613825,185.44250857649462,185.08454328954446,185.051212214209,185.20221957682116,185.2452250105684,185.11880161321298,185.70832529236944,184.9388075714614,185.36660631043648,185.10355029585799,185.1554879223331,185.82161221728205,185.56448626966986,184.18250820047297,184.7055031084504,185.57662037037036,184.7567941040995,185.32147674284172,185.28380666512737,184.9675105485232,185.48776345248206,184.66615602619586,185.3468641785302,184.83800551470588,185.1326750172904,185.6410860497451,184.84773773006134,185.40239151398265,185.1340400199716,185.0432422025414,185.31399869135137,185.33222949557182,185.33881591618197,185.45268315265614,185.15923689372667,185.0467289719626,185.88325914457133,185.29503956765103,185.92271317829457,185.06381996537795,185.64966697645602,185.6023676880223,185.11864668028207,185.52466298427905,185.62468114709748,186.76395682894633,186.39073078262214,185.58678831273818,185.2098366954851,185.76489644799258,184.87711148648648,185.6277504930585,185.3567852741836,185.68355067136167,185.80627785312925,184.7697628838246,185.52425683250223,185.57749912922327,185.37445837202105,184.96541486736584,185.3935952408545,185.68752424548063,185.15690141934485,185.09808390635865,185.12107640631635,185.09947846242997,184.87756832812923,185.3864472410455,184.91402366179815,184.84911766972337,185.22967173181766,185.26860766345746,185.29961330239752,185.08066008636644,185.22341576506955,185.09332509270703,184.92925290451643,185.3097177715146,185.93592730661697,184.85756037532687,184.75704672178426,185.19560270009643,185.00509731232623,185.17036437870735,185.14103404402977,185.06842450175398,185.7866956454242,184.79076379283848,185.82595402120907,185.17461357591642,185.39324975891995,185.37109028500907,185.3617915975464,185.1461943366504,184.5644655291147,185.10112273146723,184.9752357586445,184.7867816091954,185.08516525749422,184.91259975445058,185.1209137758634,185.98210758684792,185.2947477939193,184.802580546062,185.23538917317532,185.24170834936515,185.1200200161669,185.32237907891692,185.43619194449798,185.70775110013125,184.98050577535594,184.5529992726716,185.15420040680047,184.9143207793204,185.03589645254075,185.58387942332897,185.37142747240065,185.66309046001854,185.3804393828633,185.1923904688701,185.21692349075818,185.36435842072794,185.42275264677573,185.47991518889745,185.38141112095872,185.54080018519232,185.6035841186467,185.11277152981052,185.10016534010074,185.44334157268653,185.5692533621889,186.22869798344794,185.26515297286898,185.08978447116678,184.8735138452098,185.4753700277521,184.7418898240245,184.86137549892538,184.5941313745744,185.3807065531456,185.16655767973228,185.26862797951404,185.1233039935427,185.122043155506,184.95097398855034,184.57767046107853,185.3710262345679,185.33521192001854,185.23890495469442,184.78111555009218,185.28349222277973,185.4791972778594,184.72421748827193,185.37535772294842,185.02325581395348,184.83960266430523,184.71963695100376,184.8421781264421,184.90559494451296,184.9327604808878,185.12947754000385,184.85515223834636,185.37062207977758,184.79991538136082,185.07274973935205,185.41614040525357,184.18723159509202,184.55146607307339,184.1452932629808,184.9357868801971,184.36341622785102,184.68301495176232,184.8522976350702,185.13311186650185,184.74814301658776,184.48684916800858,185.0524876771411,184.8252979623222,185.13678608615172,184.58436624582677,184.75226144193388,184.69956949569496,184.8158269504638,184.76780555448556,185.43589743589743,185.39396498771498,185.63579223383334,185.18360112511078,184.86758535740407,185.69681015794364,185.00447859156017,184.69996532727203,184.84840661246196,185.23097721127849,184.72478546965792,185.3574492753623,184.48974191816544,185.37178644605095,185.14765359678913,184.93889252318468,185.418791531448,185.35112738485256,185.0698535080956,185.2789737654321,184.92589316617313,184.81754264638082,184.65057744695545,185.28502043019043,184.8147464729174,185.67575500115856,185.21706742830676,185.18311378168093,185.42404574254365,185.00589073268395,185.12384737065474,185.0986458855754,184.859620783816,185.0104703980291,185.15194700150215,185.27902672270852,184.8064776394652,184.76530024203774,185.12162787112686,185.291928822326,185.12273951519816,184.79428812713525,184.78285736219868,185.19443695342298,185.06352805534203,185.22593819835092,185.23061224489797,184.94246617348307,184.66606705450093,184.81571878118044,185.12818339433636,184.53180739493226,185.41513142680952,184.4440915352824,184.3466896287792,185.04644630007311,184.48115231382164,184.51760738782235,184.663852647736,185.07186573771122,185.01269914569383,184.86377245508982,185.0983537195169,184.61121523926099,184.77698117547828,184.68305006890216,185.19749252357948,184.75697576637873,185.0256587009804,184.85807634987964,184.40179115853658,184.71682228685137,184.31640118893378,184.82584893380806,184.55322482041876,184.48541428025965,185.21080353710113,184.79593947519632,185.26986327748892,184.91847930333373,184.9913687279423,184.9321917021032,184.7090193681476,184.68911185716465,184.98901981788967,185.0011864212178,185.26042664011337,184.94508096547509,184.80732228754675,184.8378965832825,185.11128945960408,184.233701636481,184.52603115359713,185.14740624641615,185.0909681611436,184.96511184059852,184.88431739246593,185.15257928926252,184.92297984626563,185.21595040373504,184.72192533781205,184.83237745660318,184.70379988543058,184.8305298570227,185.06503349282298,185.2010946530409,184.86199129571656,185.24758805513017,184.83272949162884,185.29217224880384,185.21723018147088,185.14497899961816,184.94905041568148,184.7314719456841,184.94112263575352,184.6758970061705,185.31453744493393,185.55663343558282,185.1314432004891,184.881554289211,185.1053033776555,185.31571903796888,184.41406457992622,185.34577429635604,184.61758870660054,184.66792654526017,185.1103662273981,185.52892371514173,185.0709407612032,184.95909369728568,184.9882420528533,185.55959946081262,184.93787344875133,183.9876219766868,184.9156834201655,185.11627550237768,184.308142629058,184.83339703409266,185.0143612132353,184.78658256880735,184.30950477713068,184.9418270886754,184.87977764999042,185.01111409190204,184.58471468948133,184.38581235697941,184.56158520273627,185.0162928886333,184.17391801280098,184.1773547476443,184.7174312629241,184.27265091061815,184.53754259677603,185.03361118580264,184.52507070243828,184.89281471546272,184.60765311985293,184.79547542489664,184.75105291369937,184.50359244821524,185.03705125743906,185.2982536941086,185.44886669227813,185.05275852827444,184.7251754118365,185.0714231063504,184.8472456006121,184.7297719820026,185.47796206711203,185.45036962883106,185.6977813852814,185.5539904291448,185.31209553158706,185.71533072725163,185.33310214618734,185.38144130929865,185.29929482486224,184.88763310652365,185.63508920985558,185.33080214316,185.1999461683393,185.39413417497403,185.0254006071552,184.90622237595602,185.62528495807734,185.83391980201847,185.41635142438045,185.62562794651828,185.44287750934382,185.82545398226662,185.53436233841404,185.54805947094033,185.47051563885995,185.0348515156178,185.7014867735084,185.20003844675125,185.7474876314162,185.50310176087544,185.19978501228502,185.23891597251546,184.74186517799106,185.88076581618867,185.56171865984535,185.36127045235804,185.41907214513589,185.51616503733354,186.3430110861307,185.25024990388312,185.156504690143,185.96433539412675,184.65628344289863,185.54831503947622,185.6537689993056,185.5579818987098,185.84059474412172,185.80962800875272,185.20423936333026,185.4658654584549,185.11640454597637,185.84074815270935,186.27545070962793,185.91627014581735,185.344017747858,185.98016713521008,186.09963712168005,185.73606721652664,184.81911471894625,185.59746923344008,184.97894454245608,185.8363109048724,185.50928894210344,185.3705501618123,185.41035319493125,185.16177545290205,185.3268024173371,185.27736748980692,185.10845270555706,184.7218235542423,185.54050403303617,184.8326416109446,184.40400534045395,184.79334916864607,185.2282596164931,184.52745113011608,184.99597160943793,184.74503044927036,185.85441813679975,184.53891206982354,184.9397756951913,184.732875398135,184.85954473916547,184.44858061060526,184.7229165069386,184.6084355828221,184.62289936071662,184.65851324452612,184.59264216604842,184.89827063921163,185.45266443185758,185.29584070116093,185.58449510898868,185.73999537358316,184.76385486834047,185.24376443418015,185.7771247389993,184.68322173330782,184.375606402078,185.52219693755544,184.48154375238823,185.24727007074748,184.91189883119372,184.78906549950088,185.03844821614132,185.42169742266054,184.82589542233288,185.3778197663209,184.85395241749808,185.25883984284724,185.13242341755165,185.26638007139292,185.43269675034654,185.38927873001265,185.29579671379443,185.25742120343838,185.259240797546,184.801812480881,185.1334561221749,184.22824014036158,184.85785517029763,184.4958734525447,184.95331695331694,184.71862666206843,185.64293444650588,185.40718908922793,184.9700746211247,184.8174761758377,185.02056505862004,184.87552345460833,185.44495041099063,185.04280709858722,184.97352850776088,185.33312793653238,185.25735860687317,184.71515639374425,185.54892352805,185.3723359155201,185.16662825535838,185.21861180542203,184.62742765026482,184.93840175445345,184.39442674548036,184.09039699570815,184.4913749855285,184.10470619925349,184.41044083526683,184.01002197124464,183.76267592057064,183.5622760719652,183.55522157996145,183.9366407187948,184.39963553177466,184.97291512627933,184.18706064117418,184.63333075315427,184.38720135860126,184.01135008272095,184.39870290302656,183.85790019592025,184.3306119305272,184.6552775847425,184.4575442648191,184.1788252468211,183.83185874602628,185.1514248102834,184.3338075828655,184.80792377131394,185.0436128632793,184.2600852109162,185.20086761174375,184.73274302213667,184.29089585966526,185.3725906755765,185.29219705418606,185.55074357299313,185.50600191754555,185.76768063749904,185.62924949444846,186.42896111879514,186.2260856245692,186.13189539988548,186.43018233247963,186.33057378300015,186.69510371534832,186.44274107005978,186.31392899544252,186.4031391511244,185.83940042826552,186.209407438618,185.85179109602106,186.10508189193325,186.04834449760764,186.168584579977,186.24147738191323,186.39370441458732,186.03732372777438,186.8747296879827,187.1876879192044,186.68290258449304,186.42152671755724,185.9830857928296,186.54266211604096,185.8025304843087,185.35889243876466,185.61605164642066,185.47638697845025,186.23390689814104,185.6137762317954,185.82021052631578,185.71862317175894,185.52402728554551,186.21614373826762,185.91627160116226,186.32129714811407,186.23385146804836,186.13377041637912,186.08281644842637,186.19641145573746,185.63196273813614,186.02996470227134,185.495442236546,185.6259034071355,185.86409775156088,185.29469795078845,186.0899070589139,185.54963957435447,186.22465658813599,185.4955380977805,185.71147015010885,185.66667941412675,185.3762296957218,185.86629377059228,185.5920508500536,185.45309572067765,185.1495055930974,185.02654833403466,185.11178628754874,185.83730693679468,185.3124208101363,185.7098042238323,185.09992325402916,185.39952373636504,185.31840528499,184.80131614186786,185.15427388119798,184.85088290496802,185.00222205195004,184.89933450623423,185.0874971218052,184.9124478628554,185.25533466380105,184.78566234163893,184.87166736793787,184.57892126945376,184.99957862478453,184.7606592482123,184.6650622660249,185.3426694329184,184.43340453123807,184.6670618379288,185.40430281337797,185.28071721389986,184.97823596792668,185.03624017700466,184.9782075833014,185.1267470802221,184.71234397733363,184.4723760070253,185.20570131568823,184.92971833684615,184.44058933547083,184.4708891688619,185.00276221898258,184.2541682527598,184.76848382903893,184.43476599808977,184.19896305897603,184.88819494999808,185.0098114364556,184.77444964332284,184.34132834281786,184.85906477577615,185.33623143802416,184.5321675384674,185.0348426707598,184.85986457018248,184.66861777420712,184.88792344497608,184.8672468414825,185.41383551114527,184.8917192579843,185.35888969938958,185.2692042318307,184.8378863714515,184.92920218662792,185.10187062468918,185.0682392586352,184.49719797186535,185.26134663341645,184.7438702520751,184.2556076012034,185.5277713581388,185.119223092277,185.0996583362125,184.57762931857224,185.00984863000573,184.5448051948052,184.93099486865282,185.4583461656914,184.96653762121966,185.273844263554,185.56747071516645,185.47041181220442,185.5364727608495,185.07939363779045,185.55013060848188,185.3385588348026,184.76525123039946,184.68837652439024,184.7266170578134,185.09350122473975,185.27451281264385,185.54368372521898,185.1248756599587,185.92219009061114,185.50639867799086,185.18221183323115,185.06861241083072,185.179488164771,185.19050178523437,184.87908384082118,184.80091103965702,184.32253881069536,184.41298453312965,184.34853470043615,185.21665832723914,184.62048515457607,185.61247345047306,184.79134099616857,185.33705271258177,185.3180804429747,185.19252818283252,184.81345284608904,184.79006668199585,184.66579973992197,185.2810505268015,184.32231310197218,184.57226935718109,185.11927029211407,184.3128126790147,185.43977806889112,184.84544512265347,185.03170394281761,184.81305114638448,185.39190439475712,184.7762592137592,185.2117561013165,184.52610226576851,185.44006309148264,185.1318916440607,186.13614318706698,185.868366484909,185.1326921603188,184.73030059967152,184.8185847470579,184.57067421749446,184.81323985748764,184.68885318644328,184.6201458627668,185.11901289530243,184.98838590977041,184.4682160467872,184.88500153280197,185.0296501133003,184.55144694533763,184.75834993105562,184.8394735835342,184.62345749761224,184.5483624704176,184.478612584424,184.8359324112035,184.49104243859583,184.4615179048637,185.000459646838,185.26763485477179,185.26415384024872,184.4607712512848,185.15144774688397,184.90753922694222,185.0308386899296,185.14154813480044,185.07834648685923,184.89027937236892,185.03871609472435,185.16843114691216,184.82981570696643,184.2436312402422,185.35621806446656,185.49640536696012,185.19136607828088,185.63757795057356,185.0362898595108,185.09647203347538,184.7382565751694,185.10346814149096,185.43974556669238,184.7241260349586,184.87704226432461,184.68753594295134,185.3140492686682,185.0053422498943,185.1265910401846,184.3833886536187,184.67183908045976,184.9570474435744,184.48491799518294,184.85084524859124,184.38180155464107,185.25840667153452,184.6361725705988,184.95384379079948,185.12660268714012,184.75024871814495,185.50661829969513,184.76325561808505,184.6767846889952,184.862658470995,185.40894716544543,184.7334815269048,184.36231662006358,184.92383367919453,185.15915661257372,184.52303086135421,184.5953438505131,184.4298057807004,184.28583976170472,185.05496194941963,184.60800612909404,185.02924470371508,185.2577581234378,185.27889273356402,185.16825725345905,185.40016839526962,185.87232489337995,185.62384618330844,185.43109269490486,185.1191723715914,184.9877554144027,185.2382069124601,184.6601444567585,185.02875129553567,184.65579862840505,184.92238267148014,184.5526527177447,184.6946371756047,184.76674196883255,184.88495236637718,184.74280582412962,184.96004592422503,185.1951284796574,184.91332594489242,184.75729377216734,185.65526386593382,184.87355574259698,185.11562176860326,185.0903909417795,184.58245948522404,184.9060302659737,185.02917609170723,185.14767415127596,185.03061263536526,185.13848513902204,184.73048859685983,185.09559189613572,185.1558531251199,185.45278664564023,184.77426128120945,184.7513962206411,185.03038061754816,184.9272303162403,185.18339842254383,185.4617505168849,185.0559285823287,185.2750066888354,185.3155980861244,185.7232965009208,185.11718213058418,185.44434659417237,184.90718471725398,185.6345689423851,185.3159103084105,184.92834012724293,185.0477590287852,184.99231149849655,185.4913895600813,184.81370270167284,184.4884773349559,184.92473200320453,185.223883457926,184.7224044549546,185.39397895706935,184.19462704715582,185.27905195849448,185.2937701396348,184.9017372005816,185.40470714504752,186.02035220514404,185.22145699418428,184.7410499828434,185.15043062200957,184.6959039817108,185.0243445692884,184.5287842420086,185.08887869053083,184.99663916895815,184.52002741395066,184.96777403551746,184.5947380479609,184.90096812459342,184.61508194216296,184.73635946813388,184.78559143894515,184.97580428697418,184.8395576643453,184.47257029339852,184.48884396811474,184.70076843674732,185.29030028415636,184.83300852153312,184.44471557114534,184.99464790886154,184.8991137596455,184.86661832614587,184.80410561660563,184.85749142203585,184.78760116048252,185.5930245942524,185.14413104213708,184.86144969622865,184.83319327731093,185.19238139035792,184.61930038952113,185.25290441317435,185.3754519578429,185.14903643538563,184.86852177907065,185.15547216052693,185.16797668801044,185.1763623821568,184.7647485862754,185.11897007548183,184.98379620762307,185.60570308596903,185.18927831888948,185.16235158942933,184.86986902898164,184.6093606957583,184.94668400520155,184.67171813566438,185.6498207470799,185.32289868416004,185.2994227166724,185.70279064425984,185.43941829314963,185.8316222555466,185.10095252668222,185.28803868145363,184.9931646250144,185.0389824655642,185.2128985117102,184.9536426380368,184.64096579168898,185.09415833973867,185.14598932534653,184.74413972728667,184.7064114832536,184.82075724512845,185.4317036581144,184.64003058688587,184.91932148874253,184.59987019928226,185.1763938452093,184.9650237257003,185.09452870032635,184.87954806587516,185.2666332973972,185.34819059339307,185.39358836206895,185.0091905402807,185.6000772797527,184.65723921207942,184.66689665746702,184.5594461916085,184.8978413944361,184.8860856857165,185.52677709564077,184.80269386184338,184.72826462791502,185.2482187560177,184.25955480890383,184.5128577988673,184.27878695169989,184.39314438912294,184.67423256526067,184.78932842686294,184.96812794845243,184.30929566711205,184.939576459756,184.69691164073876,184.89387426114993,184.47194618559854,184.8533553313126,184.5404919475154,184.29221648498756,184.61245395948436,184.3400581885001,184.38736979166666,184.667281035211,184.50976487707743,184.65319296088526,184.71068408916219,184.38528883281722,184.5743963204293,184.5879181800803,184.06724677505534,184.85761996161227,184.69912690510836,184.8642794157114,184.30975106902872,184.25876072449952,184.32959316082741,184.65153778390592,184.64339810281518,184.78840257550206,184.6814318529862,185.11141001498788,184.97346015187543,184.33616337769618,185.1258303574857,184.50447864033072,184.55019467134895,185.30945956364198,184.66790302844908,184.92774267662264,185.09701435259805,184.8742588271298,184.85303465441316,185.03309231416657,184.9951790633609,184.8185013946735,185.00704845814977,184.4247743802597,184.96211831330834,184.81551579108358,184.93952954675845,184.77430184648253,185.09065871012163,185.40046074102514,184.83325048751578,184.6817141112722,185.29966614221573,184.85473684210527,185.05786042944786,184.99774421716688,184.53201801251717,185.09412621731462,184.58700793408605,185.08791712855015,184.92172054501737,184.5780309380477,185.24036844519188,185.00687258982094,184.87366330583563,184.85374590351344,185.14777327935224,185.39072619275723,184.6087171867261,185.22466758367722,185.0124455982286,185.1946578012152,185.0933771795656,185.22368370594776,184.4785706122138,185.25917404808467,184.697952479181,184.57863988697545,184.4905063291139,184.52627960275018,184.4963016623456,184.63812249570694,184.51924104756816,185.42168396770472,184.93301912097175,184.4419819957278,185.0754550680207,184.25748867658814,185.1633954292299,184.29133828288596,184.5348127812095,184.48896680513738,183.94697027294154,184.73906381674712,185.13651732882502,184.32598731953252,184.2698672971324,184.50043941767606,184.95110821382008,185.0410201259794,184.8114401902862,184.8948297023627,184.3250544495816,184.33109525807805,184.26493377609833,184.41067002249935,184.80560440400643,184.6330096345007,184.77271336800246,184.83274021352312,184.52938932753557,185.20490703469426,184.84973043245517,185.12672925847863,184.38237314002288,185.07997548644093,184.67933264454905,185.24663005491763,184.9118738759423,184.7609359493091,184.71319253137435,184.73927014000458,184.75059327872617,184.75040152963672,184.94536398467432,184.67864386025332,185.1662760766837,184.61787094059596,184.9076445330471,184.66951228849246,184.99156700398652,184.91091041291952,184.57104670256234,185.0681146628804,184.7888552948831,184.22669814194333,184.74520390580128,184.84216968862367,184.80685167464114,185.01577879054804,185.29907008914847,184.68056937323027,184.6618096986385,184.69700214132763,184.85608206384444,184.8991364421416,184.42020140372293,184.56154169693724,184.66563420136896,185.06226840356038,185.755597373171,185.50950278364368,185.3035604665439,185.26093473748944,184.9247583985274,184.30390589310187,185.19031022596707,184.97602451168135,185.5121848093481,184.86637056323468,184.5235570136955,184.58662799572585,184.92874655225253,184.8752247943371,184.65942970720891,184.20668947168377,184.87783307810108,185.16421230250037,185.41854289343033,184.7558175137783,184.51644285060277,185.3368992188402,184.76221473426253,184.91270480795058,185.18558725025986,184.60857898570168,185.29741910631742,184.59740956468426,184.53685780957116,184.59076793313653,184.16657126502577,184.40654509309172,183.84423010941254,184.81708627571385,184.26614690820148,184.31930588999734,184.89661010427488,184.8934306569343,184.55986063784985,184.01121794871796,183.59383902457554,184.45652090745628,184.11198593487234,184.82426923076923,184.39968646044431,184.31565859443742,184.70553018382776,184.33544957356486,184.14778588621863,183.79937530948843,184.3541459306332,184.35602934433746,184.34079239788488,184.49427488224256,184.57016135199206,184.83672924297923,184.74684268762638,185.1953591667943,185.0174605605759,184.3226827315362,185.25819987680936,184.47310471384333,184.79942539743345,184.81611443472926,184.28271411661385,184.62735939354494,184.69564551338516,184.39738791720768,185.1608974605248,185.1298566542408,184.22139208660516,184.82132068978703,184.55053435114505,185.0121951219512,184.52008545378249,185.00233609068627,184.81097793724712,184.71674311926606,184.7241603301364,183.9326857403051,184.38512843966765,183.83464238284955,184.50973951569782,185.09892093237588,184.82844979673237,184.91772831926323,184.63877745940783,185.27530707327404,184.99811929070393,184.1185608223872,185.03646914149564,185.01375441831874,184.25139132423573,184.47574890288112,184.8985540597553,184.7347282255288,184.57455503781225,184.83127729675886,184.94303676160538,184.285692501239,184.91360533783265,184.7096305362197,184.64270127483633,184.56854869558566,184.25788930115135,185.09822767290763,184.66177145479577,184.90095245410555,184.5245443406341,184.29568042813455,184.41679412664422,185.0830411159493,184.20604416596623,184.6461980463513,184.3528647326377,184.27261963869685,184.37071901427313,184.5795123447324,185.0336318560941,184.56357704855114,184.67152892403362,184.36602183489754,184.1695977978284,184.32443319139142,184.22814327764823,184.22087536921248,184.77637000808718,184.79572666025024,184.3650586701434,184.33886201336097,184.22447648999002,184.15951413901448,184.03878073966422,184.60392729508513,184.45345979571462,184.53748460591132,183.80928740548384,183.6575436456507,184.23548350005748,184.39338291673056,184.69433338459172,184.6910785106465,184.28304850946432,184.40284269404643,185.18556344787868,184.98819878156252,185.0847750865052,185.2910899487219,184.37568552253117,184.5302553876831,184.75824514142775,184.71727346122793,184.71624326404927,184.91232391655763,184.7717286753107,184.82468356865309,184.94953846153845,184.61723939335766,184.94390365895887,185.28015609303762,184.65102448008594,185.11680098715922,184.17658085000573,184.5188795088258,183.99591088011618,184.41250383083053,184.85934800138233,184.66092440206106,184.3003416900219,184.41449186367822,184.67624101203523,184.9238942141125,184.80672947510095,184.82538094505156,184.59754412893324,184.50850124736135,184.5665860493685,184.12417750573834,184.75696046762036,184.96137718792076,184.9325488386402,184.9284286592866,184.82419819473785,184.6885428253615,184.89654510556622,184.83373651269056,184.63012071278024,184.34715282810177,184.79729677840496,184.41939435703074,184.78658021944295,185.18476505421825,184.32144222681043,184.8213874164554,184.69741739897924,185.06638189794504,184.428221046984,184.93268491465477,184.73489855517983,184.77683724509427,184.38154718571593,184.7365405322258,185.0646915866219,184.18541045061588,184.06583167863144,184.94815327260847,184.0466529115085,183.9982077486272,184.49996168875947,184.83232796711107,184.7056809877303,184.05997024377217,184.43510103915028,184.1538726465636,184.50428006602434,184.92274810336195,184.64262949736974,184.52309048403785,184.3395125695644,184.61737062185907,184.0246729400964,184.25393301435406,184.4436811605327,184.4005285736173,184.10923535253227,184.92964031544528,184.35518310182528,184.960095340612,185.00142170989434,184.22742730503228,184.88288149911682,184.83032906343485,184.22569457677503,185.05623631544577,184.5774223104528,184.37001984429858,184.65863653772502,184.64480330629112,184.43394498912753,184.7126401591979,184.35832793012702,184.70915482194712,184.8263415754421,185.3174615325729,185.5194507133841,185.2091166131744,185.0676496428435,184.88880411977874,184.67452163617614,184.9353107994175,185.0531564010125,184.92000458645467,184.74262200956937,184.71176335702822,185.1850304679416,184.99850620499464,184.930546525414,184.91931970189185,185.01428735588158,184.80803246678664,185.026881926602,184.46616570033567,184.6204745503253,184.33412141549726,184.25554792953557,184.81692189892803,184.80839192907368,184.82397275996632,184.4333524136615,184.71476715686273,185.01821319018404,184.8302254489874,185.64589987301343,184.7588498109749,185.08221328738273,185.15633258013864,184.76265556997785,184.93954592442284,185.02328163890485,184.95217507747637,184.8595692590184,185.32144641278867,184.8450547766797,185.03586497890296,184.83372912517237,184.6344772240905,184.9332233181103,184.283975581839,183.9947526521921,184.2632040909785,184.37661198016025,184.89487622337364,184.40997060732144,184.76581478217557,184.41576253056235,184.28533841754052,184.33085289066972,184.49254188021112,184.28575791121122,184.88637932356775,184.1140367565922,184.92373791621912,184.22703712173183,184.48195758315532,185.28701638335514,184.56762130539516,184.5785041720891,184.25596918147838,185.0571549209274,184.52526951601806,184.8438901023106,185.04513702310587,184.8107043115651,185.41113078284965,184.60538373424973,184.87659607003593,184.789111747851,184.7114935934213,185.14626006904487,185.13195481524028,184.3953674121406,184.9115412514794,185.72544138485696,185.72822472768965,185.65184107785348,185.28897222009644,184.76145321604022,184.471123116725,184.53717621027735,184.71703527971226,184.43019758632505,185.23509539713618,184.55798486354254,184.29240790827015,184.38828509323875,185.16465940472537,184.70726120485608,183.76467473524963,184.9143021032505,184.93837160432506,184.99386105391596,184.69015318954348,185.16890778837683,184.4628221698472,184.39219118654387,184.85225712978496,184.87861205481545,184.6697685061592,184.73989850814607,184.60114155251142,184.44870134816057,184.43788063337394,184.3065824037766,184.5307147750628,184.37130239463966,184.57698461069631,185.11462723162975,184.0840830581179,184.87129204892966,184.73784443935577,185.70600445913738,184.07433151017926,184.71663487218618,184.394048932689,184.67721904761905,184.86328871892925,185.05749195648843,184.81771251577376,184.74590570719602,184.23973565270234,184.31607163225732,184.52750648557912,184.6053073692249,184.16443463704155,184.0825883516567,184.70664524274073,184.5297084559245,184.24625642979615,183.9986687965921,184.47656518583597,184.7605768495142,184.53907953632503,184.48485659655833,184.71135321100917,183.8775130870192,184.72198424233153,184.6096256684492,184.49002327267178,184.376571907629,184.08651031966247,184.77331140518626,184.32127230529238,184.42553353658536,184.95878143059437,184.81158478302427,184.3265174015688,184.4965064335077,184.63004587155964,184.48785981522485,184.67758706372567,184.86990811638591,184.33455224164857,184.70102029118422,184.46542198514004,184.5141335362374,185.13206969174803,184.55279290256254,184.84203092193167,184.61533468250028,184.34397473459913,184.08028505363708,184.48056994818654,184.42578065498859,184.8341673988616,185.0376121463078,184.86229721456994,184.61676646706587,184.8511672407195,185.61976820299566,184.79435746277227,184.9823500134002,184.42638994668698,184.8275888451092,184.97359559161183,185.35655643366837,184.43292613312022,184.57226689021834,184.82089438339437,184.482407654481,184.44126500285768,185.05656836461125,184.493846915838,184.81514468101372,184.96467619848613,185.08736600306278,184.52299135205152,184.65639674722254,184.67945686169807,184.74180609672243,184.685870270683,184.55053049385543,184.81523110448447,185.0279470960322,184.40714911779276,184.60752914198358,184.7946695259248,184.52177234530177,184.980161617709,184.58255582747017,185.03566492628994,184.65780236550935,183.94059970356858,184.28024239652413,184.64396403290607,184.47063322116855,184.41935730096938,184.38244824825588,184.3481215638363,184.1826534502478,184.82801180574188,184.36817574021012,184.63614420903414,184.67944932315834,184.4097633701594,184.0605065128538,184.37220349371745,185.46775812804077,184.36151726249713,184.47880203745547,184.68218841247887,184.103432476805,184.10175826690568,184.23421977686075,184.2023154516277,184.31806537946855,184.13738884860513,184.54080422389717,184.87006907137376,184.84225449250928,185.10303123676002,183.81208895647217,184.14490154174936,184.3985626361864,184.64853989422855,184.57057539910417,184.53458566072385,184.48818265259294,185.07979091398263,184.02347650443997,184.38969914477704,184.5914578239609,184.63935116110028,185.01289282836422,185.00455886296595,185.6338234726564,184.29057551766138,184.5845883342252,184.1965019011407,185.11029806145123,184.52907065466198,184.40753724802804,184.4324602539174,184.94575634439929,184.9052542892157,184.87258539570823,185.0827709786877,185.55236525339262,185.08750763591937,185.3426546638575,184.9898349128707,184.92502102928808,184.43461231319162,184.54660564454616,184.57371367635298,185.0107403585216,185.16010870397307,185.0560869232535,184.0452873127252,184.73329269221978,184.62014295490837,185.17408072091337,184.83034251533508,184.84275699154156,185.355414061601,184.54010187015356,184.50912825193976,184.51103416787154,184.76990543014034,184.46343501880486,185.06676620343785,184.9324979944226,184.81973361910593,184.91504119563135,184.72844597174495,184.9810938038195,184.8174621385957,184.86930730960583,184.76521805544948,184.75576388094967,184.6475431708154,185.21128704520186,185.00176076555024,184.66964285714286,184.34778969793805,184.36670724284843,184.1361619838471,184.73831419086503,184.60367644254606,184.9772718561956,184.73406778364318,184.17601341054558,184.20568727605396,184.7766852857908,184.43314242077128,185.00076840325804,184.66161017920598,184.85938757521174,184.7126805778491,184.8270532879385,184.537355006105,185.1646973068365,184.62048951850014,184.25549471442696,184.3613554159528,184.74025229357798,184.73086457419626,184.67939920707533,184.40181050549617,184.396191926885,184.46993225241684,184.70676319298914,184.8282766759298,184.86717354115189,185.55233954925066,185.67195646382768,185.8531191717733,185.42273655547993,185.49414210128495,186.12137102903176,185.40533293046795,185.3975603308282,185.6776765806281,186.020654567545,186.09871731809756,186.15674467923958,186.36230509503395,186.40170745589072,186.7204076200616,186.19089668763738,186.47462505680957,186.46800197261106,186.4712151092233,186.59266709682316,186.73676012461058,186.22635288767623,187.05177340089145,186.34074830704043,186.96330484330485,186.50071920660156,186.90604792696843,186.3295149521757,187.23926683652127,186.93715846994536,186.973010825952,187.41401635620173,186.96495388669302,187.14135553629959,187.15889934610877,186.64586389797992,187.16432244404115,186.86873490338164,186.89726156751652,186.16898600872574,187.4023908918406,186.06575631042395,186.53049725846097,186.64392590628432,186.74535668258662,186.6337889515732,187.1427158615443,186.8481195025781,186.88772528931892,186.4802509732774,186.40499810677773,186.93812473870244,186.68699048269062,186.44685679703457,186.70307219078722,186.65831149595533,186.2859305229698,186.77743519470138,186.28065384761254,185.85429360784164,186.40398081899832,186.4808555986907,185.8376204567873,185.80903225806452,185.8571482803128,185.6759023797776,186.31942006867607,186.29843051895978,185.6555969298579,185.65642914088303,185.38677423020113,185.88038678239684,185.2205470111372,186.05971914828666,186.0687392714095,185.30288644132168,185.47906923691116,185.86171511406118,185.36633400371875,185.77932322231538,185.92986140277193,185.75471770043077,185.8255747455107,186.04550664832647,185.58717343285855,185.80910235379392,185.12472008198276,186.0689483937507,185.67768720956806,185.4036522731596,185.84666845062884,186.17211921544592,185.54617555097994,186.00619502868068,185.55012951394178,185.64378860672616,185.6108693992825,185.47765054970137,185.8568588469185,185.93499885224577,186.02845544023592,185.67523096892418,185.6269546931753,185.43650702937478,186.2788229434078,185.9095010514242,185.48375409961102,186.0662788917802,186.38621801020605,185.85839996939205,186.04327364554638,186.3374779338399,185.9851574155541,186.20854261723093,186.13479527679803,186.85141027125053,186.18605723065104,186.48830668464652,186.39682111029668,186.24197701679543,186.96788157538748,186.22552783109404,186.93724899598394,186.65640275586006,186.15599046447247,186.2138843992919,186.24131028907965,186.22656701467812,186.16570416570417,186.54552817308806,186.28652378382546,186.11038861100423,185.96795092965306,186.2340049215626,185.93025936599423,185.97051700941765,186.11633815829998,185.82259739260854,185.5847773466016,185.52610780740457,185.65216720058666,185.8690798114811,185.44697670831405,184.67118877902965,184.67849742920728,184.62018917780415,184.95935927476665,185.06154613083825,184.73937330221526,184.89731098239287,184.96951219512195,184.95358471748054,184.99907734891588,184.53138764410738,184.7730084924874,184.21075252312062,184.06273303863156,183.55019972345983,182.81179796744863,183.4311372639514,184.00744713690383,183.8781275221953,183.74922220088342,184.0079215535474,184.38408504410123,184.00095998771215,184.0618868792152,184.60389785463929,184.1774484585557,183.68375415409298,184.15795537463038,184.37581724482732,184.4717351176742,184.63199354442054,184.14692452323396,184.3224171689638,183.92078036116519,183.84271770334928,184.47190362558695,184.41905970091878,183.87533491540992,183.62306223749522,184.15583019881785,184.82073067119796,184.45773917054234,184.8115763546798,184.04182276932488,184.45292630611306,184.7692366763938,184.121336996337,183.98048036599315,183.99281560041052,184.31836392079057,184.82041175570183,184.74913760061327,184.56201728225128,184.46233478493392,184.90922333818907,184.98396562967508,185.34781101998382,184.73455061567378,184.95499923206881,184.84417281672816,185.06240884317188,185.06631554667078,184.41892975822162,184.8641312682104,184.99892415277031,184.4162913199481,184.84663093415008,184.60642324603327,184.5442306956821,184.85721419791025,184.67079008846846,184.5368986007284,184.74548660354938,184.44109085337828,183.936192109777,184.44874444954831,184.4194005282701,184.37993421052633,184.668291185387,184.25037343444788,184.627826621108,184.35907942100022,184.12931957186544,185.09007898285495,184.3547054322877,184.4521749119314,184.54677030286786,184.81937734836285,184.41521631029337,184.81916893680696,184.08309510196304,184.35667061566096,184.7792775519595,184.22534189013675,184.4200658146476,184.47585096596137,184.48452463035318,185.2558686350846,184.63918592618145,184.97833948907356,184.9367151991372,184.79556906034847,184.04099018222104,185.14584537154744,184.74874178800567,183.78125357646968,185.00535068134576,184.44153557622383,185.21280370227535,185.27466687206348,185.03796249951873,184.57141215672758,184.68581846094798,184.37070842085163,185.3402967816535,185.41892205381998,184.45355401098269,184.89589566551592,185.6657528957529,185.487199289493,185.0992915992916,185.28982086895965,184.89486675151375,184.51528232800155,184.53296046287366,184.6934760763701,184.67751284924836,184.59832490640318,185.4444011684518,184.89371025283077,184.39703383284413,184.7712539645703,184.42438027680328,184.20152266697428,184.2801402049149,184.21038419996913,184.4957228565899,184.7085849202663,184.59236062785124,184.00650600554357,184.48905194052907,184.03403272377287,184.38268318092372,184.80673374613002,184.33549683201977,183.9796272048063,184.55604930638742,184.143787324215,184.49272453587557,184.71501508470644,184.42653076982472,184.16773027833307,184.32702556576814,184.3756456711125,184.37920383026372,184.68708141380512,184.56279195459985,184.69906513173143,184.33661993529503,184.28321691814918,184.57987960175967,184.45575033712194,184.3060635226179,184.4146350871779,184.97190293742017,184.84177117200804,184.43674350474134,184.66662809088453,184.84045595054096,184.40637864040318,184.7372541457771,184.4402539926881,184.5361621912749,184.00314248486242,184.93291364127916,184.4723672090881,184.7494706856065,184.28737878962093,184.18962549252132,184.62076254900452,185.20260251756892,185.39172467130703,184.14359622901816,184.90445369086146,184.53674636374103,184.4476625821073,184.97990511821652,184.89666216476945,184.49205130174334,184.70339895416794,184.82234439275692,184.68554717561952,184.5087355527397,184.92422139993832,184.31431305013393,184.72507785167812,185.11428131377306,184.55989723138276,184.47544497607655,184.82160938938324,184.90830648872526,184.58258774948382,184.2750362291206,185.11783904162186,184.26628506010303,185.33906785205713,184.9412283392118,185.00380359612726,184.72940455207296,185.1441760270811,184.35755469853754,184.39472273284315,184.95289046262798,185.2824459876543,184.54662169930631,184.8999268977723,184.8846257456225,184.15132384450567,184.33742683346722,184.42683113113878,184.68254637436763,184.46911927798385,184.96194276068442,184.79708979513688,184.3013253886406,183.8760138608583,184.603206182806,184.71783070609442,184.5279672055781,183.80848794239782,184.3425222404643,184.40287384874077,184.51357977398965,184.8374586824506,183.873646071701,184.9296646669743,184.466398775354,184.36151960784315,184.90631975983374,184.59494593143646,184.53059346725962,184.45743256169888,184.41429390407032,184.1157850577781,184.59350713984915,184.2041501373207,184.5026778882938,184.44247889045963,185.11583442332847,184.2202111039134,184.8134605802767,184.6228177641654,184.1243426568097,184.37936168588226,184.5222528102776,184.60652473579415,184.79439539347408,184.41238416175233,185.0676605063972,184.8265576413682,184.79715643442938,184.77472611660156,184.90612667151998,185.14810835699487,184.83618938087022,184.4260235258173,184.57726281977745,184.39355330917414,184.8537688827544,184.66666666666666,184.69478480624903,185.06143554649955,185.02919932380513,184.43138753056235,184.92166181204968,185.24977863330125,184.37248296455095,185.31208791208792,184.83366656413412,185.2421649126865,185.17470413630932,185.05164246928794,185.09567865541035,184.8170225841143,184.81654233638392,184.52669447740058,185.22250086808904,185.0759941542958,184.7693665349346,184.58247402920995,185.38980891719746,184.72003372164318,185.36931204689188,184.99950071052731,184.48835430450913,185.01230437959012,184.88013054329045,184.97110248626214,184.68811843215462,184.79121470882376,185.10712219951412,185.04071629809732,185.1014033324313,185.0204751786749,185.52776269872044,184.9461223543952,184.26626968882059,185.26179574732268,184.9314968214217,185.0718650885743,185.26423126040015,184.26727969348659,185.17201098518547,185.17546235394258,184.25090950867383,184.95893524403868,184.75623460591132,184.48463783700745,184.18118466898954,184.2883508556519,184.4289120486098,184.06062114655535,184.78893426832087,184.7977068293248,184.51462055715658,184.1070194301513,184.071195922903,184.73382931154114,184.1444384656776,183.88111673569566,184.30943033102386,183.91160793036008,185.0227624651595,184.71192844475289,184.567331718756,184.346331333641,184.90502103353788,184.37343329488658,184.47586127434036,185.0811176379657,184.37388530135303,184.44399154008843,184.00701714022776,184.61040311092287,184.52773826458036,184.66967001655692,184.75,184.45799207905563,184.6908839034902,185.08678576929,184.9947706386742,185.71178683628747,185.14775185414092,185.1475638051044,184.33512558568248,185.0386042198006,184.96649166151946,184.3532145326062,184.5058344848764,184.7780814535376,184.73950161513613,184.03097666246515,184.5205142966801,184.93136235900988,184.28664007976073,184.41453236859232,184.85997459682076,184.96907296004937,184.80936416184971,184.64071442289227,184.73148041363933,184.71457162651066,184.3268219672257,184.7272237611573,184.56997465243106,184.9901983483831,184.5052905996013,184.98141950375071,184.5407657744153,184.8000384319754,184.41297607655503,184.56505547663838,184.25082306102135,185.00847261803898,184.3831360380033,184.96336911770365,184.5076510067114,184.89289558665232,184.4387242687929,184.5056512378902,184.7552520200077,184.10301987767585,184.75800684378484,184.64942263279445,184.58246153846153,184.8446167496046,184.9199336317333,184.32015840670536,184.3889123669753,185.15439925777022,185.14705882352942,184.7072250663998,184.59802940497266,184.70999961436118,184.43891559315517,184.04551887694603,184.47515742589465,184.63507583339748,183.98828752966395,184.3416967647737,184.70280582748785,184.26842751842753,183.8901680865761,184.41107737248723,184.36228984726657,184.54573147219867,184.72933668536066,184.2534994616213,184.0898061048186,184.3210857076763,184.10829714461397,184.4146078242436,184.74425887265136,183.914654709895,183.9443102985704,184.1362660944206,184.32974137931035,185.5115746135322,184.9123105474791,183.89675617779818,184.57196196928288,185.00342531655312,185.3991740959438,184.61540236072128,184.84183673469389,184.71283040710014,184.05384526692032,183.92507968203986,184.85683851725608,184.24473937295633,184.5714561606798,184.62741238227574,185.14583494769468,184.2589601599754,184.90349147430692,185.13933028447408,184.67564023449552,184.794010959327,184.68977356015893,184.52387007282394,184.30716841740735,184.24242074039833,184.14852284966918,183.90508539627712,184.39286539795054,184.12742616033756,184.18869809073797,184.4420845700189,184.16479068691697,185.0633421093387,184.43002004935227,184.61773782887124,184.53802185918974,184.65204452345984,184.2614454583959,184.5349420849421,184.49612492770387,184.53855342761358,184.63005936319482,184.6136091705585,184.45419568312107,184.56396042653117,184.73470409302683,184.6649840083234,184.3695476730333,184.53747975630446,184.69206434936925,184.97848091485088,184.69061753141622,184.5039879782684,184.6468881754535,184.3450614667232,184.68315492522316,184.2547667655329,184.52328185328184,184.4578862039682,184.3649855072464,184.63093397247565,183.86970721586107,184.47890531516578,184.36879432624113,184.61637065637066,183.917402657246,184.6565570599613,184.45254178407382,184.3266823311891,184.52411848762213,184.5167258961681,184.38306731436504,183.61635051071346,183.56953718627676,184.48829289059174,184.0448841327277,183.92541733979536,183.986062986063,183.91057285659363,184.12148451062845,184.63868641439205,183.9679756445335,184.99367579731512,184.0158143830082,184.1301499209928,184.17287796623208,184.58986833468472,184.11377452866486,184.5252318392581,184.188707566777,184.54486857848624,184.56926164653208,184.37716662814884,184.47796414112204,184.50369913686805,184.17433311520844,183.75698066891684,185.3106007616383,183.97923476254567,184.58633593086952,184.71157187536198,184.26548127621908,184.6041282287823,184.67699830586787,184.84268146948847,185.20818016484154,184.72255404416015,184.49942365326982,184.93512554479886,184.34626613398893,185.21473009003438,184.65374099888328,184.78915175995382,184.71766603925786,185.02205769525855,185.71679294881707,185.07472324723247,185.11140215716486,184.98642255471364,184.57175792507203,184.56758208039275,184.9313400631887,184.14116296863045,185.0832497879232,184.6482546988876,184.89447989544092,184.92061479346782,184.2524709024995,184.86806780701082,184.87425287356322,184.69332975953438,184.73094873756693,184.9228853815507,184.97756987845557,184.50190825127854,185.23075740690928,184.6,184.77083572604417,185.00846088762404,184.70595676172954,184.55844553243574,184.84183810805615,184.79358239390558,184.81920295430066,184.84115565130415,184.3506050857843,184.9832462342453,184.5486949522824,185.17054681186747,184.977782048818,184.22549581565974,184.60742898761836,184.45911036380312,184.31186945888106,184.9687283637203,184.43664127980404,185.49054711011652,185.14875587396963,184.75906894700515,184.613708596592,185.0522117755857,184.89556547848179,184.2910530543549,184.8668077737156,184.66868002923863,184.57145052243393,184.4868057686407,184.25139771769932,184.44883613735882,184.411782731939,184.51364298306123,184.32008104285333,184.52935987419937,184.53173386478613,184.47644560101028,184.3216005503325,184.0372346507108,184.62014168102624,184.49551930147058,184.784509202454,184.51476050082323,184.83535508637237,184.53292220477266,184.66142638036808,184.66825226331133,185.34142575938864,184.83756559040944,185.60274235673683,185.49396849788707,184.8948515078546,184.38519366533103,184.64320935744047,184.5884312074114,184.85866687133046,184.19101423827155,185.40268947713173,184.49284323829153,184.74843636084572,184.76562440053712,185.26822786272774,184.84534182948832,184.9923224568138,184.20033612161492,185.22941289701637,184.35896749521987,184.99396849788707,184.2949893064467,184.46704641027603,184.67494538346557,184.90206244959097,184.71002460024602,184.57433105880548,185.2745219000617,184.25538496791933,184.76525911708254,185.0362062331666,184.97884105833108,184.7055638751296,184.34096740837194,185.1692378717347,184.59836850369575,184.4858588181191,184.71188134030126,184.71900065241584,184.64079346199594,184.93597443597443,184.72131714439408,184.6373723412424,184.53806872720293,184.64733741480882,184.13379283936436,184.40063855977843,184.56918456918456,184.60720338983052,184.5191104933982,184.2218370883882,184.07527129107712,184.47976254722073,185.14151602141362,184.39114860180263,183.8072741194487,184.44113120430936,184.30875558293548,184.4079201048816,184.38427510866637,183.99934688232355,184.41551331971164,184.79965998222633,184.45201309959546,184.82660635583392,184.5153724491764,184.30637905179375,184.40967195441243,184.2747709600431,184.56394340131857,184.54707153329733,184.5041242676534,184.39629829151917,184.78917687048553,184.48540694760382,184.57159909129413,184.65071530482396,184.54689304689305,184.3708344543952,184.88943830642046,184.1040287714734,184.35156609857208,184.80612401907985,184.37798327066227,184.35758133824433,184.75119580311681,184.72308402940837,184.5075046182266,184.4422492985356,184.53369987312084,184.26873871451073,184.2421125355032,184.15772713321056,184.1734627335149,184.80022360152665,184.144619392407,184.5084414089479,184.48670151433623,184.39534705747303,184.29288478485765,184.90172254690864,184.5831895394762,185.15641252841237,184.85040912757864,184.4406987434876,184.78398924937608,184.45911058336844,184.42962849365486,185.06632319581684,184.51256377065408,185.32571340902118,185.08209469813056,184.8151173492867,185.05802060904338,184.5414137533615,184.5763907525975,184.39687955225025,185.172435105068,184.63183353808353,184.26238966795307,185.10211321918865,184.68131024154218,184.70829818237596,184.91922958634476,184.7231217865091,184.98226215157797,184.7157939189189,184.9852048266851,185.009245051404,185.10948680464722,185.01509622402335,185.18849938499386,184.7053530402818,184.8228532015174,184.8406325567113,184.99984618934093,184.76920717681338,184.82329440688383,185.1155639474394,184.54747126436783,184.447095316509,184.46661559088298,184.10963823203576,184.9512298232129,184.45938278704236,184.2904953145917,184.4914606655714,185.11857555341675,184.62149425287356,184.4091760657618,184.56322059217834,184.85019993848047,184.84582564575646,184.55880775419507,184.5121633528713,185.01869662229745,184.6801320943092,184.40894605490496,184.74889461340305,185.13098733003707,185.006297813152,184.58162012887388,185.20440348577156,184.84168236515322,184.24688288839593,184.63055130168453,184.57647598654023,184.38953243873533,185.0802445401415,184.91309359151683,184.51074918566775,184.66553136121848,184.7787155681731,184.68028541834502,184.62295458900172,184.34702690308774,184.10374760994264,184.38442114928458,185.12928709055876,184.72568070970468,184.28447057925084,184.3169864689244,184.8473886328725,184.45927057475654,184.55452178574163,184.3865350021051,184.7013678685007,185.21395295114158,184.84553999616344,184.80320190425002,184.5659885836877,184.5569431143459,184.9803205596341,185.2215002499135,184.40786860198625,184.32835820895522,184.90814292286458,184.93898643716142,184.4256036795707,184.7478006991664,184.61485061174395,184.6760315394626,184.99065276762704,184.47734937912003,184.61033941759462,184.69560216249377,184.85425303239674,184.85389809699203,184.60297158612238,184.45130341716995,184.90842335934798,185.37349722564736,184.48749139316044,184.2577721693243,184.9040827310472,185.0015779548166,184.63645425964268,184.55049535365947,184.468741604943,184.46934777598526,184.87442773054283,184.57165384615385,184.00367126849974,184.26877803765194,184.46649256883904,185.07854354296316,184.57549276255006,184.19551895825353,184.27376892124929,184.52466884238817,184.65891798891226,185.42247061090768,185.69026205613272,185.13174646039892,184.41563738504752,184.5206818269268,184.6518652829752,184.48518731988472,184.15590285758063,184.90836484296628,184.37211179885432,185.0296233274035,184.34727244748788,184.25630090671584,184.27581704366528,184.60929087832642,184.8450774805335,184.02366456059735,184.526410817871,185.07986419229138,184.1967854539875,184.8767419417101,184.74901824901823,184.16552463346477,184.7054045731003,184.06296352932182,184.87626010003848,184.90006554343216,184.30368239355582,184.3787141049726,185.0703969725054,185.2881788643045,184.4346205571566,184.1052974298081,184.1175500498581,184.39896313364056,184.26707312396948,184.15127437432827,184.2849472674976,184.39403351355497,184.12119586048294,184.9073945829486,184.84620123993992,184.6241314445852,184.7072889878325,184.4718137254902,184.49894615826787,184.46066426876865,184.38320260187487,184.82405131356583,184.83501825869692,184.80605734491505,185.01771615636434,183.9655211869255,184.36576576576576,184.73468369969694,184.69627298199825,184.5473014412757,184.33786110579683,184.52253012973057,184.8959630911188,184.6113287250384,184.8855704182042,184.4957838252204,184.20366692131398,184.80006915363631,185.21865844255976,185.24144178874326,184.04449451934462,184.5197166921899,184.50194998852947,184.56469550544563,184.9132658948421,184.49758509659614,185.11932935054924,184.40710204394676,184.17776499904159,184.16290371957754,184.2853691275168,184.7126295112275,184.0185816635378,184.67403293609473,184.60354915697897,184.07484742640003,184.46862503844972,184.60735299773103,184.40630762138906,184.35034954290543,184.12997123681689,184.08939039809954,185.08258084433126,184.74474878818188,184.51724800984502,184.58686546516543,184.44427387166104,184.1354270394485,184.63703218851072,184.26604026845638,184.36999539806718,184.4967162115451,184.24535102181665,184.0627849071059,184.90337624296615,184.79099703241224,184.42875796912205,184.2833524684271,184.84411334411334,184.45848015933814,184.6323834395883,184.58768263220463,184.62642176452505,184.76017196376478,184.23566051434904,184.59644816079168,184.3635529033739,184.80266134908157,184.9774100442563,184.83726107315576,184.41672732845484,184.57535351982784,184.98748122183275,184.46628049716128,184.57013939556853,184.6619420757471,184.57608279034113,184.9440376165883,184.85103846153845,184.89570599315726,184.64664825893541,185.34617609626287,184.8003686211266,184.32756314723528,184.6197166877807,185.33279320987654,184.830241579291,184.93272957519474,184.54866003062787,184.3802865329513,184.3820833969757,185.34953552017885,184.85389460746657,184.93977154724817,184.4802929223219,184.85395116323784,184.47407294018598,184.47120921305182,184.79247460757156,184.7851290533523,185.19058832612723,185.18885927299416,184.9436136591382,184.32397061074545,184.65564823000346,184.55980456276689,184.78328328328328,184.59973056197074,184.9078008714765,184.1881776041068,184.23043294857538,184.60265282583623,184.4632824808823,184.84934884796178,183.67364926739927,184.86036992701858,183.97135526366176,184.32287099007615,184.39750788400892,184.33262777093597,184.66873745948448,184.2017513538426,183.96806509806933,183.98662618654163,184.3194027553298,183.88672070064916,184.10589817483188,184.586522848527,184.47367201976527,184.36177829099307,184.10225830031163,183.74542040315782,184.41710778672805,185.2684356680037,184.96630857494898,184.6170819053487,184.63225657235373,185.1398157466904,185.0657818364741,184.86766126850384,184.11359361203884,184.17956002610666,184.20015358034172,184.67960528851714,184.3774232088488,183.88961786372008,184.63132306979975,184.3251951247645,184.2251122108413,183.73346094946402,184.40594173859432,184.159734224373,184.32254348577354,184.59441259091085,183.88641237745097,185.0358954501452,184.5607811416686,184.4635206338218,183.97220094960943,184.0696507887885,184.19827917338864,183.75810216185192,184.49268161158616,184.34573034573035,184.3763614671131,185.01993034055727,184.17682037903782,184.48863811431212,184.27128232758622,184.29358925143953,184.6786540240518,184.44590947644383,184.52568196683467,184.35879150371903,184.60746119563547,184.63486513486512,184.1254838833314,184.55303786773177,184.2385806253832,185.0348178137652,184.53726529201705,184.35573971761818,184.34925384585875,184.2711487600138,184.14745678255204,184.53947925079805,184.09276295614842,184.1476679963179,184.3610299769408,184.46692846692847,184.49277985290155,184.17761716196995,184.22987267761664,184.33233452422112,184.27845278375884,183.92886435935765,184.43354381641768,184.47755855544017,184.4514096950142,184.06136990499542,184.0045195143437,183.8054641463228,183.97501148017756,184.16610494063576,184.57514528730323,184.00168375937548,184.67766272758766,184.67092750163633,184.6064145561081,184.59295959284393,184.03551702976372,184.13050658678034,184.2417747335206,184.08767281105992,184.487408548325,184.33420556432063,184.19693822601738,183.96852235258032,184.22777756427502,184.71243064118372,183.94189965530447,184.0693566310304,184.31425833652742,184.28580201896133,184.14277505363162,184.65270822097233,183.94408297611758,184.17873693079545,184.39879281842298,184.6747557880163,184.49865384615384,184.46478873239437,184.61275433670525,184.95061823802163,183.78146505581893,185.06949211368632,184.8951715620055,184.50972941853772,184.4391291015026,184.02056024764016,184.79452950680925,185.005892774611,184.41980137275203,184.2697265251482,184.436644032685,184.43354927741788,184.54068674467678,184.43923118238317,184.93968143777238,184.92859346082665,184.41232592136646,183.397879804759,184.44159434759234,185.14297309833023,184.88619014573214,184.07555980861244,184.57588701608557,184.47583900357515,184.57492884068006,184.05341700466826,185.00046257034924,184.51237481293887,184.97192008022833,184.6349571960536,184.0809396485867,184.5766207874861,184.65360531673772,184.05638594747506,184.4864854502933,184.68052347959969,184.63421760861206,184.56558446542329,184.73835690132185,184.60268286120615,184.4795566124578,184.64332191121548,184.77197103905107,185.06016172089605,184.34240092343208,184.83725702780143,184.95056475321059,184.94101275608813,184.9657711135952,185.1253131866014,184.86781631317604,184.82892151196393,184.4756205503175,184.38623952003692,184.33961901096788,184.30680507497115,184.63654587509637,184.47314065510596,184.28861897989776,184.76585799273738,184.77485493230174,185.04078467860742,184.77210778999535,184.59259259259258,184.43511568521242,184.2076979500444,184.99083032210436,184.33344959888385,185.1250972762646,184.6388071262587,184.74158000931243,184.93911489295567,185.0563019336802,184.0743938634699,184.84618370991538,185.0138048704824,184.71961352657004,184.90530391018197,183.88027033253974,184.46308257590408,184.6240455796287,184.41192600316688,184.36540319153048,184.4142027863777,184.0424097684989,184.37412519815953,184.1136074116966,184.01275579020387,184.8981057371322,184.76086788366337,184.64468355894945,184.94373480492416,185.2376893572508,185.79083116782377,185.15648016041337,185.49393307056187,185.4792109022121,185.57078946353505,185.71932054541253,185.16873249165354,186.13523544421247,185.48505941622122,185.7863333461731,186.05528920507268,186.1199165797706,185.7801876634364,186.02711551053423,185.85661581030706,185.530844342332,186.0201981414638,186.63055652106746,186.33542380054635,185.8251119360147,185.8718576621389,185.549549893195,186.29627498369587,185.91815856777492,186.3235655108929,185.89333180568286,185.76847403340196,185.05309364548495,186.33627334432643,185.7829510703364,185.49641358260206,186.34203434203434,185.10025873221215,185.71187478473843,185.7774668404508,185.50225276823215,185.5008202037157,186.1050084498387,185.86472819216183,185.50114556285322,186.15146855297556,185.85870231346715,185.53997709049256,185.5455308114704,185.7703281572707,185.4537805484377,185.23950268868464,185.66979433955038,186.03604121184267,186.4406844543123,186.69869750643562,185.67263133746272,185.50639630350938,185.324855844503,185.25915740422442,185.58026916145855,185.3616035532412,185.430705584923,185.61441068139962,185.5567532318079,186.0629639601523,185.49005251657914,185.62148170871998,185.7483492014742,186.23974190557144,185.66633339742359,185.74788846465347,185.95477037266122,186.1585766776252,185.91833899351653,186.33232464307883,185.65925582831557,186.32945510955983,186.56269470404985,185.91845975232198,185.84182191409428,185.86607799852834,185.61955850571164,186.1175031075202,185.91997986914947,186.34447340777342,185.59562292166112,185.93760434867016,185.25737224023467,185.70536683728866,186.09581861241605,185.3057292873137,185.29253408520336,185.5876148745589,185.25809310929552,186.0569484936832,185.5288565681572,185.80106152177282,185.5100982743945,185.73824384570653,185.83389528349417,185.63602926942585,185.29885590599875,185.07047044725346,185.20912885522145,185.3116551109734,185.37229420436032,184.53047064718805,185.3703689410312,185.728296936492,185.45211581291758,185.91701595846953,186.28532953714748,186.09325472781563,186.0735828141126,186.96278049343752,186.8735185470217,187.21659287776708,186.61809874836828,187.41694666512186,186.5936401161902,187.25907654359054,186.9638683886839,186.6310418904404,187.0716484531322,186.43692555147058,186.45790923700926,186.7261744450002,186.24851276146612,185.98279825300745,186.03634969325154,186.42446043165467,186.332,185.92946281150404,185.6186212726714,185.4345753066482,185.3198707592892,184.61570865086355,185.30409108452335,184.94027729769175,185.05137579372715,185.31291492975143,184.55263662511985,184.4789326381168,184.51254315304948,184.6618901267768,184.59807987711213,184.67729802341202,185.27006256275584,185.11240459486547,185.2619497704564,184.91578137028483,185.1441024454216,185.2300721144576,184.99619874059283,185.29107818167785,184.93726228437512,184.6105520909056,185.00042320714067,185.1774609901753,185.62210717459337,185.36893579187443,185.17731807850842,185.06304121925874,185.14074159550734,185.29043069573927,185.2521387283237,185.31636195325157,184.81739363946753,184.92793034673213,185.46860554699538,185.63202995329448,184.4574993302461,184.76771970132108,185.32196925921644,184.74193672246966,185.19922400215128,184.5203165016628,184.90790433413952,184.9657329240215,184.86258309956577,185.09454363552408,185.4131708821715,185.2095935272587,185.19901360151042,185.58122729731818,185.05097134064243,185.02641799653912,185.70873147897404,185.07028938165328,185.01012464046022,184.8678094799816,185.08272786683582,185.36974434005853,185.34214780600462,185.12584027964508,185.29080848447586,184.89297761422876,185.13398692810458,185.01700836980726,185.04966252492713,185.35091963291478,185.6837449034541,185.17913936467792,185.257176804262,185.58690544964375,185.51846171542502,185.84233818209805,185.48609724249175,185.42578410621513,185.23793023793024,185.06332910370284,185.42309915603684,185.06792641625617,185.69522520780978,185.05886200130806,185.26559185405176,185.22851863258393,185.36809059743462,184.9732677830696,185.07046799354492,185.04702989318375,185.40161060378375,184.8838102554254,184.5833972392638,185.00892960240176,184.65469115448028,184.94829707080802,185.0907936263567,185.0374170652677,184.74619172180334,184.67921547472255,184.7158823756118,184.69167211098727,184.5611848432391,184.87681047765793,184.76178373382623,184.58384902179344,185.0168057487251,184.99255113855654,184.55376158074807,184.77620221948212,184.4575977847006,184.662281713978,184.75478381396064,184.72825291693943,185.1692586732528,184.80079191173644,185.12258363236487,184.89890194567522,184.81468935252906,184.68209247799516,184.0582253316512,184.86980673533157,184.72914659988442,184.17726226993864,184.7222564972623,184.86858355847164,184.94652158814677,184.09841841228507,184.47213794692576,184.72764712674646,184.64430948994888,185.2468727146761,185.53556146640454,185.4641366517236,185.07311827956988,184.57491956488434,185.01912916039956,184.86302426978432,184.6106109572176,184.46111281893636,184.9766758209879,184.9266232012654,185.30743935935627,185.41535837500484,185.26385071044174,184.8671501311526,184.95403098080118,184.7377093358999,184.77573373442863,184.69544632202934,184.9341234415884,184.9113309975744,184.85906272863798,184.59357488293543,184.14672272119245,185.15328889060152,184.92544551787844,184.98269749518303,185.16543990134494,184.82697631498002,184.78662163718002,185.23735153478327,184.73450920245398,184.958939989215,185.45963883315326,184.61238109849648,184.9817726396917,185.0623291626564,184.9689901525391,184.85713183974087,184.61343082547623,184.67377472718158,185.34043048283885,185.01272579584574,185.24968963376784,184.95518521382724,185.12128349679512,184.6688246628131,184.88827527612574,184.39257640246942,184.1949366121888,184.72184417768943,185.34282097510453,185.41557093425607,185.08137973372214,185.3137737445205,184.6616892564515,184.7864185689622,184.57900387255089,184.8810420348882,184.41043205388237,184.52581225364509,184.7901480856288,184.60805214723928,184.3424903526535,184.9269725475139,184.51851993279365,184.78395061728395,185.0502973335891,185.3390999460584,184.69461673941342,184.7001148545176,185.06736228325917,185.58097696278602,185.36363287102847,185.26900315117976,184.48019839755818,184.7064901270473,185.3512641204949,185.44386714390177,184.61447257706723,184.59265767658633,185.16837656099904,185.03435319377348,184.45202713001066,185.37866205305653,184.6105492156788,184.71347907367135,185.23721161571717,184.88375650045884,185.07374698933364,184.59899482180933,185.26950463211085,184.88763830599007,185.37025814122973,184.99934925738785,184.47938320959452,185.58991118458994,185.60330451488952,185.11583144818067,185.0992986624765,185.2334982548997,185.28191468976354,185.03379051413685,185.08173353258996,184.62402656894182,185.14326306493106,184.70942128569249,185.06350964292534,185.1236561196771,184.8287878208316,184.86192149075913,185.2306953883961,185.23175308263765,185.34680663576108,185.17788571865677,184.6696605267164,185.19700681313634,184.93657101371747,185.0076911303283,185.1100275355668,184.62901380520174,184.5631442315034,185.10038683978703,185.23473260494538,184.18631887143997,185.29575841401567,185.02416328406218,184.7378380448939,184.72159613615455,184.72916826370258,184.86833122387145,185.05430194182208,185.11787524965433,185.23298881930305,184.97246193380124,184.4647989604036,184.66903941829315,184.92116246123214,184.82962338607717,184.52916459757822,184.99053059346727,184.52503057169062,184.62967499904298,184.61958063403227,184.57446401225116,184.3881903305943,184.82008512596343,184.64422303123203,184.70032260542285,184.28667203003485,184.81814331369605,184.87360923965352,184.36019030079802,184.72714005914204,185.1780229956015,184.67475802734674,184.83988764044943,184.9047912020303,184.8486667436223,184.4445892590179,184.51258861850928,184.7466072046442,183.88144133139934,184.87021080166178,184.37566016073478,184.88313090418353,184.88854644219285,184.09085349539427,184.79246082168572,184.6199531328032,184.4882873902542,184.56395103419163,184.830885180343,185.21964492473947,185.3034115467737,184.38127180037563,184.56986396126354,184.98999923071005,184.40992837170108,184.91188122620102,184.49563151440833,185.10023121387283,185.39515132798024,184.83662242738987,184.6246400737129,184.7910528137862,185.27803106405997,184.70349978824163,184.6968297937827,185.47476389533983,184.39881842943186,184.61706379707917,184.73594273178617,185.04788156829486,184.8548765931231,184.58353185276263,184.39267075978512,184.70404277416625,185.0785637149028,184.66342979964688,184.59339984650805,185.13113555931682,184.47638006278234,184.8840400925212,184.8676719495307,185.48752703120172,185.12770236299647,184.94646977388095,184.9576937909757,184.8567133109749,185.19450341606515,185.43067422712443,185.33263695450324,184.68164491163222,185.033426183844,185.7202941405338,185.18148004649362,184.65859115808965,184.10728380397717,184.7137445887446,184.53601204261233,184.4896535778968,184.3564135167418,184.89337922499806,184.69675257136254,184.66248746238716,184.87029320987654,184.76853101029178,184.87790742601035,184.5614190516544,184.38372896980871,184.7560148056755,185.34899199009402,184.90145844586775,184.9916872873492,184.54102149295124,184.54900073164157,184.17004422226495,184.52044938632605,184.7374624451121,184.33660971395662,184.7293514305545,185.37367484330264,185.19091994300896,185.2331959477678,185.56790171154813,185.22810785930727,185.9180030840401,185.2562712382116,185.52152634396268,185.70569765660898,186.1102232125706,186.2586471944658,186.0819960936004,186.36716521470973,186.14698516663455,185.70649420434484,185.62493301691802,186.15195419084586,185.6639231299288,185.6772144633633,185.83515976467874,185.61928875589825,185.56251199570073,185.6326020976603,185.2453783442416,185.20161568207052,185.64912280701753,185.0607421050612,184.9895458374818,184.98872310229757,185.5600755036789,185.68621089223637,185.03921342704612,184.91015415292583,185.3795687766632,184.92042318307267,184.61594951233505,185.10061443932412,184.6514560880532,185.0023806781093,184.925235794801,184.9770538352327,185.39275937849405,184.95704460752296,184.9681765834933,184.8421900778882,184.26635139773464,185.26110233794245,185.23742059672762,184.9191535123094,184.6751936795275,184.91406519986177,184.9378341988844,184.88443812888855,185.53032761551538,184.81651129780948,185.32217428153172,184.7623800383877,184.89910796677944,184.39387224938875,185.21795710930581,