-8.241210486717063e-06,0.0022940792237872293,0.004175237871292935,0.005318213297267468,0.005598151492679044,0.005127359941284894,0.004224353780000735,0.0032971849911136593,0.0026779649256880723,0.0024849678467062475,0.0025865347381719087,0.002689444711287506,0.0025036994737397114,0.0018930682100809647,0.0009337522247503259,-0.00013983385341042034,-0.0010610802554390623,-0.0016555609895785935,-0.0019006121914725217,-0.0018990292332930606,-0.0017944050464676156,-0.001684135254207646,-0.0015800146892728049,-0.0014315775040869118,-0.0011869473053162352,-0.0008456331534060163,-0.0004692219333271271,-0.00014927542775362498,3.855437829829991e-05,6.140092937720245e-05,-7.338164252608873e-05,-0.0003350395996011778,-0.0006805440397481739,-0.0010567438146938208,-0.001405717585013597,-0.0016807566915965407,-0.0018627268763469285,-0.00195935970011235,-0.001983412994261989,-0.0019252815080984878,-0.001741744527601992,-0.0013713686660689374,-0.0007700738241218548,5.1046153179818777e-05,0.0010059374408002966,0.0019461714551089492,0.0027065378846308445,0.003166067073460473,0.0032940044873148075,0.0031546196080734527,0.002868136475695821,0.0025523844207930423,0.0022793369013507994,0.002064889037153672,0.0018839322677024447,0.0016892827812855817,0.0014217774557541895,0.001017779320198961,0.0004284153617536701,-0.00034748964495188647,-0.0012360272953580935,-0.0020931152233729833,-0.002750642203908384,-0.003082121461871923,-0.0030493145816442016,-0.0027043632856405646,-0.0021543794760733102,-0.0015192973855222424,-0.0009093093855431014,-0.00042176369418849523,-0.00013580694116560252,-8.838573236299042e-05,-0.00024267744193598624,-0.0004810679090876354,-0.0006449236227922231,-0.000607785255253882,-0.00033852810749498963,8.621919804465382e-05,0.0005276485672417977,0.0008585793497562894,0.001021501764298717,0.0010411965380547742,0.000991578276983508,0.0009414794672496334,0.0009122121670924917,0.000869238831770181,0.0007490108754906839,0.0005024853352530957,0.0001296295386665463,-0.0003127037142346186,-0.0007303625951385825,-0.0010257895014027245,-0.0011297754238902408,-0.001020627562736208,-0.0007277648222597704,-0.000320289555114546,0.0001173657679647091,0.0005164186723866414,0.0008486351231104848,0.0011302701175453164,0.0013982162057480877,0.001668462347160957,0.001902660971194372,0.002009595198652476,0.0018888353154121462,0.001494213228322423,0.0008767289896492022,0.00017592114437048724,-0.00043935364173740884,-0.000847818408393557,-0.0010271235494740058,-0.0010529456106254456,-0.0010500745398568222,-0.0011254677001578256,-0.0013194117767529392,-0.0015961846316849774,-0.0018714777597761741,-0.0020560445026392505,-0.0020923462972720665,-0.0019706788599921916,-0.0017240079632025185,-0.0014088026164960404,-0.0010809935426511724,-0.0007749209272585908,-0.0004917616067868788,-0.0002021884516847255,0.00013632774123678408,0.00055422964419264,0.0010488434650958237,0.0015786033674372512,0.0020748728976963922,0.002463804306682297,0.0026871163695644197,0.0027150582945338403,0.002551339166941421,0.0022317477159454094,0.001815512326642327,0.001367430676719992,0.0009340279654106258,0.0005250792952252502,0.00011406121440436353,-0.00033774709647345184,-0.0008445647715122807,-0.0013693215090367986,-0.0018265820552962398,-0.002117795910208448,-0.0021803603627069353,-0.002021247485359387,-0.0017136251177084397,-0.00135722319067897,-0.001026587584397394,-0.0007401310574417469,-0.00046934717271921323,-0.00017935381244121255,0.00013077245062395777,0.00041866671709353456,0.0006267558537061363,0.0007250161757522224,0.0007345176115320531,0.0007129239532771773,0.0007122673896563984,0.0007401905419343337,0.0007530934267441622,0.0006860149444499609,0.0004977038831095537,0.0001995736012099358,-0.00014960782749252384,-0.000476256549086696,-0.0007266443541522154,-0.0008802927941918769,-0.0009373209896711754,-0.0008955612966502578,-0.0007401545276281701,-0.0004566123040130178,-5.742224942713488e-05,0.00040090772670179015,0.0008279434229280307,0.0011341710723600227,0.0012696791767766447,0.0012426506434463983,0.0011073152857109694,0.0009306975225257348,0.0007594187636758523,0.0006048187003038768,0.00045036237301022584,0.00027084839323036295,4.843250098305577e-05,-0.00022249806614514514,-0.0005382983379526929,-0.0008877166376006962,-0.001246966425932948,-0.0015725354725887285,-0.0018021152595238247,-0.0018703146971476626,-0.0017345885943896389,-0.001397128166532682,-0.00090873583960195,-0.00035159689746707985,0.00018885663162237498,0.0006475209722334967,0.0009891758312586885,0.0012053812607286723,0.0013063227598501834,0.0013134504401655196,0.0012535336577655745,0.0011525690474820274,0.001030184046302468,0.0008974480160207557,0.0007594076474912924,0.0006194870621728478,0.0004806792693248668,0.0003408111333038839,0.00018479883695065533,-1.794802157441223e-05,-0.0003025133273597641,-0.0006832322240693906,-0.001126833336971242,-0.0015448013199826941,-0.0018185922734980926,-0.001850099362287176,-0.0016098504286382886,-0.0011535960734706382,-0.0005970112184651074,-6.428989743665443e-05,0.0003592594719629401,0.000646793934566739,0.0008181695278508632,0.0009118939713875693,0.0009604968279522297,0.0009799113875004412,0.0009712016428405858,0.0009276725198451526,0.0008428801534235342,0.0007183614023429318,0.0005686665906481392,0.0004181402863948438,0.0002859396608905979,0.00016532830428477746,1.33254025364109e-05,-0.0002336711901556491,-0.0006179792812003027,-0.0011137915673013234,-0.0016080920786874632,-0.0019312406649541005,-0.0019300924446712052,-0.0015475776603569346,-0.0008637364520253618,-7.149922183474246e-05,0.0006042084274528276,0.0010038891205716954,0.0010977168334663958,0.0009846013829988179,0.0008288394702399963,0.0007696411132444887,0.0008516646254192361,0.0010114735599657879,0.0011233125632472787,0.001075396720204342,0.0008327710582612348,0.00045276222813031314,4.788693085962161e-05,-0.0002785365659974989,-0.00048518089843150214,-0.0006051288543172459,-0.0007142714838280248,-0.0008758476461917308,-0.0010923728433516724,-0.0012922868032679549,-0.0013622294459151624,-0.0012117518610767475,-0.000835597214748624,-0.00033408065263610754,0.00012717830646746432,0.00040025303761737253,0.00043392118926749673,0.00030155382184470034,0.00015984397463506797,0.00016045191693346344,0.0003635782356730733,0.0007015839433947798,0.0010135042538698404,0.0011325621902436526,0.0009791454659716305,0.0006074770301669813,0.0001788147844098073,-0.00012495065764044468,-0.0001988926822162531,-6.845595053270748e-05,0.00013060905194103368,0.00023153141823803024,0.0001274226329920176,-0.00017653563867498466,-0.0005730633041931845,-0.0009118880390914985,-0.0010717389842786142,-0.001009080733054672,-0.0007652506119645488,-0.0004361124147540564,-0.0001241062018755867,0.00010374481321764103,0.00023562190674963077,0.0003084748057427469,0.0003816913558914761,0.0005027616925630898,0.000678718103453815,0.0008662807964318203,0.0009881645976832876,0.0009713077889414536,0.0007889249910451369,0.00048196538006558577,0.00014426128069136915,-0.00012371307844300872,-0.0002679256890866762,-0.0003104981436927597,-0.0003377244536094049,-0.00045057645990182783,-0.0007028763646854748,-0.0010608518729676576,-0.0014085364721975768,-0.0015997585734473675,-0.001531226680256065,-0.0011976340370081842,-0.0006979655311735693,-0.00018862530558421168,0.0001916094623009618,0.0003846630538669469,0.00043145106764060163,0.0004374839931040094,0.0005064953803926038,0.0006798915734964267,0.0009159763615909527,0.0011197275100731214,0.0012043647126748578,0.0011475422756486952,0.0010087303319120176,0.0008973723352678863,0.0009092657183906766,0.0010654319776813566,0.001285981938184555,0.0014141484555042201,0.0012819317613376956,0.0007889001395412465,-4.20470651122293e-05,-0.001059413221155069,-0.0020330417734850826,-0.0027374877483959397,-0.003030948084839942,-0.0028953990748268404,-0.002424385915523965,-0.001770516071173408,-0.0010813110073918915,-0.000452854871581046,8.217234556712498e-05,0.0005341662094026087,0.0009214400327534282,0.0012426230448360426,0.0014712988569590994,0.0015721385210344073,0.0015245435799382707,0.0013371488768061384,0.0010451908077620518,0.0006955522887209377,0.0003316582153335664,-1.2573107894575805e-05,-0.0003101574846042203,-0.0005374766931412235,-0.0006759598960797603,-0.0007179581051883584,-0.0006706030591285771,-0.0005532584496437835,-0.00039019395668862437,-0.00020396623567012396,-1.3511335043030876e-05,0.00016361217524334207,0.0003087764235384084,0.0004034811345716433,0.00043502714621835816,0.00040376029125125637,0.0003268587418627522,0.00023461405897198806,0.00015916303558867527,0.00012069972459850808,0.00011904619598077109,0.0001363742647645033,0.00015003037626103668,0.0001469065162407121,0.00012865791788265065,0.00010330123520926544,6.936433624046228e-05,5.360442871223787e-06,-0.00012537513265280378,-0.00035418282146248254,-0.000680466329440556,-0.0010532082303136658,-0.0013731662514978238,-0.0015211701376530399,-0.0014064001623241044,-0.0010153431814561211,-0.0004344064340909096,0.0001741207180737727,0.000639749976909105,0.0008634985308453709,0.0008643749249099398,0.0007626707838176432,0.0007077324988490087,0.0007928347833144933,0.0010070284719093676,0.0012485948722044727,0.0013860250448078002,0.0013272007642646465,0.0010596750399973474,0.0006476320920307916,0.0001957743266033222,-0.00019711758304283912,-0.0004739423626672048,-0.0006329669861906087,-0.0007184551672329694,-0.0007946795301688257,-0.0009136896472507233,-0.0010884653209598857,-0.0012820914650046912,-0.0014193555867771453,-0.0014186298185511113,-0.001231225324799276,-0.0008689549474612133,-0.00040451862733314895,5.684005059056999e-05,0.00042030729484027267,0.0006375948988358092,0.0007195724508982681,0.0007217732320127985,0.0007120533798919311,0.0007368831962584984,0.0008020560679705055,0.0008755268527626215,0.0009084262991632309,0.0008617240448620053,0.000725358758703122,0.0005225144106461449,0.00029881271568151993,0.00010131251255422096,-4.423937411311804e-05,-0.00014723366423773679,-0.0002480167047665375,-0.00039446200799430844,-0.0006097353909873261,-0.0008695430936238634,-0.0011041005729753588,-0.0012263237441140615,-0.0011718007506155421,-0.0009288236632069874,-0.0005432016518359052,-9.782353710988606e-05,0.00031991918776410244,0.0006464742603026559,0.0008557345538197213,0.0009562177724189972,0.0009767035081629579,0.0009481292917683128,0.0008894512946186397,0.0008026676094240461,0.0006777646849813214,0.0005034546022800233,0.0002769104070859755,7.324630479342087e-06,-0.0002870212090134803,-0.0005842322761797852,-0.0008623848912105245,-0.0010996545361060526,-0.0012727411997312554,-0.0013567867845859928,-0.001329183720408444,-0.001177378766023697,-0.0009079242273090731,-0.0005518960760706841,-0.0001619560435741356,0.00020047544203461885,0.00048443026427652796,0.0006672295237700721,0.000762262048409537,0.0008116407554053552,0.0008657868595883193,0.0009588826102471908,0.0010914391320033757,0.0012276532479071158,0.0013085646519012215,0.0012759408156816795,0.0010978311306142942,0.0007850580171391704,0.00038977990387230614,-1.569175661160515e-05,-0.00037077650506297404,-0.0006516199967607735,-0.0008729757711466012,-0.001064319002182736,-0.0012360316952064793,-0.0013613246975838226,-0.001390701411174142,-0.0012914548696125482,-0.0010823440186614962,-0.0008329446912326887,-0.0006224913963854364,-0.00048591400070514606,-0.00038784047886882174,-0.00024645118045566556,7.3087160883289655e-06,0.00037535001387024695,0.000779924194183685,0.0011021335435109918,0.0012479917431544901,0.0012015974371247583,0.001032956771835642,0.0008554037313644522,0.0007579744880711925,0.0007532534126977846,0.0007717242174139604,0.0007052887075717704,0.00047334134955957004,7.298828553812262e-05,-0.00041334405701077485,-0.0008542493374677083,-0.001128351778039973,-0.001176191113264951,-0.0010217838937370178,-0.0007563069122487446,-0.0004932714888337614,-0.00031646052242604076,-0.0002447883926976051,-0.00023059621318181363,-0.00019177522754632042,-6.0495176521013826e-05,0.00017784018048781183,0.00047596558064395817,0.0007491255876911953,0.0009165377110775355,0.000936408425531753,0.0008177503325003672,0.0006071751851815451,0.0003617694487479433,0.0001236174398090815,-9.245425394760809e-05,-0.0002946628330493137,-0.0004984384301983233,-0.0007085902446831189,-0.0009090440224563386,-0.0010650624790582775,-0.001135878565474314,-0.0010904569944577077,-0.0009189172860471567,-0.0006364359063408458,-0.0002809692801053192,9.30209997744706e-05,0.00042501983983058865,0.0006642381185613086,0.0007879614744992466,0.0008134199908428943,0.0007926476744391602,0.0007877378364023163,0.0008372496500547872,0.0009328854929150619,0.001021416475264411,0.0010324848213699497,0.0009179525164486817,0.0006814828273105647,0.0003808946754382627,9.896387031966414e-05,-0.00010382175757605477,-0.0002273168095254872,-0.0003345556670262021,-0.0005131881063415926,-0.0008168328998605961,-0.0012228842551671708,-0.0016337403652463517,-0.001920446851753735,-0.001981648110761418,-0.0017843245721912838,-0.0013682168732443074,-0.0008197435778792787,-0.00023632913062642934,0.0002997766545535783,0.0007321646695386934,0.0010309062405002144,0.0011907407393285823,0.0012294166007427167,0.0011839664976893201,0.0011021146254214138,0.0010289001388418043,0.0009922854300355563,0.0009935539796646718,0.001007037696542355,0.0009894293295377823,0.000894524351113649,0.0006880105518249855,0.00035909776533594973,-7.198952570625593e-05,-0.0005523690817640092,-0.0010046430289975905,-0.001347423985651703,-0.0015235294502158965,-0.0015226446754426917,-0.0013841941355688355,-0.001176143226624238,-0.000960443383117361,-0.0007647763049144719,-0.0005764238596481046,-0.00036035112541901216,-8.941598754344125e-05,0.00023139869796425148,0.0005602936545936707,0.0008356985950694744,0.001005517220729406,0.001052733891855258,0.001003586665773414,0.000913727921617275,0.0008394090039710215,0.0008087384390691886,0.0008081660462449822,0.0007910984746378623,0.0007032533056550874,0.0005103199238878166,0.0002133253942518465,-0.0001545832131953734,-0.0005453147449207438,-0.0009154167168174377,-0.0012366681303316318,-0.0014925975967135588,-0.0016649997361972472,-0.001721970688493908,-0.0016199274726172847,-0.0013242199139178957,-0.0008396100770383334,-0.0002314768906630368,0.00038061333061350914,0.0008613721903488172,0.00111469974419053,0.0011263790793922238,0.0009697932069513456,0.0007697487724131711,0.0006430618082166028,0.0006470629209028361,0.0007614329295930736,0.0009093413650304192,0.0010030137824109367,0.0009881134062651807,0.0008648105247990875,0.0006773108074516069,0.00048019568545525635,0.0003016200157090196,0.00012493580530247548,-9.964200205997488e-05,-0.00041884880139047675,-0.0008363892300978228,-0.00129381556874815,-0.001686052311861269,-0.0019052977040816934,-0.0018899679582709574,-0.0016521577375927753,-0.0012695880561963099,-0.0008478459066994439,-0.00047376583325367734,-0.000183362593990181,4.1748837171361023e-05,0.0002506231664131054,0.00048627770085132936,0.0007559235913861522,0.0010236789157817595,0.001228891741306639,0.0013190899122448563,0.0012786230829760117,0.0011368356898416533,0.0009515594415066297,0.0007780498026016726,0.0006417907917514797,0.0005306518171116163,0.00040939745703214833,0.0002456726981854327,3.063402747899928e-05,-0.00021703238854487353,-0.00046289893283086594,-0.0006742465301919228,-0.0008320373340591645,-0.0009322061190204635,-0.0009784630083484287,-0.0009729979864883165,-0.0009112592322699767,-0.0007839799957742115,-0.0005858458241329946,-0.0003265412274470374,-3.726488730973227e-05,0.00023384648920847425,0.0004387597161817665,0.0005517439461967116,0.0005830141075538009,0.000572632550459822,0.00056568641399149,0.0005835091222318359,0.0006098559409198649,0.0006013182332518359,0.000514834004638442,0.00033419201264531944,7.950031974633784e-05,-0.0002039084241623179,-0.0004675420668650799,-0.0006782592982192211,-0.0008235851678089506,-0.0009039035964506068,-0.0009196081774100752,-0.0008635548216807004,-0.0007250121699190258,-0.0005031296971229319,-0.00022049200964799576,7.440319596708601e-05,0.00032097040440882854,0.000471444506885073,0.0005135750098577449,0.00047790007983592353,0.00042467376231791623,0.0004164346935318777,0.0004894553235554855,0.0006377981189189237,0.0008175889740655161,0.0009687476368025875,0.0010416860780429608,0.001013964437244222,0.0008896372575020612,0.0006865617796581855,0.0004236989565783784,0.00011632237254722323,-0.0002220916793593629,-0.0005768824960757756,-0.0009306238312245447,-0.0012611273643433995,-0.0015381033914484555,-0.0017223602158918834,-0.001773287981663318,-0.0016651748046501444,-0.0014040957276856849,-0.0010327740790214168,-0.0006163705723729082,-0.00021504256550444682,0.00014013088721692872,0.0004517421806697449,0.0007377764084223888,0.0010034148793598508,0.001223728138673314,0.0013510708251892537,0.0013437143652399077,0.0011969778621614563,0.0009556093853191936,0.000697918588803963,0.0004999150338078241,0.00039969212637578104,0.000381241566610015,0.0003847285318034497,0.00033609805285906365,0.0001812738124873219,-8.907683770831244e-05,-0.0004329708107102463,-0.0007710896544965034,-0.0010166620232810062,-0.0011096063851711263,-0.001039746566149384,-0.0008475945500087206,-0.000601738335352911,-0.0003641101850778177,-0.00016182697377874102,1.7694230977310944e-05,0.00020393298661712436,0.0004062004232013774,0.0005883856491190869,0.0006779778471446452,0.0006102621019995708,0.00038151544768721306,7.249799496030396e-05,-0.00018174388577770948,-0.00026451981472696575,-0.00014958120085184877,7.478558530259344e-05,0.00024912382294383327,0.00023068227992798,-2.580701961221515e-05,-0.00044195705605973073,-0.0008576943701513345,-0.001113832142036996,-0.0011263252615597212,-0.0009135570566149915,-0.0005697665539976787,-0.00020814558252017036,9.175690533561991e-05,0.0003079170394999362,0.0004667736493006694,0.000613491445346149,0.0007798660696413471,0.0009648580769310053,0.0011346244238866821,0.0012399367471595728,0.0012413470772469843,0.0011286826516742575,0.000924309579955076,0.0006694567790275665,0.00040401972943460314,0.00015363468812906928,-7.005746289385042e-05,-0.0002620418330156844,-0.00042024737583782473,-0.0005496473530738916,-0.0006674733234211618,-0.0007992285382758069,-0.000962741064508711,-0.0011496213985581001,-0.0013190814846478264,-0.0014123751715340433,-0.001381704372401611,-0.0012163879046650596,-0.0009498263018061458,-0.000642568657417527,-0.00035127798926858805,-0.00010167180982677954,0.00011871092696830892,0.00034355820032022264,0.0005970499688864924,0.0008689389556621654,0.0011121017023739397,0.0012652783119228201,0.0012875924076794596,0.0011835650494123715,0.0010030369602754934,0.0008163182371733075,0.0006803026071924721,0.0006154114177054753,0.0006038619698698707,0.0006050265817482622,0.0005747048711917968,0.000477193400575168,0.00028853558700534985,-2.332018658008153e-06,-0.0003876600415518342,-0.0008313131465779043,-0.0012652633961582845,-0.001602030554881648,-0.001762763445249018,-0.001708043722864565,-0.001454239312972988,-0.001066182424119576,-0.000630909716070352,-0.00022666951691577682,9.943296501380128e-05,0.00033947192814055995,0.0005191584702928433,0.0006810844626662481,0.00085999476551626,0.0010578405079142016,0.0012316352697183761,0.0013054911891192678,0.0012064709742923966,0.0009081588633340444,0.00045722714899975784,-3.5633695043890364e-05,-0.00044007412214872347,-0.0006644573050866738,-0.0006973432618893154,-0.0006093984427790868,-0.0005143589319996659,-0.0005095214816239964,-0.0006264395573102738,-0.0008161222856711886,-0.0009743404520851998,-0.0009923239617935426,-0.0008071675806452746,-0.0004293660909733376,6.181023471211046e-05,0.0005495199445765869,0.0009220825883167224,0.0011102724205233876,0.0011064269485443266,0.000960328859777949,0.0007551914203375783,0.0005736507673473256,0.0004668802269568071,0.0004388596540519945,0.0004519530324663801,0.00045058551396368485,0.0003911267448553588,0.0002629488972846038,9.010513734780768e-05,-8.674623706517797e-05,-0.00023745516186483726,-0.0003618640617025011,-0.0004887835645569823,-0.0006541990465356146,-0.0008721252200999379,-0.0011166274337474427,-0.0013264349018490545,-0.0014295888916609988,-0.001374234675563186,-0.0011495965766605898,-0.000788429603986554,-0.00035328572970443344,8.364993069684206e-05,0.0004579705891256192,0.0007248127117296221,0.0008669616232479025,0.0008998478070848872,0.0008689834404703954,0.0008345406544578147,0.0008450435561001332,0.000912438587510442,0.0010042662322184703,0.0010603310135269225,0.0010261314481684167,0.0008840223774050208,0.0006634497452961622,0.00042350920320061256,0.00021738950690356018,5.938518882359521e-05,-8.544003530985584e-05,-0.000281006467706784,-0.0005787114810082884,-0.0009773646683511254,-0.0014090348033866736,-0.0017623555562353455,-0.0019325544352652429,-0.0018696144908345472,-0.0015962574502176715,-0.0011872560434085762,-0.0007268284147535845,-0.0002729219266779512,0.00015160021246272927,0.0005418377397506145,0.0008857730325822697,0.0011518329846735246,0.0012988402947882755,0.0013020665674535995,0.0011774171036638616,0.000985274736558374,0.0008072766629950408,0.0007067808013396477,0.000695788318090272,0.0007290562837943681,0.0007303857227709779,0.0006361485024288329,0.0004298902607215668,0.00014711720144614275,-0.00015164763946640724,-0.00042085806983891094,-0.0006557166280944072,-0.00088582154792194,-0.0011403031220927524,-0.0014079489495813918,-0.001621056956013619,-0.0016782416185237821,-0.0014969710110670944,-0.0010665966030052724,-0.00046999702774195516,0.00014148945215820515,0.0006094292619387826,0.0008354516853420855,0.0008203000654324436,0.0006559620144426712,0.00047716938141303435,0.0003990666721175386,0.0004719358151655641,0.0006707966291940495,0.0009176514157813672,0.0011194796200071594,0.0012020321458689244,0.001126663816038041,0.0008891736633611273,0.0005092328230413049,2.1562515106870713e-05,-0.000525188784882019,-0.0010648775835798573,-0.0015147192132599972,-0.0017881706651104365,-0.001819115293103819,-0.0015875261202711564,-0.0011335629608107104,-0.0005516962140710538,3.455592128448178e-05,0.0005086569756889165,0.0007954076585944089,0.0008818896552956295,0.0008174159535419463,0.0006915619888782651,0.0005973974178660462,0.0005938670457863477,0.0006829850763007573,0.0008117351132458932,0.0008973699590249708,0.0008641984888263044,0.0006756829400774144,0.0003490788352699919,-5.2085080550781e-05,-0.00044354835678464,-0.0007527849390587105,-0.0009444444980718377,-0.001027916047007043,-0.0010445183581715514,-0.0010414174703608976,-0.00104539009920501,-0.0010492810026946201,-0.0010175578833134316,-0.0009074793202692709,-0.0006940317075854491,-0.0003849688126294204,-1.8389256197096906e-05,0.0003543763708625076,0.00068960611908222,0.0009638064805651742,0.0011728531134024985,0.001321784002170538,0.0014143845009389564,0.001449177229811855,0.0014218564752496725,0.0013297393982492412,0.0011741856773743742,0.0009600585526568059,0.0006938028373846075,0.00038229187741581924,3.3726659020175896e-05,-0.00033984452124227927,-0.0007206249586157438,-0.0010861970555387744,-0.0014133498759607908,-0.001680708818999682,-0.0018666008869910843,-0.0019444022711483456,-0.0018834124532548112,-0.0016614476880004634,-0.0012852825418118708,-0.0008051976899546634,-0.0003095358198161914,0.0001041248672663846,0.00036975803937823936,0.00048474760611894865,0.0005137211295331425,0.0005583853395304836,0.0007060407535379533,0.0009832976898606978,0.0013406012613544408,0.0016758789998839942,0.001882489930902867,0.0018937418143695798,0.0017021626257624363,0.001350270311437554,0.0009056530089083515,0.0004363996977593377,-4.446138983191022e-06,-0.00038513322220761306,-0.0006950125100817504,-0.0009395832753313676,-0.0011310778771282622,-0.0012760349668974264,-0.001364682922050785,-0.0013695681323544298,-0.0012586492163919652,-0.0010195621471576584,-0.0006815175436992786,-0.00031812526874417063,-2.3515873785527218e-05,0.00012927392693477802,0.00012594643817863513,2.2630852107691744e-05,-7.793981511491107e-05,-7.657349560320596e-05,7.08428462627561e-05,0.00032885123323143873,0.0006001945788746658,0.000776793887881422,0.000794600077089188,0.0006608472332666378,0.0004399456601724926,0.00020984053088181462,1.7818909146797733e-05,-0.00013652291844008986,-0.0002819714290512433,-0.00043538677703730793,-0.0005706148081889471,-0.0006214970430285953,-0.000520738818942469,-0.00025061790012999166,0.00012909627996906636,0.0004980791796542013,0.0007313544705840338,0.0007633579398341891,0.000623676434692123,0.00042437107161867973,0.0003056591517542704,0.0003673297824784349,0.0006176543786587047,0.0009614245444487979,0.0012322574815110477,0.0012579377300051106,0.0009342481855374588,0.0002759553525000045,-0.0005810072287268787,-0.0014320568438077452,-0.0020893844556177524,-0.0024583914070567276,-0.002564384945061672,-0.0025133333670342615,-0.002406916469268553,-0.002260746201514402,-0.0019776454977667884,-0.0013997753308983658,-0.0004169799909119398,0.0009291956145543647,0.0024103415211588846,0.0036737190173996947,0.004376570478052225,0.004326093386274363,0.0035568214912210243,0.0023116657349400646,0.0009417029149514054,-0.00022435618415365933,-0.0009836670188954244,-0.0012996148634827768,-0.0012759094460843218,-0.0010877082914927602,-0.0009033486117208693,-0.0008258362963220849,-0.0008708087386933897,-0.0009829564333046319,-0.0010792388054376796,-0.001097623339765578,-0.0010279909418609628,-0.0009099550477623271,-0.000799504516129295,-0.0007250605033901464,-0.000661869235126148,-0.00054367914076395,-0.0003064769218324888,6.362725908111433e-05,0.000510836275848813,0.0009328351177874424,0.0012325400002633356,0.001365337319937525,0.0013527401306936962,0.001257274973120755,0.0011396546239369207,0.001028560951717688,0.0009196536208481917,0.0007962748468444878,0.0006499092901695743,0.00048389770083042197,0.00030161862150461646,9.380415565483414e-05,-0.00016145432569172912,-0.00048469461786542184,-0.0008771694013601796,-0.0013106873855383873,-0.001729475000084931,-0.002060212257614511,-0.002224676951110525,-0.002153948792709262,-0.001807167058659168,-0.0011946478581983224,-0.0003953531309269753,0.00044815689895489133,0.001167352531574361,0.0016276643574590591,0.001780973098692211,0.0016796820075840862,0.001442405697569968,0.0011906626069475772,0.0009929670303482874,0.0008459211781027345,0.000696994974844978,0.00048857961139958,0.00019437009436027995,-0.00016942631067363076,-0.0005557345007672692,-0.0009065347428411904,-0.0011684761715330754,-0.0013013170651721175,-0.0012828953528727055,-0.0011134325531603029,-0.0008178198621742589,-0.0004430106069285921,-4.982272682831703e-05,0.0002990362929750544,0.0005526964421902477,0.0006861579615286685,0.0007113491519441365,0.0006781697520306598,0.0006583318491305872,0.0007129128961995404,0.0008573763900882011,0.0010446539425072244,0.0011796704933525527,0.0011607222071605317,0.0009269425885640572,0.00048778799766611286,-7.90899712730138e-05,-0.00065911105130193,-0.0011458169195458076,-0.001479122911744527,-0.0016596154702999987,-0.001733073557918676,-0.0017544691502420881,-0.001751427224214932,-0.001706537138129538,-0.0015664744979631258,-0.0012714317621894413,-0.0007894381535841764,-0.00014011470008932648,0.0006011488658856968,0.0013194740061030763,0.0018917722497639685,0.0022235580382151928,0.002279236317660368,0.002093418925742466,0.0017555909960427414,0.001371587805415377,0.0010184692012035858,0.0007158371445492896,0.0004298910173618645,0.0001082666933782759,-0.0002754603671257927,-0.0006955270190598169,-0.0010821025318995174,-0.0013567517788883026,-0.001470640785006418,-0.001421899858534498,-0.0012459588375769146,-0.0009913764685665124,-0.000699677372408402,-0.0003994537281080874,-0.00011206812126348742,0.00014105074405202723,0.00033811206865470974,0.00046517509962100824,0.0005265938813860643,0.0005476952949587797,0.000563547845780277,0.0005981592821667102,0.000647963640057309,0.0006827512479102343,0.0006647872628660666,0.0005724120895475439,0.00041060283230455366,0.0002016513177793,-3.4519436326047015e-05,-0.0002926353730112941,-0.0005759564587606354,-0.0008767584816094269,-0.001160191845982443,-0.00136629228495786,-0.001431275956808008,-0.001315498208463555,-0.0010219746111961938,-0.0005967965569684529,-0.00011344475719786147,0.00035042877438189765,0.0007340805676202523,0.001005100566507921,0.0011580236071148027,0.0012034352991135153,0.0011566175619066442,0.0010344672623564559,0.0008612897175217096,0.0006742735285775762,0.0005175852912217516,0.000423276357983264,0.00039023970390501535,0.0003778680198324544,0.0003233780684630185,0.00017572909719794068,-7.40071843562557e-05,-0.0003858599196161546,-0.0006928673856219751,-0.0009368558340908076,-0.0010935523570056562,-0.0011712334519807426,-0.0011876698540212978,-0.0011461011677886394,-0.0010299242228086066,-0.0008195387334028597,-0.0005173984283647163,-0.00016218536595949428,0.0001783666316577421,0.00043306389061793934,0.0005587766696041993,0.0005622731870937258,0.000499793931639839,0.0004512702874285104,0.00047980439311549026,0.0005975282778125625,0.000757728839823638,0.0008788213176965559,0.000887151635686718,0.0007549961195858004,0.0005135950555778732,0.0002351497417701641,-6.111020800865529e-06,-0.00017316504273577754,-0.00028459236170535725,-0.00040102348329475385,-0.0005850859720105436,-0.0008553456432605047,-0.0011600537980880929,-0.0013883986264548102,-0.0014182205209219297,-0.0011782553126931986,-0.0006914919629557474,-7.326152940483356e-05,0.0005178513365019124,0.0009501142943005135,0.0011705680607984933,0.0012111869768950605,0.0011506811764802453,0.0010600831487481324,0.0009670432919655678,0.0008573550002909961,0.0007053747570931284,0.0005066102823424764,0.0002877626708597036,8.887037616737842e-05,-6.659768546512181e-05,-0.00019046540577717907,-0.00032408165412562085,-0.0005122354522201501,-0.0007729391579661095,-0.0010798244806089151,-0.0013658598850606958,-0.0015467393244664757,-0.0015541211838870765,-0.001364941308840476,-0.001014238519006274,-0.0005852084943500155,-0.00017939781904658246,0.00012168013236875809,0.00028803540450529836,0.0003519064602374965,0.00039112164734604626,0.0004901018373577408,0.0006952580845443629,0.0009871171614739152,0.0012854224040333181,0.0014866157672358095,0.0015146799739410863,0.0013581671927061394,0.0010739195636225106,0.0007566093140358187,0.0004913867784129333,0.00031459998197907985,0.00020179348194961975,8.737909387596267e-05,-9.558349729535948e-05,-0.00037664729904746157,-0.0007301188477088887,-0.0010861736281551136,-0.0013631320096340982,-0.0015022656125640707,-0.001487120539458743,-0.0013402998537469968,-0.0011042354701253337,-0.0008199891570443295,-0.0005158774588457674,-0.0002089867953571477,8.581587816010228e-05,0.0003481681414389419,0.000552391535177574,0.0006764803697815908,0.0007145826318838219,0.0006843740311585597,0.0006229519701506576,0.0005714628152086536,0.0005552123554016911,0.0005689375375284698,0.0005756310024119175,0.0005222460373270566,0.00036739099073670875,0.00010789158041950395,-0.00021118342050674665,-0.0005109991391707837,-0.0007121398077054692,-0.00076946481968179,-0.000690148956892293,-0.0005255356620144015,-0.0003419211399872307,-0.0001873024100516223,-7.319273874398626e-05,1.953063089054209e-05,0.00011810083378172281,0.00023653898526924347,0.00036975353983136343,0.0005029514598963569,0.0006241188368977538,0.0007274815699191434,0.0008064238452732851,0.0008446164066056379,0.0008155687898890218,0.0006938632393155525,0.00047237534356872786,0.00017469868076061025,-0.0001468684468061551,-0.0004303520773010325,-0.000632349691124772,-0.0007496538080702319,-0.00081932092555639,-0.0008939851044911238,-0.0010053003737099551,-0.0011378784073763277,-0.0012317390244401267,-0.0012147786571192131,-0.0010476039940803192,-0.0007532657745368113,-0.00041136615047441963,-0.00011698536478693352,7.256804668925561e-05,0.00017069261665257358,0.0002523753120962475,0.00040675971852625697,0.000679722279062653,0.0010420519103036127,0.0014029084235859417,0.0016590684651449769,0.0017477223852178734,0.001669752688641872,0.0014717575553037773,0.001203481954377638,0.0008829758085862202,0.0004942461232636732,1.764411158874826e-05,-0.0005303997890160361,-0.00107823845922209,-0.0015164756986183546,-0.001744031068095493,-0.0017165743286607046,-0.0014692472600070516,-0.001100037581534548,-0.0007222296710271325,-0.0004120532848883318,-0.0001809498176761017,1.2297515379412684e-05,0.0002186561732034183,0.00045364471554367337,0.0006795497836603672,0.0008263892215275799,0.0008371677245448286,0.0007072712822451644,0.00049243167047605,0.00028029796885582986,0.0001427904360362715,9.680417139663758e-05,9.530108740789288e-05,5.3962589779680994e-05,-0.00010046667327972454,-0.0003855578540716732,-0.0007458790740426425,-0.0010725953356730002,-0.0012509451761134873,-0.0012122791722547586,-0.0009643475810504677,-0.0005843211064856539,-0.00017928072526718277,0.00016298681891947398,0.00040628079120808794,0.0005676360761014912,0.0006938234099367667,0.0008300010471855627,0.0009965383500320428,0.0011807430646624502,0.001341924940936762,0.0014255140009749197,0.0013826323655338588,0.0011909778785184559,0.0008698353963135191,0.0004800459614204691,0.00010364672820274354,-0.00019153914848638086,-0.00038552145247909434,-0.0005176568256016945,-0.0006655185467695981,-0.00089936079237294,-0.0012363703909014279,-0.0016208765666279243,-0.0019425250670041083,-0.002082954420854598,-0.0019665314929865232,-0.0015909944836364283,-0.0010270398507421514,-0.00039152212235625295,0.000192098901163982,0.00063155025272689,0.0008904852379814719,0.0009931120077134577,0.00100709934405464,0.0010104940361770989,0.0010556995779826593,0.001146536792291186,0.0012395165479317741,0.0012686418469087116,0.0011806095360603682,0.0009619677166276746,0.0006448878821322629,0.0002902280747980704,-4.157727548549227e-05,-0.0003155452339186492,-0.0005298243749503781,-0.0007030466320551608,-0.0008506054116515693,-0.0009660091134181301,-0.0010201298489971313,-0.000979086078717801,-0.0008285592893593043,-0.0005878405043990207,-0.00030428122994625246,-3.23973669963328e-05,0.00018869259650318074,0.00034683347700232295,0.0004537116911436888,0.0005322403758658953,0.0006024295359807542,0.0006709135617385135,0.0007259205526932969,0.0007390502346688026,0.0006759590332613785,0.0005151420883405971,0.00026649051833648114,-2.4351992122283102e-05,-0.0002949382578904299,-0.0005012636688330984,-0.0006462970391741006,-0.0007779938521992728,-0.0009520587808968871,-0.0011814605164508993,-0.0014084505057839936,-0.0015230795853843518,-0.0014214782403948125,-0.0010689388076760241,-0.0005275024671903985,7.042745850518865e-05,0.0005866213461432418,0.0009401642171653978,0.001132161765060998,0.001221427113994332,0.001272516303638653,0.0013131471866972303,0.0013275105275771088,0.0012840627141773881,0.0011718908116567003,0.0010160106058123475,0.0008604127903494821,0.0007335507969789404,0.0006246322483428478,0.0004904370479348312,0.00028833960155836045,1.0349009081560582e-05,-0.0003087433883529597,-0.0006170373122561573,-0.0008866772585885621,-0.0011376158569010935,-0.0014204117175674147,-0.0017638268524425202,-0.0021229529237559424,-0.0023708729888669545,-0.002351907591888927,-0.0019716558283446074,-0.0012684811946939815,-0.00041659677039048706,0.00034871213759127924,0.0008440062605138721,0.0010237802901567963,0.0009903261406163145,0.0009241738649232482,0.000978615011275448,0.0011996402233220129,0.001512494820984344,0.0017737804435419037,0.0018517149675259157,0.001687832002642946,0.001312391252340401,0.0008164866146543378,0.00030543448557295586,-0.00013994655262708735,-0.0004805218356856498,-0.0007161706444812081,-0.0008725485775433548,-0.000985003552721294,-0.00108247755915506,-0.001172821749114152,-0.0012342018482939619,-0.0012197167146261482,-0.0010781337616541568,-0.0007836053572010806,-0.0003589497384721691,0.00012208983204730034,0.000557669654268754,0.0008561408165024807,0.0009718472958468155,0.000921818484132634,0.0007759791206556894,0.0006252005687634467,0.0005407842805873443,0.0005429829696279908,0.0005934533471446873,0.0006167989048853166,0.0005420721802502492,0.00034278986714233713,5.211162066203249e-05,-0.0002574142822777463,-0.0005183240928486124,-0.0007088693171011212,-0.0008625913182080136,-0.0010391143590512569,-0.0012740523259333638,-0.0015405071999996212,-0.0017483226956081154,-0.001784027039903838,-0.0015692644088528308,-0.0011044219442649511,-0.0004734393167398529,0.0001914498687687309,0.0007645565356704813,0.0011721101698431004,0.0014068415235027817,0.0015086038979707536,0.0015262909182765442,0.001485464327253318,0.0013810318082356442,0.0011975797860589734,0.0009415742035642831,0.0006615546188342011,0.0004400865685543917,0.00035914401268207017,0.00045671405615543554,0.0006972879267826994,0.0009716660317872682,0.0011283614745233378,0.0010267167174327486,0.0005936651504487249,-0.00013764664815901317,-0.001026406688648562,-0.0018665092138440038,-0.0024592479212150486,-0.002685342794952015,-0.002543079954189891,-0.0021357115855651795,-0.0016166766724741023,-0.001120957768738916,-0.0007153763683924407,-0.00038920846066181744,-8.541585267356927e-05,0.00024804246639060037,0.0006173604701112622,0.0009757318739378126,0.001251665096235134,0.0013922162405464393,0.0013923530664648525,0.0012925301267636994,0.0011480181776289307,0.0009910071870370156,0.0008099998431453443,0.0005601270750893109,0.00019981027564579186,-0.0002667424612744177,-0.0007672898966772467,-0.0011769807197533604,-0.0013686962976068849,-0.0012740577405329946,-0.0009215214648120321,-0.00042851551470044174,5.03576267281666e-05,0.00039266096771985496,0.0005591520665251687,0.0006005739606496341,0.0006176754239130189,0.0006966505794340004,0.000855393275157911,0.0010302523143034114,0.0011110289751067282,0.0010056523720697256,0.0006994231412654577,0.00027530076979410403,-0.00011937060920339737,-0.0003464390042052863,-0.00035362979414996356,-0.00021067787692894164,-7.962484394171632e-05,-0.0001305010610292321,-0.00044714426878885566,-0.0009759191150560147,-0.0015460569499020024,-0.0019495537679570275,-0.002036740117565602,-0.001778643067567644,-0.0012689425328055674,-0.0006715493384126593,-0.00014548925439061204,0.00021539740407783942,0.0004042713137501783,0.00048349982557422354,0.0005435729198627452,0.0006598165404679438,0.0008621726320123458,0.0011245694669433975,0.0013746154136348907,0.0015213135073936048,0.0014940954008791812,0.0012792006049797374,0.000934434006025873,0.000568700136618028,0.0002904695138274447,0.00015027722796310226,0.00011117282585579704,6.849821504369862e-05,-8.808000676747702e-05,-0.00040426224061057764,-0.0008241372581474841,-0.0012103533307385554,-0.001411932338524799,-0.001341719341061673,-0.001019993352237834,-0.0005619130281681163,-0.00011996617931865917,0.0001836711200149588,0.0002996801004801672,0.00025353232338845425,0.0001155326417206927,-3.8182376076315266e-05,-0.00015227021240126425,-0.0001977444635299562,-0.00016262560136509488,-4.210736074455098e-05,0.0001599081070804805,0.0004175432136592017,0.0006703085119711891,0.0008278008754735203,0.000799435115993268,0.0005391303663190886,8.052108795267657e-05,-0.0004612973247410573,-0.0009285473964035802,-0.0011837822794042215,-0.0011660043206278864,-0.000911657945004582,-0.0005308426319020293,-0.00015250160383615857,0.0001324030997234822,0.00030187589635435473,0.0003963904685341464,0.0004839292838412681,0.0006180548636084517,0.0008092409416375654,0.0010191708154858048,0.0011767734614008683,0.0012084413898005215,0.0010719581016116542,0.0007814332609426039,0.00041024066404063094,6.516974954989384e-05,-0.00016101123119896836,-0.00023660304702235058,-0.00021125573684238402,-0.0001947010471755454,-0.00030139747915886007,-0.0005884529305737124,-0.0010195031493598573,-0.0014741617855278785,-0.0017986599844724226,-0.0018722992380016447,-0.0016575620847729285,-0.0012113525245246455,-0.0006546279707561356,-0.00011758949197895354,0.00031170375660772285,0.0006110674323260492,0.0008122145969169325,0.0009646612053387687,0.0010986344783401152,0.0012072888913798733,0.001254834941895996,0.0012021725662429055,0.0010336159665958946,0.0007700716852895877,0.0004631764570840788,0.00017581541212248881,-3.942394805994665e-05,-0.00015460636594805713,-0.00017203280854116693,-0.00012449388261498532,-7.109636658111202e-05,-8.383631577425408e-05,-0.0002207936460139741,-0.000492690289006095,-0.0008420904645010145,-0.0011547735909024325,-0.0013056837427782293,-0.0012180887702448568,-0.0009025642025650718,-0.000452632414808927,5.820785020760441e-08,0.0003446067557760556,0.0005321872084097985,0.0005825801842926053,0.0005599513406808327,0.0005356627411964728,0.0005567577984440441,0.0006312220176834277,0.0007321087930759867,0.0008155571439980919,0.0008431940542623725,0.0007982229217575787,0.0006877899235474858,0.0005313356584590911,0.0003425025628202163,0.00011665844894906253,-0.0001660469630742915,-0.0005211771945671317,-0.0009345773800188435,-0.0013479679024834084,-0.0016686018255294213,-0.001802864667124131,-0.0016986007786998492,-0.001373275066366668,-0.0009106622623811882,-0.00042559745982051565,-1.4680661047750815e-05,0.00028085878603502194,0.00048110627624261263,0.0006414112667577916,0.0008115607456384319,0.0010044172796158835,0.001190641216890405,0.0013193425548039862,0.001349352611747124,0.0012713517313734995,0.0011091381534396308,0.0009025473227559844,0.0006850776977751129,0.0004699287852425136,0.000250384475580085,1.102591425229698e-05,-0.00025878102956875156,-0.000556541689312167,-0.000865665590986248,-0.0011588538240387433,-0.0014012556319302468,-0.0015520923451582758,-0.0015685544420760119,-0.001417282243397933,-0.0010934639772818505,-0.000638273097209374,-0.00013984013268235622,0.0002916398665096913,0.0005682549037457414,0.0006656673791212017,0.0006353642535966478,0.0005761954343986037,0.0005781109107349219,0.0006702044640122922,0.0008052455685998654,0.0008915771024593063,0.0008531561755618556,0.0006797903581127892,0.00043551640332694015,0.00021980304747996155,0.00010598926754020908,9.503813247944233e-05,0.00011252660891276976,5.040968122475408e-05,-0.00017053638441202348,-0.0005517447606926446,-0.0010063002646733096,-0.0013911108720119636,-0.0015662082708905983,-0.0014546866196564995,-0.0010772066997278688,-0.0005454811110896444,-1.650267070012635e-05,0.00037277427493364115,0.0005606518275458676,0.0005803009902647794,0.000535143021655369,0.000542535209659698,0.0006732617731465908,0.0009160777748851557,0.0011842781542186482,0.001360353705305198,0.0013550521683839095,0.00114917668765998,0.0007959201763642097,0.00038437136818505026,-1.2043436941123684e-05,-0.0003696112700032262,-0.0007103201670035615,-0.0010649475186996435,-0.0014304731630880713,-0.0017518856221629756,-0.0019406165299470429,-0.0019172224829961974,-0.0016521450702104837,-0.0011828455990649206,-0.000601657632987063,-2.3565261727835282e-05,0.00045105867113619854,0.0007659108634030612,0.0009223872898469681,0.0009735074477621083,0.0009986158298933403,0.0010658903541840479,0.0011971300459200217,0.0013523694320307714,0.0014456148147594789,0.0013879822197285757,0.0011380656278267053,0.0007318534237247918,0.000272883827602133,-0.00011494415740120726,-0.0003472116925763901,-0.00041899584630467415,-0.00040451816031593417,-0.0004185738940455636,-0.000560379343607283,-0.0008658078412550854,-0.0012873725220552408,-0.0017090822853443946,-0.001990376373520494,-0.0020220182885012177,-0.001769995315910122,-0.0012861274594353168,-0.0006790519000607703,-6.106011253819105e-05,0.0004984063823359892,0.0009849957721917498,0.0014118133380259371,0.001773533752386981,0.0020177376905578235,0.00205881064337593,0.001830714958172885,0.0013456442214183502,0.0007167227208770876,0.00012283126041206442,-0.000269640168200469,-0.00038498117615209894,-0.0002726636478238187,-8.046847011108265e-05,1.8270713100795996e-05,-9.295911188865905e-05,-0.0004195115048148202,-0.0008530113959552565,-0.0012219630260151975,-0.0013730770076855543,-0.0012445565822974678,-0.0008938671118388362,-0.00046470515113703376,-0.0001110531821709476,7.930625510455702e-05,0.00011966943461700686,0.00010067817775889,0.00012524421370251174,0.00024232645101115703,0.0004188039320212699,0.0005651750848625789,0.0005981915377853108,0.0005005318553453804,0.0003385645426432085,0.000224969921129184,0.00024819398580300917,0.00041245014680682063,0.0006256596311959158,0.0007431691979496436,0.0006425272681275096,0.00028884963328400297,-0.0002423574883995574,-0.0007952234668867993,-0.0012011080653625732,-0.0013508787789410584,-0.001236594082157132,-0.0009426696661942018,-0.0005937146729419136,-0.000290196940834821,-6.850208294236222e-05,9.53337085556334e-05,0.0002473803730186548,0.000412566956836536,0.0005753131419096143,0.0006936632912959093,0.000733167489537558,0.0006948041557585641,0.0006172423389621738,0.0005523898184825477,0.0005316707554785803,0.0005465169324628612,0.0005560817039659283,0.0005156216701296614,0.00040449876194130236,0.0002338908750948354,3.021155606576021e-05,-0.00019070597419546765,-0.00043578519912633966,-0.000720610776273081,-0.0010380284535756003,-0.0013348609733923869,-0.001519550189560884,-0.0015023103407985367,-0.0012451162669506921,-0.0007901099776685568,-0.00024813358390495053,0.00024634404862131695,0.0005891053561962739,0.0007421438991927681,0.0007376020719441114,0.0006526614148057849,0.0005703056044756448,0.0005438737144709074,0.00057906467408754,0.0006391178372733712,0.0006697217585481749,0.0006313660051080258,0.0005216382777678718,0.0003735450778600077,0.00022990761946145382,0.00011075836357721204,-2.5780346214184045e-06,-0.0001533474665598878,-0.00037287247933786823,-0.0006463585713013594,-0.000906216300147423,-0.0010609469517750413,-0.0010435649214998888,-0.0008490963000958125,-0.0005368941359220401,-0.00019699563006671228,9.592648359346744e-05,0.00031028942017814065,0.00045198745301724757,0.0005369430735271776,0.0005691568011322583,0.0005435297034640229,0.00046812009782548945,0.0003813849926242029,0.0003431825507217018,0.00040053416438886593,0.0005510385240301567,0.0007308291137143833,0.0008380609979199034,0.0007798674783327762,0.0005166268779521953,8.028439977307087e-05,-0.00044042541054018495,-0.0009370225028416101,-0.001320369276212552,-0.0015443170053441166,-0.0016074302076554002,-0.001538086060878849,-0.0013742683555510462,-0.00114774115085473,-0.0008765681117598862,-0.0005655219187745068,-0.00021268256732685813,0.00017998612843918863,0.0005962064217779127,0.0010008384360598234,0.0013450734919964393,0.0015799401649547078,0.0016719079574034899,0.001613676372310071,0.0014263636174411155,0.001153209814554982,0.0008473766630626698,0.000557631395914172,0.0003164116485053341,0.00013433679924650035,2.4225981149513637e-06,-0.00010105608692212082,-0.00020423306144969408,-0.00033799680542327627,-0.0005312734449187488,-0.0007995511838065649,-0.001127184591138602,-0.0014543546266158728,-0.0016840593820669353,-0.0017160310542039584,-0.0014959002996390366,-0.0010522167434383338,-0.0004953157145264072,2.6801750371683846e-05,0.0003932139702167777,0.0005598089545683201,0.00056826616571052,0.0005134255352868447,0.000490628684874437,0.0005517603756969758,0.0006894287382949462,0.0008513103586939785,0.0009717180923448013,0.0010018423424429305,0.000924861174554576,0.000752813980318597,0.0005119095964330961,0.0002269751100998004,-8.614002233595661e-05,-0.00041671736313322254,-0.0007469713957267662,-0.0010402553385899526,-0.0012398768608763656,-0.0012837919103637029,-0.0011312470487008985,-0.0007892404497629543,-0.0003238112507205307,0.0001544657138152009,0.0005298981378958998,0.0007301722767748219,0.0007584712187973964,0.0006886398053274564,0.000622688350465864,0.0006331583026420143,0.0007234359264208054,0.000829075954980166,0.0008587962653441273,0.0007503951551320275,0.0005084140119174563,0.00020143646811378595,-7.922656708617246e-05,-0.0002747401197697872,-0.00039416271326239537,-0.0005071767535656704,-0.0006964801446121228,-0.0009974592655595002,-0.0013620945832453022,-0.0016705863615831987,-0.001785943668609538,-0.0016217238487467138,-0.0011866132821383097,-0.0005840314620907698,3.045162425431298e-05,0.0005115311680095059,0.0007783689695893751,0.0008393595186529313,0.0007790471121794444,0.0007128942241927093,0.0007290024019399954,0.0008445208078696987,0.0010010020362004805,0.0011036307830658881,0.001082168955054424,0.0009350108123275284,0.0007267086523462676,0.0005403618432200143,0.00041781595216061943,0.000329454994551533,0.00019505101439251996,-5.762797191329337e-05,-0.0004349661076833755,-0.000858324725541202,-0.0011965567721993144,-0.001331075239930865,-0.0012156503767125825,-0.0008984573626846542,-0.0004975387710593937,-0.00014628580838091842,6.197154810548875e-05,0.00010554074975839274,3.230807369901487e-05,-6.976182166326874e-05,-0.00011334560183902791,-4.627484275052656e-05,0.00013140750004946372,0.0003703990259728475,0.0005913181844354365,0.0007135150116259299,0.0006852560090922427,0.0005050293890896183,0.00022370036398785496,-7.701285416223758e-05,-0.0003225884928111295,-0.0004812531128094133,-0.000575032676484314,-0.000656158967269899,-0.0007612954470844796,-0.0008742782479205548,-0.0009258275711247311,-0.0008341108708427405,-0.0005602759989590117,-0.000141058039125481,0.00032435763858744665,0.0007252174312589062,0.0009952361805576437,0.0011389023642049648,0.0012133336654413305,0.0012793874873373236,0.0013541874981026051,0.0013952636275912575,0.0013266583830367608,0.001091665010741547,0.0006996017437375806,0.0002353483724958158,-0.0001787722916045696,-0.00044959603362112576,-0.0005689242561773741,-0.0006228257477785046,-0.0007453043346814604,-0.0010404060687630038,-0.0015155671248337655,-0.0020623349608866665,-0.0024945360442647953,-0.002625154007298596,-0.0023464041708082767,-0.0016780172810932684,-0.0007634515050401732,0.0001841463495498327,0.0009628156109496881,0.0014535278082102273,0.001650424084909301,0.0016377940762492586,0.0015305233210211968,0.0014141413185315382,0.0013171655424960463,0.0012239729234450316,0.001109303100629847,0.0009657642328199305,0.0008078300076860192,0.0006565367358039274,0.0005214108177062178,0.00039353574108061005,0.00025198616947410255,7.571840499501556e-05,-0.0001484690879628066,-0.0004245315442276974,-0.0007471407571491839,-0.0010969982218878287,-0.0014328869002521631,-0.001690035083641486,-0.0017941806772774488,-0.0016904064272204955,-0.001373025347939117,-0.0008980706111077381,-0.00036790522415698786,0.00010678498568005292,0.00044914996186495116,0.0006414943319838239,0.0007219883708943441,0.0007563353885522603,0.0008006582820851416,0.0008748256319964647,0.0009575266261388545,0.0010015223442025089,0.0009581869452551567,0.0007991750667138379,0.000527730996093787,0.00017791168904421545,-0.00019602996346849521,-0.000535629852611721,-0.000793872662464159,-0.0009449078689340658,-0.0009846032087736424,-0.0009233671921580175,-0.0007770004815200765,-0.0005617669286183945,-0.0002955797276687833,-1.7854748254485697e-06,0.000289733146984089,0.0005465360442998225,0.0007409182805256606,0.0008567885172938966,0.0008930629729170087,0.000862246555070267,0.0007847273753814521,0.0006810659025517872,0.0005654926040738221,0.00044289169562271,0.00030912510660900525,0.00015290296211335145,-4.1635727071460266e-05,-0.00029006203501983724,-0.0005985162064419225,-0.0009518149378636345,-0.0013055781904156253,-0.0015908753880276392,-0.0017344556425915583,-0.0016872231902589443,-0.0014459560215905087,-0.0010554592527703462,-0.0005899070341833989,-0.0001245231423834378,0.00028708257185435806,0.000620504239068413,0.0008740183808017298,0.0010565375879961643,0.0011793970472359966,0.0012554929420460024,0.0013011436036325938,0.001332412739579633,0.0013531028781397225,0.0013427169167000393,0.0012585620898242123,0.0010586226207758142,0.0007348895367904711,0.00033438133016474127,-5.157948013432244e-05,-0.00033070981379376284,-0.0004640632024209646,-0.0004975456357954995,-0.0005451431351298689,-0.0007256659050988937,-0.001086458868927585,-0.0015615499875655681,-0.001994291163229905,-0.0022139719746601173,-0.002120341689893893,-0.0017262596398870155,-0.0011390843489856078,-0.0005013868202860425,6.855609134501694e-05,0.0005065890373804285,0.0007997593523138228,0.0009677673960320734,0.0010470527970171954,0.0010828704983569747,0.0011222784734468295,0.0011999690538728243,0.0013188213054054652,0.0014380237528762345,0.0014829402881122709,0.0013791668132534993,0.0010951201919138704,0.0006663877286751098,0.00018219882229926997,-0.00026136277023465894,-0.0006116388417025998,-0.0008778457244162288,-0.0011036757370390827,-0.0013140448461996701,-0.001476868352617252,-0.0015113790008195065,-0.0013406934477275066,-0.0009530540635566604,-0.0004282988546725854,9.081997366243194e-05,0.0004661693992159642,0.0006298926301353568,0.0006104100318604437,0.0005067756186876981,0.0004297382617506816,0.0004442990278272921,0.0005435557096995783,0.0006630220656797537,0.0007219724391784746,0.0006661075217492534,0.0004889507988743403,0.0002243798138521489,-7.965248717326764e-05,-0.00038619440486038173,-0.0006767718606892205,-0.0009393382289575682,-0.00114991813659082,-0.0012660928735751804,-0.0012414299556662773,-0.0010533783184909285,-0.0007253196355404455,-0.000325576000278116,5.8819002554502935e-05,0.0003588012106578774,0.000549158602995454,0.0006504873029018397,0.0007096060012411733,0.0007721103472095865,0.0008615389997222566,0.0009724268824657957,0.0010762029257684017,0.0011343532903575052,0.0011130495310250677,0.000995307183202734,0.0007883396012857809,0.0005241345576722012,0.0002510598621556417,1.5502145499324084e-05,-0.00016260034723856523,-0.00030852021262469433,-0.0004891444446093249,-0.0007774511778289603,-0.0011962709187605925,-0.0016747509431013921,-0.0020545478165015026,-0.0021573554145736334,-0.0018833620751893725,-0.0012815882584370749,-0.0005425534102922389,9.071033795579313e-05,0.000445176405882884,0.0005026185245444213,0.00039726799500903597,0.00032960958411750737,0.0004489376176958776,0.0007725125794416868,0.0011834051143464388,0.0015017408383960107,0.001584621006286258,0.0013989998264211851,0.0010314628419571968,0.0006353702060472262,0.00034844604783381675,0.00022599124748193678,0.0002222586217990161,0.0002244750586490726,0.00011699451074256316,-0.0001589703103974055,-0.0005776097318693058,-0.0010410431143994213,-0.0014207861463893792,-0.0016067202270698233,-0.0015440426615300797,-0.0012480848461438262,-0.0007965979360927856,-0.00030468600437422963,0.00011050126796277024,0.0003668515972510423,0.0004453177995398865,0.0003968045499143215,0.0003202308815333401,0.0003163897013934322,0.0004374922399769815,0.0006594402956775947,0.0008944642581501685,0.0010388426419613136,0.0010281997033652645,0.0008669652457056688,0.0006145505086786337,0.00033926060945720614,7.282574032326205e-05,-0.00020215924064562993,-0.0005232593886682593,-0.0008995831005559158,-0.001280632770620349,-0.0015677272756817267,-0.0016621882376736193,-0.0015179849386628775,-0.001164518681584988,-0.0006880160022758398,-0.00018850100840410108,0.00025822182469815915,0.000614429206620354,0.0008721605590125451,0.0010383144703169922,0.001126175049493893,0.001154194815792737,0.0011444038677014573,0.0011150372042561662,0.001070454094398837,0.0009967443071068562,0.0008686331871686458,0.0006652403916619053,0.0003855785061657297,5.417975641963358e-05,-0.00028701924339099,-0.0005962461957205144,-0.0008489365042354709,-0.0010442658552492659,-0.0011970337880721563,-0.0013195651335809358,-0.0014051277041773897,-0.0014245579012950903,-0.0013401461269219195,-0.0011295231466209533,-0.0008048759666443675,-0.0004148807798879579,-2.7174580993004176e-05,0.00029914348576248664,0.0005360779628165915,0.0006928964465302743,0.0008038131042712681,0.000905003894815352,0.0010139289789283762,0.001121798372193123,0.0012019484096726422,0.0012276223970333572,0.0011875282193633248,0.001089530373675176,0.0009507517408145915,0.0007813738937759846,0.0005737732951487356,0.0003053869694075431,-4.500433719772869e-05,-0.00047629526673317684,-0.0009511768260447357,-0.0013979077833131967,-0.001729055083699954,-0.0018705594673581482,-0.0017890600497031575,-0.0015054775640006039,-0.001088921794344121,-0.0006336358217290483,-0.00022812462014512323,7.226367966304273e-05,0.0002593937148997036,0.0003672624186277131,0.0004492405272306858,0.0005478932195352524,0.0006729392552474309,0.0007995531360182867,0.0008874957531762907,0.000908515698426663,0.0008640048593752179,0.0007811848407666174,0.0006905011150605057,0.0005999939242882692,0.00048501582800516204,0.0003016958813176386,1.7151705461517408e-05,-0.000360810775911675,-0.0007714066981328074,-0.0011141359631702122,-0.0012841984502271124,-0.0012165916057841897,-0.0009195584679741011,-0.0004792917263471097,-2.8440362189836085e-05,0.0003109413241744038,0.00048248372341043065,0.0005174491156993784,0.0005082742735952786,0.0005471609296041276,0.0006666087079557194,0.000819545093403469,0.0009117027753117805,0.0008638435293330523,0.0006611279996369101,0.0003569811285416474,3.240876113221882e-05,-0.00025652475491735015,-0.0005046604045318181,-0.0007420832471369033,-0.0009936857934414209,-0.0012460772547099193,-0.001444164387913886,-0.0015170908992319333,-0.0014157138157481414,-0.0011399894855599313,-0.0007422622321537967,-0.00030546971024344674,9.199315155136729e-05,0.0004061834713330358,0.0006370577413868622,0.0008147330251619387,0.0009737569159034261,0.0011320113126219139,0.0012841564798281506,0.0014072988318126753,0.0014699140203164093,0.0014385671156860727,0.0012846145439520593,0.0009954110849352922,0.0005886885472534361,0.00012057776085037434,-0.0003241513365308703,-0.0006625210682667984,-0.0008522600603889804,-0.0009158387338617372,-0.0009296886536090391,-0.0009786744022065787,-0.0011007894347519922,-0.0012577558341189724,-0.0013528569266323582,-0.0012865065917842047,-0.0010151943201218718,-0.0005784439178849585,-8.052266443066733e-05,0.0003584437746999644,0.0006525020499514385,0.0007766672221086109,0.0007634198057654383,0.0006781341224834168,0.0005891366553342995,0.0005445434356531679,0.0005604658437677189,0.0006199400341643348,0.0006807923007739343,0.0006907901153382955,0.0006067678402020835,0.0004113803332392395,0.00012027906796635427,-0.00022343648061960947,-0.0005635542522971147,-0.0008455851763182101,-0.001026128019501833,-0.0010772556548273454,-0.000990336327914794,-0.0007811648009407381,-0.0004921953641237016,-0.00018490460038189752,7.999594439238029e-05,0.0002672559342859689,0.00038255842577784106,0.0004668454876626715,0.0005692961778127126,0.0007132558573047828,0.0008764760613440651,0.0009999116560129835,0.0010210115660703473,0.0009103556282600682,0.0006877556151899705,0.00040833180657639764,0.0001298159966687486,-0.00011635533163990553,-0.00033317418937187744,-0.000544344826105369,-0.0007705999923636165,-0.0010103363256010144,-0.0012332450312799153,-0.0013884975330598704,-0.0014236440071306116,-0.0013064563817311511,-0.0010400013309609238,-0.0006635784745051493,-0.00023926040309716658,0.00016853408727886808,0.0005104720613160519,0.0007608215538203154,0.0009172706900866915,0.0009952452466371218,0.0010191057926135089,0.0010115930466853729,0.0009842975508229646,0.0009339232955913029,0.0008476908572553967,0.000715603385472686,0.0005418055190681368,0.0003470800998474101,0.00016021893689954043,3.103822409797124e-06,-0.00012206842256182822,-0.0002361987237358267,-0.00037441879459947997,-0.0005675739845523908,-0.0008220539667755124,-0.0011085301584361522,-0.0013669193959405055,-0.0015263237594344422,-0.001530178454734938,-0.0013545318309218899,-0.0010126083820128455,-0.0005471458004540086,-1.75313076547928e-05,0.0005114090232228705,0.0009766094657714225,0.001322298993823739,0.0015072773619452778,0.0015142025303432555,0.0013570068303004916,0.0010811431970614068,0.0007537804028012332,0.0004457319048920246,0.00021126301842537814,7.36798373988806e-05,2.2636781620786735e-05,2.4043141970061616e-05,3.741609885390414e-05,3.153241289202192e-05,-9.804447358796901e-06,-9.359972638838427e-05,-0.0002285075256420629,-0.0004299237671149155,-0.0007121646577994657,-0.001069760080511606,-0.0014583907669448689,-0.0017883488849641312,-0.0019389033738259618,-0.0017938095043611105,-0.0012895469925265329,-0.0004598399147067323,0.0005456963437644761,0.001488851204892457,0.0021196338229880394,0.0022771574664352465,0.0019647529234793045,0.0013527653681652423,0.0006998936080688189,0.0002331898437689255,5.2471814859971606e-05,0.00010798488173847199,0.00025361106600567233,0.00033482549543604117,0.00025843647369822845,1.3371293326100908e-05,-0.0003517587551037202,-0.0007649098937941666,-0.0011540995857824451,-0.0014526902806714034,-0.0015997355056862452,-0.0015500639660567628,-0.0012946406532622307,-0.0008764812727645899,-0.00038489982414637307,7.614170460414364e-05,0.0004309194645586627,0.0006609504204200604,0.000801679667677135,0.0009088348342676983,0.0010167550188402668,0.0011163883713701493,0.0011664116979002047,0.0011272173444734099,0.0009922846940686367,0.0007957714671530041,0.0005938344798813325,0.0004342752039375562,0.00033285171938038426,0.0002664736942818213,0.0001832464764935088,2.3777374873577384e-05,-0.00025334415603531723,-0.0006498078279618634,-0.0011180232532780332,-0.0015697600281691462,-0.0019021503031806147,-0.0020315530765730744,-0.001920863688345866,-0.001588716209899064,-0.0010984444303286712,-0.0005346695135805997,2.0337774509284444e-05,0.0005018554629608813,0.0008684435075624641,0.0011025222738792512,0.0012092385954837,0.001212553412593758,0.0011460172380748429,0.0010402448908007366,0.0009144781681207241,0.0007782031957994792,0.0006401778331288938,0.0005146939049527984,0.00041657271216213757,0.0003466571080913374,0.00027970446619635255,0.00016780079302866353,-3.693409843522267e-05,-0.00035017034602059967,-0.0007321902802419028,-0.0010900657099005913,-0.001309230442601125,-0.0013022322232398497,-0.0010512596902816818,-0.0006220555109349516,-0.00014050073548896595,0.00025791900580230385,0.0004820358828129292,0.0005174658569322933,0.0004238037198396006,0.00029979207524739984,0.00023461291424368264,0.0002693424350691473,0.0003863599502138655,0.0005286245860517947,0.0006338253023944009,0.0006613367288298941,0.0005979034668487955,0.0004451169051415768,0.00020479784585311167,-0.00012233283063756595,-0.0005222832038370129,-0.0009499482150108071,-0.0013253703980568802,-0.0015537726279610115,-0.0015630074277398365,-0.0013387040182277527,-0.0009360626089635331,-0.0004593951092894539,-1.86695363235765e-05,0.00031462236365915094,0.0005296615346715794,0.0006664885254211454,0.0007820650372415368,0.0009128069971134874,0.001054382390203017,0.0011680313470657435,0.0012071152132115753,0.0011470518282697703,0.0010012307177006859,0.0008141176006474661,0.0006354838797482175,0.0004900647644977214,0.00035994184332707415,0.00019111850556449302,-7.62887207566898e-05,-0.00046774933522707635,-0.0009450739065038163,-0.0014068575108501285,-0.0017236619259315758,-0.0017939309562970405,-0.0015927136033047824,-0.0011860702456075512,-0.0007012407464587234,-0.00026753254192120074,3.952602801503432e-05,0.00021996627748597608,0.000327590800480996,0.00042252095860588436,0.0005307602283129045,0.0006353311049515601,0.0006991900738950991,0.0006983082989903621,0.000639735809434106,0.0005543070186210602,0.00047306379224263496,0.00040586124787538974,0.0003358662692548263,0.0002313432713448897,6.596022253424621e-05,-0.00016370397473324926,-0.0004308968588248157,-0.0006834146233955956,-0.0008577315641158227,-0.0008977608317282284,-0.0007732398330855168,-0.0004934671065535356,-0.00011186578515173737,0.00028407537592106864,0.0006000350234881128,0.0007719858977841435,0.0007947280177059317,0.0007223567201906835,0.000635986602514507,0.0005960933102863439,0.0006091042904155346,0.0006293326486514474,0.0005931433065827666,0.00046035672738158995,0.00023481489649653534,-4.6574848772155714e-05,-0.0003433304964196534,-0.0006346665835240009,-0.0009195750387917365,-0.0011962327549362134,-0.0014390677630048655,-0.0015933427860680923,-0.0015946110448414063,-0.0014028567411799807,-0.001030151614690418,-0.0005436988989815189,-4.1482799170538143e-05,0.0003852420890352765,0.0006819193308923255,0.0008403144152674083,0.0008892431001570617,0.0008764920150724257,0.0008507899216088244,0.0008473944938307871,0.0008785154917538401,0.0009307624892475204,0.0009718522315744233,0.0009656438948909092,0.0008898193970233699,0.0007473375132912496,0.0005639527968795574,0.00037093751584966225,0.00018230329079120953,-1.7619114674646645e-05,-0.0002643840678325875,-0.0005839810061305888,-0.0009617203889626777,-0.001331726646644058,-0.001597669887033081,-0.001675136949708846,-0.001531491656456769,-0.0012005364402503664,-0.0007653705874809033,-0.0003217924217374916,5.646539571664219e-05,0.0003348353578589825,0.0005150206668121525,0.0006206641727436785,0.0006821421309260807,0.0007258190558075647,0.0007671384614754005,0.0008056602319342366,0.0008234839616678111,0.0007910507469217088,0.0006811646429406505,0.0004847807481556369,0.00021810886950388557,-8.438612839133618e-05,-0.00038535172005855627,-0.0006554001003399844,-0.0008712034945418184,-0.001005775419965921,-0.001025180265941023,-0.0009014452779441504,-0.0006360378465437292,-0.00027553462317392216,9.694705609699912e-05,0.00039486708964308123,0.0005682367397134895,0.0006262778894300883,0.000628079872954555,0.0006455746409097091,0.0007197872985922861,0.0008356617102960659,0.0009302158265825577,0.0009293563903491743,0.0007916546046283617,0.0005329351093451769,0.00021674250684651026,-8.365257088847731e-05,-0.00032835722886632394,-0.0005317988968521225,-0.0007469182257742263,-0.0010205474042733168,-0.0013473268445816757,-0.0016532299357725991,-0.0018233150438169096,-0.0017603059519175524,-0.001439256210553266,-0.0009244923597374707,-0.0003386931400153079,0.00019587186314561132,0.000608055504838877,0.0008928271321115386,0.001087742487670189,0.001231899041588784,0.001336077802771409,0.0013812210907580898,0.0013412995785510823,0.0012110104696422873,0.001018064269250673,0.0008120862292638298,0.0006376640503948118,0.0005084697132706526,0.0003985126061745686,0.0002565958676865233,3.62457007610557e-05,-0.0002762100619326483,-0.0006513987862448399,-0.0010286742235586467,-0.0013406189916038331,-0.0015357117882149188,-0.0015895404764991014,-0.0015039495802366921,-0.0012995393636526758,-0.0010077787714910076,-0.0006662234656837516,-0.0003160128733725319,2.614515459774052e-06,0.0002601999569334253,0.0004504590637194479,0.0005954636058069139,0.0007344514939761987,0.0008976303413667905,0.0010796896060425987,0.001232558460002023,0.0012871960575588084,0.0011945983554864845,0.0009602620233393256,0.0006473383367177659,0.0003433820746510765,0.00011068131408637557,-4.777750533492737e-05,-0.00018440855473406473,-0.00036752184319662753,-0.0006313998071360605,-0.0009474106693552604,-0.001233668636609795,-0.001396214442861764,-0.0013758754523473275,-0.0011737434131831568,-0.0008441385435610791,-0.0004649323725006836,-0.00010620148114488925,0.00018714176668529998,0.00039765834118613713,0.0005312765997255688,0.0006130259787461938,0.0006804025450693676,0.0007693154428310089,0.0008945561644283721,0.0010360295352334742,0.0011426521176144593,0.0011550971463696034,0.0010348697363743887,0.0007821137055045999,0.0004323112565550026,3.645156579380366e-05,-0.00036057654366647803,-0.0007297701556088102,-0.0010531109930597884,-0.0013124252060993863,-0.001483559179463112,-0.0015410177381247052,-0.001468915908861018,-0.0012698629360866382,-0.0009664663943001967,-0.0005962177594043752,-0.00020389766824921107,0.0001655853864430236,0.0004741359587276195,0.0006983206418628971,0.0008365125484184387,0.0009101954604782748,0.0009547185014744451,0.001000924843316283,0.0010568862964533887,0.0011013484657783135,0.0010940815408739882,0.0009976742344405564,0.0007987224237478247,0.0005177802661823336,0.00020382563483694504,-8.451104885122781e-05,-0.0003037956525734948,-0.0004460341555047067,-0.0005431586021632746,-0.0006501660046512529,-0.0008125112395563092,-0.0010341023625462442,-0.0012647255218542074,-0.0014168283414853406,-0.0014057263381144277,-0.0011934168352833296,-0.0008122903580199824,-0.00035417136938950197,7.129426536007068e-05,0.00038664075076127547,0.0005765365617615891,0.0006808982363863105,0.0007575751310545215,0.0008402606675403173,0.0009188914683375126,0.0009528375174227294,0.0009045781269798952,0.0007696187457508452,0.0005838428466272397,0.0004055425379615727,0.0002836878399924218,0.00022934390160941496,0.00020438605265479023,0.00013452861502946298,-5.593823181050152e-05,-0.00040093996101710347,-0.0008614451063386887,-0.0013249279657826457,-0.0016411479320293004,-0.0016814487458288467,-0.0013949912432249254,-0.0008348269348400746,-0.0001406795708969676,0.0005136154446322093,0.0009834245984299721,0.0011994415798084333,0.0011794944166449077,0.00100655800350449,0.0007876558268876766,0.0006126833342923802,0.0005275883111195946,0.0005278915481905968,0.000570562803330609,0.0005965638493963026,0.0005536607881558712,0.00041043829510783715,0.00015825653561547549,-0.00019420626045207738,-0.0006246584028726387,-0.0010934810685903967,-0.0015368197022442311,-0.0018684495263328826,-0.0019995831823359667,-0.0018727896707375503,-0.001492970765795507,-0.0009359271015124111,-0.00032601508095723037,0.00020868160834318627,0.0005831569182550913,0.0007828125170199989,0.0008592361554281072,0.0008969130654532553,0.0009671081811743936,0.0010921637147602375,0.0012389066786752283,0.0013440029755072288,0.0013552088390312454,0.0012629136419693796,0.0011031089842347646,0.0009314510769966187,0.0007858729756858825,0.0006611512234498315,0.0005103491760118776,0.00027144129320731675,-9.68140878946311e-05,-0.0005891783937732866,-0.001149638720558286,-0.0016869890086328102,-0.0021007502622768515,-0.0023079900040444473,-0.002265395890432569,-0.0019826694002720454,-0.001522528822807818,-0.0009837622385116208,-0.0004698802558150322,-5.4402702927267824e-05,0.00024160403453216887,0.0004481204114209095,0.00062107031467044,0.0008067934380771443,0.001015324830736705,0.0012162480802472193,0.0013575286267286078,0.0013951154324063789,0.001316571364048513,0.001147160411382212,0.0009373454419646622,0.0007396126362523893,0.0005855037360726028,0.0004716633105862423,0.0003603605648713791,0.00019657524545809807,-6.197053901046273e-05,-0.00041419854007641356,-0.0008029950939901949,-0.0011338648677757736,-0.001320033303258933,-0.0013285365155362894,-0.001196206767237533,-0.001002209211799609,-0.0008144263384312037,-0.0006471794636669823,-0.00046035594042977634,-0.00019961951929788405,0.00015244024405170918,0.0005509465131024538,0.0009058976206414064,0.0011288498854402763,0.0011782042308216053,0.001076097903284737,0.0008896618528771542,0.0006905435062700702,0.0005168984395574286,0.00035786601965029667,0.0001667132441535177,-0.0001058808714402937,-0.0004755753147124073,-0.0009027923394778125,-0.0012971835287375385,-0.0015487663208813031,-0.0015739898462562882,-0.0013557688924776506,-0.0009562775139370136,-0.0004927418766812008,-8.556397786355584e-05,0.00019539422654664434,0.00035742273015384644,0.00046950281095139084,0.0006136790346857085,0.0008316778264735506,0.0010980159858425022,0.0013346224127178882,0.0014564099728722295,0.0014185881362386013,0.001237017043759834,0.0009718143498625351,0.0006884587059689292,0.0004236264233783237,0.00017688061847083854,-7.086222165284017e-05,-0.0003305309138683013,-0.0005921272754163422,-0.0008340412735602484,-0.0010424011055443854,-0.0012200734610152125,-0.0013754250448721741,-0.0015004095902971678,-0.0015585093636476702,-0.001496320198784784,-0.001274311724236987,-0.0008972157470003546,-0.00042327420523816453,5.5722480684874384e-05,0.00045354101968735685,0.000725381772311793,0.000879839584317146,0.000961697366667605,0.0010191658014985926,0.0010774861581275368,0.0011326246540883148,0.0011621924358864184,0.0011404378595143187,0.0010473851205876135,0.0008724640011134706,0.0006181881493046608,0.0003050053792256331,-2.864506510042087e-05,-0.0003369099902423886,-0.0005847609669003063,-0.0007619976235816442,-0.0008817661438442802,-0.0009634742576596917,-0.0010126136608204596,-0.001013324540913511,-0.0009403320929246633,-0.0007820908588897857,-0.0005579147092764404,-0.0003153698949245197,-0.00010765959375930341,3.5456698184239705e-05,0.00012479343198007394,0.0002054491558906087,0.00032978024173462885,0.0005249238351345792,0.0007733367759033454,0.001016587966660789,0.0011790183645003739,0.0011984714699077939,0.001050787338220767,0.0007596834053866465,0.00038859495106482425,1.5764961782608667e-05,-0.0002987608787459351,-0.0005376524892830829,-0.0007257899719271143,-0.0009017488186724194,-0.0010785557752024783,-0.001221944690107427,-0.0012646691159439952,-0.0011499842952398401,-0.0008749011394292347,-0.0005020707583978385,-0.00013033966783442105,0.00015747584207028667,0.000336008337470287,0.0004425847503094382,0.0005450718874982767,0.0006941032246582438,0.0008892569685768553,0.0010781886560135507,0.0011867816548574136,0.001160493892402867,0.0009927434959902998,0.0007264142369798482,0.0004310839804618212,0.00017059706656281335,-2.2592543510705615e-05,-0.00015640145428619614,-0.0002702575065146225,-0.00041340133144138577,-0.0006183576764702795,-0.0008793446962354085,-0.0011461337932193783,-0.001340452602795954,-0.0013915908140697195,-0.0012739310735273973,-0.0010223796789171438,-0.0007116712993476315,-0.00040956729155343797,-0.00013523281575405523,0.00014602801268479883,0.0004852545547598603,0.0008951020386931668,0.001317829865333665,0.0016410575115185135,0.0017534553552941523,0.0016058160155627665,0.0012402497947820246,0.00077113225324205,0.0003302524968538203,7.2576882603662225e-06,-0.0001839896572268786,-0.00029867397324834536,-0.00042041775517650745,-0.0006087097221657315,-0.0008609025799780827,-0.001108841050867899,-0.0012545197807379512,-0.0012283952265532965,-0.0010372313561254744,-0.0007685276391436836,-0.000541877757076188,-0.00043307540408946615,-0.0004199299370470402,-0.0003898014852833947,-0.00021003240408640997,0.0001810371089942348,0.0007218616855796887,0.0012505156425148003,0.0015901323999537762,0.0016438531265580954,0.00144112697429243,0.0011098943889607594,0.0007961337455656484,0.0005825827240614173,0.0004547054880296129,0.0003292546844830065,0.00012121000139476561,-0.00019667305378723174,-0.0005784107847669912,-0.0009379282195007088,-0.0012025839339301504,-0.0013480979171063617,-0.0013933422049863258,-0.0013651071412715142,-0.0012650224313773134,-0.001067204255191694,-0.0007492861978642895,-0.0003314841234902631,0.00011009907800201219,0.00047191595785146194,0.0006780730636084263,0.0007254209121782069,0.0006860154795918255,0.0006620107259371355,0.0007205965499129831,0.0008514505439307019,0.0009753808115623699,0.000998884566190148,0.0008781545414155035,0.0006494463530061433,0.00040551964010950936,0.0002342678670352811,0.0001607645660571261,0.00013116277193125664,4.859836344986608e-05,-0.00016304120748051096,-0.0005085346548039458,-0.0009137896439485348,-0.0012617666857664576,-0.0014468157977215142,-0.0014171431035250265,-0.0011885498030216515,-0.0008304871078021634,-0.00043591023620547436,-8.802547501642437e-05,0.0001651982446298645,0.0003208168016911956,0.00041175077601298717,0.00048299537241018045,0.0005652085577176719,0.0006599252538257694,0.0007440973608178632,0.0007893656030222877,0.000781701224992021,0.000727249829681672,0.0006408843698752125,0.0005276442237776924,0.00037352874283270846,0.00015565023234126362,-0.00013322534787756895,-0.00046314486897285116,-0.0007661579136308002,-0.0009613036373310752,-0.00099321955100181,-0.0008619997822937625,-0.000625846433195645,-0.00037379617740497854,-0.00018325936985510435,-8.535397751877409e-05,-5.5633728878211395e-05,-3.310703463114186e-05,4.4385834990002735e-05,0.0002073912805433408,0.0004402090421866607,0.0006892209586582034,0.0008873461100339327,0.0009813248406251112,0.000949700755371815,0.0008059650988721331,0.0005886468318947532,0.0003444673993980341,0.00011134215368809107,-9.343106547739715e-05,-0.0002763645448755373,-0.00046096528480006724,-0.0006723502676881505,-0.0009185333645068633,-0.0011767770394308463,-0.0013929827005527543,-0.001496771981920237,-0.0014272033801577201,-0.0011586036577583172,-0.0007155942896703528,-0.00017060661885780044,0.00037619706007626475,0.0008280547945619878,0.0011227314924821402,0.0012515819773238307,0.0012575901250514157,0.0012108021312912899,0.001170252997396627,0.0011511066108901334,0.0011168520549374855,0.0010043274872378572,0.0007688773233989524,0.00042166203973748663,3.343231069827092e-05,-0.0003006017891170086,-0.0005147655579270978,-0.0006122398161648168,-0.0006636948749250206,-0.0007634057058857221,-0.0009673375823773037,-0.0012502670937363986,-0.0015095771367194279,-0.0016163905330981855,-0.0014856958745104554,-0.0011241807549648246,-0.0006270296650863445,-0.00012629744975473396,0.00027649759195362826,0.0005526154365903236,0.000740959574964993,0.0009048022599737451,0.001081440670900601,0.0012554188178425735,0.0013678042969423,0.0013524509236804382,0.0011771365133488028,0.0008671099002432716,0.0004988384044296687,0.00016704074875426532,-5.8596603700202234e-05,-0.00016526069433177857,-0.00020073340796457383,-0.0002458947979825779,-0.00036914685044544556,-0.0005866834138718378,-0.0008508808573700719,-0.001074033403581546,-0.0011741276672134196,-0.0011164308411665202,-0.0009281142550530512,-0.0006800745364706955,-0.0004485170861029161,-0.00027761435163751406,-0.00016108953469832636,-4.988580916298445e-05,0.00011853232160616723,0.0003826378171881737,0.0007288748359210728,0.0010886256981135762,0.0013645505825644053,0.0014747473894221996,0.0013913508571569838,0.0011516467648910646,0.0008353977476615324,0.0005222692276803402,0.0002544983101821645,2.5032762233737527e-05,-0.00020540005007511583,-0.00047549513046463225,-0.0007943828117534157,-0.0011304480887278491,-0.0014208375044811987,-0.0015953319414883185,-0.0016040164899530818,-0.0014379264935147752,-0.0011344001485006539,-0.0007641487665690269,-0.0004043314380441288,-0.00010858381032570897,0.00011245362936276805,0.0002903152050050179,0.00047712099204752235,0.000713249027938883,0.0010002848979832127,0.0012933208792096466,0.0015175324915761524,0.0016018327006399897,0.0015132090801139389,0.0012741458135216164,0.0009535960652324303,0.0006355185297893792,0.00038093468903429607,0.00020306048258104923,6.772860706087891e-05,-8.297790680095765e-05,-0.0002982096887883088,-0.0005938396390024047,-0.0009455506096663286,-0.0012985811295140033,-0.001586322436564367,-0.0017491484735059155,-0.001748313513144519,-0.0015740392985107692,-0.0012488531411269474,-0.0008257618526970296,-0.0003784724853517186,1.8029194206386242e-05,0.0003121906863269372,0.0004947406925753608,0.0005997450120027506,0.0006842181816840505,0.0007956017069215866,0.0009450548179917609,0.0011019829924279626,0.0012124148669958187,0.001229270847986891,0.0011363962138239473,0.0009541261931205854,0.0007263583085424052,0.0004982346120092207,0.0002952713785298229,0.00011199329413695124,-8.49764199068984e-05,-0.0003378378048267657,-0.0006673614141135122,-0.0010450637007544028,-0.001386516849057239,-0.0015782005603243547,-0.0015313267065368394,-0.0012346851681856162,-0.0007718181988813082,-0.0002856167202020714,9.295148248477476e-05,0.00030938667759502396,0.000403104130734694,0.00046778583129061183,0.0005819750901126192,0.0007554283465660141,0.0009242427794320933,0.000994890329112257,0.0009068668794383241,0.0006744799122652118,0.00038360424517947515,0.00014705817959438612,4.501201805286897e-05,8.27716567843689e-05,0.00018699555780597228,0.0002411624176202787,0.00014235748857115615,-0.0001477922736681451,-0.0005815503134109643,-0.0010422022821591458,-0.0013915498960467198,-0.0015263027950267348,-0.0014185882923998172,-0.001123214981954536,-0.0007492156762344006,-0.00040920846114197757,-0.00017009400013057326,-2.7833648998684224e-05,8.234193894527189e-05,0.0002459409351989782,0.0005196842960876781,0.0008971810873897373,0.0013060964560569354,0.0016368399589116475,0.0017883763821321791,0.0017107338422029314,0.0014263448710512287,0.0010207971557284604,0.0006056551501018195,0.0002688916843655386,3.669641832174941e-05,-0.00013235907138030789,-0.00031568899463875347,-0.0005745699639593312,-0.0009125292193145206,-0.0012694546637171708,-0.0015532615194381518,-0.0016867557678226452,-0.0016401004210307968,-0.0014329594667748676,-0.0011129201259543623,-0.0007309041528822079,-0.0003307056845543389,4.656433417021236e-05,0.0003567883499244359,0.0005596030441633419,0.0006374458959327893,0.0006121280433979648,0.0005424441734997464,0.0004991587089124003,0.0005304346862472879,0.0006385145651811762,0.0007818249447708405,0.0009002777991910471,0.000946499577226314,0.0009027625169435198,0.0007751540454912081,0.0005743557078797972,0.00030225282014342304,-4.247983175580377e-05,-0.0004435819173383747,-0.0008490193365027781,-0.0011734864044639119,-0.0013260955333845353,-0.001250346989826552,-0.0009544572652987336,-0.0005148861860665308,-4.99682076337456e-05,0.00032513063478752026,0.0005426286520592374,0.0006055804757161807,0.0005783300258354031,0.0005468267272108548,0.000568707119560099,0.0006412018601519964,0.0007057463542503356,0.0006852999992400531,0.00052943672400624,0.00023878601323050843,-0.00014319011462711234,-0.0005595125078092958,-0.0009653532722897504,-0.0013315354144396321,-0.0016272130855745346,-0.0018012341542580552,-0.0017843923090138892,-0.0015194938164456986,-0.001003508678120317,-0.00031270937273540384,0.0004115127022733038,0.0010146338856923615,0.0013919891946199518,0.001527021887329532,0.0014837790927672448,0.0013615194878596692,0.0012417405915404079,0.0011580408309408547,0.0010990177393196553,0.0010317032187855994,0.000925063061522719,0.0007617257431185018,0.0005392893677700844,0.0002682212040051032,-2.9985891464569866e-05,-0.0003260848886425243,-0.0005904251067687531,-0.0008034243880083304,-0.0009641261126375912,-0.001090898285527703,-0.001211505782158798,-0.0013455508892616704,-0.001487497052858271,-0.001599742184895631,-0.001621277314047094,-0.0014905011588265402,-0.001174121917258785,-0.0006898985356739483,-0.00011085302691648917,0.0004552908570232728,0.0009053364156139385,0.0011799083708466844,0.0012814224867475582,0.0012610167626638125,0.0011840986481764135,0.0010970635503577855,0.0010145073017576787,0.000929948117867202,0.0008364584202894827,0.0007385492030612719,0.0006456794129531721,0.000553616592826621,0.0004312195460545647,0.0002286554942918476,-9.161550973925013e-05,-0.0005182109246827558,-0.000974132280077422,-0.0013362130059393264,-0.0014849593355115806,-0.001359443918029985,-0.0009879584169789006,-0.0004788478686691439,2.249980538845866e-05,0.0003888017192234534,0.0005541473588611299,0.0005302542428632742,0.00039296259401065973,0.00024614532341975465,0.00017652428812836487,0.00021631348916464378,0.000329801767951957,0.00043209793642901456,0.00043367158119987816,0.00028963299138368365,2.7496939634285102e-05,-0.0002633430260304849,-0.0004770421604688014,-0.000548436911437354,-0.0004904704766971181,-0.00038914908162974266,-0.0003553719245114615,-0.0004575577640492362,-0.0006723373097834103,-0.0008837107861413859,-0.0009359624282843958,-0.0007154338133088156,-0.00021820443674609025,0.00043409961638321917,0.0010415624008750111,0.0014137223457021946,0.0014533526206554153,0.001194567100795523,0.0007788619166303052,0.0003850666626248616,0.00015030578546156264,0.00011922741552481634,0.00024041270845378843,0.0004034163521830698,0.000491641394243936,0.0004248824019289267,0.00017890999655301816,-0.00021474846899698557,-0.0006798159903846195,-0.0011127315204447214,-0.0014077582226603197,-0.001488662191991731,-0.0013372246053241638,-0.0010031073335403991,-0.0005848340100165893,-0.00018709131839818855,0.00012458165451204446,0.0003461875987814926,0.0005211268837489187,0.0006979784176386559,0.000887077079229921,0.0010448355010603265,0.0010977303392301838,0.0009917543964265637,0.0007349153192892455,0.0004026872040239044,9.891055566343563e-05,-0.00010576414500206932,-0.00021790519899061284,-0.00031514247194537777,-0.0004884324711762206,-0.0007678771464425515,-0.0010829306691958471,-0.0012885684547050413,-0.0012457748082191262,-0.0009072464273204867,-0.00035393593169291693,0.0002412404732876892,0.0007003645410499101,0.0009252508267166681,0.0009308280852791645,0.0008127431931856056,0.0006767091612419025,0.0005782463020317934,0.0005085034900619783,0.00042594521614234204,0.0003023310179784428,0.0001470229909704027,-4.081581143948465e-06,-0.00012058791357093314,-0.0002036982306179711,-0.00028759750717859356,-0.0004157947292436389,-0.0006075656397931973,-0.0008349389612098919,-0.001025024319211039,-0.0010892652312033163,-0.0009664340255356171,-0.0006571292213722805,-0.00022994779162331647,0.00020620731954279622,0.0005501782467067877,0.0007512667715839705,0.0008239263316342774,0.0008283139825378331,0.000829817819786197,0.00086077628015512,0.0009041996720581629,0.0009062542525350387,0.0008088703456308201,0.0005833434920955241,0.0002460422079125957,-0.000150693584284608,-0.0005430631492505291,-0.0008777591121832328,-0.0011190229051691045,-0.0012428503736220623,-0.0012312376095068053,-0.001077836454006295,-0.000803665311923024,-0.0004678276158735134,-0.0001559190259381971,5.7002782379437773e-05,0.00014970037984045692,0.0001727039241863631,0.00022087888418765336,0.0003719541262739456,0.0006306519471007425,0.0009188105876505642,0.0011210151423733945,0.0011550735593505116,0.001018600423260074,0.0007812368653314426,0.000531846450678865,0.00032056148880849457,0.00013530485901443564,-7.54135938501491e-05,-0.0003543684043825217,-0.0006973594251621371,-0.0010485172227638225,-0.0013275491561820037,-0.0014677430207854446,-0.0014414325078106133,-0.0012623902542723167,-0.0009707288938247045,-0.0006144573702582368,-0.0002390654733389388,0.00011341464001869174,0.000403278959603869,0.0005987180838399719,0.0006899175217929904,0.0007033327917637747,0.0007021027357484354,0.0007632409372781194,0.0009366058711452898,0.0012062211686246437,0.001479561669407888,0.0016186128430455684,0.0015029297519177746,0.0010936656154930822,0.0004627060629763725,-0.00023236688639105156,-0.0008169107768690448,-0.0011755250430267945,-0.001295553625249734,-0.0012567465529884868,-0.0011766628352054692,-0.0011441017520123294,-0.001175626604000578,-0.001214579631519461,-0.0011689332071065216,-0.0009660090724286093,-0.0005958628373489139,-0.00012223057170605102,0.0003435595450054335,0.0006920611667240096,0.0008637002285850143,0.0008719039172469028,0.0007911434869531475,0.0007169865086003345,0.0007178234060594198,0.0008009050979652214,0.0009088384264797308,0.0009492287266153199,0.000843822679866471,0.0005715773701902155,0.00018123152558410327,-0.00023413113172924307,-0.00058436615523164,-0.0008213272779813653,-0.0009466998897610809,-0.0009889804276829732,-0.0009714119491729262,-0.0008957331724152387,-0.0007509165579852853,-0.0005361971288523516,-0.00027851682220771785,-2.988274507784985e-05,0.00015602591554870316,0.00025505676237227537,0.0002919790683393456,0.00033252246229345067,0.0004469912957366875,0.0006629996777988744,0.0009361743376442523,0.0011616006290311128,0.0012255449289309665,0.0010700256359032097,0.0007309938625503774,0.0003245234556832024,-1.2924214136096005e-05,-0.0001955052292319662,-0.00022945663511027048,-0.00020350456633067525,-0.00023692299436758874,-0.0004155143475555699,-0.0007481197095618149,-0.0011620736531134017,-0.001535672317993092,-0.0017494874582051779,-0.001732288590986771,-0.0014826735412829398,-0.0010607825890740653,-0.0005584653548856796,-6.39390383873025e-05,0.00036393200828922854,0.0007033643459404347,0.0009597584625649963,0.0011464820027377053,0.0012689013274198673,0.0013215849143781832,0.001298907784811741,0.0012085374590507978,0.0010744440912349908,0.0009248631368615412,0.0007744922917214227,0.0006168110163711987,0.0004347309593982331,0.0002215047325294174,-6.580241890860052e-06,-0.00021833088966431323,-0.0003911308582533891,-0.0005298793838981698,-0.0006640850709711374,-0.0008236458990781089,-0.001011528939047154,-0.0011942363970248331,-0.0013170783240786224,-0.001332891406774902,-0.0012245164480450487,-0.001008255100436115,-0.0007203447857329514,-0.00039887273913804253,-7.283654351213054e-05,0.00023846810482396234,0.0005204812158317101,0.0007593317851589465,0.0009417506067925325,0.0010580458858290417,0.0011058145188612453,0.0010922873779812014,0.0010333042697794224,0.0009473028757674161,0.0008450768556150929,0.0007201363987600118,0.0005470936295466607,0.00029316280608557353,-5.95731151084403e-05,-0.0004919658464339425,-0.0009399963356983916,-0.0013101425287874858,-0.001513671883299807,-0.0015027426523259945,-0.0012881601341499039,-0.0009294663084352447,-0.0005058660837430043,-8.75128396914852e-05,0.00027781656557548804,0.0005626983855172025,0.000754238617554594,0.0008541014543989723,0.0008823955061231384,0.0008749970679004052,0.0008678426224724928,0.000874645721771922,0.0008741165639632336,0.0008193996796320723,0.0006673017877001367,0.00040912978569368827,8.129497548832747e-05,-0.00025343015164668275,-0.0005423783000637387,-0.0007721678083513266,-0.0009697909628840491,-0.0011736842688314863,-0.0013932660697491492,-0.0015841227780217602,-0.0016579329252728347,-0.0015259585240121516,-0.001153551498971858,-0.0005931940366436846,2.7083291503986542e-05,0.0005577669119250902,0.0008958973933653328,0.0010286868735986817,0.0010283793359030196,0.0010032477878025806,0.0010349935917099437,0.0011383503256480712,0.0012623403208736855,0.0013267896306429754,0.0012693229385477016,0.00107646988222128,0.0007850577854115813,0.0004573149645171612,0.0001461900169916059,-0.0001289864049445493,-0.0003835037633590747,-0.0006461091207163064,-0.0009298783540416836,-0.0012133767461799528,-0.001443474315990228,-0.001558114846205049,-0.0015159271443818732,-0.0013161887848602736,-0.0009989911706303023,-0.0006273250414992344,-0.00026245336659187703,5.451560739914768e-05,0.000308136005339506,0.0005028058909962703,0.0006519945079560704,0.0007685267665979844,0.0008586606392276263,0.0009197559818076888,0.0009405734846493132,0.0009041571752350265,0.0007937901469261494,0.0006012079522910146,0.00033392692084987814,1.7644970439387305e-05,-0.00030817265942113695,-0.0005992915295041086,-0.000815406153031782,-0.0009252871477951827,-0.0009097328637694422,-0.0007661141309129604,-0.0005150795092879374,-0.00020401445507519717,0.0001001620783794268,0.0003309913619853606,0.00044819879242892117,0.0004558034369658216,0.0004008588588575475,0.00035071127875360914,0.0003592352185249198,0.00043991313770142925,0.0005603165490870946,0.0006603849754546618,0.0006838144715723376,0.0006053889643085189,0.00043980772403469533,0.00022762263775911833,6.810195081262638e-06,-0.00021211467193169752,-0.0004499155241080803,-0.0007358103720883003,-0.0010704023977803584,-0.0013995715385466043,-0.0016218888710558673,-0.0016326079874853239,-0.0013819855890270724,-0.0009121469420153049,-0.0003461807525123057,0.0001686673547846965,0.0005325166598674304,0.0007366731016121752,0.0008525765961273467,0.0009723207639426748,0.0011386334543775382,0.0013104320105168502,0.0013878132648469836,0.001281023543471095,0.000977875439360008,0.0005639451240935793,0.00018002645545294555,-5.811469836449924e-05,-0.00012791614501674536,-0.00011322383972795554,-0.00015354740179314007,-0.0003594490795551054,-0.0007435625220141929,-0.001205632216612376,-0.0015776492987161447,-0.001702570003373302,-0.0015051751622677009,-0.0010219451556720818,-0.00038080633391578264,0.0002538329798814204,0.0007431144556445194,0.0010179498577485113,0.0010916013203957358,0.0010389454562437918,0.0009520731304307687,0.0008919911933279155,0.000860388197662942,0.000807044782460494,0.0006681064709919865,0.0004104068743345833,5.3220795180108265e-05,-0.0003441647732060791,-0.0007157992164182293,-0.0010172046214259548,-0.0012304407758079124,-0.0013489360707855773,-0.00136046443895082,-0.001245582660391082,-0.0009938422727148876,-0.0006242159872701317,-0.00019183531631626765,0.00022719736683565143,0.000565568070418734,0.0007916134681736038,0.000917576511500723,0.0009850983284420136,0.0010371182546578931,0.0010923649092165904,0.0011360163609511519,0.0011303339514703334,0.0010379805264123737,0.0008442747044082423,0.0005660561950097439,0.00024311515838539217,-8.15901986525331e-05,-0.0003805507365772878,-0.0006484192318451977,-0.0008941420942053587,-0.0011247077793541766,-0.0013307503438696343,-0.0014820082873299588,-0.0015350890264714825,-0.0014506816458344086,-0.0012134519330607367,-0.0008455449940464276,-0.00040567831787684955,2.8086810694834697e-05,0.0003850081273075744,0.0006253612508880306,0.0007506278328233369,0.000797041046330476,0.0008169024937747291,0.000855865527546058,0.0009343013107193005,0.0010388135595345946,0.0011271310951091133,0.0011457564353286847,0.001054640735253521,0.0008483261905240253,0.0005619246335824403,0.00025600762596133587,-1.4050792972521565e-05,-0.00022782814262553341,-0.0004099149655382671,-0.0006112255964323428,-0.0008698340652219063,-0.001174180665036251,-0.0014531257327088536,-0.0016029721595740235,-0.0015389429370576291,-0.0012423913058192376,-0.0007766236443662548,-0.00026262835684950155,0.00017147915065696,0.00044104785863155363,0.000532421281510816,0.0004982809854874757,0.0004271786768123688,0.00040328096897163644,0.0004735927821378601,0.0006341715685953902,0.0008373505269824125,0.0010130259289904122,0.0010931604487976214,0.0010314948526172116,0.000816249714931161,0.0004760004892476843,7.60904614213931e-05,-0.0002992738788710463,-0.0005783138554314853,-0.0007329217739860199,-0.0007892878997768859,-0.0008067648689266819,-0.0008360162859251848,-0.0008843788353801131,-0.0009122912478136277,-0.000861914792241925,-0.0006962349363933281,-0.0004219508308637009,-8.426875329052737e-05,0.0002577835479750509,0.0005567986687500083,0.0007892138459272152,0.0009521371515177381,0.001051442932811105,0.0010899490163101704,0.0010620191080802756,0.0009568470984369349,0.0007683220225302391,0.0005055356307844775,0.00019651890438586125,-0.00011917040187761261,-0.0004062167398315781,-0.0006479581568208884,-0.0008487962656391389,-0.0010212511195354386,-0.0011657883481875943,-0.0012587444523928268,-0.0012596698698409442,-0.0011354897561849798,-0.0008854045659405823,-0.0005487165666992877,-0.00018961317302922088,0.000131168688830392,0.0003801717650681294,0.0005580038479075371,0.0006887564965237075,0.0008013194885011604,0.0009133108209961518,0.0010235455531389325,0.0011133886254325485,0.001154462311814109,0.0011197748438291234,0.000995525255807056,0.0007902665321186551,0.0005369374088045013,0.0002835727881617552,7.278129152247723e-05,-8.21792439298385e-05,-0.00021067866607209825,-0.00037477401231348056,-0.0006348313447379268,-0.0010058914847462948,-0.0014308388841482258,-0.0017917300497308135,-0.0019595647484003703,-0.0018574017308192184,-0.0014999600504286407,-0.0009851175536523787,-0.00044261532296527463,2.7501367276126266e-05,0.00038929850503652735,0.0006617559185327799,0.0008801867673327089,0.0010600232782291674,0.0011874772725628086,0.0012377855929294778,0.0012012565050859608,0.0010949217690269788,0.0009522958116206802,0.0008018627073364585,0.0006522033677419536,0.0004940889891307681,0.00031530331670839645,0.00011479816369975703,-9.428453768228046e-05,-0.0002920943866243413,-0.00046076633818690766,-0.0005865571849855204,-0.0006569995441496122,-0.0006614130979126009,-0.0005993681583505793,-0.0004907897912703699,-0.0003752226683905824,-0.00029451021447030257,-0.00026802797093147904,-0.0002788620514229678,-0.00028338059359228846,-0.00023953838943580305,-0.00013506152420929686,3.0963743221281564e-06,0.00012286150227678574,0.00017411484028460476,0.00013274885267410832,1.1669960754122051e-05,-0.00014245679716394055,-0.00026399733635192697,-0.0002919200888582929,-0.00019704479330317224,-1.841658384668654e-06,0.00022115034501729713,0.0003784075559061003,0.00040143996893032136,0.0002851459688989655,9.457863834983187e-05,-6.650929541706686e-05,-0.0001088097268909208,-2.505371409506534e-06,0.0002098227550911533,0.00043628292824253847,0.0005787291337441384,0.0005732006650728486,0.00041291411327592543,0.00015094654919585752,-0.00011427486422797232,-0.00026825987471989663,-0.0002218067170683773,4.545583203654851e-05,0.0004590227487157564,0.0008615379388772457,0.0010682754082935709,0.0009464014830462572,0.000479820798900364,-0.0002161851479843351,-0.0009415033678319246,-0.00149627459601487,-0.0017602866495864183,-0.0017270823527767837,-0.0014809802965074451,-0.0011376918984903532,-0.0007861165113342949,-0.00046190036950779524,-0.00015973433386813342,0.00013281928480717302,0.0004075691738383612,0.000633314839515357,0.0007779449332942982,0.0008359606536701785,0.0008384902680204373,0.0008357937228425992,0.0008630782085132121,0.0009142584824612539,0.0009441846190167856,0.0008994883248913061,0.0007562069951828803,0.0005361489664111648,0.00028952571358767983,5.712572596004912e-05,-0.00015895902775181232,-0.00039334247819744413,-0.0006842227496824153,-0.0010314384652141241,-0.0013745061530627829,-0.001607266395724573,-0.001623791329168781,-0.001371788755883819,-0.0008847867567468488,-0.0002751532323689331,0.000309319203862969,0.0007433178411156508,0.0009678549177189208,0.0010011106888266601,0.0009160620168522755,0.0008002407820840375,0.0007176625029973675,0.0006879727536429928,0.0006886076037218639,0.0006759673773872689,0.0006132369414713932,0.0004889902158017263,0.0003160496173258888,0.0001133203634415064,-0.00011381166012454225,-0.0003768932829773333,-0.0006862113201126576,-0.0010238290703972557,-0.0013304764358534498,-0.0015211933804184325,-0.0015240809918695068,-0.0013186412334393566,-0.0009489440794264905,-0.0005032497202154089,-7.324863887698619e-05,0.00028257834233452847,0.0005522585118046157,0.0007573324726765634,0.0009260887524079296,0.0010709093667575756,0.0011814846555559858,0.0012341620232740613,0.001208778425454116,0.0011019572883592824,0.0009291769456235753,0.0007145098908883255,0.00047448264140124866,0.0002074890776014174,-0.00010173382480337448,-0.00046270701509207096,-0.0008566966277091697,-0.0012277529579344016,-0.0014972411410820346,-0.0015970670492446945,-0.0015036926476723602,-0.0012525446449941848,-0.0009228337260221526,-0.0006000962759456341,-0.00033712073063538834,-0.0001346355882089045,4.900012775468912e-05,0.00026637897792063244,0.0005458766316550935,0.0008709678784492771,0.001183908320582717,0.0014113958983539565,0.0014987939441256514,0.0014347438506572218,0.001252823265630883,0.0010098625445320092,0.0007544132940567811,0.0005045841611795261,0.00024783054358550483,-3.9316517440447004e-05,-0.0003662639995516163,-0.0007150757902768463,-0.0010464088768375823,-0.001317938166012903,-0.001500361832224882,-0.0015803229388487512,-0.0015521470805373884,-0.0014098637066933231,-0.0011494286595322518,-0.0007806253742739064,-0.0003383870435741251,0.00011781166717190952,0.000519975548711729,0.0008158219585462944,0.0009878787616932967,0.0010563201712354825,0.0010635489161939728,0.00104909244642517,0.0010290002898943875,0.0009910394860139068,0.0009072895568772516,0.0007555074227883786,0.0005362796665815446,0.0002762851112627122,1.5851638643528572e-05,-0.00021262139737951435,-0.0004026734498802077,-0.0005749823572414039,-0.0007571336339357436,-0.0009530449623067526,-0.0011247386169351585,-0.001204368638013698,-0.0011332821136415489,-0.000902961818793471,-0.0005682897760752456,-0.00022149483043971908,5.7542752891455505e-05,0.0002422993276261987,0.00036545061440509637,0.00048700758037305855,0.0006473334614172467,0.0008367726405851685,0.00100109315278123,0.0010770113117830207,0.0010322622868545416,0.0008835834613762982,0.0006833671254808796,0.0004875556552952262,0.0003270145159221541,0.00019707472843511671,6.506289758797875e-05,-0.0001128596489758206,-0.00037248449253123777,-0.0007224597053333425,-0.0011287354873046236,-0.0015111651473193443,-0.001761736245854475,-0.0017844817268098537,-0.0015414887268370091,-0.001079588428373175,-0.0005183419699335511,-6.479502372915176e-07,0.0003700956018451648,0.0005727973465478901,0.0006678026533791189,0.0007523306929944239,0.0008968707701922469,0.0010995269846691233,0.001286700658782214,0.0013609027378107396,0.001265479801122792,0.0010234135598219942,0.0007242302548747302,0.00046848820297410376,0.00030750272052726933,0.000217007648518269,0.00011871930479190535,-6.72782965259411e-05,-0.0003730348618531714,-0.0007641705357718291,-0.0011590063865751878,-0.0014693643391015033,-0.0016362829694731723,-0.0016413387990779525,-0.0014940538992014767,-0.001212890188074556,-0.0008184578491634521,-0.00034279860399007,0.00015883289296512564,0.0006120777745710208,0.000949285800172442,0.0011427547028899786,0.0012203580687487798,0.0012472398610073035,0.0012804550715705756,0.001324736340552844,0.0013210949187641814,0.001181140903350295,0.0008492183278248013,0.0003520008834569214,-0.00020120415735911995,-0.0006732337288112269,-0.0009759173429248262,-0.0011177608663535269,-0.0011889356519297486,-0.00129218074318819,-0.0014646234346493794,-0.001641195239108897,-0.0016835672169617892,-0.001458813328732273,-0.0009235003034590735,-0.00016574299205765204,0.000620313162105803,0.0012176250800489223,0.0014854654279991195,0.0014226165954289377,0.0011607418271388776,0.0008924644791333555,0.0007743296105643879,0.0008559511722018745,0.0010680117644253778,0.0012676198859646179,0.001311683354158684,0.0011210791949642918,0.0007093274155082707,0.0001688680706136495,-0.0003740510125838438,-0.0008136949261782931,-0.0011039245325364403,-0.0012651668795369514,-0.0013580062069980512,-0.0014391706385675227,-0.0015248427521414704,-0.0015815625644317408,-0.0015487171248436983,-0.0013781003304801232,-0.0010662232228934453,-0.0006599003968076134,-0.00023223101562523625,0.00015570889160890393,0.0004833480491650921,0.0007710753059809757,0.0010519697054032562,0.0013331545914750586,0.0015737353774669242,0.0016976275087344558,0.0016374431086631505,0.0013834491921427476,0.0010046313580934967,0.0006236610218952957,0.00035618305612020304,0.0002487946739576643,0.00025278727233190516,0.000249999190457983,0.00011685364356594076,-0.00020818463943406986,-0.0006890441205320472,-0.0012057410380098255,-0.0016086926341039069,-0.0017842466092872935,-0.0016976918609980078,-0.001394999156748857,-0.0009694883633787038,-0.000517844178625189,-0.00010990454958056454,0.0002186694240540909,0.00045834126668441454,0.0006153302840130951,0.0007058134741725064,0.0007527968379636954,0.000781027880485199,0.0008090474244380698,0.0008416842245405447,0.0008665722182131986,0.0008558811400776235,0.0007728707644258153,0.0005828137085494396,0.00026712650095224466,-0.00016304910193669407,-0.0006600590281100448,-0.0011449994369604594,-0.0015251316681732115,-0.0017176571784380667,-0.0016717420771149548,-0.0013828605472310596,-0.0008971864951267866,-0.0003053888813532496,0.0002754761650820732,0.000732502986285747,0.0009942769413870455,0.0010598361756011115,0.0010002944564385257,0.0009244720123531747,0.0009213332229233639,0.0010100395587091123,0.0011281692221404003,0.001167611026549483,0.0010385036271879325,0.0007236309773114894,0.000291056522158993,-0.0001420392454801696,-0.00047254621734000766,-0.0006647628104358698,-0.0007634837414493269,-0.0008597803024324624,-0.0010292952468225023,-0.0012785555612249923,-0.0015305791778214492,-0.0016591957944515265,-0.001554495094775645,-0.001184801141494522,-0.0006221524546866361,-1.671718451076059e-05,0.00046855462963793233,0.0007309314149257021,0.0007714811284747841,0.0006867134786916056,0.0006128507286808245,0.0006522095972146405,0.0008202855101180092,0.0010408272927991014,0.0011906206155855262,0.0011690612569338148,0.0009540762484363611,0.0006136267467677689,0.0002673042679659156,2.087336773172986e-05,-8.885714703756433e-05,-0.00010894526112119253,-0.00013900742060541887,-0.000272948891009152,-0.0005454523013712024,-0.0009095982640793511,-0.0012542938305839003,-0.0014509417612914455,-0.0014071204026664035,-0.0011043736619892942,-0.0006058254159708715,-3.2774950361503315e-05,0.00047804907894371526,0.0008186807556881861,0.0009398815741181515,0.0008592918482315966,0.0006489681971987457,0.0004089290370696972,0.0002346560322534417,0.00018599342204738577,0.00026513038348684355,0.00041196013641172166,0.0005225886998206961,0.0004887700249584098,0.0002453637377779625,-0.00019392133949515324,-0.000730158671302099,-0.0012087532723636654,-0.001475753778935546,-0.001438410317005097,-0.0011032251342790091,-0.0005731762506366624,-4.378596443107663e-06,0.0004576480373893598,0.0007318217556577556,0.0008211696424767422,0.000792689678918409,0.0007319921684425645,0.000698278132348901,0.0007023613879235369,0.0007160835725025859,0.0007030030581267686,0.0006479015294587763,0.0005647034741311358,0.000478566717846683,0.0003974647359478892,0.00029711331721306587,0.00013343359755475006,-0.00012459953758276395,-0.0004656899034352223,-0.0008332073843931423,-0.0011520418992273095,-0.0013666866947793872,-0.0014637104660112192,-0.001463802654960334,-0.0013915596916634035,-0.0012479584896819519,-0.0010086215306675218,-0.0006513768987712115,-0.00019290297621229026,0.00029593085168397077,0.0007136713409124419,0.000979951587768043,0.0010807883508315908,0.001074066880268378,0.0010489498556444812,0.0010664558291729619,0.0011222598073256285,0.0011562367032470838,0.0010994635315435966,0.0009236926627895308,0.0006587064773404697,0.00036783010161754444,0.00010237296932723685,-0.00013016966091578246,-0.00036121645745603527,-0.0006247174138558286,-0.00091752459698365,-0.0011859547450358263,-0.0013479766747688212,-0.0013356022488590323,-0.0011304891482967095,-0.0007733721862866747,-0.0003459528152896354,6.160888332299537e-05,0.00038093990050284504,0.0005819901568298079,0.0006721134086664202,0.0006807814025684026,0.0006387066459997247,0.0005631559489820833,0.00045806217973180774,0.0003275248690969182,0.000190229667246872,7.938303684792308e-05,2.2622245667195816e-05,1.3515763086580193e-05,-2.2980807390453025e-06,-0.00010817535878784195,-0.00036717282695826773,-0.0007685978920927473,-0.001206508787880443,-0.001512306655023832,-0.0015315542969710756,-0.0012051828615479562,-0.0006082523375063331,7.833455225199945e-05,0.0006497709414555888,0.0009695155114773271,0.0010239567767769018,0.0009141155625158459,0.0007931737871312332,0.0007852783554857662,0.0009270163903135741,0.0011573778306703793,0.0013553903330988657,0.0014019542995147383,0.0012345013360093484,0.0008711531954542129,0.00039802662375705507,-7.02749291629656e-05,-0.00043777982633779627,-0.0006626370911509393,-0.0007685656137075049,-0.0008292698417748078,-0.0009316283416840074,-0.001130862479110876,-0.0014159501359248044,-0.0017027301399847353,-0.0018623025589209878,-0.001776007433191566,-0.0013937430222162467,-0.0007679789724894542,-4.466945538334399e-05,0.0005888117042375733,0.0009777515274844765,0.0010627664911838982,0.0009011556646287798,0.0006362819968375193,0.0004298779801006605,0.00039032501250668987,0.0005308801775718865,0.0007753288451324591,0.0010037922222977651,0.0011116875532996276,0.0010507763098862378,0.0008350685451838071,0.0005171947092351453,0.00015699269459687156,-0.00019741658986143266,-0.0005111789879551427,-0.0007564507539876717,-0.0009099437350183668,-0.0009573097953032052,-0.0008987761043867698,-0.0007493379337804156,-0.0005322141035208613,-0.00027028095006288673,1.790950516702023e-05,0.0003142297393871127,0.0005922441123785802,0.0008118891145141368,0.0009256232522447009,0.0008970959360111077,0.0007232354948132664,0.0004451245908148125,0.0001378990348765382,-0.00011754275294016746,-0.0002676265807570865,-0.00030891501188345537,-0.0002911766131664787,-0.0002984047291920154,-0.00041195877083632557,-0.0006673143028152833,-0.0010233097798713659,-0.0013640633377063325,-0.0015421205957228228,-0.0014483262522898036,-0.0010725817182455225,-0.0005176270768968115,4.7567809695941846e-05,0.0004705919904840079,0.0006862867896430345,0.0007350535856952946,0.0007225507011485763,0.0007500437317460625,0.0008586735900119443,0.0010174122955335955,0.00115494973010819,0.0012095630956028358,0.001163575325381048,0.0010433209879518095,0.0008908017021160979,0.0007315743907972253,0.0005622346213001162,0.00036257262649812787,0.00011795573307755785,-0.00016751534614569235,-0.00047483839450548356,-0.0007824499195169085,-0.001072497851576329,-0.001325047516289884,-0.001508653150739505,-0.0015818839240531067,-0.001511522498597758,-0.001296637293134952,-0.0009789552761987263,-0.0006280013407030363,-0.0003082572703321789,-4.944974696963466e-05,0.00016101721378988592,0.0003599151644624403,0.0005772665583649566,0.0008121110530971612,0.001028454697551142,0.0011719682399276682,0.001196708773430347,0.0010875100801279961,0.0008680814045524345,0.0005929025752907021,0.0003276296769468888,0.0001257116993356125,9.04647281019854e-06,-4.0792862664450425e-05,-7.652966941070326e-05,-0.00016387583833968127,-0.00034999490263198745,-0.0006330472107310792,-0.000947970063125127,-0.001180916825642786,-0.0012134078274532282,-0.0009805097191349552,-0.0005144277817853224,5.380702752123844e-05,0.0005429986815747843,0.000801523316192624,0.0007787298147191927,0.0005492494599071545,0.0002745657587196954,0.00012034889678604315,0.00017376811106835236,0.0004054310908901287,0.0006940147762616636,0.000894859466169307,0.000910711803954969,0.000726861707995939,0.00039858077548104347,7.639374292813038e-06,-0.00038089553273044897,-0.0007367322725480077,-0.0010526209741071868,-0.0013179907063541137,-0.001500709684413231,-0.0015518677956043495,-0.0014313834032618157,-0.0011370474713283088,-0.000716122181268626,-0.0002494828470853569,0.0001832825835920783,0.0005361035052281899,0.0008059125511011439,0.0010151062322666055,0.0011813306157557888,0.0012969883541059995,0.0013328865915485971,0.001262709660387765,0.0010901514745503419,0.0008582328589835003,0.0006315039717103726,0.0004595381754126708,0.00034387838856946636,0.00023140119849723035,4.2641236058233576e-05,-0.0002782817482879559,-0.0007205875041015059,-0.001196796919421717,-0.001573605316686967,-0.001728769103903708,-0.0016051656832426677,-0.0012353847645697805,-0.0007265175353411447,-0.00021529687564360083,0.00018324232372464303,0.00041081682091098133,0.0004731688323481888,0.0004224123982078044,0.00032708589093170424,0.00024419074360665025,0.0002026834688571965,0.00020139081274700356,0.00021961961923730943,0.00023553375513578955,0.00024405414865763872,0.00026392942194140476,0.0003268297694513959,0.0004513551976256777,0.0006165305105167993,0.0007537798845088862,0.0007685832312499767,0.0005863663438189002,0.00020088761660204608,-0.0003029274898469377,-0.0007707146178829892,-0.0010416796565248015,-0.0010245875571228218,-0.0007459042223113679,-0.00034012835330317543,1.634311519342407e-05,0.00019279626023426135,0.00016437630158291873,1.2283781853704315e-05,-0.00013219777147722831,-0.00016333156691889986,-5.1515530771587025e-05,0.00015610709029038856,0.00037731334659607085,0.0005471261201474855,0.0006473433991341015,0.000698197186258549,0.0007223297877005709,0.0007082502493885167,0.0006004095934525799,0.0003267255182040629,-0.00014928872171465145,-0.000782345553493601,-0.0014362018881495587,-0.0019238691688696786,-0.002081721179866983,-0.0018413235474156896,-0.0012621825113887154,-0.0005088974473072406,0.00021482504665371613,0.0007426030088851344,0.0009986670751898799,0.001009954833286835,0.0008789325433856811,0.0007330078999936828,0.0006715768088577655,0.0007302548645402246,0.0008750062023890268,0.0010269413190750272,0.0011046092571511629,0.001061727491487318,0.0009009926501953006,0.0006589280780832451,0.00037456793094851605,6.460703944862454e-05,-0.00027753591798333565,-0.0006584504847628307,-0.0010547040002381913,-0.0013998387050098864,-0.0016024929583134018,-0.0015895613539141516,-0.0013503227881132545,-0.0009538404592854163,-0.0005259779547990422,-0.0001956831543767454,-3.820274796750611e-05,-4.460223990295994e-05,-0.0001319244527221259,-0.00018648675743045693,-0.00011728977352358364,0.00010552861478704904,0.00044257667973816834,0.0008078544645267523,0.0011087951756169557,0.0012832434028292067,0.0013161656902084351,0.0012309769585356312,0.0010641218827261005,0.0008393198367429516,0.0005566854144473121,0.00020338128423873962,-0.00021980529417188954,-0.0006724601455171809,-0.00106879044251839,-0.001302912221624534,-0.001297386122381947,-0.0010492858636500513,-0.0006439370093046361,-0.00022238905845006112,8.301114847429321e-05,0.00020875983862702154,0.0001812441266358714,8.892151228037819e-05,2.6752676838591742e-05,4.838956307397826e-05,0.00015076672215479813,0.00029096254600629966,0.000416502161803922,0.0004888619675431148,0.0004912920299115452,0.0004241258699862503,0.00029590526931865267,0.00011738762963561279,-9.852106472796622e-05,-0.00033232000154558933,-0.0005537829770766286,-0.0007234051040148179,-0.0008013848555184744,-0.0007612885859620505,-0.0006024762485643645,-0.0003551218301621164,-7.35343870734712e-05,0.00018245186524691405,0.0003717452865000695,0.0004896450648147884,0.0005669405079332926,0.0006480416290205184,0.0007593479277068025,0.0008869137849728219,0.0009781785301345258,0.0009685187297001556,0.0008184869594454785,0.0005404943782252318,0.00019816158727545768,-0.00012424203474014562,-0.00036728359601370317,-0.0005301724434122889,-0.0006693404662951204,-0.0008577315419498354,-0.0011268155144801932,-0.001428574003444968,-0.0016461626908525991,-0.001652339760256774,-0.0013827517776872,-0.0008792346831423908,-0.00027584286907506657,0.00026425542655004986,0.0006237886244542018,0.000776794547517994,0.0007836935030215516,0.000745472684065379,0.000747132605923591,0.0008212805655669418,0.000946117064184052,0.0010704333303299318,0.0011452074468153888,0.001143148962390039,0.0010600200127110872,0.0009046615172630234,0.0006896479656521216,0.0004293771576804146,0.0001427542949453325,-0.00014749554709179145,-0.0004225142643631042,-0.0006761592508359871,-0.0009146932604901855,-0.0011433537722467708,-0.0013482758815388835,-0.001489414303172981,-0.0015144553812661984,-0.0013883409343733721,-0.001119520209838379,-0.0007634144655096445,-0.0003975979940769133,-8.269084501422077e-05,0.00016586728003400704,0.00037588377451873043,0.0005872063839438846,0.0008131195652157226,0.0010225090488440104,0.0011565255312249241,0.0011679570363159076,0.0010542735569643322,0.0008601332016994867,0.0006483182261781996,0.0004611872072390941,0.00030013705386495895,0.00013561851593568383,-6.196193544468185e-05,-0.0002930739372026426,-0.0005209973534320622,-0.0006896946866928894,-0.0007565188307462462,-0.0007195609630988656,-0.0006216887159204664,-0.0005265881422725115,-0.0004797704229785493,-0.0004784178320528676,-0.0004698782627099303,-0.000381513991269261,-0.0001656580195069058,0.00016576323679540574,0.0005373127727906611,0.0008410544209967557,0.0009874762864900215,0.000949051986710549,0.0007718711237566784,0.0005484701357061825,0.00036765421647960234,0.0002703628743032864,0.00023576822085541764,0.00020218588322832437,0.00010659134972823103,-8.144935847860627e-05,-0.0003473179039766451,-0.0006407917861065605,-0.0008975669971063801,-0.0010621148545139725,-0.0011047520256889877,-0.0010284901222285911,-0.0008631979289897019,-0.0006490808385352001,-0.0004180845074888513,-0.00018485601211749267,4.6890769126017005e-05,0.000268904110776626,0.0004586829256750201,0.0005868649167306765,0.0006389299772774582,0.0006346013654369919,0.0006264476705853982,0.0006725982867154343,0.0007985374356141418,0.0009739031252550922,0.0011217335684506563,0.0011551673699831085,0.0010181157079348561,0.0007062721211687126,0.00026129408407116325,-0.00025082175906598897,-0.0007602026475832164,-0.001203472875360597,-0.0015273039963122836,-0.0016933297285064114,-0.0016871127124166699,-0.001524924480966228,-0.0012496477744586864,-0.0009142069207081634,-0.0005609671055239366,-0.00020918592649511595,0.0001428907042694711,0.0005038081242939316,0.000870864736174815,0.0012171776402767373,0.001490611428116525,0.0016277360728199318,0.0015797469723948698,0.001339071286743236,0.0009509987641319389,0.0005005456881943309,7.960175440627302e-05,-0.00024738308360043614,-0.0004603518083395885,-0.0005771968310324669,-0.0006333648324860478,-0.0006629560854825888,-0.0006902167752128042,-0.0007288760072198803,-0.0007811724368621902,-0.0008330557622050206,-0.0008513678604785638,-0.0007923745489774609,-0.0006235531705190274,-0.00034770265670562995,-1.2150849103510373e-05,0.0003068520403581689,0.0005381791164449568,0.0006490539574105755,0.0006582275420708882,0.0006222048298643986,0.0006032442797252542,0.0006368884809085766,0.0007150381964905026,0.0007909211694576662,0.0008013024537412898,0.0006945349807428766,0.0004524883154545166,9.859806207674379e-05,-0.0003095103771349227,-0.0006986094070782758,-0.0010019139015178468,-0.0011765264876525939,-0.0012108913255752204,-0.0011210006724539654,-0.0009382885090428903,-0.0006955179316734448,-0.00041798572007652424,-0.00012414029476833096,0.00016693968374392374,0.0004291761958028653,0.0006317244752341567,0.000750787575606681,0.0007840023011797903,0.0007565884583272488,0.0007119982539452343,0.0006894166215295895,0.0007004262005971545,0.0007200090071563968,0.0006991374395176756,0.0005919663890372775,0.0003805132688190668,8.182832469427558e-05,-0.0002643582734149799,-0.000615748577243765,-0.0009395940038715819,-0.0012095295585885799,-0.001393744756937773,-0.0014494526362086894,-0.0013346853591166097,-0.0010346929242683778,-0.0005865499406864439,-8.232108111002213e-05,0.0003582710618370141,0.0006362538921931068,0.0007185746985667641,0.0006541938693430868,0.0005493346644995053,0.0005127387372871889,0.0005997354491582704,0.0007854707461566071,0.0009809196986797627,0.001080794845215242,0.0010156180421981363,0.0007803622259699515,0.00042724630777366256,3.0844961827384914e-05,-0.0003512396937839832,-0.000697258569283787,-0.0010087487583042068,-0.00127802913508535,-0.0014633800404648505,-0.0014956431800406034,-0.001316718009427024,-0.0009248942020052878,-0.00039421394861914247,0.0001487046663415881,0.0005787561874113747,0.0008256194713156512,0.000895858301236803,0.0008543013307435315,0.000780210981328284,0.0007262652039076534,0.0007018400771939672,0.0006834480960521824,0.0006382654640226406,0.0005422658113075848,0.000383804355069618,0.00015807210650149527,-0.00013442422292786645,-0.00047793267522063334,-0.0008272148099572971,-0.0011062684332754295,-0.0012317824721801087,-0.001153703919905347,-0.0008876182092552395,-0.0005144226242294176,-0.00014385750500011036,0.00013641009059642533,0.00029541889468891007,0.00035968018964355176,0.000385668565132674,0.000424649077107304,0.0004988883784483194,0.0005961473640033556,0.000678446537070715,0.0006977594127026859,0.0006133282715805189,0.00040749344938483044,9.695094714764232e-05,-0.00026455644861105444,-0.0005957626734960099,-0.0008102105375886983,-0.0008460794948894688,-0.0006918560947762457,-0.00039456590443166084,-4.418149587661615e-05,0.000259663006814933,0.00044319962711048216,0.00048133882908353326,0.00040121841852670207,0.00026873591523947815,0.00016420255408154476,0.00015316916824265254,0.00025879657978057115,0.0004449038229898108,0.0006204659381307989,0.0006708662593117162,0.0005075743560433081,0.00011389521466202262,-0.00043830325773124316,-0.0010123123236152967,-0.0014596386106471304,-0.0016750285098467393,-0.0016269960887501142,-0.0013538041149114815,-0.000934690147588232,-0.000456446391115644,8.488862043350837e-06,0.00040891190776193027,0.0007139135167434004,0.0009125988024892665,0.001015776925131429,0.0010536970875497452,0.0010645873005580894,0.0010770155698918357,0.0010965485188220727,0.0011058792404114214,0.0010778837965604035,0.0009912083024914574,0.0008366419793388495,0.0006111690419591141,0.0003081511178884145,-8.32640618029454e-05,-0.0005632593987592317,-0.0010985508025770517,-0.0016095219857296499,-0.0019831149281750488,-0.0021125296390661907,-0.001946227396113618,-0.0015191688205978635,-0.0009463329673765444,-0.00037877851274858087,5.695004268633036e-05,0.0003068696244881379,0.00040301108392639306,0.00043702715477250264,0.0005065726394747135,0.0006597516742102502,0.0008659317331434805,0.0010309775515845005,0.0010525582336308578,0.000886651391910552,0.0005854085274731335,0.00027946104712433693,0.00010970729693908282,0.00014564125467337067,0.00033842611940560104,0.0005388381293935812,0.0005732181717046975,0.00033697242356405595,-0.00014513091150287062,-0.0007242462615066228,-0.0011950898799917118,-0.0013901648409430382,-0.0012525149793264651,-0.0008523114017272425,-0.0003433352820755032,0.00011354924789033923,0.0004184174454313764,0.0005595141645556357,0.0005930911303031242,0.0005949189434970431,0.0006137741570833927,0.0006503077834961173,0.0006667850884764263,0.0006159938341961432,0.0004703820339271637,0.00023704936108712507,-4.514529542904615e-05,-0.000321463508857226,-0.000542420126003417,-0.0006830367036673256,-0.000753303686167262,-0.0007932061405173059,