-1.0696701978144972e-05,-0.0008622489389114793,-0.0016362537004982053,-0.0022797192809886624,-0.002780335767625472,-0.0031665863376264536,-0.0034888659436276906,-0.0037883485091169747,-0.004068231550078176,-0.004281441208050234,-0.004339718954407025,-0.004137965885622132,-0.0035829077456977845,-0.002618889564119967,-0.0012503960403748172,0.0004372024766259256,0.0022635700741278925,0.003961079701833943,0.005221876302747596,0.005786457574939553,0.005546013508975066,0.004607549632209606,0.003276637799191181,0.001950190551145349,0.0009606059657551458,0.00044449148779440034,0.00030348216204301864,0.00027925139066960897,0.0001018938577037054,-0.00037014460960754086,-0.001090513037680079,-0.0018649620387833875,-0.002454168558445432,-0.002679585138647485,-0.002486862337918048,-0.0019518330493070728,-0.0012392528447018238,-0.0005374927504655479,4.780178085915174e-06,0.00031874968708447797,0.00042167631317267806,0.00039098926617180986,0.0003187995273223089,0.00026569939860424455,0.00023302020641122884,0.0001662969773201864,-9.795172730088855e-06,-0.0003398710160933006,-0.0007952964091217339,-0.0012653079303082196,-0.0015912841923806037,-0.0016312995512923123,-0.0013249253888724648,-0.0007260502253916539,1.428282088075173e-05,0.0007090701206400241,0.0012122764582096807,0.0014742469849129262,0.0015493914552157043,0.001556064150933744,0.0016134033523484761,0.0017871421609964196,0.002064089815163029,0.0023564874688080245,0.0025274236144409573,0.002429423749408392,0.0019512528191825479,0.001064507920251371,-0.0001463309158155194,-0.0014888268311811356,-0.0027098554195208544,-0.003572486876681766,-0.003933086395649002,-0.0037860922090087695,-0.003256003034082474,-0.0025385403705691662,-0.0018168431410956645,-0.001192066518583449,-0.0006613665820441633,-0.00015117595755821992,0.0004162297588967904,0.0010619218769745433,0.0017288631571422506,0.0023092938497091056,0.002701651855167429,0.0028603397294242826,0.0028060759870912988,0.0025901044254895505,0.0022384962331549354,0.001721195635999597,0.0009775139054233862,-1.0833845677467313e-05,-0.0011491766693797953,-0.0022202314711414293,-0.0029574282734504396,-0.0031655452652665375,-0.002816800038700695,-0.00206389184891262,-0.0011640943425525623,-0.00036155694887909863,0.000206575631948344,0.0005371229599557886,0.0007202603491990305,0.0008651551587847458,0.0010357894023709326,0.0012268069465758023,0.0013823313190189325,0.0014366805785524404,0.001347854027541416,0.0011062431318835436,0.0007228429165816667,0.00021633308592033506,-0.00038461204257801717,-0.00102486778854644,-0.0016100573315589119,-0.0020170610831354904,-0.002132048492769968,-0.0018987973022172653,-0.0013496034930407603,-0.0006003300115812414,0.00018749870911473842,0.0008578964409608838,0.0013034000845617677,0.001487866214583874,0.0014473303813962149,0.0012715752255772663,0.0010699070925935682,0.0009280343081039708,0.0008702106189524513,0.0008454754052461628,0.0007504653187074492,0.0004830425642936851,1.3825452826501906e-06,-0.0006430580245992344,-0.0013168819527141543,-0.0018541096311097565,-0.002118032153139785,-0.002047121583572196,-0.0016687400548050717,-0.0010815100344823475,-0.0004187870022710809,0.0001921648038697533,0.0006642192618457979,0.0009697723097672108,0.0011390656021211239,0.0012352867190110644,0.0013146221906250486,0.0013908735606143231,0.0014256847654565957,0.0013511866483547847,0.0011103329275010845,0.0006886540581211296,0.0001197709868897746,-0.0005317392300502515,-0.0011911901838947815,-0.0017822184263967774,-0.0022232870332819414,-0.00242744859093944,-0.0023201159087167175,-0.001873734173272367,-0.001139661251260991,-0.00025188368248894736,0.000609354707307845,0.0012815213327160538,0.0016799376439036648,0.0018220892435176848,0.0018026326796094835,0.0017324196958384778,0.0016748587121972,0.0016148003493740648,0.0014764750754321678,0.0011773889611864153,0.0006832829047789663,3.106775067340903e-05,-0.0006890543933392901,-0.001373156701903998,-0.0019354740176175844,-0.0023165587670442547,-0.0024748384154131223,-0.002381210840611966,-0.002028756682712529,-0.001451027410998719,-0.0007304929044976113,1.6259096307579988e-05,0.0006733038673763303,0.0011624686139339992,0.001463150516530061,0.0016057223882770472,0.001644149357962177,0.001623546147820319,0.001559097139565087,0.0014348153685342013,0.0012191347661145778,0.0008862830105145325,0.0004324953452089883,-0.00011715914545307356,-0.0007092262459134917,-0.0012670536581738216,-0.0017019472081026563,-0.0019327542447242414,-0.0019112798113258386,-0.0016433031691440083,-0.0011922794339592627,-0.0006594498061357089,-0.00014722688926807918,0.0002762244144712193,0.000592793271583782,0.0008237357560735869,0.0010015816614254258,0.0011431510794617165,0.0012393823872628813,0.0012655115807783516,0.001201678252574184,0.001047558381189746,0.0008198338540411525,0.0005355384354917118,0.0001970918537695488,-0.00020493223093577106,-0.0006691008395981073,-0.00115574977118159,-0.0015773304653643818,-0.0018194827493075842,-0.0017862816022409884,-0.0014469712102275728,-0.0008594394995560333,-0.00015796006167302472,0.0004897035724709137,0.0009380734355959493,0.0011113686641957914,0.0010254555526767585,0.0007762409738288065,0.000498301239121491,0.00030924946999089033,0.00026197737762300404,0.0003246923789012948,0.00039797816274574494,0.000363092169317214,0.00014202985043521824,-0.0002570363900318085,-0.0007315503761716954,-0.0011211962271634344,-0.0012756320331029384,-0.001122045012482066,-0.0006983499626301293,-0.00013411793684451907,0.000410625519154629,0.0008153070384352866,0.001040270480425131,0.0011208347223992136,0.0011234090304015933,0.0010942247181760488,0.001032529333600496,0.0009015610282044292,0.0006647962625428452,0.0003193185002122287,-9.669386914390801e-05,-0.0005240650200952605,-0.0009116438059214673,-0.0012319077645859152,-0.0014749647049698772,-0.0016311349369522202,-0.0016795273600694483,-0.0015923008648151787,-0.0013504927212622442,-0.0009591291189253238,-0.00045161363966235435,0.00011785709159830237,0.0006874857218538476,0.0011987889799704725,0.0016015391926582595,0.001854769121271823,0.0019286337367369001,0.0018098066960871256,0.0015081030931020966,0.0010587673243772533,0.0005167621821783183,-5.48571029442799e-05,-0.0005960907109059568,-0.0010555404037741892,-0.0013907947529604022,-0.0015685188778212927,-0.0015682175573104328,-0.0013885989740351887,-0.0010517143268354832,-0.0006016410221649287,-9.92223272506434e-05,0.0003841356150780876,0.0007747880318497249,0.0010121858921267825,0.0010714455825728134,0.0009818306633246506,0.0008232890144230731,0.0006920564464340238,0.0006476109736282731,0.00067134546773132,0.0006664492133311166,0.0005059205283805501,0.00010532233008647804,-0.0005200849620409296,-0.001245929577216174,-0.0018820097586341607,-0.002245607933787924,-0.0022295449247470814,-0.0018359176772084025,-0.0011654408061424176,-0.00037346066793059196,0.0003836032089842873,0.0009892119037619592,0.0013852258448424758,0.0015708024397107518,0.0015892554601317633,0.001507995354237395,0.0013935959277051096,0.001285437270983322,0.001176451293214384,0.0010126882932456622,0.0007189479634815096,0.00024458613329779834,-0.0003916790711441865,-0.001085118641665455,-0.001672372674445909,-0.0019943724301091175,-0.0019643926311549865,-0.001606284376312516,-0.0010435729329659304,-0.0004457452350180983,4.111068990093176e-05,0.00034650789707617205,0.0004886409002193676,0.0005466536244243547,0.0006094348629608322,0.0007272386232214038,0.0008879862201132015,0.0010258184549613053,0.0010539424610372225,0.0009051476128441397,0.0005635715343426455,7.665151619767535e-05,-0.00045714627064715585,-0.0009215937781318509,-0.0012246814081992247,-0.001330039771518236,-0.0012604823373034038,-0.0010706781793874656,-0.0008062164724530433,-0.0004778932587473103,-7.129546614895893e-05,0.00041416174490292333,0.0009271724917981354,0.0013610353520502418,0.001595334131319737,0.0015601825260844358,0.001281402214970014,0.0008745855743508702,0.0004877328854942317,0.0002244225044141565,9.156340532029449e-05,1.4557740287325259e-06,-0.00017272731629247896,-0.0005179907135459532,-0.0010217765276930766,-0.0015645690689375105,-0.00197035713336283,-0.0020883858854676175,-0.00186164517313582,-0.0013460510480986755,-0.0006746473823497853,6.933027160213731e-06,0.0005949824333653996,0.0010463460747009835,0.0013619459259790532,0.001556898929910473,0.0016408891618988554,0.0016173903439102087,0.0014928937161248874,0.001281861015878852,0.001001615527395314,0.0006635770622373384,0.0002717093384317864,-0.00016731982265311314,-0.0006289210087599743,-0.001063480620664435,-0.001406586332191792,-0.0016033316466272929,-0.0016314906575731025,-0.001506933836095476,-0.0012667488486113431,-0.0009430497406493084,-0.000549145882475302,-9.073024111206198e-05,0.00040655395629457026,0.0008783745424526099,0.001233771182909616,0.0013972013095787518,0.0013541679485679515,0.0011661131036362908,0.0009378901671168998,0.0007531874383803959,0.0006178712783385913,0.00045091525367104714,0.00013559663680160817,-0.00039476205464177255,-0.00108812218021115,-0.001768856443657195,-0.002207676536749046,-0.0022311831639349753,-0.0018088349074472246,-0.0010667624309895895,-0.00022226668125714232,0.0005194143764245489,0.0010455944744776227,0.0013541438210051071,0.001512054589371287,0.0015917173107587149,0.0016268870371319495,0.0016081637711161008,0.001508290271164003,0.0013110446029579545,0.0010217875064715838,0.0006561499012457698,0.00022162417126422052,-0.0002876846183873802,-0.0008737073360050167,-0.0015042249898516607,-0.0020930584783169907,-0.0025110907421800896,-0.0026303045218440207,-0.0023807838964712063,-0.0017894919732286338,-0.0009779417429659045,-0.00011876543630395551,0.0006263619653881228,0.001156922815263886,0.0014506981392234883,0.0015455666444133525,0.0015011092407461715,0.0013632523998621518,0.0011507277600743709,0.0008671910555077557,0.0005256498060840306,0.000163789428433122,-0.00016364148278040638,-0.00041092165503692224,-0.0005661477282044071,-0.0006545856523142196,-0.0007156312758117903,-0.0007680196049309317,-0.0007877884379994119,-0.0007167202394029825,-0.000499546021224262,-0.00012781233471417143,0.0003394804465615952,0.0007957901612088669,0.0011376755498262918,0.001313667597814611,0.0013390484709238297,0.0012684006905938727,0.001147818439263576,0.0009821077104932698,0.0007397974699010527,0.0003900009121728889,-5.870629777724224e-05,-0.000548526719073249,-0.001000803936582265,-0.0013627800063791577,-0.0016386829716009555,-0.0018803175581146012,-0.0021381366688605122,-0.002400559559153714,-0.002562210955319384,-0.002451725815124745,-0.001917527155606282,-0.0009302607390819836,0.0003608870613306021,0.0016631492838322774,0.002658856531331475,0.003145097685481331,0.0031139498510784004,0.0027280952284669735,0.0022115147605192213,0.0017249968068389658,0.001299615552332972,0.0008600193359772394,0.00031286936131882676,-0.00036119309909138993,-0.001071169414207583,-0.0016556608008659935,-0.0019701789738939992,-0.0019636520450167297,-0.0016963231956911903,-0.0012929972340342652,-0.0008683469542548326,-0.00047475161707610634,-0.00010115053287566856,0.00028629452386561997,0.0006957547328986569,0.001085398052013428,0.0013740410952499391,0.0014763605141356767,0.0013426811236807988,0.0009850689349982507,0.0004785461529391493,-6.419438451409228e-05,-0.0005347160391214556,-0.0008681415770282316,-0.001060409264892033,-0.001155598837117606,-0.0012117447252896736,-0.0012638541496114823,-0.0013018704195032716,-0.0012722878149415743,-0.0011019308475761396,-0.0007351314049469341,-0.00017080474637924615,0.0005168828025688001,0.0011885092509373888,0.001683612256113038,0.0018851345806311693,0.0017748530147651648,0.0014484626444259347,0.0010749873026272413,0.0008139154162253875,0.0007303124853209585,0.0007558073195784662,0.0007226518862117258,0.00045732513628184276,-0.00011650259412715838,-0.0009237043008101458,-0.0017624891393161056,-0.0023927248955207753,-0.00263778447150305,-0.0024475588073245556,-0.001898094518840072,-0.0011403080427331708,-0.00033313483236992864,0.00040469975272621443,0.001008808973518142,0.001455266851448028,0.0017373673681633055,0.0018511431898718944,0.0017968596613459537,0.0015896467982883585,0.0012648431387389534,0.0008688262535183531,0.0004403757512522901,-1.65732732626718e-06,-0.0004518916304296088,-0.0008961097770064342,-0.001290660055230867,-0.0015623344930187496,-0.0016338942946263707,-0.0014624840864039166,-0.0010689598242982707,-0.0005409521445846717,-6.4785756394416865e-06,0.00041102881527734143,0.0006376478015379203,0.000675110510899564,0.0005960298524709633,0.0005081261765972978,0.0005017360241261783,0.0006046873059812985,0.0007666723486740709,0.0008809249039470892,0.0008326291336268142,0.0005519201179863477,4.932300953992591e-05,-0.0005798193805668466,-0.0011831513017258517,-0.0016007626349720495,-0.001717831997987872,-0.0015011415144319839,-0.001006904497143078,-0.0003587080972490429,0.0002944672392318537,0.0008236607559188103,0.0011527641079567214,0.0012694425966446815,0.0012142193004540498,0.0010557775252862034,0.0008639400806038558,0.0006894689325121094,0.0005537841410121328,0.0004466703895154996,0.00032989526779494396,0.00014832427919563777,-0.00014813022531113304,-0.0005736600993495496,-0.0010796305100763304,-0.0015515872963313055,-0.0018431640862578195,-0.0018379754902690636,-0.0015080639827701025,-0.0009332741741609016,-0.0002667986722550663,0.0003348243024224436,0.0007767876975051597,0.001049873053351894,0.001204241754603734,0.0012959552427210049,0.001343474015444491,0.0013200745952430632,0.0011811190635110532,0.0009027419131128855,0.0005051705439000573,4.810768906243481e-05,-0.0003954950747654621,-0.0007694971480353445,-0.0010508390187833944,-0.001243699626766222,-0.0013565919549143753,-0.0013786274507399394,-0.0012734919389731359,-0.0009997277784236027,-0.0005480212488630396,2.8397521253422633e-05,0.0006143933612832822,0.001071984681870685,0.0013003230972314476,0.0012825323142844503,0.0010902117587711377,0.000841422521446795,0.0006365237124619157,0.0005088051724928935,0.00041624035018101506,0.0002758907373888946,1.9648087692253184e-05,-0.00035931488521807507,-0.0007933636272287074,-0.0011666364563750586,-0.0013665743187044836,-0.0013338345702998667,-0.0010853550923707283,-0.0007007619846669326,-0.0002823334948244895,8.836314976493124e-05,0.00037483413009574087,0.0005816459879153966,0.0007300845992059802,0.0008330897947881061,0.000886838762073088,0.0008813667031970546,0.0008165735609038114,0.0007064663310627702,0.0005664261597913941,0.00039493576234537965,0.00016806463064155465,-0.00014383414999817292,-0.0005454498419460949,-0.0009926962456408106,-0.0013939765588357386,-0.0016388930228250095,-0.0016399334179827902,-0.0013665810479377323,-0.0008577027783833753,-0.0002098480184631718,0.00045158765179783786,0.001007450445790894,0.0013754487508615143,0.0015277534777085146,0.0014905299978844665,0.0013256339329768396,0.0011012502051064507,0.0008634302845475384,0.0006210605200767818,0.0003515075486505881,2.4652028123026484e-05,-0.00036680376691170034,-0.0007877770071114667,-0.0011649405447067827,-0.0014149644269324333,-0.0014827160937183833,-0.0013678066697988074,-0.001123221208267696,-0.0008258256114732519,-0.0005358808981798209,-0.0002701597216960182,-5.215289077849803e-06,0.0002920246284237748,0.0006275734390794579,0.0009633076664009116,0.0012314571163428933,0.0013698237299792672,0.0013520957320649627,0.0011926520453907755,0.0009262303864027556,0.0005825559033200162,0.00017821093166601424,-0.00026875089276963583,-0.0007170683546718149,-0.001096502150877293,-0.001328738513948748,-0.0013637405566049026,-0.0012065287814750011,-0.0009146839002746907,-0.0005674316380128333,-0.00022736138559483875,7.993334845724431e-05,0.0003577817523701221,0.0006129359871954792,0.0008347644729390853,0.0009945587978564025,0.0010631882959258171,0.0010316392107863246,0.0009178118364836709,0.0007535937090925589,0.0005609148543752296,0.00033469264138827,4.784150218301508e-05,-0.0003207586575421371,-0.0007521039529679828,-0.0011722381545671283,-0.0014733846365474743,-0.0015639098465555178,-0.0014171130484896687,-0.001085613170056742,-0.000670139500084456,-0.00026368040204142074,9.08421618813222e-05,0.0004025792033967607,0.0006980851442132178,0.0009792264584479672,0.0012055086667358333,0.0013125549380142811,0.0012518326594834427,0.001022712698039295,0.0006754831578043532,0.000285923865826055,-7.882308845902625e-05,-0.000380701432313819,-0.0006084964227943603,-0.0007609531902063839,-0.0008314844762248642,-0.0008064696293436186,-0.0006778303883596933,-0.0004600384777924656,-0.0001977730612906036,4.457570665499896e-05,0.00020872713832872892,0.0002697100884240611,0.00024803369691014064,0.00019886454173780065,0.0001836284309358167,0.00023886338328240594,0.0003576495600463099,0.0004915765273337824,0.0005707594499449704,0.0005315854891383299,0.00034058495414661166,7.506577988534535e-06,-0.0004136327660044955,-0.0008345409909707746,-0.0011531054370496959,-0.0012821626732034397,-0.0011789783044490636,-0.0008625500259197635,-0.00040753031000772036,8.515614123053212e-05,0.0005261715710388796,0.0008628349856071888,0.0010792106544551578,0.001177845039277474,0.0011627902471116908,0.0010390961843986081,0.0008260255372329002,0.0005665740258276723,0.00031793311427361505,0.000123948068512095,-1.3048908933948494e-05,-0.00013997867309856448,-0.00033019150280187286,-0.000638395113253645,-0.0010571181023546518,-0.0015013851096155873,-0.0018346069205437366,-0.0019247938756489086,-0.0017014621901696317,-0.001183645455953186,-0.0004680619138377194,0.0003105593828337632,0.0010234560452464943,0.001577182223568088,0.0019227798686342584,0.002050376256752089,0.001977922929524526,0.0017396533013593258,0.001375856171884931,0.0009243943150179618,0.00041578209409861135,-0.00012538780647579231,-0.0006721568253897319,-0.0011847402472007062,-0.0016063529513824875,-0.001871482668683803,-0.0019249268570357102,-0.0017426150054252044,-0.0013441961818660827,-0.0007924498648105337,-0.00018088917903258582,0.000385921929261189,0.0008152423770342241,0.001049124873356931,0.001082796539167685,0.0009700762549579581,0.0008069708356728098,0.0006927185768397064,0.0006822660345959432,0.0007546578690760763,0.000817577896367079,0.0007498195321560504,0.0004625270250276509,-5.039431379585656e-05,-0.0006971331219865865,-0.0013157501641801557,-0.0017330883774883386,-0.0018297175578446093,-0.0015837582608253513,-0.0010757905960747766,-0.00045380438448847576,0.00012560602716735458,0.0005536376611885024,0.0007995059879810247,0.0009042749378756949,0.0009452760045859361,0.00099011357690618,0.0010612215198772157,0.001124906907407924,0.0011075326440227453,0.0009310013221630949,0.0005531855871448685,-2.630039444794104e-06,-0.0006420743357772088,-0.0012230075519747497,-0.001602080043228159,-0.0016874601128541793,-0.001474493681677741,-0.0010455834527552089,-0.000531876824291659,-5.538818644364467e-05,0.00031731833741116165,0.0005852093326326238,0.0007850437925694503,0.0009483958643137891,0.0010737730878561118,0.0011302500128792627,0.0010846902337118154,0.0009283748592319833,0.0006820735233441818,0.00037753176312752153,3.278048796324842e-05,-0.00035628037721786583,-0.0007984054194861923,-0.001274858719505194,-0.0017172583094550026,-0.0020159485364777113,-0.002059797165176211,-0.0017867186354644155,-0.0012165105545416566,-0.00044901867498054783,0.00036872529080755954,0.0010884549357078486,0.0016009114653104794,0.001859222340334156,0.001881975226534605,0.0017372618207195894,0.0015128778319305584,0.0012823961742264426,0.001079574131860237,0.00089115460916979,0.000670391923582964,0.00036438541437321863,-5.721550370445938e-05,-0.0005834337947204528,-0.0011582512701904103,-0.0016906681267930413,-0.0020742842564793885,-0.0022125708001678973,-0.002046817156654204,-0.0015819305204307595,-0.0009005496614236619,-0.0001526735171433159,0.0004865909156107724,0.0008817483919125806,0.0009950026605397575,0.0009025933741803037,0.0007526270303102219,0.0006825825705960447,0.0007423305112110042,0.0008675952134452754,0.0009189317052979391,0.0007631068805187976,0.0003515172924215264,-0.0002452360272233459,-0.0008622024976279569,-0.0013091877278667043,-0.0014485608196588208,-0.0012457203423848402,-0.000773892476731855,-0.0001786948140919995,0.00037663134250834763,0.0007632229935644256,0.0009215383316918632,0.0008727551187259028,0.0007046770390086029,0.0005348682755159461,0.0004614133396238495,0.0005193218613326749,0.0006618388995702046,0.0007776034832844384,0.0007394468535286906,0.00046534718384426226,-3.585553602106998e-05,-0.0006568766884512182,-0.0012290285231040543,-0.0015891575536139519,-0.0016462962281022604,-0.0014166367341755266,-0.0010099470285513344,-0.0005740627669680848,-0.00022506096567201828,1.5286793036686439e-06,0.00015353173962702991,0.00031871504907594655,0.0005611414953613514,0.0008751312622788884,0.0011835240621485546,0.0013790175172262106,0.0013807984707537425,0.0011711693593468304,0.0007929147951909532,0.0003157886711952643,-0.00019998038856069815,-0.0007169584154753406,-0.0012046368407946514,-0.0016119684397278215,-0.0018557428746715813,-0.0018417483200905845,-0.0015120074223480043,-0.0008907789784840376,-9.857468770853414e-05,0.0006803809022753486,0.0012658797274184793,0.0015525553794173126,0.001547830916418512,0.001356883460037914,0.0011224205789183992,0.0009513429150809183,0.000866196448984831,0.0008035538685428233,0.0006555864040263455,0.00033148985672821986,-0.00018960810071287052,-0.0008359536407035301,-0.0014603180781722544,-0.0018922433780814672,-0.00200558098610415,-0.001771458689757684,-0.001270218960348392,-0.0006551485244184411,-8.615927582151148e-05,0.0003329976442469714,0.0005841521557629831,0.000720159620189268,0.0008186349165783248,0.0009310319297087688,0.0010541681013601137,0.0011371508431306159,0.001116154885413155,0.0009542511219622361,0.0006624940201929734,0.00029217615262512755,-9.283909764208007e-05,-0.0004437768820071761,-0.00073852930379634,-0.0009747214324701517,-0.0011535645460947995,-0.001266270878477774,-0.001289946990877732,-0.0011939581240673059,-0.000954122738850892,-0.0005698387506944055,-7.708280387094812e-05,0.00045057790011815776,0.0009178144040156804,0.0012377506555454635,0.001365332597709402,0.0013173034903211443,0.0011648365645078754,0.0009966856151942952,0.0008678443314479612,0.0007619590288765188,0.0005944287293048746,0.00026302234790884677,-0.0002772006562144153,-0.0009586759922570397,-0.0016047714384124366,-0.0019992021459389582,-0.001988530272027734,-0.0015618725067367207,-0.0008623828173021426,-0.00012336266126069585,0.0004360948932653931,0.0007009666560112732,0.0006930783361734473,0.0005387475620245309,0.00039719180955380656,0.0003893087457649947,0.0005559931143071377,0.0008529680681354827,0.0011721552341219545,0.001376106198442432,0.0013375166980771705,0.0009800567042491002,0.00031373096458613993,-0.0005489649002079377,-0.0014114571745140435,-0.0020505262688257754,-0.002295901272268788,-0.002096593898435958,-0.0015387239251707895,-0.0008032022928278869,-8.519028929932339e-05,0.000481691758480353,0.0008587814768783771,0.0010830475139229523,0.0012153444942561735,0.0012916219823104467,0.0013044947725741952,0.0012195152928626146,0.0010086518148863916,0.0006760933946839008,0.0002609222588850509,-0.00018085296902284526,-0.0005985486770894823,-0.0009563859888018208,-0.0012259840463217167,-0.0013731018473015374,-0.0013559866725237923,-0.0011434638961308958,-0.0007434324418997201,-0.00022071392316204484,0.00031318331601674063,0.0007389031182911051,0.000978341943970395,0.0010273430675673827,0.0009530317576397207,0.0008557443234074298,0.0008140903929341841,0.0008401090895097792,0.0008670455603457406,0.00077818281032591,0.00046677830490940816,-9.908127455294087e-05,-0.000839276147502651,-0.0015752364271249123,-0.0020937479707948386,-0.002233670408383293,-0.001953701719783709,-0.001346734058302442,-0.0005936630118819956,0.00011749047442027492,0.0006626870270860065,0.0010078028831446329,0.0011852254656753397,0.0012476360594197964,0.0012334991943343115,0.0011612008332536475,0.001042960265471322,0.0008964247136631116,0.0007390820731924916,0.0005700429207327146,0.00035895006687264167,5.966586951476919e-05,-0.0003530045603946916,-0.0008469857858314049,-0.0013255179337932157,-0.0016595392071892699,-0.0017434267753761788,-0.0015417463381164668,-0.0011013390450803785,-0.0005256579980269349,7.012541315955901e-05,0.0005973926083149968,0.0010086939496712056,0.001288577021400213,0.0014342216681244805,0.0014423675299387118,0.0013106234799041853,0.0010482415230810005,0.0006837245233913762,0.00026027870675558837,-0.0001781309471419471,-0.0005979152871698887,-0.0009736263669069482,-0.001274173020592738,-0.0014524463142735547,-0.0014546792374611143,-0.0012510858608438208,-0.0008685405514883136,-0.00039760168778005565,3.968948417086283e-05,0.00034691084338395054,0.0005007813510599745,0.0005581339852678503,0.0006162076793116951,0.0007490808108309207,0.0009577246145245347,0.0011631817196348622,0.001246852308115668,0.0011140678836876507,0.0007442243674191679,0.00020087801962077748,-0.0003989502600741302,-0.0009335471194322773,-0.0013148721556608199,-0.0015012079064579493,-0.001488451451064951,-0.0012955798135483362,-0.0009566119813547208,-0.0005197247118678646,-4.524893919338551e-05,0.00040471569538326794,0.0007831509938038616,0.0010707654381842176,0.0012736837992631484,0.0014051243939331123,0.0014622693810936729,0.001414625186609241,0.0012139153109640213,0.000822361421696451,0.0002447703109099758,-0.000453365115601704,-0.0011532965636387063,-0.0017153145525288362,-0.0020232365167096684,-0.0020225529251276207,-0.0017364560299968647,-0.001253467530636745,-0.000692297679112676,-0.00015929199064786495,0.0002828802898019577,0.0006222100859179657,0.0008794865056041556,0.0010782063059019784,0.0012210174259881254,0.001286483118465207,0.0012461582010448037,0.0010879878663916656,0.0008281142481080714,0.0005030536197894814,0.00015030761458978504,-0.00020587913413943785,-0.0005530059701554745,-0.0008769757688067484,-0.0011502062037244468,-0.0013311647134015016,-0.0013745226581882424,-0.0012442693349795537,-0.0009246940134580801,-0.00043048038976358974,0.0001825325584135318,0.0008121691634992398,0.0013233277323637272,0.001587462621965293,0.0015369850385973489,0.0012050967614649342,0.0007212663657185209,0.00025587651804407784,-5.9840262646414406e-05,-0.00019442045974648117,-0.00022303088849002687,-0.00027682144555321727,-0.0004625199253461186,-0.000795202465042957,-0.001179839056710671,-0.0014521097439895623,-0.0014584792780359822,-0.0011349538398415023,-0.0005444783236295812,0.0001454940813487006,0.0007332693122583562,0.0010665104928682932,0.001100932869760679,0.0009100294120326377,0.000644258177543952,0.0004585705393569278,0.00043935473471105456,0.0005630039062144386,0.0007068797315259593,0.0007108398882960959,0.00046173699649300045,-4.174464175562263e-05,-0.0006791997149216602,-0.0012599622610110217,-0.0016081502771217984,-0.0016357289280493322,-0.0013674803734919127,-0.000910912249267721,-0.00039421289527012313,9.026532430804913e-05,0.0005071964501833027,0.0008587487870771549,0.001145479027904525,0.0013404145219368575,0.001397137914760467,0.0012851472406800344,0.0010232500596327916,0.0006819386901803904,0.00034877927008307745,7.907334977145706e-05,-0.00013402790318338496,-0.0003485283071517933,-0.0006276633770341107,-0.000987723449950518,-0.0013721340731558402,-0.00166825514651707,-0.0017581465517733097,-0.001575271687826885,-0.0011367923335988725,-0.0005363760444744189,9.512208529354794e-05,0.0006385541323915646,0.0010223428007897172,0.0012340356282149738,0.0013088820035611493,0.0013038415566540727,0.0012673493309673237,0.0012152727440589975,0.001122583036254514,0.0009360682704868735,0.0006047687358106835,0.00011502430771506605,-0.00048759552949078646,-0.001102292963450519,-0.001602919832976545,-0.0018801809026168601,-0.0018768481393330772,-0.001601876311184006,-0.0011211634114372561,-0.0005330686008358421,5.972507706669366e-05,0.0005730915363955495,0.0009546056032744706,0.0011858593469369282,0.001275786541981541,0.0012499426432093096,0.0011418015171344921,0.0009887042769408001,0.000828986004764921,0.000694054282849914,0.0005938385321966277,0.0005030607696385556,0.0003611454356928969,9.419498307101383e-05,-0.0003454698719841606,-0.0009402342907188536,-0.001591466514965918,-0.0021414377458243592,-0.0024280865998294624,-0.0023486100008695463,-0.0019009237509163973,-0.00118305024620149,-0.00035304521494730645,0.0004282693915337054,0.0010444909568264082,0.0014439296470429733,0.001632909769457176,0.0016538163672885138,0.0015613549043344858,0.0014046378243509207,0.0012160301895157918,0.0010055528143673798,0.000761821572339753,0.0004619286021032313,8.934353684311291e-05,-0.00034725997092114637,-0.0008044844097248229,-0.0012106505291080401,-0.0014865101025683712,-0.0015710230009254658,-0.0014410175487384637,-0.0011176083749730693,-0.0006587564312079733,-0.00014208393204798858,0.0003563330128293629,0.000781240079128916,0.0011092064012542743,0.001345757610808138,0.0015074672153050847,0.00159578312936998,0.001576709030934844,0.0013817559352977474,0.0009377011084477256,0.00021706210710350192,-0.000715313547640191,-0.0016906564648671131,-0.0024784538487768546,-0.002871816351010508,-0.0027752805839779716,-0.002245631999723989,-0.0014602401978640739,-0.0006309885363179543,8.519521756394921e-05,0.0006298967525447657,0.0010253160602225943,0.0013190787474631612,0.0015341144785000647,0.0016540819744220567,0.0016459497210428657,0.0014970658812169602,0.001238455630543153,0.0009385492621259922,0.0006710951175431723,0.0004758530594788403,0.000334521601978598,0.00017699285356962639,-8.177190390300671e-05,-0.0004899774622518149,-0.0010180240995097843,-0.0015520046116179668,-0.0019303124186740837,-0.002010020806935339,-0.0017322484582613634,-0.0011534344768646602,-0.00042501923054120766,0.00026997811753847736,0.0007921258872733072,0.0010940390963682107,0.0012178050404734538,0.0012464270481629296,0.0012420018110031808,0.0012102096989733335,0.0011104367607918995,0.0008978118639277406,0.0005627789893863418,0.00014056432172014285,-0.00031046656093515,-0.0007386940034098143,-0.0011118914825144787,-0.0014059965793991663,-0.0015866862985396324,-0.0016079564767729239,-0.0014364627037431136,-0.0010848073799901914,-0.0006242196086552983,-0.0001599655298914541,0.00021843645913128328,0.0004796085021417593,0.000657289356478699,0.0008189064855667965,0.0010178479609406976,0.0012589059068333693,0.0014941295706216735,0.0016462648080052202,0.0016427316767064657,0.0014413575264082146,0.0010382740841179223,0.0004614771030612317,-0.00023832890572141453,-0.0009903507695136642,-0.001700839726238298,-0.0022548408623479033,-0.0025327423957385454,-0.0024428579865303076,-0.0019595627767232528,-0.0011491915283978458,-0.00016727255525391337,0.0007789784959994884,0.0014933075268916815,0.0018545544407312642,0.0018540613617744647,0.0015878195954965593,0.00120601336150485,0.0008445334609887772,0.0005722467794369177,0.0003777986104540524,0.00019676865019876394,-4.0907336367835854e-05,-0.00036971910102480215,-0.0007706187892814803,-0.001177560000283138,-0.0014992901991001523,-0.0016465503782719974,-0.001559032247624494,-0.0012276676258193247,-0.0007050019650274778,-9.574859465001759e-05,0.0004738314887357544,0.0008979084544651456,0.0011265817627523424,0.0011783019634019724,0.0011231421540430528,0.0010447628572769782,0.0009984755515193373,0.0009835351144817186,0.0009409456564071229,0.0007784149001839087,0.00041520924288805384,-0.00016802244235259353,-0.0008954290080878228,-0.0015993547388452756,-0.002070809191433681,-0.0021438139654228615,-0.00177631213887639,-0.0010823327111781711,-0.00028959650198789617,0.00036255787744658165,0.0007323217785304109,0.0008310707926180503,0.0007952198851062419,0.0007937774571782133,0.0009275425746019178,0.0011762687656025532,0.0014172728942244924,0.0014966877145097882,0.0013091915743336858,0.0008451981079792501,0.00018853018218639223,-0.0005250859225669654,-0.0011622632847158986,-0.001632240756107616,-0.001898469452594493,-0.0019634945204165585,-0.0018427777096544627,-0.0015473225160942503,-0.0010872606073016853,-0.0004926248557410452,0.0001670509223983932,0.0007852695394450666,0.001250838190004233,0.0014955897345492427,0.001528287104611129,0.001429617297483829,0.0013057726175608223,0.0012248791668263911,0.0011736063614937449,0.0010616842223655763,0.000775311147700769,0.000252211674259214,-0.00046276252562545573,-0.0012145055968381929,-0.0017937521575234266,-0.0020277201661036675,-0.001860339948191858,-0.001379687621278282,-0.0007762827891545153,-0.00025278725951772597,6.733602486989318e-05,0.0001842828006424173,0.00019895622796111523,0.00024065686344418655,0.0003896455063410609,0.0006374048118791513,0.0009010629843258423,0.0010751741991457332,0.001085215523645064,0.0009132781531355307,0.0005902808335457377,0.00017145455716940466,-0.0002830114153338575,-0.000712700351056101,-0.0010541608048575575,-0.0012442125473987918,-0.0012358319923610524,-0.001019454450440219,-0.0006341869777750814,-0.0001579504041324285,0.00031989958235582487,0.0007273564048510651,0.0010240099361527736,0.001197149549371081,0.0012494474156465435,0.0011910938040928802,0.001040572295255102,0.0008265016565690908,0.0005798841253714949,0.0003161618337262855,2.144371469942237e-05,-0.0003383593762204598,-0.000781639476835725,-0.00126984164558133,-0.0016957084980931806,-0.0019210152617914502,-0.0018476692427048295,-0.0014767937070577306,-0.0009137315236311516,-0.0003128148060692339,0.00020233620538940905,0.0005907913841388423,0.0008870623250190194,0.0011449666679472317,0.001375720041061894,0.0015248432520756816,0.0015032208548241015,0.001249382881581718,0.0007795625191103453,0.00019213521603348967,-0.00037548926836852815,-0.0008093006076469005,-0.0010626371011055523,-0.0011585289915276376,-0.0011545393886808139,-0.0010960730013248145,-0.0009879905971590496,-0.0007998378031512206,-0.0004977583569910301,-8.02055315026408e-05,0.0004061984727447023,0.0008803537536476132,0.001260304713694445,0.0014953431329854227,0.0015782265708108065,0.001533255972921276,0.0013900027313917224,0.0011585999799612475,0.00082080530696936,0.00034444798500917677,-0.0002819568417393732,-0.001011196724897883,-0.001721378786528068,-0.0022412204385287024,-0.0024136077597684924,-0.0021685798953873206,-0.0015656153877373923,-0.0007781578804526971,-2.4309389233709744e-05,0.0005221832817166175,0.0007957325609556035,0.0008473913805187354,0.0007984561828256984,0.0007675888334602723,0.0008104809185154474,0.000900801140876511,0.0009571512040189991,0.0008960964660808966,0.0006791421526199829,0.00032862062669528243,-9.066859689646164e-05,-0.0005054009309076318,-0.0008582671577085731,-0.0011109868732508226,-0.0012338190184745096,-0.0011994865486406867,-0.0009915193270827972,-0.0006204316296996013,-0.00013227389058411608,0.00039962785895089744,0.000895126859258486,0.0012872619248676105,0.0015325786542603895,0.0016117495937703727,0.0015261628758115203,0.0012946029187151653,0.0009495198877205514,0.000530749832382304,7.715149909620427e-05,-0.00038020648364613086,-0.0008193551263973017,-0.0012219830544250168,-0.001564137378632092,-0.0018096010581640568,-0.0019129589051301787,-0.0018345825998104654,-0.0015614746335171823,-0.0011220511571506425,-0.0005846625546621983,-3.820101084527262e-05,0.0004372180670308849,0.0007962425073158717,0.0010388112610042396,0.0011999321465029351,0.001323308118860381,0.0014317616249888893,0.0015095260833985138,0.0015058973677372143,0.0013593499961691844,0.001031107047481461,0.0005319086151781393,-7.193121948489989e-05,-0.0006773417754438114,-0.0011793224695323574,-0.001503883061433258,-0.0016226740274831472,-0.0015451823429278012,-0.0012993479699456914,-0.0009175162962594605,-0.00043680492603725887,9.161913397497286e-05,0.0005981513188360777,0.0010045792962560208,0.0012456711681691167,0.0012914523002236717,0.0011588147863876973,0.0009064050235300206,0.0006129838565790224,0.00034543405541746504,0.00012884005179262885,-6.502649440708817e-05,-0.0002989364751154043,-0.0006249548805553427,-0.0010361791175540125,-0.0014471725213899456,-0.0017209764267570398,-0.0017312870390898294,-0.001424811759651768,-0.000848820828309188,-0.00013144203360955942,0.0005702126443601228,0.001124627814193416,0.0014585884007730196,0.0015604689995364445,0.0014629135061962556,0.0012199636572249348,0.0008894878970825625,0.0005236520547066922,0.00016465314779801635,-0.00015785315141803253,-0.0004284942983171674,-0.0006446330121391108,-0.0008089766882493269,-0.0009186937273649204,-0.0009590968517785629,-0.0009090388526477469,-0.0007560529431933931,-0.0005100200803257423,-0.00020417473634277462,0.0001181763392568636,0.0004223191926406925,0.0006938792503532159,0.0009363488226288385,0.0011560922601624648,0.0013436966930271466,0.001462360152082661,0.0014507996223509163,0.0012422483594017241,0.0007942684167476791,0.00011797283637763733,-0.0007071773978899042,-0.0015428062763708716,-0.0022253048682733174,-0.0026127863155321184,-0.0026275923647922678,-0.002277576358503343,-0.001648108653506784,-0.0008695165883916701,-7.499968225748647e-05,0.0006335470659668178,0.0012004692885065808,0.0016108641183992072,0.0018720116282529994,0.0019927299760614525,0.0019703649304002317,0.0017905468836715284,0.0014388794459304223,0.0009183170759065795,0.00026356138837664556,-0.00045402517294625545,-0.0011325045712996483,-0.0016548489530405263,-0.00191300057201268,-0.001839698062590935,-0.0014407045715268255,-0.0008101090885367119,-0.00011048317512499825,0.00048386724431152286,0.0008567421167384281,0.000994512541072135,0.0009771123794994443,0.0009183434679925705,0.0008898866534840159,0.0008749853780783824,0.0007811354696520847,0.0005054988995251268,1.362827326369066e-05,-0.0006173723035045764,-0.0012191038789099136,-0.001605392529448314,-0.0016584517056590573,-0.0013817101809937766,-0.000893166346966689,-0.0003648982243792125,5.834158741320429e-05,0.0003186377948709085,0.00045298489468801977,0.0005507535305501274,0.000690622678484904,0.0008953166549769086,0.0011248452994535828,0.0013009194435914507,0.0013394016834795954,0.0011737184609082654,0.0007695432661821445,0.00014043838223298593,-0.0006339539978981503,-0.0014019867200229057,-0.0019667515317380673,-0.0021499486694665382,-0.0018690614783860443,-0.0011860065138212211,-0.0002944387614588318,0.0005545367037729442,0.0011531660366004835,0.0014137296874492244,0.0013841203387265158,0.0011993929851064414,0.0009999353277621017,0.000860564970075064,0.0007634193135580939,0.0006217420273067668,0.0003377380301035905,-0.00013473307293058838,-0.0007516691161112026,-0.0013831443740124842,-0.0018603552681215347,-0.002044834109202693,-0.0018861581971279645,-0.00143891841388975,-0.0008316865263660722,-0.00020746627540170742,0.0003308176304599265,0.0007434793815412813,0.0010413532959844703,0.0012529610222567875,0.0013938183052163162,0.0014526900486217964,0.0013974060367750404,0.0011943396053506507,0.0008321812000116214,0.0003395611112035293,-0.0002127322588203803,-0.0007281219738186827,-0.0011123821145687966,-0.0012998504682864853,-0.0012665319442300125,-0.00102850884588855,-0.0006320292657499779,-0.00014225609827638985,0.00036679630035960293,0.0008221674111489938,0.0011626094821162703,0.0013489063729690573,0.001371194387543388,0.0012496528765918783,0.0010246030903563975,0.00073485283279322,0.0003913337198796726,-3.699869752466704e-05,-0.0006065603764494917,-0.001348225350699369,-0.0022047120530835807,-0.002998448233559284,-0.003466361854946946,-0.0033632358245458916,-0.0025889453178708616,-0.0012678404534382547,0.0002751826812979609,0.001640904914203667,0.0025209780388888597,0.0028139448760746526,0.002634569225141411,0.0022226475617832565,0.0018107063300418047,0.0015220992115116238,0.0013423884545600484,0.0011618256617379897,0.0008534231901580889,0.0003442214194137135,-0.0003475968843042978,-0.0011159517534788167,-0.0018020929875547558,-0.0022469208783601428,-0.0023426029765544207,-0.002065536920997151,-0.0014790715744756214,-0.0007077271268297392,0.00010239423569407971,0.0008188648740402953,0.001343520320150894,0.001619864004320766,0.001635039553259528,0.0014208467917311571,0.001049897108968087,0.0006186544372576608,0.00021509266055424542,-0.0001174419074105252,-0.00039774313079507485,-0.0006873470322423441,-0.001037512194970766,-0.0014323102306003559,-0.0017679920561656133,-0.0018908788357169205,-0.0016786153255497595,-0.0011181864749189633,-0.00033172403402493953,0.00046903836219628345,0.0010760983304139553,0.0013750469279389126,0.001384256311220687,0.0012270951133191354,0.0010577366294454895,0.000982388619204546,0.0010141730104440282,0.001077690077223812,0.0010537499766749402,0.0008392124287398522,0.00039572207619987593,-0.0002296811187142456,-0.0009166558294640081,-0.001510304435761408,-0.0018729687822898284,-0.0019306869858904691,-0.0016955108286041227,-0.0012526073322110978,-0.0007176822147054079,-0.00018797317413601114,0.00028493381844595886,0.0006874236047705258,0.0010142559797683822,0.001245549601734907,0.001350203844524991,0.0013105069530725886,0.001143404014211786,0.0008967199810151378,0.0006201054204586348,0.00033226061759045265,1.1034668910956888e-05,-0.0003820794566611228,-0.0008559375778017021,-0.0013524791360854918,-0.001747023348431713,-0.001894187564142898,-0.0016989696712830563,-0.001173847119628622,-0.0004468324165597549,0.0002883247296231698,0.0008551664552724482,0.0011661521484777407,0.0012447088357643208,0.001189188214500263,0.0011047942454930878,0.001046670628068032,0.001005422046725761,0.0009344271654092558,0.0007908133771509085,0.0005591257612700309,0.00024747516322722713,-0.0001296867082365154,-0.0005601259226810768,-0.0010240301623998783,-0.0014757316620572837,-0.001836579008107776,-0.0020113876090556947,-0.0019236673260921277,-0.0015511868085841091,-0.000942362639490449,-0.0002044810989345282,0.0005306409957994501,0.0011471744080896991,0.0015736863617486288,0.001789071754100755,0.0018089856746268326,0.0016659500138298282,0.0013963339124122781,0.0010379772280421445,0.0006317818490178362,0.0002182193209000609,-0.0001729137346335717,-0.0005312689216269579,-0.0008624166390104855,-0.001169544082527081,-0.001431257606736299,-0.001593500168351444,-0.0015871568640267262,-0.0013658037903628876,-0.0009419241581199902,-0.00039700139672768994,0.00014502261094361603,0.0005687678015281618,0.0008150846302467784,0.0008999175747751318,0.0008966917483642727,0.0008942215376990458,0.0009516168099397539,0.0010690119426190541,0.0011841082350853983,0.001195505425283695,0.001006026200595163,0.0005714204522792753,-6.647214788277724e-05,-0.0007814812842870828,-0.0014049175736174607,-0.001790557160889151,-0.0018703524706312228,-0.0016718781593417177,-0.0012906939153747795,-0.0008372147434279591,-0.0003901356014375304,2.0621309331536586e-05,0.00040016547075596824,0.0007602275707356176,0.0010951649746950335,0.0013731270289104084,0.0015432372678842975,0.0015540207433889588,0.0013756756721593328,0.001016665830268914,0.0005254546048625811,-2.5228654790495936e-05,-0.0005631682004020664,-0.0010350625359790266,-0.0014075408542226979,-0.001653685996652018,-0.0017403874422912487,-0.0016318546736116667,-0.0013110397940535546,-0.0008041510038915126,-0.0001878254462483243,0.0004307954053280154,0.0009518603454433431,0.0013165653583148158,0.0015179254666096453,0.0015852117365628617,0.0015547955446109606,0.001445695607178567,0.0012515572739477234,0.0009494704912705323,0.0005184165386215524,-4.108547241722031e-05,-0.0006923790620296693,-0.0013575847931065054,-0.0019258883686020239,-0.0022772017584004756,-0.0023174469905222583,-0.002013454589889419,-0.0014111733626480153,-0.0006265360335406917,0.00018804149989269962,0.0008865888391245643,0.0013651417100084776,0.0015808737799599345,0.0015550685332012893,0.001363615723600663,0.0011157948513868055,0.0009196103357447508,0.0008372853531371273,0.0008472900071226231,0.0008386083565050297,0.0006553096577673896,0.00018207969645301015,-0.0005707852017906864,-0.0014364639038154645,-0.0021450147225494376,-0.0024424264765516702,-0.0022134288234749513,-0.0015394344066394215,-0.0006591326629923897,0.000145171380884627,0.0006728525845120333,0.0008777780206444391,0.000857589848436376,0.0007744441481959796,0.0007564508336737278,0.0008348735657032497,0.0009471577451121769,0.00099449017267712,0.0009104347073758914,0.0006952719946385238,0.00039948933980619745,7.764567514944822e-05,-0.0002472487103802322,-0.0005812515631149143,-0.0009240067598326356,-0.0012326934493931308,-0.0014194218100617936,-0.0013910680387503888,-0.001107717311392512,-0.0006196190842737081,-5.483370579559835e-05,0.00043810434945624224,0.000758628944479717,0.0008930854948857533,0.0009036975389679339,0.0008792937031821585,0.0008812342637704074,0.0009155627192644529,0.0009406590112568376,0.0008963979907181483,0.0007323185646149301,0.0004217378930332042,-3.477931680008505e-05,-0.0006051259999598846,-0.0012165319058955835,-0.001752696547618991,-0.0020741826088870024,-0.0020659810623670054,-0.0016924268639000198,-0.0010260740084110046,-0.00022781435890574498,0.0005155029341250264,0.001063087044853222,0.001363270906270178,0.0014478111919522833,0.001388236764383131,0.0012469558254609718,0.0010538675552572239,0.0008155398611548292,0.0005381921930692164,0.00023917742881457562,-6.171703516507615e-05,-0.0003572646686170308,-0.0006533445114815992,-0.0009489173429465261,-0.001211106807793079,-0.001369743352384225,-0.0013431574892357162,-0.0010832134306811053,-0.0006114730290741951,-2.2363812142010722e-05,0.0005501046738770816,0.0009837633182643516,0.0012113032452814086,0.0012363586096482365,0.0011196852983118497,0.0009450899051804792,0.0007800976190684094,0.0006461634432877589,0.0005100729932962225,0.00030197548582843153,-4.450719069529679e-05,-0.0005460363935080083,-0.0011398653046773275,-0.0016896961251626188,-0.00203093909237509,-0.002038395336919734,-0.0016839630767987793,-0.0010530190780595567,-0.0003083853231545833,0.00038024376888686693,0.0009040034157968518,0.0012447382737222703,0.0014545253276332618,0.0016005655167300467,0.0017091923103686585,0.0017415988489713579,0.0016150500376364877,0.001256897064264215,0.0006590551575865651,-0.00010004983976246248,-0.0008791043898111227,-0.0015282924615198626,-0.0019428260019207105,-0.0020884195229294474,-0.00199147302712628,-0.0017074143514411218,-0.001289796225413786,-0.0007771381271056208,-0.0001998602423104456,0.0004036843733156879,0.0009769978866370809,0.0014500084837480026,0.0017574711220109975,0.0018622877305295165,0.0017711937894436943,0.0015318719851264114,0.0012087214890510534,0.0008478054227771579,0.0004524493521560134,-1.0531203078758167e-05,-0.0005714800240296314,-0.001207284799629935,-0.0018151195575176553,-0.0022363104885096356,-0.0023253890717452666,-0.002027030003673878,-0.0014130679427071706,-0.0006535920951274485,6.248387338844927e-05,0.0006097131396595518,0.0009637329176308757,0.0011783507263450875,0.0013255610934499937,0.0014414636677420162,0.0015100315529891102,0.0014865010544054319,0.0013356436965355216,0.0010548163875807287,0.0006684502164063542,0.00020509860595268578,-0.0003182914860774312,-0.0008874195473807992,-0.0014620331040277451,-0.0019534083250973373,-0.0022352090019717137,-0.0021934039257180825,-0.001790165587509581,-0.0011002035541958428,-0.0002907966904038755,0.0004477262339310961,0.0009811443672122647,0.0012740835482047386,0.0013759203766197606,0.0013675599892636779,0.0013092517374071464,0.0012214974118436286,0.001101442201707653,0.0009501823853155902,0.0007823730178762723,0.0006097169664858587,0.0004164564468771032,0.0001551040088780053,-0.00022445303666248265,-0.000727346340875186,-0.0012810011760261996,-0.0017453439137168052,-0.0019680734382147443,-0.0018576805280480088,-0.001433177337834259,-0.0008208932119033403,-0.00019862488947772466,0.0002826225537924928,0.0005574558719942701,0.0006567680872136485,0.0006703732153910062,0.0006879440546714147,0.0007527703093489583,0.0008500535418755683,0.0009282443172904736,0.0009339217337508706,0.0008376519962627667,0.0006388677130605821,0.0003532342910227812,-3.0507375952870328e-06,-0.00041656035670791354,-0.0008620781413740523,-0.0012809318267375932,-0.0015741446053959061,-0.0016272888126927004,-0.0013628090504150293,-0.0007926435775067463,-3.677330102076152e-05,0.0007111726169741901,0.0012601602117018546,0.0015021494921443326,0.001453006620531286,0.0012309475858655987,0.0009853185696098133,0.0008165618701761861,0.0007307176610198654,0.0006489214987275243,0.00046059723670863195,8.827850575266328e-05,-0.0004681090253107667,-0.001124074384081856,-0.0017383690196906385,-0.0021611195240115923,-0.0022829918601092072,-0.002067729748323654,-0.0015576703040947183,-0.0008535170895883073,-8.071520865083179e-05,0.0006417446541444735,0.001220758505782013,0.0015980478451691547,0.001755042954484573,0.0017159105777861125,0.0015431216699879416,0.001318238606729106,0.0011086310813979542,0.0009331304472964873,0.000746785548323684,0.00046021346394926584,-7.750123530016347e-06,-0.0006670063819721509,-0.001418847486619867,-0.0020731049708735878,-0.002420422415263022,-0.0023268322344172448,-0.0018012503567048424,-0.0009987067421652256,-0.00015581659725734365,0.0005098351917142614,0.000886948725175717,0.0010027331540514218,0.0009871263477769538,0.0009909188514939738,0.0011023173372526338,0.0013043720353462782,0.0014905768510430255,0.0015236385339103095,0.0013025396504110173,0.0008055627845381032,9.608058033584309e-05,-0.0007017066584175563,-0.001440401379839788,-0.001986086059697647,-0.002246620499471382,-0.0021886716554365554,-0.0018417765726600507,-0.0012884571578460173,-0.0006415270287956694,-1.2874312153580828e-05,0.0005182932433145959,0.0009259880034844026,0.001234665246404689,0.0014896194960314576,0.001713981761959245,0.001879001185383443,0.001909579184229481,0.0017241973744707277,0.001284634462852119,0.0006250248764094077,-0.0001548672226514801,-0.0009242842465537205,-0.0015623703910791896,-0.001986065795431012,-0.0021585605015089077,-0.0020838149226990307,-0.0017961351280678752,-0.0013496595841598455,-0.0008077574534589921,-0.0002322860259430144,0.000324029456859033,0.0008182278620327755,0.0012118939688975678,0.0014674773648921423,0.0015538962916252005,0.0014614664711091727,0.0012159906017607442,0.0008780941920405763,0.0005215604496730774,0.00019974249635242676,-7.892588682490434e-05,-0.0003473922288355406,-0.0006466820197711034,-0.0009821984599272043,-0.0012985314082525838,-0.001492111154309529,-0.0014582775244023822,-0.0011477789261695882,-0.0006006376560056518,6.268329922592486e-05,0.0006886575991918872,0.0011509849223993623,0.0013928438231098625,0.0014330238157299552,0.0013387371446818464,0.0011835371405380245,0.0010121241255707273,0.0008262741033303481,0.000593886161265013,0.0002729534657286556,-0.00016172465555619735,-0.0006991710225377964,-0.0012855199635596066,-0.0018311182782617856,-0.002229539705075952,-0.0023837575549491685,-0.0022323786302550683,-0.0017685166520893959,-0.0010459704845045604,-0.00017074940256442633,0.0007203077424370514,0.0014885326856553306,0.0020225709191608,0.0022606726592082063,0.002201656671908215,0.0019022609464460507,0.0014596319331986356,0.0009801714745270719,0.000542484456027612,0.00017006199441388148,-0.0001693698712987382,-0.000532023493987682,-0.0009476062297999699,-0.0013795763200971614,-0.0017239493082886951,-0.001853513164728483,-0.0016851784186085873,-0.0012305468860197414,-0.0005978330049574607,5.654185659290274e-05,0.0005967463832563069,0.000956179050063289,0.0011422039388167568,0.0012034103463136301,0.0011871162166986779,0.0011142787070473647,0.0009811074986755442,0.0007773256116556156,0.0005036231644008643,0.0001771458697296965,-0.00017453794478972443,-0.0005232084656761685,-0.0008459291165914325,-0.0011242062899664092,-0.0013381232348106103,-0.0014601094467208949,-0.0014541013677802836,-0.001284509204122593,-0.0009345279770398411,-0.0004260007914157448,0.00017189143500088034,0.0007547644096155809,0.0012142467676791047,0.0014742043513643179,0.0015141232374042176,0.0013694715980409728,0.0011116477183472108,0.0008187785693073309,0.0005492246752178418,0.0003253693689647423,0.00013124762337749364,-7.483104854393995e-05,-0.00033492972564146654,-0.0006619387325760206,-0.001020273212446421,-0.0013300811276667768,-0.001496854033078893,-0.0014525789323528318,-0.0011861276327737045,-0.0007468685005523154,-0.0002222817574768433,0.00029494721735149926,0.0007324005443388416,0.0010474206008347113,0.0012243281222508865,0.0012685758149093844,0.0012029469580039965,0.0010627672077034693,0.000884134235094686,0.0006857709209762868,0.00045570671749008113,0.0001572800497416499,-0.00024147753606907772,-0.0007294806959404379,-0.0012315818257599598,-0.001624762209909536,-0.0017881920900021018,-0.001659863183702135,-0.001266194789357868,-0.0007080541461152304,-0.00011447024299199165,0.00040661010512045283,0.0007946821122138761,0.001034082489551512,0.001135852766047651,0.0011226517015802732,0.0010249061692399627,0.0008817516307474573,0.0007348975503806302,0.000611504747512257,0.0005055930634420412,0.00037406667335688104,0.00015673296990756903,-0.00018614473870921713,-0.0006389682584425,-0.001120306833705469,-0.0015058343950500276,-0.0016749603004351053,-0.0015587630348319747,-0.0011676425797048637,-0.0005887267273824601,4.334066747062395e-05,0.0005899796979732938,0.0009516817022288629,0.001096507637245227,0.0010639915459556284,0.0009419209181993057,0.0008239512023262932,0.0007652888788311558,0.0007564373980019636,0.0007283704010849738,0.0005883734962216292,0.00027067688485089283,-0.00022208664073431985,-0.0008068264493251581,-0.0013438135083735266,-0.0016863988169276605,-0.0017353465843234243,-0.0014746158439517569,-0.0009735763631762474,-0.00035619837488048414,0.00024630168904068186,0.0007360873291554056,0.0010664778548157253,0.0012362895957027204,0.0012721825619944538,0.0012112645338200581,0.0010886189279020533,0.0009278493470011395,0.0007335160701269451,0.0004897796272916639,0.00017122551131350266,-0.00023501241393101625,-0.0007071981331467816,-0.0011822849310629993,-0.001571917089993942,-0.0017939998158812986,-0.001802546284807933,-0.0015998700918921427,-0.001226555205246503,-0.0007383769243331753,-0.0001868044214244028,0.0003844169854861281,0.0009278928936797182,0.0013813631920951567,0.0016737459137238884,0.0017527073272695982,0.0016186283885995158,0.0013388713954719557,0.001024200194551793,0.0007732750332439938,0.0006156004752759144,0.0004899545586881712,0.00027714491215903277,-0.00012675549660136917,-0.0007367972205195778,-0.001447997825841373,-0.0020667289427039543,-0.0023904623870648176,-0.0022961083490033005,-0.0017938246073258646,-0.0010217391790083696,-0.00018612766229002828,0.0005231484064815188,0.0010017180048868912,0.0012530505500943437,0.0013572861057868093,0.0014074050043666327,0.0014495327948969238,0.0014598163526647833,0.001368382395018148,0.001113280883667183,0.0006892493821294698,0.00015930828283089752,-0.0003780522185060385,-0.000842089307871183,-0.001204509569962119,-0.0014809685860393343,-0.0016884114215540377,-0.0018045718130255818,-0.0017650345457586127,-0.0015041690987197946,-0.0010112097590337418,-0.00035924595036381044,0.00031630312738610534,0.0008769165992015187,0.0012397610939154549,0.0014016187488282736,0.0014200083778516445,0.0013699129673697655,0.0013028094942694598,0.0012254579882479963,0.0011021870696201776,0.0008761308794689522,0.000501584747544869,-2.3410148361524856e-05,-0.0006382596191758449,-0.0012269624418556353,-0.0016529982227098457,-0.0018085901057523326,-0.0016550436081829926,-0.0012344725315413323,-0.0006492355907091674,-2.3020000533744347e-05,0.0005354003566034412,0.0009517897722843627,0.0011894595414769164,0.0012449287980115565,0.0011440168411886147,0.0009375934033850023,0.0006901006162492826,0.0004572177224749371,0.0002599312321196858,7.1353510433695e-05,-0.00016965329655459888,-0.0005188261352945293,-0.0009797718646681597,-0.0014776895354670114,-0.0018730539935565376,-0.0020138407703054265,-0.001802947888897256,-0.0012475297769674436,-0.00046510078390153513,0.00035731333387176064,0.0010323195940548052,0.0014389811069828063,0.00155933189295434,0.001470898435962924,0.001300829520252538,0.0011634284356255445,0.001108916447483854,0.001104748809016815,0.0010557081575577666,0.0008526867430452816,0.00042885739112050197,-0.000200790099087931,-0.0009338953084427281,-0.0016121620244348338,-0.0020762956035307915,-0.0022204830135741714,-0.002023837490125455,-0.0015483363012535247,-0.0009083876800881361,-0.00022836306630301091,0.00039303920516957206,0.0008988399336959476,0.001268785534824483,0.0015025539601739514,0.0016046375858110185,0.0015798808593209595,0.0014386109108547413,0.0012019220202314084,0.0008976202933890232,0.0005463991561288266,0.00014915055585287113,-0.00031004120945060415,-0.0008399081697943017,-0.001409030696698869,-0.0019283730421107799,-0.0022692197403905694,-0.0023145080610950195,-0.0020169975702503482,-0.0014295345268702593,-0.0006880194493977605,4.436147237591809e-05,0.0006417656900637715,0.001056746042602707,0.0013198781172607615,0.0015017895061486537,0.0016597530060809323,0.0017984313027877225,0.0018665570571782175,0.001790358853899382,0.0015217802728078231,0.0010703521252946847,0.0004991877403966557,-0.00010971401292115311,-0.000694872240045008,-0.001230839846808432,-0.0017091726727049487,-0.002101142412643669,-0.002335217130883904,-0.002314680798330771,-0.0019715874461808847,-0.001323035798192173,-0.0004884875537051671,0.00034935365586437616,0.001019086972232981,0.0014256424705138388,0.0015697258333478516,0.0015190105832773692,0.0013592186421460552,0.001158798412527176,0.000960767900843755,0.0007895113393263414,0.0006517424326900908,0.0005256067413308068,0.00035388829954084385,6.279477593006144e-05,-0.000391535881080139,-0.0009747725676927166,-0.0015612777840944738,-0.0019747726672956793,-0.002066207091358724,-0.0017859836847134377,-0.001209104431821909,-0.0004995212489036611,0.0001648369761001905,0.0006644362044540142,0.000971443054075871,0.0011330468113018254,0.0012221871853713789,0.0012875850323889012,0.0013296543745426514,0.0013097418207472047,0.001180055546184665,0.0009126531545274376,0.0005121569353305144,1.193577481494552e-05,-0.0005353450016719867,-0.0010632873455242195,-0.0014947436301821133,-0.0017515538069393392,-0.0017760153180281129,-0.0015555399307537166,-0.0011331036607196395,-0.0005927594272584834,-2.758245198079541e-05,0.0004892101668540019,0.000913116419150524,0.001217983550114193,0.0013827484238247293,0.0013917038281896096,0.0012497955993530107,0.0009975128544839535,0.0007057815113014735,0.0004448835134632373,0.00024347254929774938,6.696879520156181e-05,-0.00016327803891152775,-0.0005149189746274849,-0.0009857072299947276,-0.0014804091866218408,-0.001843021708745732,-0.0019286169573781262,-0.0016738121878051944,-0.00112687270922721,-0.0004245856677528076,0.00026627308335918666,0.0008096224366487154,0.0011360792128940096,0.0012470696210845592,0.001197005619268014,0.0010677342979089957,0.0009428374399430789,0.0008825835334216664,0.0009013692458181284,0.0009559680414113307,0.0009556056468549996,0.0007974834087175833,0.0004167891524105669,-0.00017165956105317007,-0.0008632909826878101,-0.001495187040473569,-0.0019082685755066131,-0.00201163929399308,-0.001816279272457861,-0.0014195541644835667,-0.000948732380641605,-0.0004958136347009373,-8.19664990111069e-05,0.00032794011628717887,0.0007722487205258041,0.0012380353741600597,0.0016436267759154003,0.0018716426856486095,0.001832133200277988,0.0015156442534804285,0.0010031101578759662,0.0004271240426815322,-9.136609459413966e-05,-0.000493427850343354,-0.0007915006020702349,-0.001035368210521098,-0.0012588611693261258,-0.0014429339169258672,-0.0015201285375988534,-0.001418357034283555,-0.0011148876887162606,-0.0006627384095374287,-0.00016914430799444828,0.000261148894212474,0.0005797092692072364,0.0008087710051473696,0.0010070963857150832,0.0012121571860140728,0.00139983279710728,0.0014909085145888223,0.0014016544558605106,0.0011048581275024504,0.0006586242273117517,0.0001801964005071229,-0.00022085308413023882,-0.0005060498581676404,-0.0007235411754093889,-0.0009626500865022146,-0.0012769938420590127,-0.0016287510639219922,-0.0018931475344495614,-0.0019222269591132363,-0.0016288950225839855,-0.0010407631012135476,-0.0002933459252321611,0.00043124862801418977,0.0009838475004560366,0.001302952557820414,0.0014201431506743424,0.0014215716347612142,0.001393154958614492,0.0013796654137742397,0.0013735160363058394,0.0013300889307507227,0.001194918758873007,0.0009280342381178081,0.0005183219192870196,-1.1529174338035142e-05,-0.000606344506500804,-0.0011849753412055844,-0.0016532192628666534,-0.0019234257955070783,-0.001937692843557829,-0.001688620378409232,-0.0012303670849079457,-0.0006729791778458703,-0.0001555784851749541,0.00019871638342218987,0.00033187535479322293,0.0002807693190722603,0.00016679124152355345,0.00014172856761564484,0.00031144955780549656,0.0006761980593485379,0.0011216626021210803,0.0014678590297332887,0.0015497369563389372,0.001287225837807106,0.0007134474472051705,-4.33860784691515e-05,-0.0008074627469703657,-0.0014101077255410624,-0.0017349629959584332,-0.0017426589447527827,-0.0014687061068169947,-0.000996591450009599,-0.00041987196377650163,0.00018616776458845808,0.0007691912883016561,0.0012840136245632675,0.0016751375839123334,0.0018779065888355879,0.0018435492883353715,0.0015721703259609521,0.0011268864386321266,0.0006124017104284519,0.00012680275870987528,-0.00028316302332264634,-0.0006333037876962502,-0.0009723202644919185,-0.0013318823199987518,-0.0016898614001070377,-0.001969792243126876,-0.0020753778104021115,-0.0019381251009463263,-0.0015512897375076723,-0.000974252775686525,-0.00030890786688111645,0.00033700477808371824,0.0008811377429936498,0.0012799304550970764,0.0015231403861494775,0.0016189600031667846,0.0015827186553044902,0.0014363378642038493,0.0012141366358910336,0.000962251004029413,0.0007224822776192507,0.0005067063966730919,0.0002827306364816401,-9.112069184779355e-06,-0.00041065145209501783,-0.0008994105499375015,-0.001376045257746403,-0.0017010857012077604,-0.0017624619571437546,-0.001532513140670746,-0.0010792893457063203,-0.0005278075586357131,5.782143348152975e-07,0.00043208750944041547,0.0007463052460980832,0.0009516145023045072,0.001056591547692565,0.001060253374221568,0.0009645870618412688,0.0007932672527718328,0.0005949495171026877,0.0004216339216935068,0.00029363737752437745,0.00017727055130671706,-2.514695345550897e-06,-0.0003141522682465858,-0.0007621120003193469,-0.0012579054346588904,-0.001643712102509406,-0.0017609955061839188,-0.0015272955843087274,-0.0009782197044197844,-0.00025256905123405743,0.0004683400150688376,0.0010326184269322314,0.0013655329224715371,0.0014758855773231438,0.0014273319117039682,0.0012956462969627072,0.001133735773915237,0.0009567833364432956,0.0007478813965665009,0.00047611756799558814,0.00011686975585270456,-0.00033273833407842113,-0.0008451007025557821,-0.0013594842212048721,-0.0017870518578555498,-0.00202803471899581,-0.002002179647170792,-0.0016830222932267232,-0.0011177358482847078,-0.00041790997867991483,0.0002773866670607681,0.000848423178665486,0.0012290473394469255,0.001415109530465857,0.00144872747405916,0.0013905211244282507,0.0012931566738657906,0.0011839900310461607,0.0010588814055259804,0.0008875097703952953,0.0006303056115521016,0.00026320388219754944,-0.00020082096103030128,-0.000707104422580426,-0.0011767472366439801,-0.001536419454141696,-0.0017419481867446708,-0.0017825091003339129,-0.0016672125959171376,-0.0014081887797892307,-0.00101498184245004,-0.0005046604511936717,8.13067698216364e-05,0.0006691877734313604,0.001165478479075742,0.0014879050612922836,0.001599327347956142,0.0015240882084779227,0.001335199090766332,0.0011184117066634026,0.0009331138917763582,0.0007899961378943557,0.0006532631475205655,0.00046190691089651457,0.00015896284399006839,-0.00028101250475535657,-0.0008335322828298742,-0.0014210030176897291,-0.001928546164384356,-0.002236111552940962,-0.0022557831557572278,-0.0019593667401143896,-0.0013863527269493755,-0.0006325532670041371,0.00017311384077845274,0.0008960717188449047,0.0014234876021398373,0.001688693632358543,0.0016876289601415414,0.0014800617223651633,0.0011703489153139463,0.000870499160938856,0.0006586844520508829,0.0005514703050542476,0.0005027114492295808,0.0004290487530010663,0.0002497513862660054,-7.604224716764617e-05,-0.0005284090945422245,-0.001028422002190498,-0.0014612810059229666,-0.0017132506458618114,-0.0017106179828485608,-0.0014469795222870356,-0.0009871345666717796,-0.0004436259058436721,6.562799193279389e-05,0.00045958807694261095,0.0007164960590884374,0.0008676569380029166,0.0009691086763755231,0.0010670601362692198,0.001172538708734336,0.0012541638885667926,0.0012505185457346913,0.0010971145195552332,0.0007575232655391399,0.00024550037216682704,-0.0003721851458008987,-0.0009935862634814544,-0.0015111424213404253,-0.0018392364796704498,-0.0019297492965617844,-0.0017742983340908957,-0.0013987250500321802,-0.0008563236898980367,-0.00022218175686704235,0.0004139441451812522,0.0009602714002355657,0.0013416581851136834,0.0015187205396168949,0.0014982984166583757,0.0013288106007214168,0.0010816338946475176,0.0008267164291533702,0.0006119504914201031,0.00045130030301781697,0.0003218006372822809,0.00016952664989370117,-7.233611729142613e-05,-0.00045187786039087703,-0.0009621552949980203,-0.0015204424814317075,-0.0019824516577914325,-0.002193031085165849,-0.0020511152072717727,-0.0015555795836504987,-0.0008089922618932488,2.0304329273671372e-05,0.0007575875601249604,0.0012767217128985752,0.0015314426216445935,0.0015552788834235966,0.0014337991175603448,0.001262232755069962,0.0011066360290795142,0.0009842976368212356,0.0008686936342082796,0.00071172064867032,0.00046931327670280223,0.00011944862711661208,-0.0003300545044566211,-0.0008402544618389847,-0.0013430180383110061,-0.001747866443934969,-0.0019586534635005746,-0.001901452032653786,-0.0015559786218950996,-0.0009752667489086871,-0.0002792131490560026,0.000381297539651965,0.0008771163634429908,0.0011466558623012934,0.0012123634151143328,0.0011596064179858667,0.0010890208154205126,0.0010665885066795061,0.0010955301706976968,0.0011211077908717668,0.0010615286018031632,0.0008461474547837031,0.00044304501410112964,-0.0001305954420868535,-0.00081063238987814,-0.0014942267682397476,-0.0020545444422543713,-0.002366790291554896,-0.002344560218943429,-0.001973297414831288,-0.001322096251782115,-0.0005240161925588767,0.00026731082224905204,0.000924154769721617,0.0013742106296838086,0.00160480236075143,0.0016470210021453358,0.0015526713874583632,0.0013757674206499233,0.0011627271055097439,0.0009473390780847282,0.0007445294646893061,0.0005428383144058985,0.0003037630639344339,-2.2320342717974595e-05,-0.00046349101648829533,-0.0009919272950641284,-0.001511517506174928,-0.0018833897024276261,-0.0019831049373917327,-0.0017605324978189844,-0.0012672494199840044,-0.0006337463889739044,-9.596148913772353e-06,0.0004975404133517502,0.0008501954282730414,0.0010672990090413758,0.0011867890122646905,0.0012340821379982307,0.001214457972954111,0.0011255678346794,0.0009722651406222349,0.000769046630065112,0.000529578192687968,0.0002545587616265384,-6.965497352158555e-05,-0.0004571140991532175,-0.0008991091347620416,-0.0013455307424159143,-0.001705130427461536,-0.0018706643292746546,-0.0017607148537793142,-0.001358619244287619,-0.0007284667567766905,9.146882818135134e-07,0.0006777733950016615,0.001177541687995374,0.001440680276335429,0.001483118870539132,0.0013760449521382097,0.0012058001482263044,0.0010339191877440693,0.000876083608967893,0.0007071732556436451,0.00048488301983574576,0.00017606453271674666,-0.00022703977971564346,-0.0007029217975703084,-0.0012029974713654414,-0.0016542797180683988,-0.00196497323387903,-0.0020410172484686693,-0.001816581077689365,-0.0012882576155036668,-0.000533107297054276,0.0003049381521038774,0.0010588667024778124,0.0015933451166014448,0.0018446436589106283,0.0018284387355881565,0.0016161616041829323,0.0012967540232118394,0.000944934736742471,0.0006073305900780718,0.00030292056874600963,2.7262483704460828e-05,-0.0002439425551241793,-0.0005457508540987646,-0.000901962585380266,-0.0012955168530785993,-0.0016515989259530024,-0.0018538590666905897,-0.0017943648178295876,-0.0014320753472508631,-0.0008239681229255779,-0.0001076701370250696,0.0005552821268837514,0.0010427014592486975,0.0013080252110937635,0.0013767229567920967,0.001314588517974698,0.0011909041503018437,0.0010533672128909069,0.000918322472982096,0.0007718747788651809,0.000578425790879472,0.0002966777933813841,-9.806081904065276e-05,-0.000592167113852819,-0.0011233799837109173,-0.0015897674314978942,-0.001877408946189468,-0.0018973720339663617,-0.0016180604441279477,-0.0010804782635413907,-0.0003901431099122927,0.00031236727989762946,0.0008927365665792864,0.0012620913045174986,0.0013999802344871683,0.0013521019148353731,0.0012032470456377923,0.0010369600525867355,0.0009002846407541618,0.0007894898931887469,0.0006612631839380413,0.0004605811493881228,0.00014998519474712234,-0.0002716923061972813,-0.0007647891400187148,-0.0012560981514219307,-0.0016546510991678372,-0.0018735224838368613,-0.0018536312678445622,-0.0015818976271894927,-0.0010953590532158022,-0.0004688122757879413,0.0002068269891792974,0.0008434342837908163,0.0013649455681399114,0.0017104087496899612,0.0018394586742612176,0.0017436021798958232,0.001456136940269821,0.0010483475131253825,0.0006061293390430503,0.00019558405786069643,-0.00016271456735814113,-0.0004928998838253518,-0.0008339059642605804,-0.0011973114502528922,-0.0015398707255422257,-0.0017705083406649917,-0.0017905461378145606,-0.0015447558859587528,-0.0010540655365423772,-0.0004125459267985773,0.00024762523900616253,0.0008035146845571028,0.001178690145621854,0.0013569132570018403,0.0013718611567597365,0.0012822530668434096,0.0011447126546814507,0.0009938808834476865,0.0008344497319478309,0.0006458568726016331,0.00039748397928499307,6.924014121163183e-05,-0.00033018027759595763,-0.0007554902714043476,-0.0011327319152289821,-0.0013823087560510955,-0.0014489179499746544,-0.0013244147865197052,-0.0010507143374660322,-0.000699609276386353,-0.00033997004022252755,-1.1031401289877626e-05,0.00028319997545871417,0.0005573653461313961,0.0008195787550759695,0.0010555522387600943,0.0012310177588334891,0.0013075280079423977,0.0012593160832445412,0.0010819400376568791,0.0007911985823924897,0.000415797121330268,-1.2136925471843306e-05,-0.0004649134782706009,-0.0009210289486377572,-0.0013573569817858738,-0.0017345485136758144,-0.0019873284505359154,-0.0020341082673765,-0.00180993834050537,-0.0013079730442499278,-0.0006025717043429707,0.00016586416353267687,0.000841462626745209,0.0013137014203449561,0.001556593375533248,0.0016263780173004332,0.0016201428924654995,0.0016176760210588627,0.0016365967203658665,0.0016232768694678323,0.0014834687080109645,0.0011364890607113635,0.0005653089543990046,-0.00016270949506910575,-0.000914831007958227,-0.0015420359694038755,-0.0019335582065407632,-0.0020509819684664376,-0.0019289469690224343,-0.001647815326527469,-0.0012957550277013308,-0.0009381235973998602,-0.0006039708369758635,-0.0002899986999538894,2.3688039517874142e-05,0.00035372232494778146,0.0006970709289662379,0.0010245356037722293,0.0012877776742641722,0.0014379005527149797,0.001446618160975526,0.001317308182350986,0.0010778190581730884,0.000759374248959707,0.0003779525832349518,-6.486563183632284e-05,-0.000558981312670228,-0.001058055446075186,-0.0014727279464688465,-0.0016978052499917354,-0.0016605297320093546,-0.0013587948115456631,-0.0008634160098196488,-0.00028371256731370175,0.0002793968137432035,0.0007630338127118251,0.0011413892817831268,0.0014043946426281905,0.0015385790500056873,0.0015261579009887513,0.0013606662046875102,0.00106317629888259,0.000682632866684544,0.0002765947472393092,-0.00011514402007898174,-0.0004842612940889899,-0.0008431448018968231,-0.0011963018295363856,-0.0015153369851256654,-0.001737417049019514,-0.0017901021005750446,-0.0016268951996997669,-0.001252158337179607,-0.0007229706324444612,-0.0001296483381511039,0.00043352372572023933,0.0008935451162252716,0.001210685195386249,0.0013767965048354955,0.0014072262861591568,0.001333650967161664,0.0011975579216281524,0.0010380721855331513,0.0008725690907621725,0.0006810851763619302,0.0004118506786253695,1.4791261217803953e-05,-0.0005120595587901691,-0.0010937306451331472,-0.0015917370373979868,-0.0018589660062723052,-0.0018075072147504527,-0.001450676114549496,-0.0008952240105333909,-0.0002896309200368706,0.00024043065912355925,0.0006338904374707481,0.0008953361716375564,0.00106365860344229,0.001173860828009844,0.0012357942066419246,0.001236889467427115,0.0011586898747074541,0.0009916319169232628,0.0007397329944266849,0.0004171081956333834,4.260362267629926e-05,-0.00036328701254512223,-0.0007784354814075209,-0.0011764410056752759,-0.0015222498689161533,-0.0017691320028960782,-0.0018625174454613975,-0.0017544513947193086,-0.0014253042133719885,-0.0009018197349437941,-0.0002594923829798085,0.00039516524721528606,0.0009554008785391028,0.0013437506196057399,0.0015283148110380599,0.0015231290743269103,0.0013779535057389472,0.0011632498966582655,0.0009515566516973009,0.0007948375852471973,0.0007024892406620516,0.0006315488205436374,0.0005005449427775273,0.0002277290651402932,-0.0002214323914523351,-0.0008024945754287432,-0.0013962191453010119,-0.0018505718808835181,-0.002041344954162132,-0.0019215279810783164,-0.0015355536159108944,-0.000993420743749114,-0.00042043616828011754,9.07944827311394e-05,0.0005039261841314353,0.0008314694923186105,0.001106507786730629,0.001351885402545811,0.001562369896681847,0.0017052274959400797,0.0017343056433013642,0.001607758280937954,0.0013014770020285528,0.0008161191325118857,0.00018035197440988853,-0.0005468521361074338,-0.0012760636692078333,-0.0018951747113345359,-0.002290878906938056,-0.0023820116927615637,-0.0021513554232369964,-0.0016570561412107881,-0.0010133488144694457,-0.0003488852773606829,0.00023499696958000256,0.0006860437419606673,0.0009986302176749496,0.0011973575203385665,0.0013189344185792183,0.0013966892186340792,0.00144610141343597,0.001452562701945704,0.0013692267910740802,0.0011332324054041164,0.0006990325088342185,7.462212916581328e-05,-0.0006593644557780369,-0.0013614551551791591,-0.001871158102086426,-0.002064809095974801,-0.0019010663832723317,-0.001434691787864849,-0.0007920360237296326,-0.00012117846969252901,0.00045811574247572775,0.0008824905471330545,0.0011441355424931911,0.0012699995171276072,0.0012971590578971094,0.001256432270026179,0.0011669090530361961,0.001036822394797816,0.0008649537122165278,0.0006403282140772558,0.0003426945007435349,-5.1139885102039796e-05,-0.0005518050103334699,-0.0011358187869752612,-0.0017292243140595981,-0.002211112703450187,-0.002444974534155041,-0.002330010673299881,-0.001849162068033165,-0.001087353726813566,-0.0002067062817519851,0.0006117363348450953,0.001231646640356655,0.0015995007016228195,0.0017413145169064095,0.0017262078591153006,0.0016224561473718413,0.0014712956970741025,0.0012867656577155756,0.0010699162839951971,0.0008185009992727981,0.0005238322268033222,0.00016434768126592246,-0.00028682900842289373,-0.0008341180547621342,-0.0014263996275841585,-0.0019457340797680094,-0.002236218147221199,-0.002166755634652441,-0.0016983722565360381,-0.0009197822498925928,-2.783884578955779e-05,0.000744258771582672,0.0012207500904221713,0.0013542663452096645,0.0012372311359589692,0.001046134045104939,0.000946371034713838,0.0010066393722040182,0.0011665999632219047,0.001272490161967112,0.0011591689634888403,0.0007344199778411085,2.4543591306123123e-05,-0.0008349616054466593,-0.0016511908526264394,-0.002240234475597553,-0.0024821263512497843,-0.0023492476222637193,-0.0019040689389049534,-0.001270270568656932,-0.0005879664317189727,3.103970755421789e-05,0.0005311375377866662,0.0009132687426404596,0.0012097097628695017,0.0014488091797923504,0.0016310957888122132,0.001730359959070701,0.0017151866469515614,0.0015710691504595155,0.0013040674427890237,0.0009251525438964114,0.00043495281047847394,-0.00016826638877743004,-0.0008551232784980864,-0.0015321551612071048,-0.0020451598671165265,-0.0022331068517034915,-0.002008299540134108,-0.0014135599538233918,-0.0006170139973289175,0.00015681375912127127,0.0007220475522685132,0.0010016274963468433,0.0010394783290959772,0.0009558925155162402,0.000875714721152217,0.000866885614935405,0.0009147801122103198,0.0009368781170438677,0.0008254718343744915,0.0004993970318801829,-5.324157574317545e-05,-0.0007559137300572142,-0.0014576503738632314,-0.0019797879781892447,-0.0021797634119574,-0.0020038120586915583,-0.001502481009559359,-0.0008022104219693841,-5.110504515893168e-05,0.0006304321471436494,0.0011718804277785766,0.001546433533263957,0.001752247251744983,0.0017983742411460417,0.001701317354428246,0.001485775594882072,0.0011802622742241894,0.0008061847463252758,0.0003695772345237839,-0.00013279528148120738,-0.0006910332656171631,-0.0012567964060428538,-0.0017361497090528154,-0.002013062468395205,-0.0019959002789819214,-0.001662384793921969,-0.001077517347924363,-0.0003739861755890014,0.00029522293972999563,0.0008090825058805505,0.001112339611926078,0.0012184876942092481,0.0011853775740684517,0.0010796171884317025,0.0009485365180928235,0.0008100827698182451,0.0006581598505339153,0.0004732937723902422,0.0002309222792165797,-9.192039583237105e-05,-0.0005054097038167737,-0.0009891081758421822,-0.001476055527931304,-0.0018545034746341223,-0.0019974889599460055,-0.001813015807002942,-0.001290748396229022,-0.0005189707915126075,0.00033915712534602716,0.001099563403960437,0.0016174951898479798,0.0018299317196003896,0.001765536645911389,0.0015208447051953534,0.0012144894722156234,0.0009397946008873913,0.0007354271444948991,0.0005835499371565231,0.0004309534707251154,0.00021950160382039514,-8.777286965613514e-05,-0.0004920736867580847,-0.0009560585079420561,-0.0014101462462813021,-0.0017656905172313332,-0.0019340844655550784,-0.0018505619962317617,-0.0014985908804436032,-0.0009262303777519867,-0.00024342257471304178,0.0004059971651267447,0.0008909667066968096,0.0011386651197165725,0.0011562787195583371,0.001018501812649103,0.0008286644964799003,0.0006735399613601067,0.0005914192941442182,0.0005635707141331767,0.0005285185216642977,0.00041164855531100684,0.00015971398152465704,-0.00023089743642588066,-0.0007023715715498416,-0.0011466584861333352,-0.0014385660315318586,-0.0014799830197367156,-0.001237590402262313,-0.000757383039691222,-0.00014889892494766003,0.0004543216805153622,0.0009406869350250022,0.0012528013106718652,0.0013928998035950553,0.0014021575586674025,0.0013278121864995422,0.001196680193982585,0.0010071786710135395,0.0007399250399846931,0.00037787987440906427,-7.505032823845796e-05,-0.0005847595409003744,-0.0010897867694678004,-0.00151434255361529,-0.0017864304506314745,-0.001855126764207758,-0.0017025812685098846,-0.0013488622816334877,-0.0008496033158115565,-0.0002867630498281693,0.0002472535420176109,0.0006704384189946034,0.0009319843334635119,0.0010252650157998946,0.0009863959168904652,0.0008776555642077542,0.0007622742001828154,0.0006808594006906957,0.0006378651924538317,0.0006013833973303388,0.0005154425815204388,0.0003223813121378283,-8.953947481885335e-06,-0.00045778528948809495,-0.0009415805734856409,-0.001332661656250519,-0.0015009157076645626,-0.0013668111447301067,-0.0009394721090446067,-0.00031926035827425204,0.00033793647767107674,0.000877400958900272,0.0011964651739179114,0.0012693110058586178,0.001141638410527145,0.000904594249740005,0.0006604798150152223,0.0004886946803673869,0.0004178235375056663,0.00041236765850781015,0.00038435405989907913,0.00023243933821112466,-0.00010514064899119058,-0.0006101685487370723,-0.0011797883969452182,-0.0016618194967542518,-0.001912656971283084,-0.0018504098086488232,-0.0014816917582503692,-0.0008950663757589598,-0.00022770755402850727,0.00038062170242088886,0.0008299472400068954,0.0010840115549385272,0.0011671501294997799,0.0011371926910115817,0.0010501387598648405,0.0009368540758318319,0.0008027173710458927,0.0006436186220855462,0.00046020221424604457,0.0002571230365996462,3.1218434021627406e-05,-0.00023414093006655492,-0.0005551207605493899,-0.0009192695116613058,-0.0012652188243021383,-0.0014911094084579639,-0.0014937146112281095,-0.001218932660995214,-0.0006960088431982175,-3.617971196443883e-05,0.0006055859005246272,0.0010891967559221191,0.0013416111044011678,0.0013777196267829564,0.0012797086907585854,0.0011460595966032387,0.0010379175165904197,0.0009517615772650027,0.0008314303856353589,0.000608977446119061,0.00024760123875470976,-0.00023810697774842948,-0.0007909652818433805,-0.001335210656562579,-0.0017958497937399876,-0.0021049026439486796,-0.0022024402542766557,-0.002045476945787378,-0.0016273770981896623,-0.00099533261403849,-0.00024879391671249506,0.00048715429190940545,0.0011014524366008858,0.0015277694835325038,0.0017506914723108503,0.0017895975788287115,0.00167711313813065,0.00144862525071151,0.0011447674102766138,0.0008140071139755296,0.0005022349372336425,0.00023145367285776688,-1.4557827919531384e-05,-0.0002799677484377932,-0.0006025360245907171,-0.0009766609794730325,-0.0013404783379340067,-0.001597793698051478,-0.0016612987240938737,-0.0014901220618622154,-0.0011019987750216442,-0.0005604515639494574,4.738116423421183e-05,0.0006278939956755156,0.0010919398027314873,0.0013680852920643781,0.0014225559643784118,0.0012766684049301566,0.0010046263928587703,0.0007029725192299634,0.0004433183114832878,0.00023587814766684524,2.8736166105288504e-05,-0.00025313049435327366,-0.0006503278427523217,-0.00112709117657899,-0.001570900522287833,-0.0018355255162970552,-0.0018042908091864518,-0.0014403927530303598,-0.000801683563358292,-1.8851497798823714e-05,0.0007476719358138448,0.001353644442699565,0.0017070410224561277,0.0017871695785864992,0.0016427561298370675,0.0013684603779591678,0.0010664264309871913,0.0008071875706153116,0.0006060685075197903,0.000424316807621519,0.0001928872016149988,-0.0001516905323529829,-0.0006325012005560398,-0.0012104260001695323,-0.0017845302148153858,-0.002218335226246689,-0.002385470366536269,-0.0022168223547843094,-0.0017274314171351495,-0.001010643113064969,-0.00020428611694569616,0.0005534379219299107,0.0011598046218935488,0.001564747880540149,0.0017682986403221774,0.0018037959392522525,0.0017164420861007002,0.0015474625307322003,0.0013290001652394772,0.0010855070149168526,0.0008319023962611249,0.0005644964987986626,0.00025398875325140246,-0.0001434935951028021,-0.0006521822473237531,-0.0012364756122505089,-0.0017860229875489883,-0.002147398809379101,-0.002193278661165255,-0.001890690780985099,-0.0013248273019288857,-0.0006605063274226729,-6.307967740840282e-05,0.00037370323349240637,0.000651899572439156,0.0008378869186335133,0.0010027170241627946,0.001174832756657341,0.0013301608394643513,0.0014153899693450953,0.001380102957227123,0.0011952618194933057,0.0008537606537091734,0.00036578922845220143,-0.00023669438322143524,-0.0008859634422424331,-0.0014707499015083473,-0.0018536965307268728,-0.0019180678204133847,-0.001624016376527573,-0.0010403783767021651,-0.00032666485084042443,0.0003310982545171911,0.0007970497766310943,0.0010322575587431318,0.0010886464651602467,0.0010605347631648223,0.0010269789517653885,0.0010160353141190626,0.0010016329841322908,0.0009239351516612101,0.0007181465699743865,0.0003425067342951145,-0.0001979554526772044,-0.0008368432722995631,-0.001450766855635599,-0.0018904735286073542,-0.002033191503641178,-0.0018336439778765539,-0.0013453454216609763,-0.0006975935103211536,-3.9746260964246966e-05,0.0005157248009997335,0.0009211757181379916,0.0011836649042250033,0.0013324866313837056,0.001390398287769045,0.0013647588634583074,0.001255381689848579,0.001063924867528972,0.0007938876057327635,0.0004444734808408328,1.1132444061397585e-05,-0.0004989979252338632,-0.001043715279915596,-0.0015339795539448422,-0.0018512632719440742,-0.0018937570940056147,-0.0016289529625458962,-0.0011199693466806943,-0.0005045486924635946,6.636701465196066e-05,0.0004970303066121999,0.0007820493578726481,0.0009872746654920638,0.0011893393766894697,0.0014133511884047135,0.001608791418591129,0.0016773846021251875,0.0015321958409215623,0.0011487509659810586,0.0005781622125413835,-7.979119899576698e-05,-0.000720327010104184,-0.0012652446367778462,-0.00166862545793375,-0.0019040647873336774,-0.0019518093928490524,-0.0017988915640931957,-0.0014509078790302496,-0.0009432699863011752,-0.0003406785387969006,0.0002762161981770667,0.0008286263200603121,0.0012530854321616779,0.0015085655577466333,0.001580759561037552,0.00148530599274622,0.0012658925586924326,0.000981502888394707,0.0006836983988686102,0.0003948013302715342,0.00010154542206938804,-0.00022881177532123556,-0.0006171483030885106,-0.0010437080696999513,-0.0014392845699462147,-0.0017032432698530487,-0.0017415544729444752,-0.0015080744836279436,-0.0010300752440121296,-0.0004053290196789456,0.0002293694044821564,0.0007451361295337403,0.0010632387768345858,0.0011754454512271236,0.0011361343972278476,0.0010320109297681792,0.0009428305734544326,0.0009079894705350956,0.0009111179480588092,0.0008891093718552531,0.0007630743835442778,0.00047839090746777343,3.516341627246318e-05,-0.0005056077793206465,-0.0010423277221725446,-0.0014685677737662074,-0.0017071027782122783,-0.0017280535342774626,-0.0015462857072589449,-0.0012038952856029369,-0.0007504588112868517,-0.00023290396894638777,0.00030156428993838725,0.0007967866445178688,0.0011859503877409458,0.001405250581974022,0.0014193849707124875,0.0012437311741372078,0.0009456532545889043,0.0006180762738900686,0.0003366492779737603,0.00012482261365253918,-5.125914958461483e-05,-0.00025338598997871317,-0.0005238532953481714,-0.0008480944256531515,-0.0011505397016745274,-0.0013276510130148021,-0.0012996075172456187,-0.0010504854753669616,-0.0006342861070522954,-0.00014626748279665433,0.0003198004989802622,0.0007025079069539413,0.0009784678117708695,0.0011482412654234798,0.0012185331121028747,0.0011936235515531352,0.0010778724139060003,0.00088149856631232,0.0006205415834379808,0.00030938974873326146,-4.6189088721762875e-05,-0.0004453370309998783,-0.0008759952307142039,-0.0012969000096466577,-0.0016332101958092349,-0.0017943678830300452,-0.00170879049283447,-0.0013582615994328392,-0.0007928731588963298,-0.00011703572300083873,0.0005465924520682833,0.0010958179602020323,0.001471042812271708,0.0016544111735062224,0.0016548846089911428,0.0014942932258392523,0.0012028860955543596,0.0008210005891919237,0.0003974555214996326,-2.00234395935658e-05,-0.00039744169857297177,-0.0007207760780166412,-0.0009907347244262539,-0.0012093721782177112,-0.0013670286442674705,-0.0014372490205126346,-0.001382996180514696,-0.0011726297899812914,-0.0007998695118094618,-0.00029893786364462477,0.0002540227916618845,0.0007578110676019718,0.0011178088743124203,0.001280578673441398,0.0012553942486838892,0.0011099303833240265,0.0009384900384740021,0.0008161319351176183,0.0007621413275356485,0.0007329986804148935,0.0006483490675175088,0.0004343774251378016,6.094538997734449e-05,-0.00044378412367329374,-0.0010025380085770268,-0.001512356569031007,-0.0018710135417317956,-0.0019994202356506522,-0.0018574626436858883,-0.0014529405078934016,-0.0008434962283027428,-0.00013023424167185968,0.0005594905983486798,0.0011009253042362946,0.001407005665988434,0.0014570322142340919,0.0013044763989415234,0.001056362233212951,0.0008296124775169244,0.00070213932969736,0.0006810238946687844,0.0007027312259929422,0.0006642598264677619,0.00046962524288542585,7.19758358709129e-05,-0.000502407269596223,-0.001153561710577344,-0.0017309595640237197,-0.0020771120378498564,-0.0020819345439392453,-0.0017287007707552913,-0.0011083857557967912,-0.0003892407425814358,0.0002491468635921018,0.0006867706878325946,0.0009035113618815528,0.000969197938457632,0.0009915581263648507,0.001052883753812542,0.0011701204371943035,0.0012962197823884417,0.0013544462007501513,0.0012796316923508364,0.0010424177305162624,0.0006503007712833023,0.00013693510513497205,-0.00044535469761076225,-0.0010259216474944953,-0.0015181092863414058,-0.001834246670785331,-0.0019122363994954275,-0.001738899794080555,-0.0013538768371199358,-0.0008316988211221697,-0.00025608182953011313,0.0002963627963402329,0.0007587067434013996,0.0010737171993337117,0.0012044405739246031,0.0011545563942698884,0.0009810447433030588,0.0007791330946623734,0.0006367104928600334,0.0005811179015349494,0.0005545002127980838,0.0004409040397403534,0.00013542452090501496,-0.00038383754601664405,-0.0010247538261494054,-0.001610970767217986,-0.0019565047251967568,-0.0019442240927797518,-0.0015680956179338753,-0.0009232045533266119,-0.00015797907093190915,0.0005802006074342985,0.0011803560208904457,0.0015781645175960146,0.0017517137259168347,0.0017156146551694411,0.001516456738096094,0.0012227829473991743,0.0009036642999511684,0.0006013255065006555,0.00031423397876681534,5.671557936518255e-06,-0.00036279041100400637,-0.0007923405113569688,-0.0012288714200993662,-0.0015802504849482116,-0.0017596868733325034,-0.0017273646077778908,-0.00150340744952602,-0.0011459817775368612,-0.0007133703124865745,-0.00023871201169160306,0.00026609280809416797,0.0007841764920071803,0.001268448183334834,0.0016393080695935609,0.0018111633604006455,0.0017338079891504306,0.0014235054635621846,0.000962711947919779,0.00046504462088958027,2.3464453158316404e-05,-0.00032847820578558247,-0.0006188225341308887,-0.0009015841367072145,-0.0012065895579171583,-0.0015073653261831479,-0.00172654528553223,-0.0017725309375571947,-0.0015827254135544653,-0.0011501630598949166,-0.0005264465941923255,0.0001918854231664667,0.0008846943143552984,0.0014345482283617175,0.0017572342221592494,0.001829003207542659,0.001695852451877078,0.0014536134074416714,0.0012031802890318034,0.0010020449310762676,0.0008379665103888076,0.0006390419138179667,0.000315021124750335,-0.0001899333654555431,-0.0008563093835029434,-0.0015777155516015484,-0.0021860294812849953,-0.002507733033337595,-0.0024322179268728267,-0.001962949402604914,-0.001224210147277437,-0.0004142351506480836,0.00027631250314033334,0.0007398430798584543,0.0009813797491914924,0.0010880719106915286,0.0011604791700148167,0.0012495025308258915,0.0013359509066498063,0.0013591523386327726,0.0012686495623964443,0.0010608497546934523,0.0007771457221119254,0.00046941933173614143,0.0001617176853745553,-0.00016215966388047733,-0.0005356739983211144,-0.0009678428158297156,-0.0014133062297709469,-0.0017770448069554102,-0.001953085940661594,-0.00187343687614525,-0.001537332471364007,-0.0010060554844486646,-0.0003728801393136378,0.00026838239612065186,0.0008391884446265531,0.001277832697878152,0.0015405011701773608,0.0016110751304179174,0.0015138596421653805,0.00131332049615088,0.001090301452279484,0.0009016649948525222,0.0007460902478541682,0.000560099568652166,0.00025293496244001924,-0.00023435507184694224,-0.0008772374973894764,-0.001554588769472805,-0.0020859373896283616,-0.0023030853983466984,-0.0021209082807934925,-0.001572907642786195,-0.0007962696235989375,2.3333126236201995e-05,0.0007190564344798305,0.0011921026486357376,0.0014256845853619516,0.0014660109690480742,0.0013866760853782968,0.001254652441771194,0.0011083671814763163,0.0009502452698171569,0.0007533091154068362,0.00048062897574141207,0.00011164458784060263,-0.0003376761904704581,-0.0008138811412331747,-0.0012453383459867819,-0.0015675410639996432,-0.0017367045590083703,-0.001727029134059217,-0.00152381855680487,-0.001127822137099156,-0.0005722411892514585,6.347351705374897e-05,0.0006627649466614141,0.0011093979739485514,0.0013362259529118643,0.001355394175131986,0.0012480648031151763,0.0011170164841412848,0.0010301104421449703,0.0009880920391665865,0.0009328924378763471,0.0007864912293985584,0.0004945846784924978,5.257502949864877e-05,-0.0004927488295132196,-0.0010582081333310551,-0.0015451325916215211,-0.0018612309884361742,-0.001943278323195947,-0.0017773566348804378,-0.00140663531174743,-0.0009170305809015839,-0.000403078748133896,6.843399806023836e-05,0.0004752175332332024,0.0008271697139013239,0.0011361573748372637,0.00139163909105241,0.0015603736126300163,0.0016089393325671164,0.0015294998766432202,0.0013466570827060055,0.0010986151056481958,0.0008072883473870872,0.00046242594835498767,3.557979796752473e-05,-0.0004828882095910238,-0.001050034081579648,-0.0015673730336677643,-0.0019166771759383725,-0.0020147074813594446,-0.001851985840637599,-0.0014911784674271524,-0.001029323188388523,-0.0005521685441108918,-0.00010961511073791144,0.00027955963487250003,0.0006083676561595342,0.0008686457404564933,0.0010533483967510781,0.0011662674872972723,0.0012248067685451999,0.0012485684332012499,0.0012395786204218134,0.001168742353935079,0.0009819864527637286,0.0006290722056168643,0.00010345391267238918,-0.0005293045423605583,-0.0011364885358657374,-0.0015632339450740113,-0.0016997358311979479,-0.0015338525390155879,-0.0011549434890552688,-0.0007027214948019566,-0.00029171295490993906,3.97969923941517e-05,0.0003241467537921408,0.0006108569715986351,0.0009083504014292823,0.0011646854492734305,0.0012991943721605934,0.0012581375019016516,0.0010514420267089485,0.0007444612266487424,0.00041339224692106487,9.879412057202189e-05,-0.00020917626753363253,-0.0005447539191046082,-0.000920065076595235,-0.0012922539299134832,-0.0015684378484857996,-0.0016470064618944358,-0.0014701932810965283,-0.0010566074633722622,-0.0004960199454997392,8.844058053531412e-05,0.0005882659977509544,0.0009427899624236865,0.0011443358373795743,0.0012194499207842848,0.0012028319792254884,0.001120714977088144,0.000989494200443643,0.0008224540192744858,0.0006325697499824948,0.0004258807499871107,0.00019180939442452725,-9.661397560793337e-05,-0.00046493962262981526,-0.00090825878880488,-0.001369480737907313,-0.0017435062577184379,-0.0019116609876261596,-0.0017911703682535602,-0.0013736943521029709,-0.0007330038887360484,3.6069344869779987e-07,0.0006831951112197005,0.0012023909382763932,0.0015008733923896236,0.0015810593459152484,0.001489927486036711,0.0012954016675960074,0.001063099402681257,0.0008379376246293962,0.0006323077626562454,0.0004239847198664486,0.0001682245229076966,-0.00017597150672536861,-0.0006145904115445994,-0.001097891064165876,-0.0015235051361969512,-0.0017665044887969347,-0.0017270312144467355,-0.0013764681445139662,-0.0007804211769450672,-8.390115695439986e-05,0.0005392805496485867,0.0009515771141020363,0.0010998745816105746,0.0010235120269273621,0.000821782324603343,0.0006027253357784219,0.0004411631884124736,0.0003621077018993509,0.0003477128365430228,0.000355259040303232,0.0003345345355371108,0.000240388401440209,4.254021816054018e-05,-0.00026437993807958387,-0.000651580306096069,-0.0010536161780982758,-0.0013796217764545345,-0.001539540476750644,-0.0014767843570368685,-0.0011917945626162207,-0.0007430347018560963,-0.00022307267908074194,0.0002786503801354161,0.0007064965751662056,0.0010461400916313066,0.0013064460936733737,0.001490180783456105,0.0015761625303390824,0.0015278922636723976,0.0013241221797952942,0.0009884196586878095,0.0005919041780424155,0.00022076068310378184,-7.280969451482354e-05,-0.0003013515526569078,-0.0005290115093959803,-0.0008188816785360984,-0.0011744423032353753,-0.001515388959481623,-0.0017071362161313335,-0.0016292899788303997,-0.0012440403374196793,-0.0006254538835221901,6.64500040733929e-05,0.000652001682980294,0.0010031331870990643,0.0010849569700530988,0.0009525141447816831,0.000711909295291039,0.00046984852291983653,0.00029492950045266963,0.00020230476844207803,0.00016017831278513446,0.00010975294038897271,-9.206339730092412e-06,-0.00023222421876922708,-0.0005488323182414933,-0.000894821618630214,-0.0011665625425662835,-0.001257655927188136,-0.0011048204758146224,-0.0007208849285384548,-0.00019595647329768062,0.00033696788789739946,0.0007569647026211607,0.001004269111095558,0.0010990689649106257,0.0011201481292893488,0.0011538342367873777,0.001240059589432423,0.0013453301850368294,0.0013782293520666474,0.0012385381668036182,0.0008715171319568022,0.0002976339301919502,-0.00039479772603749776,-0.0010842682146290175,-0.0016561902561501268,-0.0020303145941798495,-0.002169652428050145,-0.0020755203673557864,-0.0017767207263976877,-0.0013191955620057197,-0.000759310808437956,-0.00016060286628024446,0.0004092002995110157,0.0008850546082219289,0.001216734970956309,0.0013822220066180128,0.0013945419917992695,0.0012955158183556425,0.0011361656479368734,0.000951758886145474,0.0007450033928265628,0.0004891436443790315,0.0001521612277914728,-0.00027090321291507746,-0.0007380087322376682,-0.0011666305690128725,-0.0014638439355963875,-0.001562053805564406,-0.001440581794026757,-0.0011250253481667927,-0.0006712267685953682,-0.00014721660467107854,0.00037835240453275304,0.0008421577850039778,0.0011923289431131974,0.0013977448824226992,0.0014569343330483025,0.0013988706701571145,0.0012700677762659041,0.0011103220990056084,0.0009288045232088648,0.00069617956690246,0.0003619651589047727,-0.00010867981619251395,-0.000698677707532672,-0.0013258598930222488,-0.0018635362760441852,-0.00218602858741753,-0.0022159786394178923,-0.0019499724368336698,-0.0014526834925575561,-0.0008278414371205014,-0.00018444907207974554,0.00038710167614903655,0.0008262443714927679,0.0011061295874561492,0.001234034786877688,0.0012463425652844765,0.0011949024067746863,0.0011268603483951798,0.0010660849847450385,0.0010051782922618148,0.0009119634360499903,0.0007468575295704906,0.00048229725211315557,0.00011550862983860459,-0.0003288886233030425,-0.0008036481042640225,-0.001245703567022671,-0.0015825800006793447,-0.001741159098125069,-0.0016635256463214225,-0.0013300575393820403,-0.0007809275786655517,-0.00012086626361487935,0.0005042801072910422,0.0009560922918503861,0.001157069543576693,0.0011216968851983377,0.0009466004050967893,0.0007616656336302591,0.0006645432866437723,0.00067111053754544,0.0007084805482836835,0.0006562138726868822,0.0004151119517593661,-3.335800537991064e-05,-0.0006091806304174566,-0.0011659720639891295,-0.0015539008206406806,-0.0016787405323275175,-0.0015279942969408569,-0.001157046471720939,-0.0006522563189914154,-9.772730705857641e-05,0.00043767893342321155,0.0008965812265263409,0.0012284045789150422,0.001395194738549393,0.0013850687790932783,0.0012208560047474166,0.0009543923950320699,0.0006478281935454626,0.0003517355029962301,8.996189032477902e-05,-0.00014396090945349022,-0.00037833196387364364,-0.0006442019419958619,-0.0009505446133403824,-0.0012645727376241868,-0.0015110293687106663,-0.0015969825293245534,-0.0014529150498467534,-0.0010684857839085688,-0.0005029192167918378,0.0001352503731015849,0.0007272083379690097,0.001181249668970956,0.0014520274079971053,0.0015377426577783317,0.001464274318534575,0.0012699171343493797,0.0009978862723844658,0.0006925530945190585,0.0003909532059639296,0.00010869230783803965,-0.00016857713668940371,-0.00047425939691382894,-0.0008293494317457531,-0.001208210321512345,-0.0015278155280295113,-0.001675025268734953,-0.0015613192594837572,-0.0011738336677084755,-0.0005912732951915224,4.572297649266767e-05,0.0005925986740517035,0.0009548776799269739,0.0011119093135089591,0.001105196120029556,0.0010060846729000625,0.0008834900623492626,0.0007837909079835707,0.0007226990029117729,0.000683710368931201,0.0006215454638837161,0.00047462112226278317,0.00018979353577156793,-0.00024613974436151295,-0.0007836367884462242,-0.0013133058422356647,-0.0017002407053787647,-0.001836893541542693,-0.0016879035271920707,-0.0013021570397947282,-0.0007852615087021308,-0.00024879488720132417,0.0002338750867523743,0.0006408558347524443,0.0009809850639263846,0.001258948254162276,0.0014543993492345064,0.0015302434585215457,0.0014610035284478707,0.0012563658934257463,0.0009601777746094126,0.0006257669445420206,0.00028654676488701954,-5.7188054840560636e-05,-0.0004273409702864523,-0.0008409162596456358,-0.0012827759662426327,-0.0016926292806965784,-0.0019737076244821412,-0.0020224441942928444,-0.001770141481949938,-0.001220195330653909,-0.0004620075724405543,0.0003501892001193469,0.0010491012115891483,0.001514571608323609,0.0017125487968372394,0.00169295353404314,0.0015493242463015132,0.0013644726960495251,0.001172238681465335,0.000952885626199264,0.0006587585584383622,0.00025179536887472577,-0.0002670588268582564,-0.0008475250619679648,-0.0013990477760400242,-0.0018136298564072244,-0.0019956937057934894,-0.0018917293830962062,-0.0015108070535073026,-0.0009271911074787997,-0.00026166666832343893,0.0003530251599236486,0.0008106024700755639,0.00106029203787985,0.0011165937503132134,0.0010456714674927999,0.0009323153696954273,0.0008406259653283299,0.0007870525656384873,0.0007398825604073306,0.0006444605920285799,0.0004576006904645231,0.00017006188556660247,-0.00019339794814550752,-0.0005895956755702535,-0.0009717129885280551,-0.0012925697526080088,-0.0015005231262261083,-0.001541605115929915,-0.0013761386065050977,-0.0010027806261587685,-0.00047230249002239665,0.00012226062020997117,0.0006764008025359382,0.0011086634076932567,0.0013802335314483118,0.0014927939086881931,0.00147258429756922,0.0013542368063542791,0.0011715692033451746,0.0009521889870806109,0.0007096451204179098,0.00043420458843851015,9.28281979743911e-05,-0.00035132896452324657,-0.0009028401379050973,-0.0015011996064942656,-0.00201733315441611,-0.002293112772417601,-0.002211471332680528,-0.0017607947643954376,-0.0010534821239281417,-0.0002818178468941767,0.0003677856099713579,0.0007941052586326019,0.0010096846686152038,0.001106769925704278,0.0011869034015130374,0.0012989523559750918,0.0014194062904024397,0.001479024355966138,0.0014120682726972398,0.0011946389090609333,0.0008502809644902284,0.0004249432698714605,-4.568114068930851e-05,-0.0005490813784398919,-0.001077869132569575,-0.0015953755102480981,-0.0020155989825297923,-0.00222071601792337,-0.0021126714590617435,-0.0016691429414663233,-0.0009680427450765535,-0.00016334552218980384,0.0005747980501879734,0.0011219169550280741,0.001431392810354157,0.0015270100878788163,0.0014704548477884423,0.001328468800119141,0.0011554972029546706,0.0009901280668081222,0.0008530827201892971,0.0007388271972215779,0.0006064116184825539,0.0003845999960118484,1.7902771518240126e-06,-0.0005662941113072675,-0.001256655487181792,-0.0019165812819171484,-0.0023515120697738473,-0.0024061710528506764,-0.002038408416278649,-0.0013448231172740479,-0.0005220624299064314,0.00021692789628617793,0.0007283772659158066,0.000982919332892193,0.0010528428977520776,0.0010549695379775893,0.0010833730821424529,0.0011664116845077717,0.0012650222697136097,0.0013055837091668489,0.0012241084931321092,0.0009967708779210869,0.0006437740102313594,0.00021088781663522406,-0.0002549052834358405,-0.0007186914982161804,-0.0011527852292199598,-0.0015201874044344264,-0.001761660114603539,-0.0018008668880420283,-0.0015715390092040475,-0.0010561401376730677,-0.00031540367433247036,0.0005110675451863938,0.0012403930379423459,0.0017069039955829386,0.0018215721646334063,0.0016024986104119354,0.001161651888362101,0.0006544661194653441,0.00021659869173367856,-8.373386789870145e-05,-0.0002597343920103932,-0.0003849162666296804,-0.0005490140330569344,-0.0008093604476904008,-0.0011567057781732898,-0.0015102767869413902,-0.0017467220325460286,-0.0017523722516314465,-0.0014751073902738625,-0.0009504380519292986,-0.00028895701007294547,0.00036800371914783654,0.0009022215690596924,0.0012563538453782995,0.0014399097625659287,0.0015050941065554292,0.001509376088403313,0.0014859041280064654,0.0014343796889640906,0.0013305111021854193,0.0011424375082513547,0.0008438869137087648,0.000422784770832984,-0.00010980079213587465,-0.0007091440694338662,-0.0012928619497822795,-0.0017545794151022042,-0.0019963454857588625,-0.00196488281644525,-0.0016703478037632695,-0.0011773846127617173,-0.0005778929677760821,3.4661731517954086e-05,0.0005772940647834883,0.0009807532673937682,0.0011972157210975078,0.0012166665494161475,0.0010792870591206536,0.0008649614437305654,0.0006550261677729329,0.00048562176137662385,0.00032510937818674615,9.637062466013076e-05,-0.00026496183869497537,-0.0007514860193597848,-0.001262646790785331,-0.001637401620810939,-0.0017251849975671862,-0.001457570689385468,-0.0008835022855190239,-0.00015161256616678205,0.0005489854092885166,0.0010588224355200515,0.0012976412129840147,0.0012772103695762507,0.001080652253555973,0.0008232958898734328,0.0006108550146011135,0.0005059017119167708,0.0005095692950211508,0.0005633349689858585,0.0005723808362204093,0.00044518180735947035,0.00013576659499176837,-0.0003291809331704631,-0.000852225476275447,-0.0012979317198525237,-0.0015436510346890052,-0.0015258685845021243,-0.0012608563463153083,-0.0008310372053684633,-0.00034613877799448477,9.961173834509832e-05,0.00045369609426230354,0.0007064423497575966,0.0008732605865993935,0.0009723608111699218,0.001010897921289432,0.0009843052038312284,0.0008843962825430463,0.0007071636724534408,0.00045409219049578,0.00012915800128939894,-0.00026000057217315703,-0.0006913000591477663,-0.0011137315518035167,-0.0014442262713224275,-0.0015874218059228186,-0.0014744629143902388,-0.0011014230499863738,-0.0005443879091024624,6.0752395285384086e-05,0.0005674030260261722,0.0008744383353112776,0.0009628586909199712,0.0008950909633220086,0.0007779534670883746,0.0007091947405669318,0.0007345510564305651,0.0008331379131061965,0.0009317097989482089,0.0009362062270326044,0.0007679654699116139,0.0003961847276050854,-0.00014103620898233348,-0.0007374388506656,-0.0012489099740103982,-0.0015473150635447043,-0.0015737659633470883,-0.0013607548564214893,-0.0010075078808396152,-0.0006219328266747583,-0.00026535484667254054,6.475005304046072e-05,0.00040452807288854966,0.0007696357618312127,0.001117681910702052,0.001355656262093308,0.001388486098028734,0.0011758753648656386,0.000759586836513709,0.00024472468871078587,-0.0002503879917070699,-0.0006428897552422364,-0.0009056022853004311,-0.0010544827558557001,-0.0011199679128928016,-0.0011235149945488852,-0.0010694542224293855,-0.0009482947688884584,-0.0007432451576754135,-0.0004375301977622051,-2.615706488578052e-05,0.0004671341430898258,0.0009772967689308638,0.001405243080169216,0.0016515377205722276,0.001662623333347046,0.0014603179572218903,0.0011309892260892081,0.0007766783639753501,0.00045775761892231904,0.00016438265767820608,-0.00016385233947507688,-0.0005813682282418051,-0.0010781344320540305,-0.001557142499566882,-0.0018662825129248427,-0.0018714016292972228,-0.0015308675778707623,-0.0009276168484072082,-0.00023741853472105865,0.0003508041793522746,0.0007184618078688615,0.0008588771876866326,0.000857140965925187,0.0008252571107079145,0.0008340428032444658,0.0008805647985658891,0.00090380595372873,0.0008306945454770421,0.0006196995404005238,0.00027746127252285563,-0.00015348929815163222,-0.0006185731525558943,-0.0010661488206035353,-0.0014458525183366118,-0.001699117838028791,-0.0017583946106180938,-0.0015652234431354764,-0.0011019869462423322,-0.000419121607486832,0.0003616459469273959,0.001076040606576529,0.0015695841225932534,0.0017529928953807557,0.0016368181535727183,0.0013279154582084938,0.0009850867608400464,0.0007499600566155513,0.0006834645938366929,0.0007390286655797919,0.0007874548284512319,0.0006823126257398948,0.00033365510204542764,-0.00024537680498327075,-0.0009392454797197567,-0.0015749450625128737,-0.001989211816238633,-0.0020884340162350013,-0.0018766432455733955,-0.001442208821899786,-0.0009131635308464849,-0.0004048983497818876,1.5423821427498806e-05,0.00033545105681966514,0.0005789826685908717,0.0007764317773951013,0.0009405788564621585,0.0010587508730154087,0.0011034442231103703,0.0010530444053594476,0.0009078300895322201,0.0006896144962844089,0.0004260588446097568,0.0001337545554507695,-0.00018408864835753943,-0.0005219356082876104,-0.0008512169870014423,-0.0011137027534252667,-0.0012383692076252378,-0.001173766364140016,-0.0009163208008241319,-0.0005171461217038286,-6.321417016762567e-05,0.0003564268337844558,0.0006817133432892172,0.0008960622746905082,0.0010205046981667854,0.0010928165514703817,0.0011417470504679,0.001167412819996909,0.001136891323850004,0.0009982187295055067,0.0007071443607130758,0.00025383599764406545,-0.0003233737108322466,-0.0009428148878111981,-0.0014993011481119149,-0.0018903319976969874,-0.002040526856730112,-0.0019189892330740799,-0.001546585270491764,-0.0009917889111106931,-0.00035583798217309493,0.0002498650309536122,0.0007298277768848501,0.001028760795266437,0.001147046135252408,0.0011389203291074482,0.0010880273097170312,0.0010653360247832376,0.001087704422583721,0.001101264918530393,0.0010043675968023518,0.0007029125562072184,0.00016999740312232422,-0.0005235229718271004,-0.001226075932742804,-0.0017622920752969865,-0.0020006418316055883,-0.001898535999663375,-0.0015062287610289114,-0.0009339913606425068,-0.0003043566316697217,0.0002861255573618079,0.0007818745915953396,0.0011615512273928583,0.0014216588379253553,0.0015634493873483632,0.0015890263571803423,0.0015035845785376831,0.001316489762212812,0.0010370758878821375,0.0006685379052146033,0.00020821985677936517,-0.00034038925685845364,-0.0009481899148447593,-0.0015462884701294352,-0.0020299834789300726,-0.0022847508049417546,-0.0022256698395841006,-0.001833593723880216,-0.001171639901422299,-0.00037332793269797106,0.00039520525635519736,0.000986379383613911,0.0013173651438740201,0.001393540354138472,0.0012989382580229042,0.0011556972532361226,0.001067612229341432,0.001071797674974834,0.0011217582866965116,0.00111191482661074,0.000932440325990187,0.0005264111992100206,-7.956951219900482e-05,-0.0007840026934816924,-0.0014491617031248696,-0.0019470911866037114,-0.002191986368539016,-0.0021508947733791064,-0.0018382623968643918,-0.0013052201080442861,-0.0006302659143657486,8.969557413280704e-05,0.0007524768750110016,0.0012693299641419568,0.0015850004009991705,0.0016916652976215812,0.0016300638675401302,0.001474148451351746,0.001300253245402512,0.0011493084974276502,0.0009994114245606691,0.0007687496491683911,0.0003577733453288915,-0.0002837490975706778,-0.001100510855237516,-0.001923780013581425,-0.002525338581838513,-0.0027102156272584333,-0.002400699830606744,-0.0016686018869830615,-0.0007024729027286134,0.0002688521500590904,0.00105632857859065,0.001559463261796491,0.0017705525524217146,0.0017448077113192456,0.0015596539045715067,0.0012841559865882338,0.0009668253681735266,0.0006370555886380901,0.00031031974753978515,-8.817330993536176e-06,-0.0003245387731068194,-0.0006438248590389507,-0.0009654794123269193,-0.0012690366762100162,-0.001510952240315527,-0.0016321221496104342,-0.001574869608707359,-0.0013034864654593778,-0.0008216059863083525,-0.00018084250952686174,0.0005230818337244956,0.0011682014806363723,0.001636230391515307,0.0018477872679769326,0.0017907623416648106,0.0015268101541437555,0.0011659193801624905,0.000814456631332845,0.0005213479554270573,0.0002552476027206477,-6.82425454183144e-05,-0.0005206660926578607,-0.001094494201498166,-0.0016788901449510936,-0.0020965203840188486,-0.0021844442321853853,-0.0018755298130870655,-0.0012355641623074175,-0.00043592800951995365,0.00032217195221379295,0.0008900251785092851,0.0012180841989114543,0.001348577672179502,0.0013668530807824039,0.001343578646300505,0.0012988201090638242,0.001202363614780284,0.0010041809742705396,0.0006746948625390469,0.00023138268993673809,-0.00026329530399131257,-0.0007309375970461999,-0.0011143331602985907,-0.0013971412549818195,-0.0015915373748732848,-0.001702774873994975,-0.0016989077431030007,-0.001512921694988793,-0.001082283051261734,-0.0004035147472811719,0.00043325686843228477,0.0012547860299893753,0.001860485767437379,0.0020997726461896415,0.0019357162481675883,0.0014641647270149992,0.000875542150465901,0.00037241846498495436,7.971208599497271e-05,-7.5772761835291025e-06,-1.0632684168734906e-05,-9.33956707046739e-05,-0.00036875973399971623,-0.0008342513920584246,-0.0013690180763311767,-0.0017894662858102116,-0.0019312531034427563,-0.0017164218397827731,-0.0011779261302700098,-0.0004384430622161581,0.000338912551368949,0.0010031637844516064,0.0014525165182325453,0.001648881997276446,0.0016127248995791237,0.0014053225696833965,0.0011052698384204484,0.00078461212747478,0.0004896242617465597,0.00023163564445958737,-7.888069238565297e-06,-0.00025858253367260425,-0.0005366186437398146,-0.0008271215728394644,-0.0010839880914789634,-0.0012482651486035517,-0.001275915829186011,-0.0011602915668120586,-0.0009364240404514461,-0.0006629787573105119,-0.0003904734075567129,-0.00013455941235796992,0.0001272456582670677,0.0004305760868897675,0.0007853773434700292,0.0011488626638691997,0.0014303731364115188,0.001528923551150903,0.0013836421678927744,0.0010084537776852125,0.0004906667341002146,-4.620453142369893e-05,-0.0004944463311958003,-0.0008002931592226728,-0.0009693280868136298,-0.0010408706243911,-0.0010510536670847123,-0.001008493503043677,-0.0008953832045336341,-0.0006892514638123068,-0.00038877967381927903,-2.7377682542019434e-05,0.0003324577749544604,0.000620499349167015,0.0007859677712130863,0.0008187856348972988,0.0007547774404679542,0.0006600510728463323,0.000598958413978996,0.000599634062825993,0.0006349928897114545,0.0006312333271483984,0.0005024842337955558,0.00019640192514229818,-0.0002711967801502268,-0.000810506238735556,-0.0012854911108030925,-0.0015640995241332114,-0.0015685536889506744,-0.0013026339043268021,-0.000844129797389081,-0.00030870476588292113,0.00019428240994833645,0.0005922633897762568,0.0008565296661838381,0.0009915073856051936,0.0010192620563394678,0.0009685151051482786,0.0008687048757290599,0.0007444680880490514,0.0006079213884840373,0.00045197418941162273,0.00025138368134281224,-2.4263502097747556e-05,-0.00038853643646307736,-0.0008168896124639579,-0.0012382619718603576,-0.0015478133307255779,-0.00164009409687728,-0.0014512156784187314,-0.0009913395566165009,-0.000350255718346178,0.0003296998007910277,0.0009028386460428938,0.0012691668203294656,0.0014012847110159996,0.0013394549009565376,0.0011618864029395762,0.0009480193004723583,0.0007515878002087915,0.0005905654726367101,0.0004512450042051633,0.000299867318144925,9.703980132239791e-05,-0.00018688310895866012,-0.0005569483796419136,-0.0009829911728616786,-0.0013987997938558468,-0.001715192523959677,-0.001845864461331865,-0.0017376111849169385,-0.0013914495220508731,-0.0008631306365810556,-0.0002419983939582562,0.00037972533874592956,0.0009295938219422891,0.0013595226867894024,0.0016375289186432505,0.0017415750352826563,0.0016657350219827494,0.0014336579496574482,0.0011028485726981931,0.0007474112862298546,0.00042445713766412754,0.0001455614329999408,-0.00012480290905368273,-0.00043865074705014777,-0.0008187357998584009,-0.0012268637224670624,-0.001568661705010918,-0.0017348326736575414,-0.0016550974627417975,-0.0013323177456921846,-0.0008377594459416183,-0.00027466904240513936,0.0002633346621068062,0.0007139951769486376,0.0010424598427057298,0.0012263992651486524,0.0012506963246713275,0.0011193816074525724,0.0008724746876673939,0.0005857113170446636,0.0003415842858855878,0.0001841043916344955,8.82737941967942e-05,-2.839611571274481e-05,-0.00025168561977369225,-0.0006050800950148748,-0.0010169344120925278,-0.0013461775261243945,-0.0014538408800293188,-0.0012763889112674572,-0.0008558159760279588,-0.0003113080641800409,0.00022460603168882195,0.0006634436313207404,0.0009804704125108367,0.0011941474741405443,0.0013275330232593934,0.0013801230789110134,0.001326377852005235,0.0011373062055592706,0.0008072262419819656,0.00036705699854906585,-0.00012322101515069338,-0.0005959273496353088,-0.0009963083365212599,-0.0012913067812612242,-0.0014658520951193197,-0.0015148510818089528,-0.0014394067347830565,-0.001248734559535462,-0.0009625982397025711,-0.0006092462553709988,-0.00021920949809054043,0.00018065858285026446,0.0005692527186792699,0.0009289567176836416,0.0012410483045702156,0.0014818613872334032,0.0016229623662936507,0.0016369986756145658,0.0015071143608548481,0.0012343460536289783,0.0008379467842296847,0.000348763076155891,-0.00019844869870564756,-0.0007667669574550285,-0.0013110694012691537,-0.0017703275302992454,-0.002068803950840256,-0.002132984991222204,-0.0019202168353078157,-0.0014444703526419187,-0.0007829922208287333,-5.7146317225421114e-05,0.0006047307487574836,0.0011050423928223732,0.0013990221798823302,0.0014949335285453834,0.001437203815029341,0.001283128051882215,0.00108303929992072,0.0008692178300168578,0.0006536191377317945,0.0004313316314339731,0.0001868844405613177,-9.713162401171478e-05,-0.0004287850604031058,-0.0007951565913349153,-0.0011560778421875648,-0.0014485421928782888,-0.001601785784659231,-0.0015574396495605816,-0.001287954154162901,-0.0008090701828602254,-0.00018389662715367723,0.0004846264200914362,0.0010755816969436538,0.0014831150284467468,0.0016488817847751676,0.0015784100646740642,0.0013322066662812633,0.0009957368508381518,0.000643804884683442,0.00031662773164041556,1.634960799747e-05,-0.0002792223793343084,-0.0005955816910821882,-0.0009418958543444733,-0.00129750221414705,-0.0016080918096306408,-0.0017956452764348518,-0.0017827446854471012,-0.0015235559185020882,-0.0010272850555894458,-0.0003623391777988539,0.00036031415285349574,0.0010164151132807057,0.0014996694486215582,0.0017475244282929652,0.0017566446608078263,0.0015830384224547781,0.0013225210154626703,0.0010734115122908695,0.0008938954654558413,0.0007741556512279155,0.0006405029270957179,0.0003939938215937452,-3.312928741045702e-05,-0.0006316190247782258,-0.0013048972633988665,-0.0019012375438009126,-0.0022728881989345614,-0.002332244919186388,-0.002077973096472328,-0.0015822342394872795,-0.0009519589247722855,-0.0002884765708434763,0.00033512340996799087,0.0008749071420986015,0.0013049662492720527,0.0016071173062141488,0.0017677349790026953,0.0017797202569940348,0.0016449059634171034,0.0013752049532908721,0.0009936736400466075,0.0005353102729606448,4.45463711614647e-05,-0.00043245071174921417,-0.0008569718382349504,-0.001201074263285758,-0.0014417048239892033,-0.0015520395021799344,-0.0015021005292711657,-0.001274452867203491,-0.0008859972175182989,-0.0003972029971622288,0.00010343370110830467,0.0005331595557576195,0.0008455288476305425,0.0010385674654279312,0.0011384570251502827,0.0011735690063227095,0.0011568206033431045,0.001083541572928426,0.0009391079801690926,0.0007069518923964907,0.0003738752879912766,-6.318586488243023e-05,-0.0005853707547466289,-0.001139413366234792,-0.0016354186295323,-0.001963424238833519,-0.002026664070431115,-0.0017785954213251792,-0.0012470985927738243,-0.0005342311188364815,0.00021032661483873656,0.000834157724715552,0.001230117305068367,0.0013694399808268545,0.001305872854289527,0.001147877129986931,0.0010097058449635144,0.0009614307963814667,0.0009983932845128557,0.0010426155315966473,0.0009761580750200809,0.0006940640881991421,0.00015666968519894501,-0.0005798174516516317,-0.001368832003789277,-0.0020162625946055644,-0.0023461435075669214,-0.002263481037497194,-0.001788012272739421,-0.0010448478386315071,-0.00021716890581633883,0.0005177235618058609,0.001042746184918215,0.0013265156651702812,0.0014143028064541277,0.001392265294157093,0.0013416551985337523,0.0013018230258776626,0.0012561107256753498,0.0011450494239509364,0.0008998788106694808,0.0004804930901972017,-9.978831904789581e-05,-0.0007726261477963515,-0.0014336256030401194,-0.0019704757540385453,-0.002289386968085527,-0.0023350829153079337,-0.002103162271106687,-0.001641990556143079,-0.001040142886990542,-0.000400372915344542,0.00019060674393598571,0.00068342677733526,0.0010696854907695783,0.0013681950580625578,0.0016021979667503758,0.0017794784184928989,0.0018853978015012656,0.0018919706565229608,0.0017766864302780879,0.0015380651978249013,0.001196458503143248,0.0007792433596782605,0.0003024764492136811,-0.0002342686704446186,-0.0008318952573911046,-0.0014631880680417968,-0.0020525003719005235,-0.002483064698302315,-0.0026354443521922873,-0.002439935766064754,-0.0019141623577488976,-0.001163591752127206,-0.0003436733623035712,0.0003962408890711937,0.0009589424290857931,0.001316163509013271,0.0014949248056147467,0.0015467049613066288,0.0015166818989897541,0.0014255653702887267,0.0012685804728063321,0.0010285452117690503,0.0006942860937753609,0.0002739957666636566,-0.00020252210507140406,-0.0006906033946140487,-0.0011388757718311892,-0.0014933038729297553,-0.0016988782555058496,-0.0017056574450450208,-0.0014833112283678096,-0.0010398684603103894,-0.0004330968870675243,0.00023621929788535123,0.0008500712348200141,0.0013073534343031636,0.0015510794763151437,0.001578818437773427,0.0014359000683127202,0.0011966529380194291,0.0009390985582565757,0.0007175790178532244,