134.85702316117062,128.5573332532869,128.56553296143002,128.74589400990843,124.13448358783215,124.24672863459976,124.5076941681531,121.21037673096693,121.36038489469863,121.37591185640342,119.32257677543186,119.20264884787103,119.13731423777564,118.79771867647497,118.78342962654119,118.73935299544657,118.49828168513362,118.48477217514962,118.45341467748622,118.25271642848706,118.33004460461407,118.28649877476307,118.19129948162112,118.19533596372416,118.29356339438196,118.21088815112965,118.26617141850427,118.40512654692965,118.39071254656928,118.4670595478934,118.53429634621583,118.52186384124569,118.58362144740697,118.45878597991275,118.3635831381733,118.2657246504008,118.26813695340186,118.12626558202142,118.1322444678609,118.09716776874012,118.1065180504359,118.16582252539743,118.0801298929261,118.0314246423033,118.05487233544156,118.02569054307116,118.0390085450076,118.1253881760122,117.99470744758618,118.06279797595718,117.95308483290488,117.90787514234823,117.88587956876151,117.90975972907482,117.9807495691292,118.0272544036456,117.92661568100881,117.91273268366692,117.96291321107347,117.75418831358357,117.76464743870723,117.6415099848184,117.61371535383627,117.62548217416716,117.49719724395656,117.52466577149863,117.603113408686,117.55127007299271,117.46814533780825,117.47142815683316,117.92404585691482,117.85974884719121,117.76347175067468,117.74813888565778,117.76230439723751,117.8258281044798,117.76452224653538,117.78038815117466,117.87686828584773,117.8653778764163,117.9203844917755,117.94362494523149,118.0424617902335,118.1339802420062,118.17596867512127,118.08180251744984,117.92721851981761,117.81610506610507,117.72783438744436,117.6028925256902,117.56292322574971,117.57511296285429,117.3151906878802,117.31051738265246,117.31386839948483,117.31456333411379,117.27976347296625,117.34427141268075,117.3370026641684,117.37009258174147,117.32410743051284,117.38182617616884,117.35573064643684,117.36594372801876,117.35271363263392,117.35776834089911,117.36625779443192,117.47036267306736,117.47364261671301,117.42185257855742,117.25790227784438,117.16913053640295,117.13146444736458,117.13284671532847,117.09285088999124,117.05173569617301,117.34944836264668,117.3480460980461,117.37859420247463,117.4695888648459,117.57033069399162,117.97979386245851,117.99839962754969,117.9889422377419,117.90695983480208,117.97324395220052,117.93579505712287,118.0548808967772,118.0549408845424,118.12181096386246,118.1374255344002,118.22612433475642,118.2845789750482,118.16772817576253,118.08393039918117,118.05367537368005,117.9539446751272,117.90515325222275,117.89291670323882,117.81911502354284,117.90931178829659,118.17009340304294,118.19042306450193,118.31302280531831,118.28572684642438,118.33626399390423,118.41960174785184,118.3812076997451,118.4808430803506,118.5217722780987,118.5992313785314,118.70981658107117,118.75141591102503,118.73209517941496,118.71243363740358,118.8834287391751,118.87043169895372,118.94812967581048,118.83190047240397,118.6344243560817,118.30274024571746,118.11548671275634,117.9999416909621,117.99037760606502,117.89512059964419,117.82479454450079,117.85388181102591,117.87783254104815,117.81504070972072,117.75213475942063,117.9073512252042,117.94833119383826,117.99048369676271,118.00043791784661,118.12040553964822,118.1557152035512,118.2817597193803,118.34382035612994,118.40224804613177,118.4271714009888,118.56753113553114,118.50889273052243,118.41090269636577,118.39804030862206,118.22310126582279,118.15796103705874,118.15096275021249,118.09189807348326,118.097310613837,118.02065934065934,118.04146141215107,117.99222554714545,117.9828506097561,117.91108572098202,117.97575633208255,118.04902650715458,118.12181460954224,118.11856501715995,118.1412265258216,118.26840081031091,118.3007042253521,118.45162899911946,118.45587847150942,118.46598868731866,118.34166715516736,118.35776532378745,118.2244820209243,118.2118584485587,118.15847874458368,118.10294936004452,118.04245103492696,118.12844466571002,118.07259953161592,118.0508806834806,118.09533699976598,118.0819729682289,118.14118541922649,118.16284034743954,118.16773345024112,118.27122903395477,118.35467087571612,118.33692509855453,118.41310191678355,118.5370289283942,118.6740907233347,118.7077399019379,118.61837733869558,118.52682784736382,118.59070093049033,118.48908449677927,118.43452901720619,118.40239741009712,118.39650596435968,118.37598017781664,118.39581145723953,118.36631382497886,118.43521410432295,118.41901480421643,118.4648669179303,118.47483652498832,118.47159621672115,118.44393926146134,118.59049397484901,118.64966313763234,118.68181553171642,118.71304981066123,118.8357238644977,118.87314868804664,118.80577091227048,118.77909551838685,118.76498891869824,118.75895774976658,118.70764604560185,118.59609215514728,118.66157753386268,118.6448317132265,118.56192252761666,118.5728152509765,118.66583046496704,118.66645285439384,118.66627791707971,118.67866406318305,118.78678871268657,118.76351016360933,118.74250851801159,118.81372120788562,118.85902288476096,118.96366761843716,119.05489190606608,119.14116652578191,119.15105335237041,119.21506881268952,119.3389884856435,119.40547945205479,119.29403198089302,119.26652483096292,119.244199603591,119.29481304182842,119.17185310602522,119.0211160948331,119.01629167638144,119.0447043042109,119.13942012905487,119.03385378666277,119.13152900645237,119.09803520859487,119.19127918870737,119.24353618276899,119.24010407530842,119.38747588142431,119.40492412058832,119.51751485177489,119.50223900254632,119.62669126691267,119.64720344191764,119.74111645361792,119.72949619214997,119.90982116681324,120.02661741857943,119.94670028438242,119.98277329420397,119.94404814325554,119.90648642308369,119.87798959125197,119.94767628908193,119.93630405524021,119.87553421930801,119.92407179306704,119.80663696060037,119.7805923273357,119.81539997650653,119.59538925133846,119.54746937224058,119.64287594699739,119.6628481253105,119.71997076023392,119.79334541839658,119.78308393733926,119.8742586695492,119.91592003502116,120.00496582345038,119.94828793093392,119.97165188987401,119.99798675342106,120.23193114955652,120.20270982090601,120.13405108100991,120.01519756838906,120.06486486486486,120.15543859649122,120.07982714823791,120.13351434994598,120.12138458395354,120.14217331659904,120.22485984583041,120.31083844580778,120.27754911404968,120.3244221340182,120.35842503137678,120.38092736875893,120.40232266347641,120.40823117338003,120.51730078547025,120.48115823579205,120.46682042448836,120.38263355994515,120.30978641456582,120.22243606566938,120.19369894982498,120.16548546096188,120.14182804479701,120.0950242081316,120.09379917244594,120.14625185876315,120.09818330271484,120.07666073979071,120.10340005244296,120.1806603911054,120.13713553348286,120.17757962525862,120.23189250633945,120.2443531229052,120.1957832202452,120.30604567062323,120.28947291745578,120.37089954803908,120.40131061598952,120.40576839038602,120.3716308750255,120.26679289251383,120.18677156177156,120.18766591790893,120.0319554895278,119.96587666686077,119.88822209922219,119.89533020654295,119.88311537005214,119.85918611086836,119.94039156275493,119.85835347563994,119.88483047885354,119.85288038890344,119.90865678595347,119.90890558564855,120.02567091115708,119.96774945375091,120.02448337171005,120.07361516034986,120.0824564982949,120.140174379611,120.1142723880597,120.20363509058552,120.26049292693598,120.18448074679114,120.03547464846257,119.94521627458992,119.866184026156,119.81394601542416,119.74041496201052,119.6134757984469,119.67508919693513,119.62624312624312,119.54760999853822,119.57273631258774,119.49090962235474,119.54867774397378,119.59494301368258,119.57440145173564,119.62340400609114,119.60649110987434,119.7110733237562,119.66720412770074,119.70983361211374,119.74969905164568,119.74354909731396,119.77637143192764,119.69376964427342,119.61473096148191,119.41562857226603,119.59692082111437,119.58491893635112,119.40422101714788,119.30191501217044,119.1506138834354,119.30054612719479,119.43400881057269,119.53764799200917,119.53565452250243,119.58956363422799,119.67207524985302,119.68556731334509,119.72362695519229,119.6481769838705,119.79397576185434,119.77731055370953,119.75299027243072,119.82304188096988,119.83701048796968,119.73596429410382,119.63925667146171,119.48553355979853,119.39653961004743,119.41827922363066,119.27897999766054,119.36396617806255,119.39981854366658,119.25576232070345,119.3423784321179,119.35710526315789,119.34352638803703,119.43870364417428,119.54721393907502,119.50813780206295,119.60550833844447,119.600128425907,119.64133481256569,119.67293891125503,119.82060033254572,119.89526642750897,119.7923516381019,119.68671015083571,119.62026385531642,119.56697728596389,119.45507153658252,119.48628124181676,119.43838007680671,119.4629457274155,119.44875410694037,119.46997761042132,119.55446927374301,119.55052943914359,119.65423117215691,119.70501440586712,119.68205873800524,119.75329884322502,119.74573562316566,119.78646817666386,119.92743084843373,119.94918557300757,119.94530704815074,120.08347633867542,119.9973258146092,119.93745636490574,119.7949962224676,119.75787973947429,119.76942552819976,119.66903231435967,119.60919774274245,119.62560372417806,119.61117246991803,119.65202722354721,119.65454545454546,119.60996658433822,119.67611571449339,119.65102426267616,119.78064309803466,119.79561831706184,119.89250312490915,119.8611272515979,119.9193942212662,120.00389636823587,120.11949850190534,120.1575776975905,120.13101985061179,120.20680932720823,120.13741168260984,120.06310552500655,119.99726593176463,120.00683934807917,119.88179015935792,119.87826947135666,119.8561368794739,119.79703733884345,119.83169815715159,119.7747548520383,119.7940731252911,119.77345364575753,119.82712308812819,119.89965892196018,119.84009671687011,119.87429037235437,120.02770244656344,120.06270771383593,120.04019484875886,120.1273433393681,120.03064318619161,120.10494997520637,120.252313260749,120.20217861106244,120.13482719331562,120.05739237104972,120.06353986958683,119.93576962432392,120.00691210497027,119.9297824368247,119.91713758674202,119.94513445427383,119.85292825125245,119.93167355796018,119.90995663384903,119.64834876047537,119.70890070714745,119.67206654991243,119.76428154205607,119.78564540167743,119.78720855489978,119.80828122260534,119.81698372344466,119.92521942656525,119.92352872421249,119.85347396715947,119.75157058118809,119.76632151632151,119.77128889669507,119.72013572013572,119.73576356407858,119.6420070762303,119.69432110306147,119.65203688572429,119.69656499679245,119.6726801119142,119.75573297590256,119.807093148531,119.76733767744939,119.84985885160502,119.78571428571429,119.80284145384816,119.84841267536089,119.87347140325907,120.00688973516672,119.99195375588218,120.00188849182138,119.89065404275092,119.77279986063122,119.83233968300131,119.80983396818935,119.7020670407303,119.64476630893174,119.70453553661304,119.5741526655427,119.59719800023254,119.56121472285872,119.57739493604802,119.59857358227995,119.5886528932804,119.61655072463768,119.60605972829708,119.66746834342673,119.6792135970119,119.71956767407494,119.76064291920069,120.10657668925798,120.12526520766123,120.105613341856,120.03316407950095,119.9778466350052,120.19494250210005,120.01184202906943,119.81866859623733,119.77443565446696,119.68885475831691,119.62742141282914,119.6995096759219,119.65710390439172,119.71113756460136,119.67478684531059,119.77008623943784,119.79458219615586,119.83580745431833,119.85452116847668,119.83724846830629,119.86776835501858,119.97278674225905,119.96427222819298,120.0039231641045,120.04900592954307,120.04884281441473,119.93959458674566,119.91046988056839,119.88826815642459,119.74679719954682,119.66813748258244,119.60848604536346,119.59975015252317,119.59891291710267,119.58290946083419,119.47975132182906,119.52975896257959,119.59353187529084,119.51508370146477,119.67719860221317,119.62970291267786,119.67246148918203,119.64609652442219,119.68648758885911,119.7233410077813,119.77383417422497,119.76630038765339,119.96029849006005,119.9528601849421,119.98166341136344,119.97360661002598,119.87374843097761,119.80416313899512,119.72403517485174,119.64286758044247,119.64959765910753,119.5668333479545,119.62077139178274,119.58233813370799,119.61263503029949,119.31573420453883,119.37452266433465,119.4900385604113,119.48890899538847,119.44833119383826,119.55352762527743,119.54018860763189,119.6140089418778,119.58784158994592,119.68744700137431,119.73883674006491,119.76174467214312,119.6649333956532,119.61575576804982,119.5549394425799,119.6965284249767,119.71075174825175,119.48607027451894,119.3929164360819,119.34996502681278,119.3188515741254,119.33063880701549,119.29469628418809,119.29953016021246,119.38266125500044,119.38506216799954,119.44915402567095,119.61456140350877,119.52830794373432,119.51362071982733,119.63250708008525,119.6377559950989,119.68942994605628,119.6504531810101,119.58710166477157,119.59486027652996,119.4541140161882,119.41360401353401,119.27648857184452,119.15306063074595,119.21114830446805,119.2352787076117,119.1962856227986,119.24155798789008,119.09326439919835,119.11836758388482,119.21574944850806,119.28523820563348,119.40709939148073,119.49456883816586,119.50919676737247,119.59545612611568,119.69230099791135,119.61671686746988,119.69411458031628,119.6966070755947,119.64002318504565,119.46843324645236,119.41044646476345,119.38510539726661,119.6519907003778,119.58544101401245,119.57290213854021,119.5778371782207,119.56324076225889,119.58332606863685,119.51699909996226,119.54083084158272,119.54440154440154,119.58550741460867,119.58437454703581,119.66230488017176,119.7041636442768,119.68842618101674,119.73218687469188,119.75635857428729,119.87517779906528,119.9264804015435,120.05234567901235,119.92359459302664,119.94424601446119,119.83935101874964,119.80082469436942,119.77888076163939,119.72815111420613,119.69868742014171,119.64029716474651,119.61071936391863,119.65587279480037,119.67517273413459,119.65880507711522,119.57860705172814,119.61771784833986,119.66435715321062,119.73560118322604,119.74108230381069,119.76439396134566,119.83421281530879,119.84643706151795,119.89514866979655,119.97615040909882,119.96560624075632,120.05244998550305,120.08801020408163,120.0524682406172,119.91084372281821,119.87737052717044,119.81909708118145,119.7227685434978,119.65696308968077,119.57057561880471,119.61755576828243,119.61422970814579,119.57761324041812,119.54367776035313,119.58781153779121,119.55068381776475,119.60363815999767,119.35378246142265,119.47620151892863,119.38811026814155,119.47779710144927,119.51400324712976,119.49782747233648,119.56246916446585,119.65937064561078,119.76326340868151,119.72111391816941,119.55683632879418,119.54846115841785,119.5108771521638,119.42545581435924,119.32579172361649,119.3593613425791,119.26589393365757,118.93023255813954,118.92023685127134,118.90856330344447,118.85762790562698,118.88042626092512,118.9014432151465,118.93357333643014,118.92852995819787,118.97633703036989,118.92691782612485,118.90235406809671,118.98892956764296,119.05138339920948,119.11059103991627,119.03143081440992,118.84964699729801,118.79742606472605,118.70178851402358,118.6613629104846,118.71316996690088,118.68528464017186,118.64409188468008,118.61180529382773,118.60292711201275,118.62096540534276,118.58859989573075,118.60116962450421,118.60730302942623,118.660451536438,118.60727178213533,118.7118340459956,118.68978060046189,118.71698222119603,118.77466293270203,118.74230314222235,118.73333333333333,118.57813221042916,118.5443768207909,118.40400023056084,118.41072509730431,118.36418934501845,118.2722033312201,118.26418301783502,118.30231150564907,118.26374639769452,118.26170783019684,118.26741003255827,118.29475139713084,118.31134602644238,118.3239501482313,118.40931732458034,118.40805639476335,118.46780412015191,118.52435686918446,118.5047191528545,118.59660480506402,118.94265584846822,118.86564753389098,118.77545722033116,118.69161089314562,118.62331592764619,118.55334236545502,118.51998846264782,118.51896725804126,118.53627414186322,118.48547274878098,118.51530524009915,118.50119641364199,118.49654019144273,118.4498127340824,118.5239852398524,118.54281680401084,118.5850377369361,118.61497002536315,118.69964827307848,118.69168947141006,118.74436437013549,118.83572664359862,118.88809413936318,118.94008884273681,118.90217547903761,118.98347989044255,118.86350404934144,118.86360100267957,118.8312527028975,118.76688088993919,118.65459569935807,118.56139897859643,118.81899450975884,118.6887759496942,118.63312079958642,118.56723835789595,118.62266321541559,118.5583515472219,118.6636525945977,118.73699222126189,118.64612371846562,118.70420545931457,118.70261777085857,118.74189921586716,118.85993710873265,118.88766799330911,118.83937584724987,119.01039831316253,119.01173105261637,119.0396013864818,119.13904949121184,119.12030314425385,118.98405994156276,118.83981832383488,118.76647000983284,118.44339704229006,118.33986513745606,118.37613515149768,118.36517875176732,118.33211247296323,118.3635864698576,118.28491458910435,118.39637036180788,118.36531013353373,118.37869634340223,118.39293770605587,118.43593451726731,118.44002777295609,118.47428587966313,118.56381068242382,118.52155022592979,118.60954534910694,118.58303149720379,118.67192712715035,118.77207762026494,118.5992859423529,118.48181263970737,118.44045752772456,118.36417997097243,118.37965491198513,118.2866906058149,118.4568516158925,118.47221257381035,118.45912842044302,118.48024430486005,118.56197701016302,118.59929940362457,118.66009909309535,118.69419048721213,118.63324080499653,118.61690938511327,118.7125509584526,118.68903002309469,118.71921566362481,118.79167508587594,118.83255370755371,118.9235282217277,118.8602641542152,118.68201114737055,118.61391289269096,118.52343524244351,118.51760420882233,118.49197536219312,118.45986984815619,118.40479426307724,118.4260645832731,118.38393708982625,118.38055732207897,118.22549472105233,118.26784168926325,118.225461361015,118.28562777553492,118.34332833583208,118.32694524495678,118.32147691598745,118.34066155707947,118.34187935703174,118.6093176497789,118.6547529615718,118.71713988318973,118.79053428934891,118.38465971301792,118.28069164265129,118.20723940171186,118.38876047385149,118.26044709216576,118.21042431955573,118.10104690843889,118.02294134643167,118.06476234532208,118.03080479699466,118.04729280490272,118.09177389041491,118.04404115131199,118.08349716664739,117.80105993836229,117.83327090956236,117.87329339247653,117.84265069952214,117.91361437456807,118.01535005615874,118.08995273230343,118.04263041161391,118.1062168702466,118.24968994260333,118.23557041177996,118.20492417690134,118.12024111675127,117.97451568265683,118.07315528951307,117.94624521844172,117.83648703054006,117.89779236105115,117.75675675675676,118.05151873539677,118.00002885503231,117.95786954264952,118.00862989580628,117.99373899997114,118.06598384304674,118.05787651471437,118.11285899841246,118.15948051948052,118.17527052373394,118.21434962047967,118.30081418177619,118.30105293523727,118.38943637621024,118.47073710850997,118.36370412844036,118.26327851945224,118.32055030094583,118.25662422573986,118.12995095649181,118.04855149444428,117.97032206165426,117.89068337260763,117.77456498018722,117.6639875997474,117.6144273602529,117.63211720769894,117.60641047733931,117.56544081761548,117.58307021068947,117.6252334032346,117.69824168246853,117.72678176438482,117.78737531978499,117.78864498333525,117.79664425673734,117.89434515257744,117.91900517538815,118.02693835261613,118.06734200529527,118.09617486338797,118.11444016332165,118.2157404211253,118.20943537258509,118.18384593273929,118.04272988505747,117.91826881627726,117.77113484952906,117.77531963798305,117.7554399379114,117.6752940499813,117.609383978853,117.64551283894528,117.7071977436901,117.70710093221314,117.70018991712708,117.70196236404442,117.72326772559853,117.75054704595186,117.80833189481558,117.93263546442887,117.86414279545127,117.94322011926367,117.95237409242826,118.0421325648415,118.08545234388514,118.15903586668205,118.21787773933103,118.23922451099186,118.1164292716683,117.97761366258943,117.94259836160148,117.88219849971148,117.79337411981993,117.76226077418238,117.71040789245947,117.69013556388809,117.67232470194278,117.69352883449749,117.68155311778291,117.68268398268398,117.70178478599897,117.63739213252907,117.7082142341562,117.69570112885066,117.73077812463869,117.68613581244948,117.80890006939626,117.78320182664238,117.90991694880921,117.93068132503979,117.82902544212568,117.78121470153793,117.70398773006134,117.64604204065088,117.60308815434978,117.45184349134688,117.42301904265787,117.40087978236963,117.43818597781703,117.4450369511665,117.4294524712627,117.36333121129695,117.4773629174753,117.54088998405567,117.52281941387699,117.31538817005546,117.37808789113288,117.44536600872756,117.45479483699576,117.5363888407555,117.5488389556377,117.57854605320163,117.37968515742129,117.29911601255435,117.31342639228666,117.29780925238218,117.16982216220875,117.13764157994595,117.07631571391656,117.1662070550385,117.35538616424564,117.3830240253201,117.34965356639738,117.37518680308081,117.4020055742321,117.43231829933927,117.43021553827168,117.54081456801471,117.52336502283367,117.55062473071952,117.5640996212556,117.62364450054507,117.78858193096319,117.71229026244085,117.63991734114,117.58246268656717,117.51085865106005,117.47915352411539,117.36034072332005,117.24482136206056,117.23722449915451,117.25574193548387,117.22250236369366,117.21629519280353,117.25698067771343,117.23861879402165,117.23055786129318,117.26141340126513,117.27493854684731,117.44334087071013,117.42442892311216,117.45839173842148,117.53925247028498,117.57290414878398,117.6916225118144,117.73169265989412,117.68833361955464,117.61098063924848,117.55214056776556,117.46507437070939,117.45107016138263,117.39207830118482,117.35530422333572,117.30939779716779,117.31975047215704,117.3932201448736,117.3226166299591,117.4123622835885,117.32021957913999,117.3603454191925,117.49121903781248,117.53294235445573,117.58176046671242,117.64110631238738,117.659231297186,117.80224371816152,117.82922016643313,117.84807411855537,117.87405267823948,118.00217472172146,117.98424138424139,117.9789109222537,117.92021170075812,117.9129079312416,117.82005089931657,117.82158483228002,117.74875579200274,117.69269924790528,117.68240809559202,117.62251485374772,117.70949752623902,117.74437487491781,117.71096184078891,117.72215233302836,117.74058099345882,117.82059563278838,117.82973675936776,117.93029375589943,117.97282219997139,117.9851574341522,118.05580995993131,118.07740088736224,118.14693082913422,118.16594148966622,118.23522841185736,118.27596082249842,118.33997648610674,118.25438395415473,118.17117788737241,118.17735643393954,118.07128519814188,118.03735904278213,118.05145073254812,118.00269820311155,118.13187981155923,118.09291971851214,118.0544164943717,118.0913112164297,118.05928353746191,118.09408857085381,118.13106223947104,118.20245116372737,118.25660637777841,118.2197008915732,118.26431489900443,118.30830119164123,118.31761286795384,118.33173118434307,118.43100270690549,118.45192501511792,118.36750979488362,118.29304726475762,118.21333025830258,118.15366437073115,118.1586541236221,118.08723631431621,117.84314289825875,117.85679716532711,117.92305918302633,117.87881145887371,117.92710285763718,117.95773389073086,117.98179251534096,117.9876102114908,118.03486529318542,118.05101688079738,118.02250720461095,118.04297201487161,118.14424934405905,118.15338324215375,118.25347892477456,118.27852697095436,118.22222222222223,118.10416786598354,118.02511074037854,117.950562250151,117.92829212190914,117.86668200379594,117.83757687223404,117.83135610260535,117.77733084326964,117.82695622199242,117.7901372853122,117.79047537030658,117.7827932320046,117.8357618173474,117.85274051140924,117.85444960174202,117.81712976224577,117.92221043882026,118.12666513550758,118.18760950110578,118.23666905958363,118.24109911565407,118.16460598410741,118.17133088150787,117.94544200879133,117.89938173975557,117.82676757503381,117.80106536135905,117.66436483959143,117.65935141984909,117.65553476320714,117.58814904260825,117.6145042558086,117.60629604051566,117.55629043853342,117.60883190064112,117.71282405012359,117.73685571453198,117.76053909595103,117.7197463196258,117.83497714006384,117.77386386472598,117.80360474126797,117.87445787977137,117.89448159095474,118.00863999081463,117.94118997073842,117.90717772035602,117.77542008373,117.66379952978956,117.6192551391955,117.50332721431849,117.36337834351079,117.33324735620324,117.34961705057228,117.25759270412114,117.2754949784792,117.21969544894039,117.23882481207322,117.23116413801016,117.22983362019507,117.24527761057128,117.30091490521123,117.29476884249168,117.2577556052526,117.34362458433665,117.45930049063209,117.557034656874,117.5802515217641,117.60046487603306,117.66080091861633,117.60060826901558,117.48157184683392,117.34189309385131,117.30690368158061,117.25722078667815,117.11653660775764,117.0739635633338,117.03849463599335,116.97600068815231,116.9832817159899,117.03337446552071,116.96466674314557,117.02591817425959,116.9818218310061,117.05602706732424,117.09019191600447,117.09557410435131,117.15594726282602,117.16235051191603,117.21374286615618,117.29250373091493,117.30018352833218,117.29364168483875,117.39992541380992,117.41137497848908,117.4647090903872,117.29866330101544,117.2472960954758,117.08707865168539,117.0714613575076,117.08342660352992,116.98416568658386,116.96604433737704,116.95297221346027,116.92778096330275,116.96334672789897,116.95776062440817,116.96958218549128,116.99121295658166,117.0083809305129,117.08024337045116,117.11949342369766,117.17041015625,117.21650047415156,117.28481030862599,117.26268433610257,117.30740474478792,117.3823994935106,117.41256830601093,117.50407323181439,117.54178782208147,117.51014350757882,117.37769390342284,117.2713080047239,117.26874279123415,117.23992388860059,117.1699152298022,117.1211623754392,117.18897387790446,117.17305750310165,117.15188047992616,117.17158107328332,117.15997810492351,117.324636847404,117.38250941822679,117.17379702160626,117.2142364701827,117.18374091209517,117.28720619120227,117.34590145061017,117.38687580946899,117.45271496471265,117.48188813002507,117.45738243430152,117.38328771070451,117.284668376906,117.21419101965532,117.16272496538994,117.10751975087942,117.03442708032985,117.09337757899293,117.0637530650512,117.09627149948055,117.08104676995875,117.08316254365961,117.10917598128411,117.20667437156891,117.24172080265627,117.22880744014094,117.24378066378067,117.29502612511186,117.36048391753768,117.32802354774478,117.43498715617514,117.46729187707402,117.39176446841027,117.31806256306761,117.33030381719034,117.09968883254581,117.08141914286537,117.02432346753508,116.94387005731072,116.88639765139304,116.80710586881473,116.83522236925378,116.74115686330853,116.7021215514024,116.75742688042291,116.71247921087343,116.77884780739467,116.82898509174312,116.81076125261438,116.833051648572,116.81786420000573,116.88573147325904,116.93686290230214,117.01516411064928,116.93648474430597,116.77812786434464,116.68095347238139,116.69106017191977,116.57097060423047,116.46717229536348,116.43344973666133,116.45865307524912,116.39141132377765,116.6271702011651,116.56737303931408,116.62752525252525,116.69841087717285,116.71462987925545,116.76013077518714,116.77923046046219,116.82159853219426,116.8855331841909,116.90103181427344,117.0370466023875,117.04208623805835,117.0773532954741,117.14857847778065,117.00971875806313,116.9623318128353,116.87263866991543,116.78735171069975,116.67350446940179,116.65547302916464,116.59572882327647,116.58805319880761,116.65538893826877,116.65984053232376,116.66444030385553,116.68449412439094,116.68449105914718,116.80761184191671,116.8581098522874,116.90752688172043,116.95434732736867,116.91157671472384,116.95188668425278,116.99730442762102,117.02912176106398,117.13830489029112,117.20433223353895,117.2285394804748,117.109971052707,117.05668817204301,116.95939944414201,117.08879644240425,117.0842512908778,116.95841453628339,116.97822594526365,116.91458220176668,117.12621858829583,117.0812,116.9921968787515,116.95479741699526,117.03467910383702,117.10991780508061,117.10655479510896,117.17648069652881,117.23997477570441,117.22640644255294,117.30103429504626,117.36294576310056,117.37613522417992,117.51942095456499,117.59201811978555,117.63854005390218,117.6526149878206,117.67934642396446,117.57259590572853,117.53437150477501,117.5093641552184,117.434180337272,117.35860902471188,117.34458121718171,117.34119672836849,117.35568119851906,117.00471415102426,117.08530480304374,117.13848137535817,117.07996218198487,117.11555542821122,117.2093629952411,117.24246858323292,117.31491681009753,117.28212851405623,117.28438549651193,117.42232312201851,117.4264046880386,117.45260132221902,117.43681263460158,117.56571872214394,117.63580158159597,117.62138353916573,117.4552541495268,117.4306319274507,117.41073384446878,117.34761177250584,117.35163376053573,117.30012697679787,117.25970502496608,117.26521475405102,117.26265338530388,117.29059581972189,117.30042198971039,117.27808615206708,117.33093254656947,117.29227122955083,117.32626432125912,117.30239010433225,117.39324835977918,117.38334876721842,117.34972645960575,117.41914191419141,117.45362406973041,117.45994151200162,117.47738810083254,117.43039772727273,117.42469529889728,117.25416944629754,117.25888634187389,117.19132401554253,117.16311851035442,117.12280091586238,117.20189548734892,117.17065220526726,117.3664023071377,117.32895154083427,117.40622024754046,117.34404727587201,117.3804551616718,117.34677791892828,117.38237758197313,117.42697376025893,117.44320217253134,117.47838142275366,117.54032677097165,117.55369515011547,117.45586453585646,117.30234771573605,117.2478235802825,117.17742400646017,117.02079612880927,116.92468908337172,116.8736826950763,116.86089284172351,117.01524056467876,116.94382184321972,116.90344867292302,116.90759446315002,116.90447306387627,116.88244595216192,116.90806878306879,116.92349255618785,117.00503075950095,116.98388301539876,117.00496313509481,117.02671985764717,117.04792772121039,117.1262692903448,117.01938184528929,117.01712417175803,116.79262210502178,116.77765343892571,116.7304427621014,116.56078330179483,116.46378638551455,116.43818067178722,116.46191758840048,116.42574285796155,116.42244886265972,116.49915397631133,116.40553008595988,116.43753043976508,116.48222782778191,116.49126224717814,116.45653916628493,116.514915322234,116.58432474271135,116.55127287305633,116.60592613799027,116.6102490695677,116.67393793656247,116.7188215758131,116.58875400824553,116.47489695443096,116.44140669637756,116.33937580162463,116.39007698887939,116.21876867901973,116.2040089974659,116.42384408755787,116.32114934657308,116.32624964295916,116.31987542145265,116.27167514431045,116.29731737279661,116.33429683475474,116.38487520036638,116.33108397906956,116.4490952817224,116.44472426523195,116.52174286696459,116.542664756447,116.3338476925275,116.35013133851074,116.47744092350773,116.46956198960653,116.5356500385483,116.54925356092826,116.47495573704951,116.35369756543605,116.22656763319526,116.13895710777315,116.10908311910883,116.0222844408891,116.24175572300375,116.16278071806609,116.18770402611534,116.17328065051824,116.22789485740465,116.23954666437709,116.23422830318296,116.3155211912944,116.2804522037779,116.31652348224513,116.31873103132337,116.19981712718233,116.26163388977818,116.28348954166191,116.33966582742046,116.38228904642122,116.4253718535469,116.50481827800178,116.54520994933738,116.4538094011959,116.29187766429204,116.24866907092564,116.25363170109739,116.18913031015308,116.08707237407599,116.0651226782848,116.13816450067418,116.02218591452403,116.10777086142107,116.12457323196098,116.10189437428244,116.09931988406463,116.17185661395402,116.25697794624396,116.34316007240756,116.37816164635548,116.3552038148861,116.48578744461706,116.43674690133149,116.48025067555913,116.64856303634164,116.64292705394669,116.6377528995309,116.5375975578147,116.4999568109182,116.4892194165802,116.41133934487627,116.40137740253004,116.3271674302014,116.39051599884694,116.3418407028662,116.35957354848004,116.33145242550741,116.33335253290326,116.35412045971714,116.48487380431024,116.51825490591591,116.66039641095179,116.59601198709082,116.63729136037361,116.67090285582547,116.72728058798097,116.86577839303224,116.8820985874892,116.77829591249281,116.7889263388356,116.74841644592883,116.75787078376588,116.6289547168725,116.64545297471635,116.52678083177436,116.55105973025049,116.4828497558173,116.53621438224216,116.55216767154752,116.57128087306145,116.60724641842037,116.67719519898927,116.69822960603713,116.64962289581601,116.67453519351419,116.65947029348604,116.72291917282466,116.76083159130609,116.70912057712127,116.86532844625165,116.87166203955465,116.86606555030771,116.73023641879901,116.66530273549273,116.63066750629723,116.53606979405035,116.45152061339513,116.43992791349619,116.37788387318105,116.44806086260154,116.44591346153847,116.33811592546016,116.4149188817992,116.3353912993769,116.36354026797703,116.44575350300258,116.46474807807722,116.5257590485448,116.60477142857142,116.5853337905807,116.6572408863474,116.68842339896551,116.72073616826704,116.76029705798344,116.78011592382148,116.78530185227532,116.69652253488904,116.55374192441828,116.42810233567472,116.4259291023442,116.3927836230558,116.30972793781436,116.25201371036847,116.19261078117862,116.16875035679625,116.22218095591806,116.21009339388227,116.13519147842476,116.15513794482207,116.24085923217551,116.27128328191064,116.28002857142857,116.26190612151667,116.29638512934727,116.42915118605316,116.30783491628875,116.5468033603873,116.76673503104882,116.76917158245703,116.64520902700703,116.58566667616145,116.44152846640452,116.41213210130049,116.31255349500714,116.24285918105294,116.26313233739896,116.15425911647962,116.12322193658954,116.15722246035148,116.19402046532899,116.10051443269505,116.17247491351954,116.15988455163742,116.1742250943612,116.23913292152825,116.27770788059019,116.31866308018085,116.33178800366301,116.44706252863033,116.4623424971363,116.52671974339881,116.5301222060044,116.63962853621486,116.71798990362552,116.65642009969633,116.60984142459783,116.51487420752173,116.42267538576263,116.34691652079088,116.23954088952654,116.24169921875,116.09185899644046,116.14197920854632,116.14360830962848,116.07585632662436,116.1389088608323,116.1707064607953,116.2494816862474,116.25141112775026,116.39117155535067,116.33546436285097,116.36854541263254,116.42734501037106,116.45183882868342,116.43911779102243,116.54685653339483,116.50129697947891,116.42677896680031,116.31910047570996,116.28647214854111,116.23978547331392,116.12665052182437,116.15186221619594,116.12008305456223,116.16652719665272,116.25007216673403,116.25874166257616,116.25098141092252,116.32935843390888,116.27549638338952,116.41529723807876,116.42495823010889,116.43230171296963,116.54988939006522,116.61333409933071,116.67182698107247,116.83011549732805,116.75348049487614,116.65131899991388,116.53239784205694,116.45425849403122,116.44034221405605,116.36542160718899,116.25875229568412,116.20351722752962,116.22646653656297,116.2543879775152,116.3127044241694,116.36723925324769,116.29782540182792,116.38036932958651,116.40327803088914,116.52339986235376,116.48504297994269,116.55367733432657,116.5391426442776,116.60019477543538,116.61978003093316,116.6274436843461,116.74000229173828,116.61748947021576,116.51318051575932,116.36241053535643,116.25778566521639,116.19130111098384,116.14906778932898,116.0847166571265,116.03455674113911,115.95838335334133,116.04202906843672,116.23705190708345,116.2452380952381,115.9031207133059,116.0120413008037,116.0110254213082,116.04995282074744,116.03590813003485,116.13851737540008,116.24148287994508,116.17011251356445,116.27913759579091,116.30169481837149,116.42397117282009,116.3833976282326,116.33750965416631,116.27059496567506,116.1290119751922,116.05222260313107,116.00577505860826,115.94813248363958,115.89998284930253,115.97399182600246,115.91677614668419,115.98641809395819,115.95793684812116,115.97900239972574,115.98256062462599,116.24173477233249,116.22511315437387,116.47300154276898,116.43903553879557,116.49331084557772,116.47199588300883,116.5571894489901,116.69269997708,116.70222031227618,116.7308728293885,116.7367138680273,116.43925875085793,116.2948948948949,116.26040683203159,116.12440656637877,116.04762858287087,116.02320789812562,115.93128307824345,116.04947998739364,116.01758052970652,116.07456228329083,116.01992955931621,116.13032761042162,116.14912280701755,116.20352054126889,116.25098162850018,116.346150535166,116.38527790537437,116.46164005972206,116.50489450265538,116.52374530115642,116.57083799844975,116.64461860879051,116.73105310014071,116.69909268404732,116.7654008681404,116.68851516458244,116.66036054167505,116.66716546762589,116.57472654001151,116.57307703375443,116.58764963167587,116.64030641631149,116.67686810178381,116.67266808780319,116.66275786562176,116.73352939480436,116.67736169967425,116.7219083309311,116.77348591853794,116.78585427715011,116.85613853113205,116.83734332228785,116.91429559802819,116.97989964240396,117.0350164274598,117.12425404330152,117.0380458279291,116.93822571815484,116.9206513906903,116.84967282580496,116.79906582475564,116.82138426473558,116.77353704237532,116.83279492356505,116.88126892573901,116.83323721091182,116.86181629356105,116.83390025944077,116.85471834029678,116.9623641969972,116.97654989628947,116.98765396569587,117.08455935277689,117.07737889771028,117.09376347796083,117.17486275975052,117.2233581253769,117.19846145014066,117.2763977830744,117.22755471307944,117.03618260595105,116.93297948644384,116.8774515426081,116.81964439346143,116.80446190462536,116.70686344748532,116.72268570281815,116.68632170076214,116.77052516913199,116.74921144692321,116.78308318056828,116.79120469846727,116.79567397221028,116.87080132981772,116.80045812455262,116.85041646392077,116.92332378223496,116.91205015889376,116.97100951071387,117.03027265437049,116.9832288715263,117.07486539122465,117.00177497852849,116.9207708166304,116.89697542533081,116.84074317941084,116.70157202989434,116.66565514872177,116.6466309670399,116.62322946175638,116.60369281698581,116.70563894754865,116.69105018401757,116.62165939362825,116.66068166248002,116.72211909181779,116.69016135941739,116.79423621236813,116.78809802968344,116.82378665752015,116.88399085191539,116.89126330243735,116.8933615415404,116.89385235359684,116.9957969978556,117.02887611859222,117.09502572898799,117.03014098201264,116.90721619998284,116.8097021325253,116.8030433041588,116.72105127691823,116.62484628363886,116.54359575624125,116.4948951868905,116.50721820416798,116.5197323266987,116.39812592846532,116.51395960867326,116.52478901444715,116.5982147965898,116.54493723370793,116.58622958322607,116.60396181111365,116.66128709188199,116.67344487344488,116.72309189251067,116.72104465230699,116.78024210857683,116.79831018187025,116.8219385856967,116.86455710688945,116.8892198419063,116.84727158087814,116.76832239387772,116.68922794539405,116.60252030886701,116.46494676729704,116.45254573126957,116.36628942379502,116.43186390022414,116.46571256488944,116.52360588927475,116.52965335018237,116.4934714609579,116.59016299192227,116.56824512534818,116.5917288914417,116.62637931034483,116.61863700382283,116.65285763569457,116.62940922811556,116.69359988494175,116.73105908071103,116.84088684134754,116.78136149154103,116.86079520916708,116.74497552548229,116.65847403907105,116.51829461381236,116.52131431041937,116.46416834822716,116.40195993659029,116.3965905157494,116.4223747584576,116.38502812635222,116.36200830545623,116.42135334006637,116.49735785856602,116.46193157210914,116.50402632262534,116.58998873516074,116.56072634891308,116.67922400832659,116.65566855425864,116.75252131194914,116.80281934253857,116.85799329557277,116.79879281464795,116.74951596590088,116.71137236777493,116.65516643550625,116.57192364339966,116.4545507045507,116.35558056325023,116.4009808163854,116.36888978556605,116.33414029627068,116.35369264930645,116.31775243361558,116.33709644903954,116.39595575527134,116.40598192181473,116.42464768478574,116.46724539365891,116.50797528380514,116.44383168174637,116.56484646540086,116.49682826717185,116.59858750574185,116.63219974171331,116.60088411746132,116.49218884613175,116.43096618634824,116.23034577670738,116.16910942205651,116.04824423104486,116.00258205187055,115.96042670337233,115.92097421203438,115.93841524573722,115.90762396102035,115.94573221397668,115.9090909090909,115.95519867170502,115.95643717284975,116.11152778175364,116.15376904570971,116.18187802295297,116.18811682924736,116.33951412138381,116.35712248274288,116.73135051899168,116.67942542822128,116.66564014827487,116.55750848860102,116.40782633533276,116.34350185661239,116.2185545815368,116.22707648320228,116.18580829756796,116.09489364135408,116.15078683834048,116.15988671472708,116.22019924424596,116.19759484609878,116.16550756990355,116.28144775649285,116.34680260030356,116.33861601396,116.47322451317297,116.43373183846242,116.53809796619879,116.77811262269674,116.855149043708,116.855518874695,116.91178748673227,116.98719016572365,117.00838309600367,117.01889664283047,116.95530229086525,116.86408379968432,116.83778505370785,116.68751256209264,116.63898222337096,116.57777139574956,116.50879963251127,116.51131208728108,116.55222464934468,116.47972216641314,116.51248312121125,116.50083304607607,116.30798533539554,116.33503352627658,116.39724928366762,116.38668461913083,116.50999225850848,116.55154713085372,116.64618431248745,116.6567887776471,116.69063262085784,116.778740993771,116.82878718272654,116.94753476611884,116.95172691224643,116.99594641214351,116.83043540738612,116.67024976288334,116.71536096986412,116.73746083757294,116.67156285032625,116.58811522539098,116.63486264921616,116.54945970801242,116.60514354755192,116.63803274914386,116.63477810395442,116.64849164581716,116.79941240854887,116.82368011975359,116.85916628281898,116.93312028559913,116.92314553720435,117.02753113468634,117.00982086285352,117.03946913864579,117.16893332564975,117.19283532192057,117.11906821195872,117.02233622503387,116.80064465997064,116.8518625219671,116.70304407872023,116.70546564533778,116.73829916082705,116.67724471577492,116.73037139481949,116.69400040323742,116.7103347051544,116.64314684308931,116.70688664060704,116.72459893048128,116.79977011494253,116.8120795722417,116.83057174855699,116.8086799172794,116.91552491742065,116.91669298119707,116.99712783984835,117.06163734970875,117.10495936593631,117.03944422116324,116.91014783981628,116.88240698208544,116.77426481136135,116.64353511312477,116.6885368233741,116.5678367440659,116.54849076093194,116.55046739691461,116.50875834981795,116.5743625046611,116.44931271477664,116.52433780529756,116.61481757687012,116.57645036527718,116.65327756131103,116.74780092260967,116.72737945252548,116.81764015010455,116.80241646863458,116.94558271484655,116.9030438393036,116.98662082796162,117.00025758443046,117.01919110907424,116.8755477902214,116.7881113274539,116.71949368538618,116.63998740013173,116.57690215056843,116.54516821760916,116.4804834044503,116.55011741795063,116.52573687376471,116.52343190861986,116.48448325221872,116.52491199954211,116.57611743833343,116.57481757046787,116.63029036137678,116.64697130103866,116.7573354707583,116.70434857191869,116.84355942394136,116.82056417005207,116.88224347228585,116.867607084609,116.98757692858165,117.04560549670771,117.09509369188957,117.0874352887338,116.98680368695254,116.88382277176713,116.78172922865645,116.69600526150239,116.63813418749642,116.59547638110489,116.61448818897638,116.58750965969261,116.57224209472028,116.51994163424125,116.53725748297373,116.5559941645928,116.58780285477273,116.67762781653894,116.72994682979818,116.78853466761973,116.85118673148413,116.86192994996426,116.89770289212461,116.94089557360174,116.9002372580968,116.98861556064074,116.96051315751879,117.08814024651815,117.1072725712815,117.1535140390004,117.16762526110968,117.05825965032764,116.99324768962262,116.90641902526973,116.88048207946868,116.67299445365659,116.71539827062934,116.6787719097262,116.62707886074138,116.64878104678145,116.66728763040238,116.66811901622427,116.64537766948546,116.70344886901178,116.71030313449086,116.75194198412017,116.74681911966988,116.82557171960633,116.83426111908177,116.86967123759251,116.90412137551266,116.99072318915503,116.98969160971687,117.06251255128095,117.17354564267647,117.18184951177484,117.16740480846659,117.0402416223213,116.97498850045999,116.90598929865945,116.84037140311035,116.83751978132642,116.73733685965618,116.7711030554117,116.75340850255998,116.76240644789867,116.68561651713826,116.76893175928592,116.80603460685803,116.8552089633918,116.8535237217872,116.90431627746264,116.9160428423356,116.99080903538089,117.0439956206062,117.04672520512452,117.11686857667796,117.46938072406765,117.41221527339492,117.18294955983139,116.9786428919531,116.87107224770642,116.79309553189658,116.67441192520894,116.616104492608,116.6029234392051,116.57426652121491,116.60510980335869,116.51078352644258,116.48539454806313,116.39880133058041,116.4263925919555,116.37693695758027,116.46415159246625,116.48772100753646,116.52616495672609,116.53553212218465,116.5315015901212,116.6150628813705,116.65089774061452,116.7124853206542,116.68731749212711,116.56377858002406,116.49534290545381,116.31743486973947,116.26389485439395,116.20601878364448,116.14273029330889,116.0702793999771,116.0417286351676,116.01238664645136,115.99270448888507,116.02365135723285,115.93419170243205,115.9903601361595,116.04800297338251,116.04667447909223,116.08451267976099,116.138242524727,116.23447427165016,116.24054756937498,116.19695973940624,116.54186980212216,116.6793904084034,116.69991971095945,116.66730741643954,116.24057075862858,116.15444457155932,115.99939962261993,115.92763195516669,115.85988280691726,115.83971975979411,115.7729935141004,115.7666123638858,115.74182306395863,115.75101469159092,115.67923720345999,115.74749928551014,115.80378770566728,115.84367323621822,115.92941882736342,115.98593803589802,115.95964240831715,116.01551339923432,116.12382122649598,116.15063406831943,116.16229573762999,116.24140392963217,116.39475867593626,116.36262072118407,116.31508102083393,116.13769667894572,116.08469781397342,115.95906766831386,115.88263674774466,115.87677846980172,115.82909059741151,115.82046006572368,115.79399754419029,115.78620807861509,115.80275452181615,115.79504453071478,115.80117643699495,116.10435579483949,115.91236436322102,115.97892091057096,116.09333905088621,116.04758368559351,116.0805323128766,116.1659333752357,116.21379783372868,116.30532124781975,116.30666780988311,116.33578998486017,116.42768175974861,116.46634848961162,116.44209201190203,116.25901029748283,116.17350410246148,116.0684332390018,116.09308845405653,116.03495823320746,116.01876859693294,116.02151829913869,116.10114257896394,116.01124013270793,116.02799885485257,116.09796058661779,116.05973951624445,116.10162357185808,116.19215787363235,116.25030087684108,116.27414133890974,116.34154031356589,116.3939871603806,116.47017644527328,116.54670148354329,116.46651389286737,116.60735475364729,116.65157683486238,116.68125125440835,116.60511216937289,116.55172018019569,116.51995750057432,116.45484278173055,116.42168432537973,116.39391154508903,116.37163132793196,116.45311871227364,116.34832683933074,116.52015679093589,116.66146489520101,116.57936462507155,116.67940637176255,116.6307388089643,116.74363975333429,116.76453538426219,116.79415731626825,116.81796248958842,116.82161215288745,116.88789314950452,116.87053994316388,117.00408174997844,117.02157590403039,116.77311117494973,116.79598056410109,116.63286713286713,116.88319766108691,116.91451178258127,116.74787989915195,116.82421650786362,116.69075832783405,116.66983434297035,116.66132322100606,116.73182092642112,116.65002010223422,116.7292450932498,116.77611425615679,116.8251874838376,116.91711913585567,116.86348495290605,116.96851479459926,116.99486060466852,116.99419773654277,117.05624426078971,117.05007600309749,117.01628954085291,116.90477419354839,116.82220374458812,116.71686004870362,116.75015054626789,116.57262753859816,116.57386770561779,116.56517005243403,116.55108412339243,116.56111111111112,116.59822887112028,116.65199816524282,116.54190151926983,116.61720830350751,116.7220377790498,116.7763161657468,116.81625239552645,116.87068990185138,116.89832303113553,117.01165554569145,116.97772376322563,117.02245487571155,117.09055039313796,117.09209924536931,117.04237384993428,116.93434141321747,116.8517004858531,116.67380809552375,116.60314650372612,116.54824060322176,116.53130984023551,116.4700944985297,116.54746862582545,116.53577551720197,116.47118159737106,116.43674354875543,116.51483480396357,116.52111428571429,116.53968933813032,116.53881929979741,116.54565669812128,116.67905993889032,116.73422600354023,116.69127382718868,116.76666286236019,116.8163649860104,116.81852444038374,116.89347373227179,117.01400640292705,116.82940051930265,116.7598424072858,116.62789702020778,116.58285485759991,116.54252157512717,116.39778532492366,116.383339045008,116.32911681562491,116.2596376087887,116.27055195454156,116.22164198270696,116.25176181916746,116.23077581045249,116.3193092621664,116.36297205491965,116.3421390465866,116.38490942804165,116.4530240500925,116.63079201435366,116.61190760653126,116.64819826235579,116.64632826297499,116.71301918526754,116.73211841204655,116.70591589451176,116.792855307119,116.63559031742408,116.48628357740287,116.46384595606091,116.34440569435709,116.23873693827443,116.10420710126726,116.12098525545777,116.12726181288055,116.19260255163339,116.08497927683293,116.1054483054483,116.1294676045062,116.24062303155243,116.28223544897843,116.28075095873162,116.33049876882552,116.36570561456753,116.35461439404779,116.39929571416302,116.47112052919447,116.5173085740486,116.60244105091253,116.5890477691492,116.65283905345785,116.72521425091003,116.54368458781362,116.43022122879412,116.3525920403716,116.31033098147192,116.22736793779231,116.22272309635925,116.19166690562899,116.21473129971957,116.28930727631692,116.27053236833824,116.1518723002546,116.19553696754419,116.27475836751083,116.27094924003441,116.39508691279988,116.42390710775156,116.45861484058304,116.48927667893284,116.45652173913044,116.52465568302712,116.63686136645246,116.70307639128931,116.59724701952427,116.47603824664478,116.35889826846063,116.18203527347009,116.14486088756036,116.19309573002755,116.26522238163558,116.27482778415614,116.33644296457891,116.28142131396918,116.29579889807162,116.29209710743801,116.30461865258202,116.21225589997992,116.2901039572684,116.28338257651818,116.34318116566179,116.33886928835729,116.41487987600104,116.42791164658635,116.36401913327414,116.49478330658106,116.49647443246961,116.42885386819485,116.2238160682586,116.09961927117625,116.0549541809851,116.03910102052517,115.94540715492796,115.91161312489263,115.86401098901099,115.90395852428965,115.91006669147322,115.86300938644689,115.8836370919287,115.9442233357194,115.98003603809742,116.03719280176237,116.0710507505361,116.01017462631113,116.13574634759985,116.19839931399171,116.17122034867104,116.28429269966544,116.3574001028983,116.38024388154325,116.34371606561125,116.22945616743867,116.11508775941913,115.96850798731175,115.94024986420423,115.90256454241359,115.8134159929149,115.81140488780906,115.74983573775175,115.72737915084373,115.73659400622803,115.76185443327239,115.80291220556745,115.85390723180623,115.9069581368767,115.94435403283369,115.97866445790015,115.99960034256351,116.10244250821312,116.11821633503668,116.22620543875685,116.20671252033449,116.37951428571428,116.4079842258673,116.35444555444555,116.32471650147104,116.15564057904805,116.09855295830123,116.03319336132773,115.95468174419601,115.90220090776741,115.79976022607256,115.86946094106898,115.90244738269983,115.88008681497558,115.83034262402647,115.87109943757673,115.97731623003743,115.92498002511128,116.00028545329984,116.05186348707697,116.0614655861203,116.08372318575992,116.17904054825814,116.21714334597507,116.29511283558244,116.27943314989592,116.36201585762363,116.42287180949666,116.50921698436251,116.5414262042169,116.32228812592678,116.22400866615354,116.15334834792029,116.10684236045749,116.08516287435407,115.94349573794794,115.98952864642776,116.03693133169702,115.99269760675472,116.02785308638452,116.04635232332458,116.1128525750828,116.16142934611982,116.18435213392934,116.47596003302115,116.5605409252669,116.5687090339128,116.49908826713772,116.51424497362042,116.5425944958319,116.58574362485025,116.71090602588646,116.68919150393971,116.77696505614446,116.72316578029394,116.56712704812558,116.4472179333219,116.41631146837543,116.37642313633503,116.34161152645298,116.32247529007306,116.36114216908919,116.33166160371411,116.37842411725899,116.34909935750345,116.41468248269524,116.369015136284,116.40129217516152,116.2609929484607,116.26053310404127,116.34486418265783,116.36231053551474,116.3876486602665,116.47485584784417,116.48078687772424,116.61788944723618,116.6280851796579,116.59379038975213,116.48047660063163,116.43964502139636,116.4508378122036,116.36949834698865,116.29810150213976,116.35427027337799,116.2928805378383,116.31882308996352,116.28353667288647,116.27954950295926,116.28391765009906,116.27998049116364,116.24768750536957,116.36339734796525,116.6941082210204,116.70050601789646,116.63196409684704,116.59240419512474,116.57664713448621,116.6785009861933,116.74276398581398,116.86214015368735,116.72577686045179,116.62799163059991,116.56229757230072,116.47897859169461,116.41588129135754,116.35805121154837,116.40194364016857,116.35861812140136,116.34030603472978,116.40054441260745,116.43491217513396,116.4378777895551,116.57968687274187,116.52531699916993,116.58910579345088,116.70720320779034,116.70668880048083,116.79599255760698,116.8651193406216,116.94852204767218,117.06661893169125,117.09841742265976,116.94983994512404,116.86303206664384,116.94427156193794,116.84476709359043,116.71606628447563,116.60693509752481,116.5657256914742,116.73459958932239,116.81291886496507,116.78573465662788,116.72720273738238,116.68926666476511,116.66091199634745,116.67829413108015,116.73750214248986,116.77062541107838,116.78677563150075,116.7786918023422,116.858135147496,116.89781272337383,116.9527867539821,116.97272883197073,117.04461402154963,117.12262289456376,117.08824118303252,116.93073976675052,116.79856464802425,116.75686958510852,116.63683398124857,116.56497885472625,116.42900820070292,116.54235156227666,116.44815375389096,116.5003429747342,116.49599839935975,116.50400068583185,116.45291531037634,116.49542961608775,116.55781865965834,116.6131032315209,116.62726441510944,116.71333866727626,116.69438811937741,116.77462375417655,116.83159910811274,116.8806264468006,116.9048572000343,117.03010463720052,117.03735246206168,116.88079867458866,116.79934248141795,116.71559606812207,116.59753693173701,116.4942029813239,116.48871428571428,116.43095074848588,116.45401067991662,116.48475400457666,116.4659977703456,116.42528801349305,116.47330187330188,116.44706521428367,116.53032383567914,116.5105135173795,116.61402655373698,116.67214475906891,116.73416017415215,116.7267571747723,116.80720854940836,116.78740157480316,116.89171080887617,117.01483093308902,117.10628060829968,117.11049343801938,116.97776950181913,116.92842400963137,116.8260906954079,116.72530244825411,116.6504439988542,116.58704314175147,116.68663488599161,116.65886402753873,116.68360933329507,116.6392365097589,116.67873251170674,116.6794772368232,116.7450005746466,116.72889680328575,116.79788609012839,116.8676419866636,116.86803679218166,116.86806652687214,116.9311505595995,116.92793051880824,116.90853203102557,116.9017010516637,116.79714351399505,116.5766922259556,116.54030776297657,116.47795490449519,116.39697091619726,116.26698040115929,116.39615285382564,116.33687648626193,116.39226361031518,116.34526539034736,116.16808358379848,116.19711373267667,116.17681863655852,116.44655942294482,116.37512867436807,116.38474295190713,116.36015676402437,116.39094709115895,116.3922006528088,116.47055959676958,116.53246864799863,116.47856999512629,116.42653797685875,116.5239778180042,116.48593673686328,116.51430378655013,116.41922513570177,116.40988363740841,116.36812492823516,116.46694048713235,116.35444055341868,116.34380558902852,116.38325826902665,116.47049542442412,116.4795684113866,116.53894259732064,116.48315475849424,116.56945838231499,116.5539533283642,116.54143266475644,116.64322558459422,116.63865353789787,116.65925162472445,116.75928737146621,116.74139806492242,116.57043866681938,116.51502919958777,116.41075361075362,116.38716788822721,116.28893911650263,116.2254391485953,116.25187389140012,116.21669718471045,116.28261865231579,116.28178044940604,116.26601041607051,116.26065836095553,116.38778079839749,116.4203752431072,116.4213054292821,116.56793727106228,116.50738803623996,116.5946224256293,116.61918097905296,116.75094371997254,116.76344454927523,116.80023431249286,116.83597838208802,116.72498500385615,116.66128525302169,116.55033000942885,116.51178470416822,116.45682857142857,116.3917779238972,116.36954285714286,116.39423983542387,116.40727085655492,116.39717649748513,116.35518954099109,116.3910087969839,116.46868657996284,116.48140212547138,116.56901529226812,116.54306527638909,116.58624039313162,116.67050684657386,116.70029724476963,116.8021164021164,116.81716652385033,116.89580533554457,116.95998284979277,117.04089739925693,117.02414216736665,116.87400810641091,116.82539410555175,116.7281944365111,116.66875178520422,116.61194285714286,116.5082238720731,116.48375760692552,116.48162227049274,116.4171329070564,116.4134631861541,116.41375667418554,116.42800434087275,116.45661670235546,116.48785500214072,116.57865280831501,116.60745288406625,116.68238688299817,116.738921745093,116.79647307648337,116.88253777815865,116.94431899385451,116.94914576309925,117.01102951681573,117.07040763821394,117.14567244436817,117.04711937097927,116.8936115478062,116.89085343175121,116.81161991986262,116.71826713975048,116.77458899008994,116.64555005295853,116.65551130340104,116.66007044875283,116.70600870661015,116.67274914778424,116.67105036960632,116.76247241883256,116.84175962834448,116.87853147856016,116.90678865402816,116.93789603463601,116.93022189094663,117.02520719222277,117.11256206411618,117.09962411408569,117.22274527814456,117.21169244898545,117.31353960182712,117.24297159923039,117.1480449334904,117.05003301087923,117.03162066687727,116.95471654742407,116.89806410845588,116.8700310202206,116.91001351234799,116.90903340808464,116.88848941555453,116.80632831359927,116.890294751977,116.73105821623172,116.77894495149532,116.83515002007917,116.80193651884954,116.89444126074498,116.85005291913384,117.02025714285715,117.07172248256944,117.11041928481663,117.14400388504828,117.09026766075357,116.90383571816183,116.78975179229386,116.58965723907646,116.66374135269567,116.54513749928535,116.4492654204539,116.48754112430268,116.53959758436132,116.6095794325632,116.57322798580098,116.62712010084805,116.68755551735006,116.74343104386945,116.77825202669798,116.82538818541225,117.02074069824148,117.0847730012053,117.04199271935104,117.08587408575936,117.18442705197673,117.23768398703125,117.12532270093511,117.02941092077702,116.92657864523537,116.82095030539386,116.73436156183705,116.71578524721808,116.61528100192015,116.63047962867458,116.68429349383777,116.61609392898053,116.63864775820083,116.64555584199823,116.69846092115445,116.70115732783316,116.66512146965405,116.70380644607773,116.75153857163303,116.79567892402346,116.85882790804203,116.8314410730117,116.97420629240503,117.13025535207635,116.93217237139343,116.76327756327757,116.72679424468663,116.67741104399852,116.54263321987358,116.50964124277623,116.53193621346159,116.45954377629583,116.40153182246864,116.4577386230371,116.45219032368752,116.55043351360632,116.58314044863552,116.5659778787619,116.63033229520843,116.61930814384225,116.93833252517186,116.91611416213755,116.98327158734682,116.96292499572868,116.98206303561768,117.05961226407037,117.0554210691197,116.9265636581333,116.82625064172038,116.73546196427553,116.65763272758394,116.5043510513852,116.52313929254575,116.40881220590332,116.41409905283578,116.46172952293945,116.455858427287,116.51900831167347,116.51941789128264,116.6155493987604,116.62728025350424,116.72320434099672,116.80792186652198,116.8226565843915,116.84815692544899,116.90737623056071,117.10820458634377,117.1472930163532,117.2065561610225,117.1842105263158,117.08472836161414,116.92599344822675,116.82664311558075,116.84040945510536,116.7128806021211,116.67860095208232,116.6973541654787,116.76828746613432,116.74207616007297,116.77213638177776,116.76163735355321,116.76299885974915,116.80108828808297,116.83112441214195,116.96032062984938,116.98565357519752,117.05026357030916,117.14007526943034,117.18085895169109,117.16193108951524,117.25193864750827,117.32920707358814,117.47230620044493,117.42624960793819,117.37686779970343,117.29518759265595,117.22619828348208,117.20735394796897,117.16518366415697,117.09962657848978,117.12410487575248,117.15692316471225,117.21801529331204,117.20725477325266,117.1078129455375,117.22001540963959,117.2137208439204,117.27271948852609,117.34700522692867,117.31430202683414,117.47432637083179,117.49589941420203,117.51442115483465,117.55957379952581,117.57151831862703,117.7027189295823,117.78216888126876,117.74293389728787,117.639244485084,117.61302495783184,117.53773180558333,117.46201232032854,117.48939385299653,117.44099962955575,117.42171076993192,117.43441221722036,117.4405779753762,117.40582767862234,117.44249807423469,117.39871813132032,117.43469591226321,117.51085099111415,117.57385326335007,117.49246288433591,117.6078705553336,117.55423129562044,117.63665686638312,117.68583919081091,117.80076595501443,117.7368180389243,117.55881428122231,117.49615285603959,117.44666971847104,117.40432169433315,117.34954459529129,117.38902106922747,117.31092388812472,117.35148997134671,117.39101902796882,117.3894498307613,117.41871271225332,117.35267831566887,117.34756552159202,117.42649082568808,117.49228430472694,117.55021821522912,117.5664446103486,117.63474515434315,117.66881213723349,117.79204365934224,117.92718600040229,117.78970795164116,117.63638969302646,117.56912178053118,117.4834909716251,117.44316649935466,117.35049153076724,117.32812231082553,117.2198916874409,117.25621634009396,117.29772720758935,117.24497221108119,117.19003579098067,117.25476047304069,117.25350580962738,117.26807633980944,117.29785773532019,117.31294871428163,117.41449872642454,117.41405556986294,117.45939608829921,117.43998627277146,117.50843869786601,117.32836887542165,117.17925121463276,117.07112456796824,117.06760466712423,116.9553676029374,116.90860245784509,116.92542091873196,116.8745214559168,116.87455401741116,116.94565465328468,117.0003132475225,116.96827656908532,116.93162466182542,116.94720505737962,116.94927804516846,116.9503649218839,117.03449062197139,117.0361676031832,117.06984507403921,117.12694788515326,117.28097142857143,117.28950673669787,117.25782788639931,117.06155646242972,116.97218656397091,116.95117912407926,116.79930341441133,116.75199154841104,116.71769105598219,116.7008222463313,116.63903079425782,116.67287158111118,116.6616346098967,116.69802701082146,116.71172019985724,116.70657009239193,116.81099283696241,116.87742230086475,116.88138253845935,116.9224664573223,116.9992288578528,116.99383948434202,117.07824274948618,117.06772646840574,117.20159355723098,117.19293486021076,117.09678156324071,116.99637495004852,116.87784277357683,116.88846702826149,116.8046587308384,116.67461902859426,116.72316916488222,116.69497672559042,116.73811223761246,116.68634001484781,116.643803162642,116.71593342278814,116.7697291434769,116.82467013194722,116.90679007055732,116.96186585923218,116.94214664159972,117.09814693575474,117.23128418413856,117.14331672597865,117.18529386627162,117.1953416768823,117.29965166742805,117.37737843551797,117.25205667276052,117.21013830152017,117.19117647058823,117.08076648076648,117.06229602061265,116.96102335164835,116.99475704790282,116.99438475863057,116.93875329437378,116.95818286041846,117.03149651472992,117.03159222521644,117.11386124415637,117.16962518998595,117.19113470090375,117.23092813082772,117.2909231740203,117.3119853088864,117.33821124214514,117.32863001519975,117.41833572453372,117.49216867469879,117.543572515577,117.47359811743098,117.40462726411575,117.30684067116019,117.27340523175769,117.2569928565281,117.15248257464934,117.19913345384637,117.17251763896058,117.17536265122413,117.16803302184258,117.1644553973121,117.14195285423767,117.15644953471725,117.23318822316416,117.26311721769,117.37502504938307,117.37091419085236,117.43045693999083,117.40396441749378,117.498484155131,117.57917787828477,117.61934892776362,117.54285959442839,117.54935462637016,117.4592452722227,117.41142824458045,117.38963641568851,117.28008239400354,117.23842327921335,117.26616339252523,117.30382857142857,117.29117142857143,117.30849486887115,117.43565118267313,117.50044191019245,117.42691474811944,117.42194489557512,117.4817274800456,117.52755972939799,117.5263773574139,117.66110650938276,117.66786642671465,117.67407513212399,117.80147458063041,117.86682670324646,117.94610812664304,118.06441840525865,118.04257326661902,117.9665750915751,117.73315063800634,117.71665380548173,117.63288860954775,117.66527495781979,117.62792759301095,117.65805823574885,117.53090618123625,117.56828898859706,117.56825396825397,117.49192741820261,117.50278611230176,117.58686331675527,117.62246619206907,117.68115776226976,117.6728961280183,117.75433228481556,117.84324602539174,117.80429935395347,117.9267762687634,117.93614771200731,117.972848609563,118.0357479909629,118.04450860442513,118.04338376183259,117.88544971276687,117.82060883235673,117.76857069305798,117.73262796682872,117.67480488292976,117.60679264701677,117.59864976971708,117.5772241586195,117.6111063452575,117.63018673682404,117.67431022158685,117.65933846021899,117.6523354868218,117.6746915695682,117.75847869602516,117.80767580861955,117.81207823401579,117.91525423728814,117.94085683235143,117.93844041421134,118.04521131999886,118.00446020128088,118.08619012190236,118.0996707229778,118.13636884306987,118.03920558608058,117.93911375737105,117.89124273567892,117.86437473141383,117.81058152532172,117.72223972504653,117.74275393480691,117.71732461798688,117.69348505259538,117.678785274316,117.68983696742214,117.75073835125448,117.79149460885525,117.83373003355223,117.81156844760376,117.92510899495181,117.91260716231328,117.9487348671754,118.01036373553814,117.91991627480216,118.02867723045125,118.10596634077812,118.15565686105855,118.04933852585762,118.07054714118017,118.03694482600733,117.96706346935271,117.83290900248878,117.77927799073173,117.69974540149326,117.70374931973764,117.67027460412909,117.67789039683903,117.72997508519717,117.68565871517647,117.65706933523946,117.92258268077904,117.86970712015804,117.95539374480406,117.97610041265474,117.97798138869005,118.01801517972218,118.01099593379531,118.12914135045283,118.20300062990323,118.23884529469042,118.08299728299728,117.96973770773147,117.86178211028844,117.81602288984263,117.81274330203802,117.70323041738136,117.7604062365899,117.68403750500258,117.69606330705062,117.70139186601503,117.60966479010088,117.54498457671656,117.6107969151671,117.56423576423576,117.67946630096283,117.73144048673198,117.7018058562151,117.85279563164781,117.9633768375558,117.96339173967459,117.9832503910138,117.99280043254318,118.02241501920068,118.23271212077971,118.05603448275862,117.93347228963823,117.86483861753784,117.8131843000486,117.77066292970314,117.46620638498189,117.4812922743229,117.53318691348869,117.49797617011573,117.50685517202064,117.83183638443936,117.81001258005489,117.78838352094166,117.81600983109942,117.81948055658734,117.897682128669,117.9156089193825,117.96462884593389,117.99505615408796,118.00885688980316,118.10290124339002,118.14508290451687,118.15955775219267,118.16010746234531,118.04481408442653,117.9492343732145,117.93242045681941,117.81835066864785,117.77758403841756,117.62178387650086,117.6374417740691,117.66758147512864,117.65515369672038,117.6271031507984,117.60935936651325,117.65072194424589,117.69269939352328,117.72087434195468,117.82218279631431,117.89137837296478,117.96183686907727,117.99490526074761,118.01933045047109,118.03889190968148,118.10040942537292,118.1721363115693,118.16879436684222,118.09940397730529,117.9741055827676,118.01135288552507,117.98179107045566,117.86449134075009,117.8314358636116,117.76163841321745,117.86623234990242,117.87700611524217,117.94228890038512,117.9592575566027,117.97632319981611,118.00746311498938,118.06629548846286,118.16260909508497,118.198272646409,118.18894564655915,118.1850321395776,118.27556589681718,118.27257059144573,118.28235530546624,118.34369255514706,118.28223306544201,118.18323239861083,118.10345520289273,118.13513203214696,117.96596452964472,117.94953957371123,118.0019811076976,118.04527316050871,118.02375078882451,118.03446989265828,118.00814850945399,118.04635286693629,118.05394571068607,118.15896789713337,118.17702308000688,118.1467979167859,118.21699570815451,118.23742241798473,118.24616351841797,118.31776635247073,118.43674741869977,118.34408786682684,118.1890840437096,118.08451469075112,118.10177244139508,118.05982392957183,118.02244203665056,117.95191675480976,117.94305642902064,117.97036952293787,117.98421504146411,117.95303567345071,117.92622857142857,117.90908571591785,118.01228571428571,118.08455093929602,118.08602273376364,118.16345714285714,118.24170643197988,118.25884538439554,118.26651623775385,118.3331334760885,118.34526087329012,118.31679945172621,118.19106260178862,118.17316648095769,118.1466598120698,118.15735054697095,118.12143898048404,118.11192665790827,118.09679538443962,118.07632825429435,118.12992204677194,118.12783328575507,118.13917687715991,118.10417558580929,118.17802511415525,118.2997773718461,118.2850623235118,118.41190238333095,118.35933489247618,118.52224095077565,118.48429648241206,118.55180385888801,118.60600696625364,118.67154805743485,118.70746396460682,118.66441074845083,118.57688244196339,118.43629464795161,118.43885097512921,118.33819458317875,118.34702557661566,118.30761328615455,118.34556828244166,118.23734664764622,118.28046830382638,118.29254787795759,118.28096650881497,118.2947800553069,118.34052388289676,118.2694597134801,118.43375727158663,118.45103578154426,118.48999857326295,118.46327071634218,118.5343411294923,118.62962646136299,118.67037385576182,118.79514186219102,118.81635040662006,118.7477544269868,118.70587395821441,118.66754180697448,118.54997434289298,118.57269614835948,118.55796294710399,118.4824200913242,118.43685967866215,118.44034107112303,118.392128903465,118.45693076374019,118.53606922549692,118.43020999771741,118.55796087391118,118.59245509324043,118.64495942393417,118.643918609968,118.68782690713694,118.72931064024216,118.77324269515296,118.81948767741383,118.91368222482636,118.90215901302261,118.93495656149977,118.98201366846816,118.86284717256372,118.8162698866888,118.7930521375837,118.72801647691516,118.75244066534971,118.7170540416762,118.38099446883732,118.41604839630179,118.3979027754032,118.52238678439191,118.8306900985855,118.88084279138911,118.92968214040704,118.88118245754474,118.91753638521145,118.99945555619233,118.94202649234474,118.90265715022788,118.99624308124696,119.1182425650291,119.20913103290152,119.26157725813847,119.12139009855603,119.0491676456262,118.96870701513068,118.92563926155258,118.8672533394485,118.8155445459492,118.78128758806346,118.76261238046155,118.78309939845316,118.71736204576042,118.72927416580667,118.74521544808619,118.79677428595984,118.84252577319587,118.95330583247393,118.95102473093657,119.05815984651069,119.0457460208405,119.00655184252689,119.07348224513173,119.15231655253432,119.17280412666571,119.13852019608406,119.07621889976181,119.02813629323697,118.97557059295791,118.9868817636421,118.87761836441894,118.78206121102602,118.76016061953248,118.71137861851534,118.7541247023041,118.69831665280606,118.66802432308398,118.64581422018348,118.66526164874551,118.70313978494623,118.77760881416233,118.77976207539056,118.8371218644165,118.81099360903333,118.85930512555899,118.95748587165438,118.94318474989251,119.03729202524383,118.8161515968121,118.73834375179217,118.64907651715039,118.33787380168837,118.25883968417439,118.11326314584883,118.05626715462031,118.13380261538902,118.11356484924767,118.07212514656676,118.13302647378352,118.19119370979271,118.42469914040115,118.47758200830826,118.45464177309432,118.49855429274857,118.6488416102764,118.55560323863473,118.61511820939951,118.72564065855404,118.73356629335777,118.69979384985398,118.65292214300031,118.61215020193052,118.534009221869,118.45040245194924,118.34091819795066,118.24207905206217,118.19951359084406,118.18005207290206,118.24194149164781,118.16491569576046,118.17355300859599,118.2217730374448,118.2555064815877,118.23458241348662,118.34737929846719,118.3856618069108,118.43871690310723,118.54822860098267,118.59395384924854,118.5889741599839,118.43304941351917,118.48050830440894,118.22934464766928,118.14832865088012,118.19978761265139,118.01748452189865,117.95749074950521,117.88734253493644,117.92091595167723,117.93225593478198,117.93999942583183,117.97515866861951,117.95320395039045,118.00433646362826,117.99207465900933,118.0424957647802,118.08913585197492,118.34219649866766,118.38121562786435,118.36489931540203,118.41256313131314,118.42035436349539,118.33631320244905,118.21018100198556,118.13792210780647,118.10012382296196,118.01172437633231,117.95615703908682,117.89252147840628,117.87372062851377,117.8628508784583,117.86768227588793,117.92192192192192,117.9473562687601,117.94268324343035,117.95637380698365,117.967578316378,118.05010949746426,118.0921340550501,118.1448678832537,118.23276209097705,118.23338796400127,118.13023857430296,118.00663373729252,117.92566133011992,117.84907771307266,117.79093307334978,117.69833395463539,117.6812749003984,117.75199977063562,117.83876146788991,117.8339831431684,117.84381536345663,117.88871388069532,117.96069894013176,118.031190926276,118.09511943632927,118.12842985621813,118.1548327989006,118.24410485347985,118.34056560567896,118.25596820767933,118.28827333600412,118.19167024474024,118.13907815631262,118.10558721612875,118.23647679687949,118.20602914180817,118.23855815554026,118.25204906287614,118.35834622657727,118.3613036256372,118.47027972027972,118.52927514623237,118.48633394453358,118.532712956335,118.63101205992724,118.67242465910392,118.70699232619403,118.73994446193925,118.80226231386025,118.89652012029214,118.93246805340668,118.80469577666427,118.6977270124814,118.68540580789278,118.63814790407152,118.55704832564668,118.48546469998568,118.52108640843457,118.54376969349757,118.48568237787069,118.54918971539827,118.53700575486013,118.51068455531082,118.61879955348198,118.68868788642088,118.69290414878398,118.7849268390459,118.8466315608723,118.94351608103467,118.96874194933447,119.00958978616208,119.0611549908425,119.13719093406593,119.188693287534,119.15529977667067,119.08609878310666,119.05659782888895,118.96332007667878,118.93199908377713,118.8231337302496,118.79194457962384,118.76312474952768,118.78022952977877,118.8304332894511,118.84321305841924,118.86113099498927,118.87860312008014,118.93112529699711,118.95269709543568,118.99193363844394,119.0674417938658,119.14450354609929,119.20792050937955,119.44762476076214,119.37078491277161,119.41460625982565,119.34934460404946,119.41590415189295,119.35291930085533,119.31656118445545,119.22032149918336,119.17731065928709,119.16103105804007,119.03426425048744,119.0303830153493,119.05623941924192,119.0366353960467,119.06030323914541,119.11235373602047,119.06598109901473,119.0539376184732,119.1301647545933,119.14178546792365,119.12028389988794,119.216747635611,119.26026175751474,119.26551803486164,119.35891530888364,119.08925548701764,119.24508255563532,119.1974745300617,119.11321675711373,119.06448275862068,118.94313381799374,118.88761461297462,118.96119437332797,119.03612999884753,119.03343710365502,119.05268014186443,119.04047042545832,119.0070582812365,119.11877615817578,119.11227756467568,119.1347579087003,119.20064640868034,119.20891991691668,119.23258631132647,119.22560078469839,119.32160586469638,119.27044405997694,119.36840587234288,119.32692363133162,119.2274482679117,119.09648895417494,119.0386862784606,119.02573698756333,118.88421476664557,118.79232207045291,118.73859588647593,118.81616213736957,118.94824674395305,119.0077006755983,118.89288166628519,118.83017680379928,119.02136874713172,119.05636389725929,119.00453410623584,119.14231531764503,119.10264586744808,119.1101112612483,119.08725275988961,119.19042684857381,119.2784588441331,119.26525983347689,119.03661543755018,118.96678141135972,118.85927327999082,118.79717211116528,118.76009985079766,118.68383154512594,118.6959740595139,118.66701084150749,118.67424916095351,118.57865909612296,118.65444320105593,118.62930762388454,118.68580528535766,118.68023155843412,118.74884561333066,118.74927648356686,118.81465232974911,118.80470183486239,118.94521452145214,118.95493272899395,118.95530902419448,118.94780211892389,118.74440207574759,118.69626529851816,118.5432982898393,118.47897738671864,118.37329434697855,118.29331842806776,118.32287188306105,118.3730709655212,118.31111493363149,118.33766382746853,118.28646310724106,118.37155384879922,118.35704459474951,118.46701642728132,118.55193949464275,118.49962731494753,118.55963881324351,118.62010372790051,118.65832072401291,119.02148203165171,119.00885638373853,118.8525390346245,118.62842543959808,118.49353134370983,118.41613539552303,118.29315225160829,118.24940610778786,118.11544073470088,118.22091990256483,118.15336369103875,118.11220838700444,118.19578796561605,118.06341030703636,118.14033731351832,118.2142754806728,118.29314644423424,118.25187010977042,118.28532959005356,118.39920846597263,118.38053046594982,118.47869379322219,118.53343469405318,118.50494595292027,118.682546059806,118.61685515816063,118.47970024118526,118.32339008354627,118.20704997560065,118.15943610209882,118.03215988054902,117.99566266444533,117.95434695167499,118.02061588889848,118.06795502257499,118.04762178639213,118.13278282886408,117.8716096106428,117.86747160720431,117.97242625961208,117.99021576953977,117.95057622842727,118.08736358414704,118.12221871321523,118.14582077989154,118.29196115612251,118.20590852975798,118.05743165632897,118.00080438966934,117.94516138303682,117.8893712445735,117.8494809191039,117.81234369160893,117.83426828917464,117.83760142717385,117.7985035971223,117.91146718925617,117.9028734472721,117.93908102339266,117.96109780381519,118.08282810785842,118.17671703892051,118.17830218653418,118.29624599023207,118.35260633379565,118.35540150202195,118.33748554913295,118.16418384433281,117.97929224468606,117.93835853630382,117.92449833982965,117.83709858911105,117.84422183088427,117.84507570295602,117.89446975376276,117.97983324197224,117.97085978072707,118.02848739980394,118.05740538049427,118.02740278057627,118.07439585730725,118.15916088745648,118.1641846826127,118.17000661280584,118.19966683899132,118.22085678189963,118.18775850183823,118.10181274957625,117.96683797984439,117.9341753983063,117.85973929022626,117.79775409977312,117.85604231344142,117.75320356620703,117.89598832551219,117.99728237548989,118.36039035591274,118.2861529631224,118.26741785652847,118.28046821207252,118.32177606842514,118.45351877927527,118.47402149548824,118.49731190524106,118.53509351567213,118.64520017219114,118.60677060901025,118.49699704014483,118.37997473152242,118.27092479412356,118.31028837316177,118.19720978298312,118.20954487989886,118.20855829982769,118.19790978782049,118.21241604959532,118.26243252555415,118.20039597142119,118.25072476247882,118.29987949733173,118.38399081910774,118.48655242687792,118.41309773098878,118.53014916810098,118.60867693896876,118.66915415745817,118.70167584940312,118.62508596973865,118.60714490674319,118.52191383714589,118.39878408993147,118.41277902105928,118.3594583739744,118.23307410795974,118.42363293526084,118.5472086441986,118.3884795522047,118.33740998971311,118.32078222832146,118.38086384439359,118.40511690467332,118.40632686917225,118.56476891779606,118.50200354914419,118.61181797340669,118.67674538576178,118.70875705405483,118.75038670867946,118.89792288271747,118.86601129231033,118.78690967446126,118.68737997649689,118.655723616363,118.69312123817713,118.61523907808737,118.49766535850354,118.5386665902316,118.53921793475145,118.58717963419528,118.46949891067538,118.58024797657998,118.5943006370889,118.62820659971305,118.70381324297938,118.72460069394661,118.84088102690751,118.85161604863919,118.91490704613265,118.9737476329833,119.05558425160697,119.1119816329459,119.21820269882285,119.13150645624103,119.09740408913393,119.00416259975886,118.93878956581628,118.9535157483706,118.94823570011215,118.82294149745829,118.84772054810261,118.88032075417469,118.83543903979785,118.79602561525428,118.80037313432835,118.83127654689473,118.68726366448952,118.69375661981508,118.75363107686137,118.78674112256587,118.79367215461704,118.87026159708891,118.95882437275985,119.04098901414106,119.10123244482659,119.05324611986114,118.97162592072455,119.01600642551848,119.16845012081464,119.09142150519081,118.99655083211175,119.08832417187095,118.99140310523289,119.04297639608521,119.00212863882177,119.01023930050621,119.02403361828281,118.81188147213219,118.80666437256251,118.91367381506043,118.97308631337067,118.98928715032454,118.9665680558348,119.0984968240738,119.09085166255097,119.15506192706687,118.99890817147454,118.87846683893196,118.81452957066499,118.74177796926612,118.73251738206056,118.72319682503164,118.64978030498837,118.64689338499068,118.65380529957224,118.64017913532756,118.68552971576227,118.69218870843001,118.81197755639528,119.12151920537406,119.06426521239955,119.07003131014277,119.17577046918123,119.05699853629136,119.12616701617304,119.17583491406565,119.06154995546105,119.01280207134637,118.8970135954701,118.80904074946837,118.72065882894019,118.6633025676414,118.69035430806396,118.61849063110702,118.62468368990108,118.53063802905875,118.5793040082692,118.54629044307798,118.60331552031259,118.6495633187773,118.70392393427554,118.7131613718619,118.79549373491206,118.75747222142468,118.83072856814525,118.84107614562996,118.9227143390912,118.7329390485487,118.6209251606979,118.54667546704164,118.50235415709692,118.37640981489453,118.35534509972736,118.34329686737301,118.22267450193493,118.21959682275686,118.23342129417163,118.26860025220681,118.25049451021988,118.29997709442821,118.3756759076474,118.53045018281536,118.50152817846839,118.500528677164,118.46254751221743,118.52204641048385,118.55869297517111,118.62283618021323,118.53851446263222,118.41421322707336,118.29423065894362,118.229016614537,118.15936917562723,118.06955275229357,118.10601850525653,118.11301193808191,118.3070726691042,118.23892996831016,118.15000856702268,118.10587058991572,118.12000114341251,118.13945908856996,118.15450177325249,118.1508419818738,118.31911297023179,118.23271052104495,118.35306584185354,118.41371307412395,118.38180724961347,118.47094555873926,118.53896439015999,118.40711439791326,118.28359150889271,118.18818468597648,118.24380651643462,118.11565718876423,118.1098314041991,118.03268142787398,118.07797242963814,118.05493273542601,118.06630088190515,118.05306861280313,118.12325340693462,118.16015872103054,118.1793065777369,118.2715616375345,118.34181985558529,118.39393677664536,118.41546519324297,118.49314516129033,118.56806659753428,118.60442664053718,118.47889231478547,118.40797024135644,118.02289243142323,117.98353211668343,117.92920125226182,117.8909634055265,117.87728774601351,117.86274059178398,117.93139508159044,117.89841078253872,117.90837786588519,117.91875736414059,118.03234803611478,118.08946974494789,118.13737734165923,118.16564982157246,118.21665514858327,118.2243999309273,118.27519034621463,118.50174925441615,118.66024206963804,118.5376387255886,118.31901840490798,118.17055330866535,118.12005969977899,118.02065617099517,117.97953434895085,118.0204991087344,118.05260128913444,118.02533064979873,118.04989652793746,117.9592041800643,118.06458746158927,118.07682811288794,118.13292539285817,118.21179239866804,118.19786495250668,118.29930254585115,118.21927938773756,118.38166580563687,118.67029392290641,118.61906677393404,118.67399436036139,118.5152621292251,118.50542305589919,118.35635192268975,118.2953421506613,118.23635683668479,118.25337973882529,118.30548843631342,118.24460782905885,118.29118455722305,118.51941469560735,118.51006442376521,118.36846774655143,118.41571489909832,118.40456485008161,118.40699472960587,118.568969474409,118.5421279036421,118.64997846992966,118.65740262720128,118.68274476026414,118.76696326061997,118.7045049704074,118.6098500086202,118.4851556219134,118.44335853286958,118.3130454754249,118.39208581370603,118.25058177952711,118.30910657856937,118.366137657409,118.41302285467874,118.41149246866736,118.3229253439807,118.42429203285657,118.42661841576196,118.51989763643682,118.52745233172524,118.58320408983859,118.63359282985263,118.71198275862069,118.71533140052243,118.78274980612919,118.84733635997931,118.81923176372568,118.64693385392742,118.62780745591361,118.51825278383653,118.56318405101835,118.46597896672606,118.4942852219861,118.54133026863957,118.4755877034358,118.51929864837719,118.50978872430818,118.4815739624591,118.45909782639906,118.4975027269074,118.5197187141217,118.62997012181108,118.61994717501149,118.6897146305716,118.70350791507455,118.77031294860753,118.8405576315033,118.91505880323201,118.87394064753369,118.75494423364378,118.70509020803959,118.54596660631664,118.49246563524473,118.27926195873626,118.16455260288124,118.16745574015093,118.16042013430523,118.17665117346645,118.18760569839769,118.21118849052819,118.20730277642753,118.39243079213307,118.53298198378828,118.45111619919862,118.47170837867247,118.48935011323567,118.45225194231817,118.50090317401153,118.6016616530583,118.84845529388141,118.70465890183029,118.47366459271153,118.39084911072862,118.35635287696418,118.22513780431787,118.20147540042483,118.24827506899724,118.26570894986352,118.33845092289116,118.27382935937949,118.24933260613716,118.30479609419874,118.31448418393708,118.34920908334051,118.31501505808117,118.34976909617646,118.34273754229027,118.34670873368708,118.39143660678414,118.49376902314363,118.65274301659906,118.55957073395287,118.49578380867413,118.42138129496404,118.3451251078516,118.26516175413371,118.22495975160993,118.27733195271378,118.19303133886767,118.26693696802393,118.23491379310344,118.2689898873822,118.22788080610897,118.28543114838858,118.24832792720383,118.26487309061675,118.35020818377602,118.29946600826825,118.31177365204167,118.36365462423599,118.56372098368192,118.48036852075082,118.32596035229652,118.22077847574793,118.20131691955339,118.34265774269207,118.28468824219533,118.06464987275899,117.96549752737043,117.9795924208598,117.9748188042513,117.95612426205078,117.932175209265,117.9514963880289,117.99870986238533,118.0113437795411,118.02247255424656,118.11169099303186,118.19658732434758,118.21301418947972,118.20408631114422,118.34519950661198,118.3756779247611,118.30866959190112,118.18766856028003,118.1042730140522,117.9796632533058,117.9039642017096,117.80364001146461,117.8751757582714,117.79988541965054,117.87706232813932,117.96080566140446,117.8604124892581,117.94198950477447,117.83946229470607,117.89944374354857,117.91981889041725,117.92694809847248,117.93093867262468,118.04086194051236,118.12780403953589,118.1487167736022,118.25554790985721,118.2756386364288,118.26774859502237,118.08208271279642,118.08177308828168,117.96865949820788,117.87413269109467,117.7992038034139,117.87140977228516,118.0220899622296,117.98045388203646,117.88482349909818,117.90324984237978,117.66737191216835,117.66709566709567,117.70232611370204,117.79483726793491,117.7983044051097,117.83951148189558,117.88448078026391,117.98361079219288,118.07217915590009,118.12028952205883,118.10127273249634,117.95104352325649,117.93113763842946,117.86907533557529,117.85981927017383,117.85107547006824,117.87583544595529,117.8905380868663,117.87475521253312,117.92518085137044,117.86979571844296,117.93249322336928,118.04070387999423,118.07492279719473,118.12938324338364,118.16103236236611,118.25083099690724,118.35782627547333,118.39696689048391,118.51632812726378,118.55265294288199,118.45820406506422,118.36441144911986,118.26897431437351,118.34364480557167,118.22988638998378,118.24258557333411,118.38642879898056,118.4588715750449,118.45572222865748,118.43667110673539,118.45356440226826,118.55223621363439,118.65629071955986,118.62219393658876,118.65792593020903,118.68549437194363,118.79893351880833,118.82406280781042,118.8230608816544,118.83317398232653,118.67749225019556,118.55753083560137,118.61199652274703,118.43818987745169,118.43937286269055,118.38656897949728,118.42520711430392,118.39593761754578,118.40096017583943,118.44092619392185,118.40392179546507,118.44220437871873,118.53361283793552,118.51389009337149,118.5860743395572,118.95602705134532,118.89975939936807,118.97310938995736,119.00736018545349,118.89044943820225,118.86709191069875,118.76270351700562,118.68368292965582,118.62509054034477,118.62734755390679,118.58247138925105,118.56032086180933,118.6024821361414,118.6010305697082,118.64630578967186,118.59347593273321,118.63178294573643,118.68209430141741,118.68552258661576,118.79138210441023,118.80045685866297,118.82819141246205,118.91360666165501,118.95447450572321,118.95498670981162,119.05040655111549,118.8362111352133,118.74295795014172,118.69249898791278,118.5936117936118,118.5218220155397,118.5692303250765,118.63573119334912,118.66751298326601,118.63047805891348,118.66697451585904,118.71968253968254,118.73520249221184,118.8037269947499,118.81711748082358,118.86418577816241,118.92884132798754,118.93676288243606,118.96039432722242,119.03312671183508,119.1342577911033,119.07722252660112,118.97474485383152,118.90447769800767,118.87443403028118,118.82064810009803,118.72449273691493,118.79210549095421,118.76184987753926,118.83662782333477,118.92543493889288,118.97440763745112,118.94355140186916,118.86007993788998,118.86298021624108,118.87211878794855,118.97262247838617,118.96791027563141,119.00374823400513,119.09769683675826,119.13531381719498,119.23527034438959,119.34254494999132,119.24858430602103,119.13764702482443,119.01710043617666,118.965377723831,118.93255276091355,118.80832249674903,118.80376965772433,118.86087584911114,118.80373966822727,118.82699141891307,118.86325503355705,118.8660345176491,118.90615420209382,118.91793611793612,118.99548793891364,119.08063069579055,119.06898946637342,119.14479245064551,119.22876819352412,119.22705020132673,119.16514318773503,119.18135239969895,119.03830563437373,119.01478759115638,119.06430681884017,118.9943209805001,118.93200591252935,118.91002868650575,118.9676034687781,118.87235767649273,118.94642339154146,118.94291098869238,118.93767393320965,118.95693904772952,118.75873630661619,118.82877464870178,118.8627020150915,118.93648679944418,119.1227612589115,119.199246267575,119.20663073088738,118.96109489262075,118.88044547295343,118.71009131892266,118.65917689530686,118.57367585510174,118.52937611819704,118.42329488249,118.65465430890565,118.60507100557696,118.52308974395817,118.45012802439656,118.68682380773781,118.7681686886193,118.73644217156395,118.79658667590748,118.83621387283237,118.87030401109698,118.86404458690693,118.87335374306839,118.97675090252707,119.00999422299249,118.95789412885898,118.84765839424493,118.77630172986397,118.77513151049193,118.64056045067167,118.57557904464853,118.59524428649851,118.52750809061489,118.51225851165208,118.51948915022103,118.48831566480834,118.43925746290202,118.46458056694186,118.58871759339453,118.62714652659528,118.65182747271783,118.7686508968027,118.81222556043448,118.87951807228916,118.90982872656905,118.98956858439044,118.85181978237654,118.7235523465704,118.59595726248916,118.4468201754386,118.45982619741895,118.3576827649876,118.27037015649361,118.21579600196152,118.48630811092457,118.5384103661711,118.59469784672378,118.59845571011307,118.60948968386985,118.67921856486431,118.7362685013876,118.7406519100734,118.79147522034388,118.87662806480492,118.9229368405839,118.95375722543352,118.96147844179863,118.97273936170212,118.8893254369493,118.69331521424854,118.65993577689704,118.56963490134815,118.52083996181992,118.51267287772698,118.49412887552059,118.55888310185185,118.63854619171735,118.55421895283428,118.82889766731063,118.89173370239023,118.8108824716122,118.75822117185923,118.74930803828855,118.75304227464099,118.90073317168918,118.81963569181028,118.84153100103914,118.94788687639021,118.86822870019935,118.75633872040244,118.61775168464587,118.55179599988422,118.46377608613852,118.47666444836666,118.49985521515029,118.5234067207416,118.48569111342835,118.49174582947174,118.55868204474325,118.58836144438648,118.61976568843522,118.68932714617169,118.62719425294016,118.67798279407931,118.82902215520241,118.76297197127634,118.87917149478564,118.79793856220505,118.75182608695653,118.64386696795874,118.58111786852012,118.5644161112721,118.5104848519956,118.51279524706564,118.51114072958016,118.5001737921446,118.52895674595128,118.52239022129532,118.54114308877179,118.53390468469512,118.67708001275103,118.71787669050998,118.74142571850308,118.81314447920288,118.9069115095431,118.82679917949903,118.89561170212765,118.76819219983231,118.77425324581442,118.68745662734213,118.62444733420025,118.59714434360367,118.67040656989185,118.56232126866749,118.54971266857258,118.63090041913571,118.61020908435472,118.74931652709431,118.93699426958851,118.91634269258459,118.89428365730741,118.86408438526716,118.9729823346034,118.9612674022298,119.00887565410969,119.03848268279275,118.89802945687086,118.77153026970714,118.74046287981925,118.63084896919158,118.68054548092267,118.63145070054826,118.66989755941844,118.67735662874391,118.68659057244925,118.67614676233913,118.65935086802531,118.74336771756502,118.73431284299777,118.83179335192933,118.81273963053329,118.89564080209242,118.88613516183392,118.98832277929472,118.63076611620441,118.52851810052957,118.54337436640115,118.43965716933056,118.39637163276525,118.47950522870137,118.42108618790935,118.35226647356988,118.38432760070764,118.39285196251922,118.32526975287156,118.42216220925168,118.33416480552252,118.39752814204479,118.37280777912832,118.62526315789474,118.77390050468637,118.94460641399417,118.81545832371278,118.74952364455223,118.6297419895409,118.58851937536149,118.60074054788973,118.52621072730429,118.41465599445199,118.4558177191765,118.44125726513026,118.49413159111933,118.46671869129166,118.50117048640213,118.52369531295152,118.59118751805836,118.5563221709007,118.63378491579768,118.65220025970278,118.70775491356171,119.07891227459848,119.04177780354865,119.00205904529899,118.86990409410947,118.83872371283539,118.76007193201265,118.7043800910224,118.68461939822599,118.61473629333565,118.66184694735011,118.6949530652451,118.68780954035972,118.65377377609218,118.71951431552104,118.80662647109978,118.81700613354936,118.8726225284428,118.9572577844658,118.91782882935016,118.99863965267728,119.10594876248372,119.1969894340715,119.00348843913972,119.10888863269541,119.04241952681478,118.90200317048566,118.8269319492503,118.74826709796673,118.70743038522579,118.65223665223665,118.6752842056668,118.72601473349704,118.78153276863924,118.7646837784715,118.81966360325993,118.85786978142708,118.88837827682882,118.99112588524353,118.99491329479768,119.04585803093826,119.13437066173069,119.19636195378698,119.28253508898857,119.20832008325866,119.15361698435196,119.08115849777212,119.07354898443377,119.0215837745566,118.89541746224614,118.88482780556922,118.905099354988,118.93512013184144,118.9641348990571,118.92362837486269,118.93470025159779,118.99265620030647,119.04075851303695,119.02021777431187,119.16670523575354,119.16332195940085,119.11228648226827,119.23071137211791,119.2764037143105,119.32751041184636,119.3971936930421,119.46113734465077,119.31268111742204,119.24313135114791,119.18533634363784,119.11963065879357,119.1165141334569,119.08557202408522,119.03499840916322,119.02783001128243,119.05828194215235,119.05969371507976,118.83246329997404,118.79798183652876,118.84742291828906,118.84531741224654,118.92398555956679,118.96141627678622,118.88771858948462,119.0735816883905,119.08252904120673,119.10362260226485,119.17412288307034,119.02513402893872,119.16191929955934,119.2365482819307,119.01951683579335,118.95696845507807,118.89194652190234,118.91107450436391,118.98629463640306,118.92377757857908,118.98903166058922,119.07819287576021,119.18440353674445,119.17289421851466,119.25070243026389,119.25713127334859,119.3113092825294,119.36122443074964,119.42343514983223,119.5509944127609,119.62518454190187,119.5290899617923,119.39425051334702,119.33690118028234,119.23845575911692,119.1346603877156,119.15999768705909,119.11051703707986,119.15287655391732,119.1677553615816,119.15792515532438,119.15784758546947,119.15825051999076,119.22400739756111,119.4801403223936,119.50648335745296,119.57976620002887,119.82765293743863,119.79954915900815,119.69753532318182,119.78534046551974,119.73011100832562,119.63717607589079,119.48846287300486,119.37108573080815,119.33417208966016,119.28320990511456,119.2061163672135,119.20790014769338,119.22540473225405,119.20867247921676,119.19203055820817,119.13886637332098,119.12949994212293,119.1629050925926,119.19365575526034,119.25948542818278,119.28929035987859,119.4117102254638,119.32576108345873,119.41790655937011,119.48937032960667,119.42757523148148,119.36294989005903,119.28087089956281,119.24474877928982,119.16003118052949,119.10021604493734,119.24787555811609,119.1508484325568,119.04011857138745,118.96096199764104,118.9490744739039,118.88651869764229,118.89771418701059,119.06862518757936,119.01638256756367,119.0889831731463,119.11511248447744,119.1605858393275,119.18515200554849,119.17460867556171,119.24822305691997,119.29755745049863,119.35961232460582,119.29146281446313,119.18160233951994,119.02413543626103,118.888410030949,118.90973851098948,118.75773359956014,118.7575257612597,118.69658725793846,118.73788010425717,118.76860869565218,118.77360567869043,118.78550313007187,118.85880885381916,118.57485133652791,118.63276917744916,118.71933423873783,118.66432839698624,118.7880557322079,118.88843238238528,118.93007235890015,118.93110236220473,118.8035300925926,118.61392350169129,118.70741244967124,118.61141666184218,118.55344837570213,118.59724153917477,118.66060764190874,118.60687100228648,118.67513496348047,118.77521305792287,118.78982217724447,118.68027053586913,118.73806011166073,118.82370627348945,118.82882830794138,118.86168981481481,118.81055190576795,118.87219178479288,118.79729964652026,118.71341198295603,118.31824754193175,118.1077309759057,117.99763067410211,117.89845194085028,117.89733136727672,117.85964557254778,117.86998380941367,117.83762313314267,117.80873054825764,117.84420833814528,117.91327326286606,117.9221506742514,117.96263787030087,117.95654433632663,117.97996651463541,118.03538137427492,118.01959313230414,118.0401718768024,118.10072087658592,118.07531658349438,118.19266718754521,118.10453415071424,118.06712962962963,118.0377827923393,117.90033827738746,117.86537293576654,117.96544638981334,117.87998728801317,117.96602334450479,118.00245664739884,117.98556081783528,117.92268621396208,118.00984524771914,118.03100752833944,118.14678899082568,118.15091454618891,118.22819469690413,118.26306675517331,118.29354410661743,118.33981310567604,118.12494597008904,118.04802235473741,117.94923112365375,117.9293439077145,117.80789951312263,117.82632867636468,117.84734538753887,117.80861230246683,117.80297536832413,117.75006472026463,117.7604957441914,117.91197122302158,117.88254077845862,117.94248309595741,117.95688440187534,118.07777106179662,118.04883660732261,118.13216720849276,118.19279465930019,118.27045925414365,118.31141082417898,118.29171454837969,118.35143660033263,118.34484834585173,118.17047995871323,118.02634445591102,117.98315928391095,117.97013296573907,117.95454676052292,117.91321957945536,117.87393413912893,117.91602965687683,117.89073142692915,117.95590012082158,118.02111462223499,118.02996351518286,118.06892392521755,118.08452281800166,118.14233618560846,118.24633018298813,118.1728557910131,118.050005728033,118.05858603212782,117.9566674304044,117.80806779466918,117.67024474023187,117.98227113384289,117.92320515031328,117.93192407247628,117.84689187636447,117.84629970121811,117.90786826829128,117.90055486875772,117.88445951771908,117.9328139374425,117.97872768562969,118.05656687659966,118.20921332796225,118.19371727748691,117.97108848415316,118.0657154340836,118.10211874138723,118.13378867014866,118.2502512562814,118.30664713317248,118.30220254183679,118.1568464014716,118.19009690312564,118.0794732453492,118.0581742929409,118.07487477690138,118.12393790143726,118.11580189357967,118.10770293212097,118.12920313219715,118.16674342294628,118.18797512093988,118.23510782253189,118.31619129933736,118.3545339324807,118.42719257807998,118.48643740451413,118.47568253236082,118.56270903010034,118.58737892066421,118.71002913265453,118.67116844140479,118.56441700089448,118.45178308876524,118.4488713350823,118.45798331456945,118.40467599942272,118.46297098310957,118.40501007774259,118.46164024969076,118.5272884283247,118.4536355269213,118.48492874622139,118.48445237821029,118.58652488400911,118.59574284232963,118.62547194281926,118.67960353819115,118.69614642990761,118.84839164055538,118.92157934088686,118.74128065786826,118.61086337351477,118.57570265527458,118.52231718898386,118.49120483662013,118.4152045101536,118.32155182330611,118.38163194844056,118.32600511538351,118.26403816311283,118.28696201804287,118.25068221641341,118.29258482489155,118.35428883523053,118.33273024898767,118.34984626878538,118.4117934423403,118.38653459661212,118.4432669940553,118.48415366491395,118.47705577918344,118.3351164797239,118.25655323062773,118.21383159287707,118.16313382610946,118.06889424733035,118.07456517995523,118.09249583740024,118.03507514053,117.94854797979798,117.95301474384716,118.00680252583237,118.0230956821116,118.04860991688163,118.06448836742305,118.02383407814827,118.06499053953328,118.1389502049709,118.20201904324882,118.24328666513657,118.2075509560531,118.11485188265321,117.95947030497592,117.95017783386875,117.80479344055503,117.73471903669724,117.99936723423838,117.94896139018356,117.90904383845357,117.93020983041104,117.93041852437797,117.8660291203584,117.95143538607431,118.02180595857155,118.07634880983146,118.12352670614615,117.8865303082388,117.9317029867415,117.89958506224066,117.96369154998139,118.07157593123209,118.04158313763675,117.95518969219756,117.8152124126875,117.77343570937428,117.67964946445959,117.65515168860904,117.56834511779692,117.56731677979208,117.57030020318805,117.53122586182235,117.56032784076305,117.9927511317403,117.91236611489776,117.89008281039571,117.83347661623108,117.79958754618623,117.86097792069828,117.8858144412838,117.96148646705208,117.71938277978546,117.76578592535215,117.88752403639181,117.97166154641248,117.93424114453158,117.74463315803087,117.73200057529124,117.69717985611511,117.55878631003739,117.55246345113387,117.50076274357424,117.48109352517986,117.54380108207667,117.42680857183949,117.43836128772405,117.49981279341033,117.52045487260688,117.54637898254306,117.61093358666551,117.67347585571049,117.80047862064988,117.84872786015116,117.83812379277539,117.98055731840996,117.99452418006801,118.056333967595,117.95423103527784,117.81392937381186,117.79354559861692,117.66958701979884,117.60513634396192,117.64867752367752,117.61589958158996,117.57704511364948,117.53408336939276,117.56330794090489,117.58589417744916,117.57287273987637,117.56569911708696,117.6237989439363,117.64675152249833,117.69913113760356,117.72423044745118,117.79376443418013,117.88297258297258,117.92106782106782,117.7257261291344,117.69377137765514,117.79842465359627,117.67161905856659,117.60823170731707,117.44807061935707,117.4047988505747,117.39796329325125,117.42783164072614,117.45716506419483,117.50409009735584,117.48311180159963,117.58716996343324,117.54003740468997,117.64982437957045,117.6158138464636,117.709911361805,117.7549358199505,117.82451494041108,117.89902214552775,117.99127906976744,117.85549964054637,117.82734185966125,117.60173023309287,117.63820354109687,117.53562589928057,117.5212361878453,117.4772308578008,117.55445231105739,117.51304698063811,117.4654279797515,117.4627882901018,117.60017271157167,117.61397048246498,117.64898910011216,117.67004886461626,117.72045761591308,117.73662575099894,117.74441124073329,117.83214953271028,117.84518780354628,118.2775517271232,118.33936755930934,118.29101292108906,118.19187840682952,118.16280479007358,118.05648204153346,118.04209770114943,118.05535596240622,117.99437218250208,117.98583577544102,117.95343623350867,117.92232953892147,117.9477408035894,117.92792041631925,117.96461573781782,118.03675414919887,118.09816656129662,118.12383989885929,118.17518101367659,118.25791061934186,118.31790860199591,118.32326223193239,118.45398596571954,118.46041055718474,118.53726020305444,118.57723507076285,118.50677990499496,118.40457442819647,118.27482259274217,118.20857851621092,118.19528386296072,118.11417686446548,118.0625847592117,118.09760180081383,118.12766572270705,118.09599006899737,118.14107008724794,118.18838862559242,117.9380834389766,117.9947873167641,118.08566408387821,118.34426655877934,118.38084774186086,118.45722056653453,118.45493475304534,118.25834534447968,118.38129350934457,118.4298916967509,118.44701499003553,118.30332150174588,118.32046019540961,118.16920322291853,118.14440495796134,118.23760032334431,118.18640984174657,118.24484312705842,118.18248470153561,118.29523176126999,118.30318626033655,118.32905575305645,118.35562178114692,118.34864083285136,118.43147633923407,118.45123221103783,118.53049768518518,118.48585873176368,118.60230364067836,118.60793728847878,118.59422426502472,118.65069583080172,118.49916146194772,118.49436738003533,118.3910325064405,118.31401609448272,118.22278473688779,118.19510218259711,118.18970158325855,118.21611838294915,118.11693793183198,118.19031221968228,118.14848879248011,118.20315935655596,118.21974715769376,118.25136627822918,118.246265422289,118.33328513591671,118.388117551776,118.48477839775651,118.40016156487118,118.54875871205576,118.63678756476683,118.45835610920912,118.33961449942463,118.1364825623185,118.15639851378208,117.97115080392327,117.94166714606224,117.9732438581838,117.93224971231301,117.92362129973246,117.94844114344934,117.9132686829156,117.95009210223348,117.956377866659,117.9921153348105,118.03889416299876,118.0487861005638,118.0877622075792,118.14200638683506,118.19625550027321,118.28443191299594,118.20373885533506,118.07217798729484,117.98999482490943,117.89943363137165,117.85466839303697,117.7705469603727,117.74161633592178,118.06176224422062,117.95007210845111,118.01978941295255,117.9887449135667,118.00479131790105,117.99284787310742,118.00943096934213,118.00830234368243,118.09423842205433,118.1705770450222,118.18223490745545,118.2056236481615,118.24398120116484,118.36510957324106,118.40219146482123,118.34792633368879,118.32177147305596,118.15804332795575,118.05763597725576,118.2189367816092,118.18701336014941,118.00904548587181,117.94851906116234,118.01098616663312,117.96969609844456,117.95800494736237,117.92806376427934,118.01289802498992,117.98791227767225,118.05680050694164,118.08802026365782,118.0603140819144,118.0738855335059,118.15243165467626,118.26420421804771,118.29337557603687,118.38379094759284,118.38953220417099,118.44327610048398,118.47985358542772,118.30501585471318,118.24845812438757,118.13516784325026,118.0556740860339,118.0533314104413,117.93915275254491,118.02285714285715,117.97948466399285,117.99303910808156,117.99849815157117,117.99959552769191,118.05721551176097,118.0468768040642,118.06945046059661,118.21045026299058,118.22093729220272,118.24579406833556,118.36753720539696,118.38206960395753,118.4565607454998,118.51839416480941,118.58107091172214,118.36685143484034,118.2189951545916,118.15301319626924,118.18176565749943,118.05473872728848,118.03786937808718,118.00725349670559,118.0262420161267,118.03034682080924,118.0264906401664,117.97278636429294,118.07026120158514,118.07873810831911,118.11924722479186,118.14020177492556,118.30490275526742,118.27562266770806,118.26027199074075,118.30448615972001,118.39039847208959,118.45852261219294,118.55786916536526,118.48929893567792,118.37062734894478,118.26420988689942,118.24087781183138,118.16417177204947,118.14785699835265,118.11436831454178,118.17049398426654,118.15253894396116,118.14648245563328,118.14714298101102,118.21652314627521,118.25374859156965,118.16055045871559,118.23294782683932,118.31185619066855,118.29853199896174,118.34510211145725,118.35544600126852,118.40158862635623,118.55659916702571,118.59774274144912,118.52494477436383,118.45497371671502,118.28737942122187,118.11971184202973,118.01703518884969,117.96484229256953,117.91774842044802,117.85608474722247,117.92818759159746,117.89727306686589,117.88092708004251,117.91353945175564,117.95551851958277,117.9361604321094,118.04437733678458,118.06251256858859,118.04154464542061,118.16925952552121,118.15451568424682,118.15791742091199,118.20470540920974,118.22220625431133,118.51652213995564,118.361636578273,118.34110047294959,118.27365088501942,118.18409005844586,118.07990558705852,118.08426691242116,118.10062566675316,117.97938441162074,117.9739167986181,118.00089303719068,118.00815115642732,117.95108680005758,117.9655033518428,117.98625370258534,118.10406003795502,118.10521030584725,118.27464485578993,118.26254482857553,118.32554870176445,118.28985424078962,118.41457322500072,118.39717227336602,118.48060215053763,118.58323050876639,118.50017206767996,118.36120036722515,118.23323581712843,118.22392083751613,118.11730785781909,118.10515895787903,117.97058317564081,117.93758060355945,118.02705649441941,117.9496186270574,117.96266880752358,117.97164808072701,118.03134409681397,118.03204521330005,118.07938147287489,118.11443742824339,118.23253008587758,118.25017233455883,118.2639287765652,118.26986269891422,118.3844914864243,118.36950399448244,118.44295610681537,118.53647315909025,118.55679332181923,118.46525479814692,118.37472283813747,118.26384411696984,118.16110375784082,118.05848660161759,118.07946523756014,118.02275607788916,118.07871904995244,118.08463534159701,118.04165104271829,117.75279510246314,117.76757952814737,117.82046637338624,117.83170366961923,117.98279334752834,117.96709618039577,117.99933885247786,118.0002011494253,118.05081528772324,118.13726336382992,118.18476475842,118.02963624319577,117.99244978530878,117.92407690312167,117.8724360451717,117.8879300392519,117.84594298245614,117.78779136856681,117.87664269416284,117.8391325690855,117.91030197948274,117.85496227342372,117.92556269166232,117.9505090824945,118.02621224395324,118.05677348449792,118.10616755380698,118.1536081878108,118.20931308749095,118.13953085278484,118.26856399884427,118.36857778934282,118.24326196110117,118.15220532978785,118.01254552812627,118.00534883048545,117.98319546480013,117.93312507231285,117.84094916038036,117.81965839137597,117.91008379081191,117.8652697203221,117.9404851285013,117.88850395519371,117.8926168683048,117.92290373791312,117.97617193134285,118.01626297577855,118.13354297089116,118.20464189832857,118.11347906332911,118.11672669644143,118.14030641631149,118.2197827527588,118.15452424163858,117.98223233312216,117.88692172611337,118.07784742482451,118.10552618655574,118.0040157161842,117.94577269577269,117.92203291943402,117.9416368256902,117.86093402948049,117.91716198280339,117.91273734633809,117.97001443001443,117.93357550596782,117.98399976936605,118.01314992646422,118.02368944349982,118.11876477711782,118.07701838298853,118.0960640811387,118.23370974246701,118.26408633093526,118.3910878263623,118.34471146927615,118.1746542851393,118.12040153018667,118.05747060345571,117.9570686040835,117.9381899724011,117.9585538426139,117.89470507071404,117.88163793103448,117.93593466946545,117.95308861996608,117.91639132308576,118.00037359542489,118.04198495204182,118.12860839562967,118.17526455026454,118.25457159286947,118.2547251105877,118.2660785102592,118.30706467089954,118.32717397551583,118.34165469692617,118.48554514627277,118.60308922510498,118.54625132906118,118.46406505934078,118.31760075838098,118.31308747017735,118.2738879144262,118.15122862480241,118.06403770981835,118.02445332030689,117.9954894130491,118.00818871394092,118.03641537090795,118.04842698567896,118.09640978470206,118.14913012221423,118.18570812365205,118.20071293048927,118.29415150817407,118.40557266630206,118.40889732965009,118.51150187373882,118.49216770329417,118.5755263082107,118.61323690428168,118.75263916931064,118.79887510816268,118.8282111216922,118.77193488801663,118.62800092336103,118.50833381394544,118.56957928802589,118.47828723219958,118.4625520110957,118.51094151996068,118.4218704869736,118.50602548911944,118.46952980591497,118.50748728029602,118.50489870234965,118.61788359176117,118.60026015320133,118.41687330603771,118.43079849004408,118.46824641817291,118.56550350679713,118.59657320872275,118.62412350310201,118.63313046237272,118.72579900773047,118.6879847755255,118.58913476241308,118.46101049717383,118.64419183153997,118.55862029086073,118.49451916124367,118.40773947246645,118.3983398889403,118.38187281500102,118.41452423594662,118.31286254364953,118.34636597268343,118.3983146229546,118.46275121275121,118.46678023850085,118.50422714026027,118.58205638761434,118.64832943486672,118.66744649510441,118.63571861209657,118.72617089429487,118.77871407133787,118.8224848659556,118.81893217893217,118.68738468634686,118.57866658976873,118.52522280868737,118.40512938868534,118.33530429766368,118.2963411469596,118.23527545428324,118.27167012927055,118.25166460092814,118.19209153529124,118.15963794644144,118.16792463701314,118.244475177918,118.33667820069203,118.33909685599839,118.30681065514759,118.32908185299283,118.43079315707621,118.47995160732803,118.54681691115017,118.54624294110867,118.55928495351047,118.68334341426885,118.66026379449372,118.476382372413,118.3544766454658,118.2678720525149,118.20118598693111,118.09566444035006,118.0744472593275,118.0034548281223,118.03322297394558,117.9549730989441,118.012951876583,117.98210844239897,117.98576195133177,118.08721181245143,118.06034284399448,118.11493889288282,118.18599769982748,118.23639397077436,118.26440287769785,118.35837867403633,118.3108516206966,118.32366816246692,118.34798492650232,118.35525747675656,118.3652429196408,118.26957597376446,118.11161626334417,118.02207575408704,117.89191985972577,117.89908441782794,117.80118002590301,117.77554429213224,117.71189366476783,117.72963101435104,117.74421279654925,117.71139415197953,117.77209797657082,117.68516919889503,117.76492086330936,117.7661489790049,117.76042925369698,117.73727837900068,117.68728047446307,117.70236860304287,117.83007384331371,117.82437813816587,117.82940496822646,117.98571345942507,117.97158138190228,118.01924466148468,118.01550387596899,117.88332465428455,117.74706460755394,117.97472620050547,117.92660950443249,117.87490564942229,117.92686119919705,117.91783853029376,117.90839761315675,118.00824808370493,117.95572052401747,118.01026328833426,118.07007260957046,118.03283703854783,118.17678800606697,118.23234444736151,118.24442240951909,118.23346938775511,118.30766985757647,118.25891450248031,118.36687116564417,118.4140447142607,118.54962724747844,118.54875091307524,118.48888433861815,118.26859697306142,118.15021170973864,118.19213131991705,118.07498906227212,118.05943831377357,117.68567200557104,117.70433975400324,117.72176436448056,117.80086517245384,117.76030419133868,117.81478361893697,117.85773219836727,117.91260020913211,117.99056549001394,118.01308004640372,118.19334127422213,118.19279907084785,118.27553568317751,118.3487785063541,118.40012757690857,118.45936385514221,118.36141438128058,118.2670431508833,118.1372605751982,118.18099626184474,118.13758651646347,118.13622264096246,118.05542845559063,118.1079844826588,118.1095850802371,118.26211683053788,118.31259949636748,118.35984135714907,118.33443277493274,118.33808642332389,118.45832247604157,118.36361270924283,118.44613694829032,118.39990183623975,118.54605567105567,118.57548558399954,118.62328134026575,118.7617974932132,118.72229766823659,118.66673406898146,118.55106689734717,118.61166278099185,118.66386506246042,118.59904410917885,118.44252476387929,118.48319594166138,118.4182478805006,118.4368257081867,118.35619717903603,118.3416582552271,118.31926060501196,118.40607320170881,118.33047619047619,118.10867933244788,118.00268274389892,118.1317119667254,118.12929117944276,118.25580924855491,118.33182080924855,118.34605392298366,118.4122452514289,118.58786985668054,118.59210906360119,118.47487806989697,118.43137481242064,118.47371156344738,118.48267398209644,118.4009582359223,118.29474018109464,118.42728873747727,118.28898182867032,118.30481052085136,118.31515116514106,118.26687267161464,118.29297303539465,118.36419539234367,118.45735918850967,118.39182012353518,118.3730985712224,118.44302993562542,118.50145890509894,118.55497503103079,118.63362330568481,118.63104384495408,118.7115846078233,118.75095375722543,118.78844819611471,118.70032949881497,118.62185846082656,118.5505224463805,118.37619983809414,118.29582105080631,118.34828045391384,118.28251744202878,118.23096299727835,118.2557540314409,118.21423815176168,118.25622899524858,118.24176969626777,118.3599026115185,118.38236828377673,118.40948575399582,118.44112625517262,118.4900075088084,118.69607418320479,118.7468288595452,118.81937816341286,118.77110732144405,118.82461974437568,118.81637968456084,118.71794277771343,118.65229618462251,118.27820612781196,118.24826629680999,118.1389266206179,118.13955977207648,118.11750426263619,118.1803444489395,118.1345704308678,118.18515636258827,118.20184278721567,118.20353472841887,118.2536823935558,118.40670793148122,118.42008515045164,118.40188608723153,118.72943248080365,118.78074681133491,118.86064959040037,118.90687278285698,118.98067159012231,118.97963304869606,118.95492169699766,118.78086891342578,118.7463830768344,118.69597417941846,118.59813784555072,118.5587286035387,118.58418352642803,118.59017669270457,118.55208453299551,118.58079193664507,118.54723389557309,118.57832574753702,118.60511461813155,118.58237680158798,118.69889470957342,118.65539257981018,118.70470957162173,118.77354634427174,118.75356772931292,118.81024711602083,118.88730003452642,119.00428912749359,119.05019149365047,118.89417623859285,118.83487347784782,118.6701285997871,118.60669082959383,118.56575653825129,118.4578746155394,118.478833544231,118.50833117499783,118.50402970468022,118.48125161623997,118.5423045930701,118.4786283020495,118.51256396986948,118.59052604331444,118.63241595490754,118.62937103123294,118.74276841681522,118.7156527486422,118.80319852729679,118.864345323741,118.8573480821721,118.98596370121092,119.01153060931075,119.0330497758363,118.96309825126554,118.85988892405975,118.78920722586584,118.67152340719028,118.6469708302169,118.53756327657617,118.47749949679385,118.53015863875854,118.59714943852578,118.53419258321586,118.56078262120558,118.5803155046347,118.60440287769784,118.66349060134144,118.7368769616171,118.76136069300946,118.84697990441643,118.88488566326825,118.95803772278941,119.03552889606644,119.0358306188925,119.0655841721224,119.12987200184502,119.2180633254513,119.2233561071233,119.13663503418039,119.06504627627368,119.06182027982115,119.0200993415733,118.97270127394054,118.93109321324442,118.89047784133588,118.9027067625733,118.92288578775533,118.92004507758546,118.95805854448687,118.94647089427134,118.97193317146491,118.92635591751863,119.0086117211883,118.9770456776578,119.06842622571693,119.13563244994792,119.15840296047877,119.23784315427116,