0.00023785544029657723,0.010908239759196388,0.019223177363379983,0.02363829948899208,0.02388186831158944,0.020887402596930407,0.016267146597719693,0.011609648152024258,0.007936260825904748,0.0055228972867135285,0.004077979398921407,0.003098278718058443,0.0021847481837425674,0.0011837724533998583,0.00015013893804850277,-0.0007790996768462788,-0.0014977156249536142,-0.0019776490975439032,-0.002259230445558324,-0.0024233596657388893,-0.002574182538405783,-0.0028301522497467847,-0.0033024688325360967,-0.004050637637172499,-0.005034591504262881,-0.006100928458447346,-0.007025352682891239,-0.007594057725051358,-0.0076776870521025956,-0.007258327438676142,-0.00640529102945449,-0.005227919047547295,-0.0038390006467870653,-0.0023427576695540936,-0.0008378638346359733,0.0005823274588724616,0.0018406359185602485,0.0028909696682796974,0.003723553859988819,0.004353528900989268,0.004799606499295319,0.005068310755522731,0.005155660878423177,0.005063668523148264,0.00481493713333092,0.004448261478467171,0.003994529906388058,0.003452687251272309,0.002791065693707081,0.0019823304854766606,0.0010525425478447514,0.00010876388538592907,-0.000680698104667856,-0.0011497999775388337,-0.0012098920085508516,-0.0008960187253884712,-0.0003599296016540852,0.00018599402400642194,0.0005456661360184953,0.000601508735594984,0.00033734354156778057,-0.00018118714436611387,-0.0008519085811454245,-0.0015814289218068728,-0.0023095025279070624,-0.0030060123618915447,-0.003650607432293559,-0.004213942544800054,-0.004654989354344498,-0.004934422651729995,-0.00503111417671764,-0.004947630407261615,-0.0047015057312018585,-0.004311526563536092,-0.003790214147173938,-0.00314259726120832,-0.0023580404745241483,-0.0013825923682392553,-8.149897391839184e-05,0.001766660839408964,0.00439078260669919,0.007846042717251773,0.011797029898630063,0.015411901251818466,0.017515544682761924,0.01702882396717295,0.01352352589532615,0.00758008614145505,0.0006816361026788413,-0.005369566377080635,-0.009220964079487914,-0.010496732404585561,-0.009803678654815387,-0.008261264742693886,-0.006870672350320405,-0.006083425643044,-0.005756662731619995,-0.005432396256610087,-0.004713058590507234,-0.003503312801612273,-0.0020157520923431834,-0.000595002252456827,0.0004949454551620809,0.0011882818992914167,0.0015936433036456438,0.0018763292392192064,0.0021393492697357177,0.0023768891125271023,0.002513050995334741,0.002480960616197312,0.0022788104224820056,0.0019664022148102897,0.0016137210617454371,0.001246629652819387,0.0008328292305803367,0.00031901941056484756,-0.0003078897608440427,-0.0009807245703117324,-0.0015647349707628984,-0.001918301087156126,-0.001962789945104045,-0.0017156917446809125,-0.001267525781730359,-0.0007230533450738267,-0.0001500835729819393,0.0004316909530727858,0.0010223884149494922,0.0016027836013268572,0.0021169594679400876,0.0024907679516109225,0.002674446958124815,0.002680995080528808,0.002591639696331874,0.002515560321897243,0.0025175312411680967,0.002553328493415898,0.0024616208879056187,0.002038093667395633,0.0011663079526767952,-7.110317918276009e-05,-0.0013885004697983,-0.0024377502821074162,-0.003035612900029504,-0.0033368573939991254,-0.0038052750703307207,-0.004935752377443895,-0.0068492217273987,-0.009014039537896836,-0.01033253385909656,-0.00963877422506464,-0.006377702414362012,-0.0010603684893336941,0.004831549788251529,0.009495700982817577,0.011654026805103933,0.011096380363688804,0.008626338435820623,0.005501402546512951,0.0027543427439562836,0.000795741546543445,-0.0005379783368429647,-0.0016217071355288624,-0.002656741793254591,-0.003511547889937301,-0.003847860435161124,-0.0033992261505688993,-0.002191503038925166,-0.0005640804449558567,0.0009993370204423608,0.002101288057261147,0.002577205394888517,0.0024922443582778633,0.0020271081202726214,0.0013503695491003422,0.0005603335299550725,-0.00028487888028508324,-0.001095922609461418,-0.0017120676747032684,-0.0019386969948033978,-0.001650579942654046,-0.0008965843282455902,7.028438813107187e-05,0.000874096425237334,0.0011772561055810398,0.000838554806446208,-1.717326440573222e-05,-0.0010547577877026652,-0.001879947753119911,-0.002209603012848246,-0.0019795001325345566,-0.0013441267429086957,-0.000578556413075226,6.05595934845167e-05,0.00044328589924889743,0.0005956680890780025,0.0006471568052410087,0.000735035313467353,0.0009215660453804194,0.0011655995419484902,0.0013557304744147092,0.0013775206138748235,0.0011727105520190845,0.0007602785510660891,0.0002170378093013018,-0.0003604994182876294,-0.000885992572816463,-0.0012919380431635871,-0.001524444090111969,-0.0015415987988958045,-0.001325927466770781,-0.0009042886277175382,-0.0003563759624275872,0.00020309322210273258,0.0006654413638345169,0.0009710526023001152,0.001128958152177928,0.001200976579076354,0.0012596147354655262,0.0013437024317629878,0.0014356216004440528,0.001470697406379943,0.0013716809466849202,0.0010890340072181575,0.0006264603322300331,4.027994950067532e-05,-0.0005844878825832576,-0.0011664908869002018,-0.0016508040245054546,-0.0020115991753651367,-0.002237972809373283,-0.0023169963666596614,-0.0022285637280442146,-0.0019566143316985603,-0.0015081704736801473,-0.0009249880843638964,-0.0002773787284960079,0.0003575193261935038,0.000919484722080964,0.0013762565134549762,0.0017171330469282484,0.001937688704866116,0.0020301107554214367,0.0019874548381444137,0.0018170275279296914,0.0015490811395901573,0.0012295500946066676,0.0008977556680859707,0.0005626783506896464,0.000195429586939649,-0.0002523583521459687,-0.0008104941916483618,-0.0014534443869713334,-0.002088524233300735,-0.0025798703824404237,-0.002798060428282833,-0.002670710004620205,-0.002210266745880182,-0.0015084626724538653,-0.0007026392569602696,7.020949175474012e-05,0.0007129203641571165,0.0011868599747617474,0.0015053207549670792,0.001708499653076118,0.0018349465079101047,0.0019044647364943974,0.0019187679098208372,0.0018737932067429406,0.0017701157474360137,0.0016111286744465796,0.0013903767498587313,0.001080757283282567,0.0006399271971496705,3.5644355498196025e-05,-0.000720904372931683,-0.0015544308708180321,-0.0023328191253749225,-0.002902187544691792,-0.003135143625450196,-0.002972626610806709,-0.0024442040426574402,-0.001660451304327511,-0.0007800810200796741,3.7346169050961114e-05,0.0006764158708340486,0.0010916166506556215,0.0013047406236520373,0.0013781728280956133,0.001379796976688862,0.0013572860545477369,0.0013305818067717828,0.0012981256369300194,0.0012451326830998572,0.0011460642755125798,0.0009640362413032884,0.0006571378664992356,0.0001984048774099242,-0.0003959339618156392,-0.001047231966084393,-0.0016229784234274506,-0.0019787483731933944,-0.002017606976683295,-0.00173542887943374,-0.0012241084294995878,-0.0006281048938802836,-7.866588945414153e-05,0.00035602365150591553,0.0006782669719242175,0.0009283893581715013,0.0011397400589999353,0.0013118262297172883,0.0014145969876890319,0.0014142315485452747,0.0012993452616752292,0.0010908413519559383,0.0008317618973914633,0.0005652444470342907,0.0003131997359772008,6.610939927029783e-05,-0.00021099204843489836,-0.0005574413745247592,-0.0009884113737053104,-0.0014719021854538287,-0.0019244812819690716,-0.002231567723976327,-0.0022861354109867437,-0.002030597264181922,-0.0014851253712908137,-0.0007505961672032463,1.7733924747233027e-05,0.000660048952465052,0.0010685906775067357,0.0012265557536435257,0.0012077600103338022,0.0011330460636201974,0.0011042211868248907,0.001152420075561073,0.0012313847732879598,0.0012579682127025313,0.0011703908651961692,0.0009633356362733758,0.0006780326701004665,0.00036091634293265837,2.7854647345120116e-05,-0.00033632322691758273,-0.0007440826696201892,-0.001166607231383608,-0.0015234686476919114,-0.001711741508583766,-0.0016567692523756544,-0.0013524277856748063,-0.0008675662635032032,-0.00031803981090451486,0.00017727940819149202,0.0005343103040629262,0.000722486765809673,0.0007634784222476989,0.0007154555171714969,0.0006491613769447242,0.0006215903263133641,0.0006541332441247527,0.0007230094944491972,0.0007675369768891917,0.000715437820730359,0.0005163709210773141,0.00016942520783737335,-0.0002690150846941262,-0.0007027993447566339,-0.0010324542859602862,-0.001193574446002885,-0.0011781174705558983,-0.0010282195877083836,-0.0008070717954795163,-0.0005640162405746399,-0.00031404222808930054,-4.331266881506631e-05,0.00026344004646311215,0.0005921131941083466,0.0008873069124055444,0.0010709541891786244,0.001083278975782962,0.0009212537765453537,0.0006485040565995083,0.0003669867503183378,0.00016465468918742482,6.9088904908483e-05,3.4516866168444484e-05,-2.934032401794305e-05,-0.00020168492571492116,-0.0004982441926292186,-0.0008508975141569143,-0.0011321968460408797,-0.0012144391380558143,-0.0010339793492518006,-0.0006272637732502898,-0.0001188498243080956,0.0003336207576074982,0.0006102734444846983,0.0006803116381146541,0.0006084216487805526,0.0005138820206989172,0.0005039554728937599,0.0006154362712779021,0.0007929323785257928,0.0009136447853597303,0.0008464475198725228,0.0005179962075164848,-4.4146449452643404e-05,-0.0007114489929524404,-0.0012988251846132684,-0.0016349332783262866,-0.0016275090305404552,-0.0012950038332429172,-0.0007518928305774694,-0.00015685033413481372,0.0003506300100194716,0.0006962248702626335,0.0008807263618490556,0.0009538450668296449,0.000969787002227801,0.0009508131874117685,0.0008784075363361184,0.0007137768771268023,0.00043184401609163597,4.695052194372026e-05,-0.0003837608662230443,-0.0007790818128612291,-0.0010629847252188085,-0.0011893959647570047,-0.0011520769364887827,-0.0009780015448601167,-0.0007105586494509041,-0.0003921200228555127,-5.361223773193939e-05,0.00028577981331448103,0.0006103942828124905,0.0008971603894257559,0.0011103599783038247,0.0012089459545725572,0.0011659870322738499,0.0009897897142844923,0.0007308109703337307,0.0004638849509309612,0.0002506686120611755,0.00010312593939825902,-2.7025424620854828e-05,-0.00022131306536404252,-0.0005419327402373196,-0.000983287124103811,-0.0014565959491374362,-0.0018183153272820116,-0.0019298221973125527,-0.0017203284417241338,-0.0012230306652082925,-0.0005656948039269867,8.243092094876634e-05,0.0005829454684886899,0.0008829426897406095,0.0010226096602105488,0.0010928369962261233,0.0011701420344821481,0.001270097510992779,0.0013471464056490133,0.001336005686255705,0.001200958392318365,0.0009562134227439237,0.000645642182124783,0.0003031256796048466,-7.096696514625558e-05,-0.0004963284992679475,-0.0009722484747899045,-0.0014429665318912502,-0.0017998360316330115,-0.001926055262246568,-0.0017587744040542912,-0.0013287429364184596,-0.0007504637035104546,-0.0001678282231672235,0.00031096683201785997,0.0006501466789210642,0.0008769942424244794,0.0010401153265990701,0.0011676102595319406,0.0012514388417985643,0.001261381318114376,0.001171284831023144,0.0009762226929284578,0.0006913429017380195,0.00033921972238547303,-6.001519854496439e-05,-0.0004862960300022457,-0.0009074927128917185,-0.0012701603143574437,-0.0015063451461403477,-0.00155870451915637,-0.0014107803344210008,-0.0011015493031814002,-0.0007110978995928471,-0.000323420633308089,1.081288636305014e-05,0.000287462349721463,0.0005306647313264714,0.0007584247254335574,0.0009588507839179915,0.0010949392080154973,0.0011331664351230122,0.0010722874675741405,0.0009482344732990031,0.000809164404022125,0.0006777837564168426,0.0005291750102103349,0.00030343794773045167,-5.080754853378124e-05,-0.0005282635823933928,-0.0010461465984993783,-0.001467151123793393,-0.0016557949440783436,-0.0015380367358153485,-0.0011337148035050508,-0.0005480562175943732,7.0249403107538e-05,0.0005829334048519972,0.0009046435951882762,0.0010193387280864356,0.000969297651035556,0.000826464010959164,0.0006597091588096255,0.0005091185464893279,0.00037405547130473036,0.00021849142572073527,-6.348318074190888e-06,-0.0003282763134993022,-0.0007236851332727065,-0.0011083937131493482,-0.001361249556587812,-0.0013753297683899647,-0.0011133128841095438,-0.0006358118016513408,-8.226511126994875e-05,0.0003898809791543032,0.0006758510190790785,0.0007644242911856373,0.0007271288895949169,0.0006659709209250247,0.000654053707064638,0.000703527514510005,0.0007737904395672552,0.0008067849619529396,0.0007627236137256981,0.0006346460900373276,0.000437772360583612,0.00018728521211822477,-0.00011523572961075448,-0.00047465081922303307,-0.0008790903518472306,-0.0012791082247247832,-0.0015881396325910643,-0.0017098708964295168,-0.0015795927730582067,-0.0011960371717070692,-0.0006253266526106815,2.436174374932155e-05,0.00064215055892699,0.0011468424518088667,0.0014985703808126775,0.0016899664178768562,0.001728669751155792,0.001625445960894086,0.0013948685542219097,0.0010638924657341003,0.000675929140382174,0.0002802759714918895,-9.125712732857582e-05,-0.0004448811996217894,-0.0008228963885517826,-0.0012716254683903363,-0.0017931661944500916,-0.002310933540058631,-0.002676606724012431,-0.0027244980921959146,-0.002350366030783442,-0.0015732001233578388,-0.0005438261640313908,0.0005078164824293095,0.0013610142961350152,0.0018841010027308195,0.0020689507672273033,0.0020096485581420007,0.0018431668801304189,0.001684871239771986,0.0015878601525895822,0.0015380498926851512,0.0014778985797881425,0.001340517683945536,0.0010763881220668453,0.0006644335055393837,0.00011094785193559034,-0.0005537781173709318,-0.0012740325860492758,-0.0019643774375683117,-0.0025123517140793255,-0.0027982114336406903,-0.00273232373948234,-0.0022968512458469686,-0.001569135589909618,-0.0007078424513139695,9.958191025124204e-05,0.0007068957069074237,0.0010615878156548706,0.001211269543685613,0.0012603000269238891,0.0013024449338081285,0.0013696622790440277,0.0014255967362909723,0.001402384751428702,0.0012517485285620325,0.000974961677584233,0.0006144204457117103,0.0002183258722068134,-0.00019140902745550632,-0.0006222415225894109,-0.001082498252661203,-0.001543582686263839,-0.001923841324594613,-0.0021110663444214263,-0.0020135528461773717,-0.0016090564515984992,-0.0009621197639947383,-0.00020140289968984093,0.0005271377180925492,0.0011054877811062704,0.0014695326525123453,0.001613350321897665,0.0015788594854803974,0.0014373229017736306,0.0012651802497830335,0.001117134581531433,0.0010047496667050496,0.0008919076242192438,0.0007131647743796092,0.00040909567089784135,-3.7872186322080126e-05,-0.0005855498522246503,-0.001141909675403832,-0.0015982122152938365,-0.001868477330805309,-0.001916030880740651,-0.001756645706244621,-0.0014415461145663084,-0.0010330549057655772,-0.0005857231217639055,-0.00013859940395799476,0.0002833304518104797,0.0006635420944410366,0.000988119917503074,0.0012418103835585962,0.0014074127544807416,0.00146902477993217,0.001417427948453059,0.0012537207069668248,0.0009879698627211872,0.000633986333060155,0.00020615350068492407,-0.0002756710356351493,-0.0007738963535542494,-0.001223481319325129,-0.0015379806700524619,-0.0016367694754551446,-0.0014832229280930288,-0.0011112123737924318,-0.0006193587817254346,-0.00013085048300214203,0.00026018627772981195,0.0005241217274793732,0.000692611628676666,0.0008220266479376702,0.0009500120535577676,0.0010727088991931938,0.0011518756534976843,0.0011397068568087061,0.0010014456758961684,0.0007250755128992238,0.0003218330361768995,-0.00017308447793307354,-0.0006969375503437659,-0.001160538662806607,-0.0014639699144935688,-0.0015279785144311853,-0.0013287656101525756,-0.0009170646376212119,-0.0004079447945667122,5.8028275788602154e-05,0.0003676213407617154,0.00047971610448779324,0.0004412101045772101,0.00036297145571835077,0.0003617187557735627,0.0004923887571276896,0.0007061481133397139,0.0008624284361259418,0.0007979182562281913,0.0004220340473084119,-0.00021346209104880238,-0.0009158893583042037,-0.0014317553621271406,-0.0015657697020309501,-0.0012730823822996648,-0.0006738772890745183,1.394696967068113e-05,0.0005814209476911785,0.0009151581468359025,0.0010246537139570878,0.001008177119344257,0.0009841622155396389,0.0010238145385259943,0.0011135979508565816,0.0011616217583250124,0.0010442301137748638,0.0006720279939810866,4.491487562072112e-05,-0.0007303876846708566,-0.0014699673765675237,-0.0019775211625151896,-0.0021165526719257835,-0.00185957069969136,-0.0012949615915101536,-0.0005908524797970516,6.746819387534676e-05,0.0005409923560353188,0.0007772934191307851,0.0008143247034729736,0.0007496341131641297,0.0006903581835795476,0.0007049863262766656,0.000794153055836795,0.0008887520607458446,0.0008752153596742118,0.0006417028696831838,0.00013278245730474194,-0.0006070620188380763,-0.0014239305748146851,-0.002092972854384359,-0.0023967533425845637,-0.0022115757989457237,-0.001560858001262379,-0.0006087592056177359,0.0004031426905233561,0.0012456556639099824,0.0017770917749544177,0.0019731701282846197,0.001906003114865927,0.001691505192198465,0.0014362998418364628,0.001207967460163645,0.001032551342068482,0.0009055764973586453,0.0008002384453122372,0.0006687413668396388,0.00044678381606700853,7.278332481234409e-05,-0.00047929189072300064,-0.001170086083767993,-0.001888943252643321,-0.002481734959106836,-0.0028032645664288376,-0.0027707090034594702,-0.0023933715515788855,-0.0017660107380160312,-0.0010306748148756427,-0.00032564764942968785,0.00025631411791205333,0.0006849927246431324,0.0009821585220767392,0.0011931164707903032,0.0013568063692641977,0.0014889935371175805,0.0015835933697558135,0.0016258874204558708,0.0016058034987586744,0.0015229221880082252,0.00138317580523612,0.0011924467436624246,0.0009513152198450679,0.0006522838295558563,0.0002808905723720983,-0.00017609635562387102,-0.0007143750857820582,-0.0012944072725395118,-0.0018358054671285488,-0.002234259648494994,-0.0023975731705683945,-0.0022827536461047537,-0.0019132802157647423,-0.0013674607302616043,-0.0007458787677398055,-0.00013624626875758956,0.00040738891994166664,0.0008639474980235807,0.001228062119491976,0.0014900051987110237,0.0016278971785881858,0.0016192728542497325,0.001464911841058258,0.0012063838908228997,0.0009193965101030894,0.0006798450873129052,0.0005198603965238724,0.00040267078867923264,0.00023766726583567303,-6.670287850177141e-05,-0.0005398888747382248,-0.0011134805349532304,-0.001637063120224079,-0.001941341803270419,-0.0019169098078139827,-0.0015668505091234097,-0.0010043096304882823,-0.0003961074889929385,0.00011564176807586234,0.0004692073280789486,0.0006870676481439624,0.0008332142199208037,0.0009580718363431151,0.0010678734905469542,0.0011323576005208757,0.0011155782102498905,0.0010013509840691775,0.0007952260164324897,0.0005081703999800548,0.00014347574321427062,-0.00029548084788152875,-0.0007794902533328304,-0.0012324347257832273,-0.001539562581141967,-0.0015909285718576599,-0.0013393230968559366,-0.0008373785825314443,-0.00022716054445555617,0.00031717240980199887,0.0006645191655775291,0.0007794933005929331,0.000725787178926665,0.0006224256300517111,0.0005801172755921143,0.0006506867229904415,0.0008090873883450128,0.0009680228052969158,0.0010133591989980554,0.0008472822683664471,0.000428778167088095,-0.00019921891006122942,-0.000908665341404839,-0.0015200843800107773,-0.001865308394178763,-0.0018539998014782866,-0.0015095837714495467,-0.0009531472156497074,-0.000343546574528943,0.00019188820196427492,0.0005979451395880624,0.0008859129641007367,0.0010936471653538804,0.0012417119879333397,0.001313795835070647,0.0012709696164618033,0.0010869766560235301,0.0007784422867840824,0.00040705835418920766,4.9334993949475404e-05,-0.00024710052971875106,-0.0004893590618993738,-0.000725776792240382,-0.0009991811341788608,-0.0012992382724035753,-0.0015499825328323187,-0.0016451038624347891,-0.001509211336806296,-0.0011440482070260694,-0.000629327351205555,-7.985452023760557e-05,0.00041076248296620827,0.000804168456824652,0.0011119937204412253,0.0013612239174993338,0.0015576329906128537,0.0016729100288037657,0.0016627522848789256,0.001501020556148642,0.0012039161714638147,0.0008253697611508291,0.00042549350385800923,3.40250496342246e-05,-0.00036397304502081885,-0.0008068644098269608,-0.0013107386311738255,-0.0018288449878124042,-0.002245934661556309,-0.0024183415596862627,-0.002242988356374444,-0.001718038760563723,-0.000957924487169586,-0.0001488013521924455,0.0005344274026511744,0.001002981239014812,0.001276972273344045,0.0014438548640585466,0.0015820145630536305,0.0017020997139879435,0.0017458420769716017,0.0016408532901259004,0.0013689922834788095,0.0009950330043328917,0.0006304165555543749,0.00035503827581302456,0.00015414555328160918,-7.878735139726315e-05,-0.00046772365298425854,-0.0010562273112132222,-0.0017549143856043937,-0.002373076779383081,-0.002714344994301702,-0.002673227836415041,-0.002273714853742968,-0.0016357825413433622,-0.0009037176094065971,-0.0001869224999113718,0.00045689213293310016,0.00100215852717823,0.001428047550994196,0.0017082748033059154,0.001822828602424472,0.001777728847583581,0.0016146487431357324,0.001401440865586548,0.001207560331423768,0.001076241889505346,0.0010057907071808563,0.0009479758961318436,0.0008251145056853926,0.0005606967101299922,0.0001130593417027827,-0.0005003039856147858,-0.001197775460889059,-0.0018518855761366052,-0.0023263557303073524,-0.0025189146411726277,-0.0023923592079363653,-0.001980424098522551,-0.0013676954722416455,-0.0006566800632475186,5.958698334291635e-05,0.0007081171298448381,0.0012321433390149513,0.001585087172568393,0.001733611824776578,0.001671086423060929,0.0014315227263379292,0.0010897624419181492,0.000740232227682302,0.00046068808154952094,0.0002796135347125663,0.00016671162373771138,5.34225938604502e-05,-0.00012712248497764828,-0.0004020797821300494,-0.0007420996814091433,-0.0010729016688983933,-0.0013078634713898018,-0.0013846413754404862,-0.001287993307856479,-0.0010491688981468592,-0.0007255675579616758,-0.0003751558041806181,-4.103781611974628e-05,0.00024820194618655714,0.0004697044994370064,0.0006022271009307675,0.0006337104644572933,0.0005742815139623826,0.0004596961582687436,0.0003352438940755359,0.00022707403589917452,0.0001229863002029375,-1.7263442436022823e-05,-0.0002232967861708224,-0.0004729938536482767,-0.0006817037599275723,-0.0007355304943807922,-0.000551075288467602,-0.000124599100730097,0.0004594187637189989,0.0010638310560407704,0.0015564918839621382,0.0018592382043550663,0.0019661454475725744,0.0019268795599189973,0.0018085941751275264,0.001659202192818907,0.0014904982645877634,0.0012840436309212277,0.0010080686719792183,0.0006316609625638911,0.00013239069270162138,-0.0004969399622518685,-0.0012375026746817553,-0.002033590072750879,-0.0027924281426345444,-0.003402367329311771,-0.003765815802756903,-0.003832097048253208,-0.0036133436661735033,-0.0031760556337125908,-0.0026153501977896187,-0.0020270446584038635,-0.001488556795647876,-0.0010481940478788354,-0.000715491361633775,-0.00045067876493237936,-0.0001650024181553681,0.0002495403765836769,0.0008569453952028178,0.0016097302459924532,0.002333450360001389,0.002807316127095797,0.002924740406576097,0.002841018853663942,0.0029813774209456224,0.0038371852164646365,0.005612499711367714,0.007921787627494375,0.009776267126666266,0.009967016098296946,0.007703034727656136,0.003147887811762589,-0.002506050908389781,-0.007531620564997903,-0.010472292511216732,-0.010793717711461488,-0.009020536924947215,-0.006332028150577548,-0.003907413467627934,-0.002407457639695536,-0.0018316333957392105,-0.001736750840346864,-0.0016142642505470356,-0.0011906110618086965,-0.0005162603473076167,0.00014611071742597184,0.0005240433919354669,0.000501204873110627,0.00017013018467960006,-0.00023056077705116635,-0.00044056339324427725,-0.0002935725905225013,0.00022551024708795825,0.0009941325925509814,0.0018166394495546406,0.002505021881573065,0.0029422337237272555,0.003106291798374762,0.003051557428550006,0.0028627822592428628,0.002608778339062102,0.0023186799277267944,0.00198723507702913,0.0015982210810605467,0.0011478443754708936,0.0006545020972208728,0.00015162486775464114,-0.0003299070482802439,-0.0007775756440091367,-0.0011995332831857735,-0.0016095019158604497,-0.002002662119750841,-0.0023394433856575407,-0.002551012470417324,-0.002566393449633342,-0.0023467325342982404,-0.0019078521738955427,-0.001319968097868543,-0.0006864226764310016,-0.00011268763363021062,0.00032161987662561464,0.00057976927880768,0.0006722189203692012,0.0006496125740656862,0.0005856129911380973,0.0005504747397045064,0.0005800940850980459,0.0006527514164442621,0.0006901072437065099,0.0005918503030935878,0.0002940478924423899,-0.00017860654143864152,-0.0007003436128845643,-0.001086413759776607,-0.0011727684507465686,-0.0008924885025334997,-0.0003084884827241189,0.0004132049017006418,0.0010726871674749637,0.0015113674042521975,0.0016595972806203478,0.0015425483868755367,0.0012512868550664084,0.0008977851889147359,0.0005728414654098306,0.0003194997049326318,0.00012764601042698363,-5.0191501318411474e-05,-0.0002680794368897256,-0.0005539561983423638,-0.0008903837410503478,-0.0012179805017764106,-0.0014584733835975594,-0.0015443479825156313,-0.0014408741783664683,-0.0011531631616518107,-0.0007200224353779094,-0.00020201269347994318,0.0003291952368138251,0.0007982502325482705,0.0011342763181005635,0.0012846264851275075,0.0012328083055481258,0.0010104512539710043,0.0006910896252163918,0.00036252800246459,8.923696444415184e-05,-0.0001145444530140326,-0.000284042439939323,-0.00047360140854064167,-0.0007125128207253815,-0.000972830624606317,-0.0011704186195669037,-0.00120192328799858,-0.0009983317515840646,-0.000565174169723474,1.2290980275683739e-05,0.0006000829240730762,0.0010656172092458373,0.00132371159112738,0.0013607632243958726,0.00123001501462066,0.001021190879980726,0.0008162615479155011,0.0006492563611244088,0.0004894372211280119,0.0002600063059287655,-0.0001119938480250997,-0.0006384160916257494,-0.0012390637336989045,-0.0017605795477365017,-0.0020406671627357163,-0.0019840354264997547,-0.00160682573946591,-0.0010245027324265435,-0.00039263968071453397,0.00016294740241536284,0.0005882715556099449,0.0008985270462603823,0.0011414483188328382,0.001353319730877023,0.0015323535034044138,0.0016400365255107574,0.0016247348138952906,0.0014514713046355657,0.0011211002359130988,0.0006700103890910449,0.00015310746825352188,-0.0003781079501964966,-0.0008886719909719002,-0.001356982578906646,-0.0017586711391809797,-0.002050175588488984,-0.002166444277757484,-0.002039680830443559,-0.0016332182080849172,-0.0009737785931232766,-0.00016286030417824327,0.0006439235390961946,0.0012851552893950622,0.0016499634385624764,0.0017167158388809829,0.0015554150951358633,0.0012919590523307193,0.0010505464799836137,0.0009010523093750583,0.000835599391941078,0.0007834493151073252,0.0006536261563554099,0.00038184678919138805,-4.0406985516622945e-05,-0.0005639585925567965,-0.0011017686467094596,-0.0015576365624337027,-0.0018520765455557844,-0.0019387990209769595,-0.0018096061843338807,-0.0014886688904749501,-0.0010205879003315397,-0.00045944015281782874,0.0001353278836647381,0.0006971630244353111,0.0011535761475845838,0.00143953080656834,0.0015223053622864444,0.0014231199652766813,0.0012157364013740061,0.0009936366011700365,0.0008193872231827977,0.0006863000995331364,0.000519812864008821,0.00022381646963247034,-0.0002510990227163972,-0.000856849937451589,-0.0014473310284278235,-0.001834223077853061,-0.001873192764712634,-0.001535716236489843,-0.0009272795948312412,-0.0002402152525764159,0.00033544666270368537,0.0006960750518757815,0.0008583405567016657,0.0009257123685044695,0.0010090021147038273,0.001148808402116145,0.0012855779126150551,0.0012936271688277683,0.0010573188863274893,0.0005443120514668346,-0.0001645575282704341,-0.0009023283787588533,-0.0014827901562759782,-0.001772774377241299,-0.0017373371848637988,-0.0014412184973237793,-0.0010103278454439632,-0.0005734470389959416,-0.0002112546968623394,6.528105621926022e-05,0.00029999359773547735,0.0005506383968600938,0.0008444914139218344,0.0011536572484996286,0.0014029984144438017,0.0015066618499684895,0.001413253223556349,0.0011336341421812762,0.0007345399993921708,0.0003021381097791638,-0.00010084119853007504,-0.00045690502596877657,-0.0007823365425973778,-0.001093409611790679,-0.0013751326274597272,-0.0015735474392641873,-0.0016163197879414206,-0.001449630123674717,-0.0010711817936516965,-0.0005417094563910574,3.197777694336851e-05,0.0005355267103673955,0.0008890318288856482,0.0010716329413873187,0.0011166667710120217,0.0010821588807581439,0.0010159463587957654,0.0009362410598826817,0.0008354468267315049,0.0006978717166639163,0.0005144317715201255,0.0002845816279292828,9.777684752017822e-06,-0.00030920360663593254,-0.0006634717306498861,-0.001020667004320943,-0.0013170064126481135,-0.0014686059652683047,-0.0014022737550221573,-0.0010926064072339472,-0.0005853779532211537,8.580831480982593e-06,0.0005504963710033953,0.0009258583195767504,0.0010858651663942943,0.0010570477034096055,0.0009155721494142237,0.000742206866908722,0.0005830756397554647,0.0004352347596075954,0.0002603674149671306,1.5510586909912426e-05,-0.0003155416960848043,-0.0007031251974670707,-0.0010714525631823615,-0.00131830482564234,-0.0013503577133960332,-0.0011227920278752785,-0.0006657871213242225,-8.199717772479809e-05,0.0004883531692213679,0.0009202161498618308,0.001148643181333069,0.0011843299758511595,0.0010947809617548438,0.0009636112563767802,0.0008488071504875545,0.0007578770779738184,0.0006484246328534505,0.0004523065096180425,0.00011330372732564105,-0.00037660111300001663,-0.0009575972681385057,-0.0015091939034446692,-0.0018843446517135451,-0.001959516621343023,-0.0016820598347051944,-0.0010958282638642565,-0.00033329632917988925,0.0004250741075596656,0.0010102125540098852,0.0013198572134642875,0.0013474806952575612,0.0011723350623800372,0.0009146912017399128,0.0006760697844974749,0.0004922470704147547,0.0003228352675680676,8.505559211139692e-05,-0.0002836821062777889,-0.0007681993229989475,-0.0012581070956426115,-0.0015856140618373841,-0.0016021269835781345,-0.0012533468223140812,-0.0006119347638036542,0.0001501039014890164,0.0008346158335698741,0.001298054528881898,0.0014998372758914108,0.0014976063846756532,0.0013973798648923461,0.0012883810138671298,0.0011964438418570233,0.0010768170793103724,0.0008462348081402925,0.00043601627279508275,-0.000160429389275629,-0.0008687600220319933,-0.0015528048207454994,-0.0020626756895743745,-0.002289013568152362,-0.0021983166390253874,-0.0018350831592715477,-0.001294011013741032,-0.0006798099588771974,-7.555500989292734e-05,0.00046823479375752573,0.0009260063095007303,0.0012830180742427028,0.0015254222729396937,0.0016369277717446279,0.0015984182119315872,0.0013891001831200902,0.0009935372708952891,0.0004186804761496586,-0.00028436446369943383,-0.0010093835208031911,-0.0016100850233626493,-0.0019423315306936137,-0.0019165646889912206,-0.0015345050841963257,-0.0008912287925358336,-0.0001416260158709368,0.000552702455319799,0.0010731539668024255,0.0013721783521699804,0.0014726908335833358,0.001443333223333214,0.0013618094378727054,0.0012811708671980166,0.0012114244534803449,0.0011220926870473438,0.0009625332309251835,0.0006891945895719171,0.0002863964369608353,-0.00022781558659628449,-0.0008089911499294427,-0.0013972209097358275,-0.0019236401350351707,-0.0023137036546205863,-0.002495728683761098,-0.002419911341250308,-0.0020811787316931674,-0.0015301711716066775,-0.0008602074907071971,-0.0001733944143692794,0.00045526487764398097,0.0009938572317262516,0.0014411335582903582,0.0017973661270761611,0.0020415581041034014,0.0021322882608629987,0.002031892066228814,0.0017374315436536998,0.00129722116971433,0.0008002515623909699,0.00034174193118322033,-1.8115855767930882e-05,-0.0002807024460744069,-0.0005056383434137075,-0.000776052143680708,-0.0011466149285507374,-0.0015998977110568652,-0.0020364079680964503,-0.002308360276599095,-0.002283256760372816,-0.0019053897867270125,-0.001223740141764694,-0.0003734949276168624,0.00047657294857058317,0.0011826109630770425,0.001663155695797482,0.0019043148891038876,0.0019401339351097589,0.0018256985114675564,0.0016175730839223272,0.0013652922310333072,0.001108452352206651,0.0008726565820845402,0.0006627935225371688,0.00045807974167301886,0.00021545592160461053,-0.00011469732199031991,-0.0005628333176568053,-0.0011142782481327958,-0.0016972062054894555,-0.0021954906791518134,-0.002485715915602137,-0.002483282121367532,-0.0021753135621673603,-0.0016242830224168375,-0.0009422264857830995,-0.00025001664533978924,0.0003592641132611644,0.0008392767260056907,0.00118805452635355,0.0014298199549615306,0.001592051331304163,0.0016892081904265176,0.0017192588710501977,0.0016709447883493682,0.0015342219738147332,0.0013073550600335966,0.0009991831175654464,0.0006282530054091026,0.00021984011260938428,-0.00019915400275671868,-0.0006056687796059651,-0.0009820489900002095,-0.0013109441250407877,-0.001567012164576298,-0.0017141127609951968,-0.00171442892071586,-0.0015467537470596874,-0.0012227516331432423,-0.0007897372604688947,-0.0003167806978151836,0.00012839106871064655,0.0004986418754734422,0.0007731911666991329,0.0009503239845817329,0.0010364362588240195,0.0010413621434965476,0.0009818172197965768,0.0008853121378642559,0.0007845932184017887,0.0007003808455162194,0.0006225906635412648,0.0005068723848261581,0.0002961748589418937,-4.11703839094126e-05,-0.0004807324905498814,-0.0009408764074722169,-0.0013140714968736965,-0.0015110862704985576,-0.001491326900104329,-0.0012655411418185081,-0.0008782628165226013,-0.00038892328864626217,0.00013563352176987516,0.0006208032173974717,0.000990010686099507,0.0011849231384686077,0.0011915678887347515,0.0010519084545734833,0.0008459892565958541,0.0006503252223849799,0.0004976525729700872,0.0003648660241513565,0.00019717650169374468,-4.842092485303831e-05,-0.0003689464098105401,-0.0007099603949137816,-0.0009880153164612204,-0.0011249744482846233,-0.0010764439774024544,-0.0008450595387218548,-0.00047885280713721545,-5.899477763567196e-05,0.0003197794020225514,0.0005740033074929463,0.000657266860487712,0.000578125010015974,0.0003994816407737198,0.00021388241395396516,0.00010076783550004402,8.44770630039687e-05,0.00011723536943484452,0.00010261602084673008,-4.706919476479127e-05,-0.0003495124616327849,-0.0007253574615462422,-0.0010267639004627916,-0.001109708635040478,-0.0009095765932139496,-0.00047547905894376177,5.702032382233122e-05,0.0005374612775716845,0.000872236468688631,0.0010542461638713885,0.0011375204573721826,0.0011805081572982025,0.0011996607758543191,0.001162175846042405,0.0010153557961195818,0.0007257949266387688,0.00030162809166020386,-0.00020978297258051189,-0.0007378197289727847,-0.0012040650598774193,-0.001532790232472824,-0.001661256235717425,-0.0015539708921849917,-0.00121744473916792,-0.000707083479087915,-0.00012039230416656301,0.0004233522050898368,0.0008129057592767036,0.000978197211937761,0.0009169714226475226,0.0007009732058587898,0.0004502355975557486,0.00027822711950416343,0.00023105659552633245,0.00025583016455012534,0.00022364404619280875,2.7043271352848643e-06,-0.00045579609953656753,-0.0010692771728134974,-0.0016446962628743353,-0.001961004408657731,-0.001869499167357801,-0.0013590189984952579,-0.000554878506092707,0.00034140525389740844,0.0011345340615007654,0.0016979181047214284,0.001993057152676593,0.0020498859931016465,0.0019304869364472066,0.0016996568156705844,0.0014128406187388569,0.001115898853064148,0.0008437258021240494,0.0006105075377478042,0.0003974825528347088,0.00015235046226654705,-0.0001903079725920982,-0.0006730652052838958,-0.0012825434200291357,-0.001938287488359893,-0.002511014449104644,-0.0028625065755587408,-0.0028906778724546965,-0.0025639642683122953,-0.0019347408841156343,-0.0011267600946320965,-0.0002970051183365822,0.00041837569855954237,0.0009525777950442238,0.001324768644418415,0.0016103288283501808,0.0018771407470791817,0.002126244205671329,0.0022788757118157627,0.0022248704465443157,0.0019046886907621201,0.0013694666167974343,0.0007731225495661978,0.00029362782242259376,2.866284904845572e-05,-6.825209110805338e-05,-0.0001660660105068843,-0.00045511305969359733,-0.0010233383122049016,-0.0017841833064002638,-0.002502322621380608,-0.0029056167849170673,-0.0028200190759610153,-0.002251297773763989,-0.0013711745091158907,-0.00042344535164875113,0.00038989767601895864,0.0009786204267782186,0.0013612661895392264,0.001607204781387332,0.001769949004318168,0.0018535113414613448,0.001825042391214812,0.0016560900769133152,0.0013603349197163557,0.0010025276465283608,0.0006729528580102128,0.0004411407303839624,0.00031346548060329617,0.00021920806887578277,3.8303003973807824e-05,-0.0003365887587455623,-0.0009323032351876265,-0.0016587171062270678,-0.0023278179405059087,-0.0027241694226060667,-0.0026953927670823295,-0.0022203438410330757,-0.0014226097435456678,-0.0005219156771029424,0.0002552727551762683,0.0007648929995252643,0.0009923636321597677,0.0010361425924245576,0.0010386207023358118,0.0011027331542779284,0.0012400304286912431,0.0013776683575975504,0.0014165739077143143,0.0013013324675037637,0.0010552423580824746,0.0007581340745706278,0.00048476216012218343,0.0002499692068927081,2.669212066826296e-06,-0.0003243042522737843,-0.0007433722969625754,-0.0011738033481314121,-0.0014691495840396648,-0.00149813037880934,-0.0012273651833145712,-0.0007504645603251931,-0.00024279817228967386,0.0001297943476345927,0.0002913585893831001,0.0002787485675273735,0.00020075188704113617,0.00016696353093791907,0.00023244958520890436,0.00038456310067646205,0.0005656383848088208,0.0007056467194842686,0.0007437479909837105,0.0006368128387825331,0.00036634248311155507,-4.836237096459252e-05,-0.0005373502514112953,-0.000983870528152596,-0.0012559636469307268,-0.001258581928424192,-0.0009807746221600203,-0.0005087418084654363,7.884709990090287e-06,0.000421283650269595,0.0006467767257658633,0.0006873844028787003,0.00061260220126808,0.0005102936385721401,0.0004430518812095695,0.0004306661018824255,0.0004586902747053947,0.0004972130845025111,0.0005139128217910823,0.0004770880428421337,0.0003555065712144845,0.00012431507501315373,-0.00021984914705811941,-0.0006407127588319364,-0.0010541477179227962,-0.001342459319615348,-0.001393763971865168,-0.0011525537090472907,-0.0006549040223880121,-2.4553044746813643e-05,0.000573684126077414,0.0010008927761777416,0.0011957252865266586,0.0011841715837722865,0.0010466076838369343,0.0008658107778518828,0.0006867618936728854,0.000506611026540017,0.0002927916202940292,1.3166825391121989e-05,-0.000339509107848087,-0.0007388061368403735,-0.0011315641047338063,-0.0014539502168930858,-0.0016483792948286705,-0.0016754694450438097,-0.0015194585073677208,-0.0011888494944052427,-0.0007144205040645107,-0.0001448776145934334,0.00046033454174852165,0.001039511061833917,0.0015348894829361668,0.0018950367734074823,0.0020770172732492687,0.0020539136928178986,0.0018277438594184708,0.0014389207910071988,0.0009606028137379055,0.0004743468683020258,3.7175417034882195e-05,-0.00034112368063188026,-0.0006951327828288238,-0.0010743205035901216,-0.0015020189695235614,-0.0019454976293633809,-0.002314053763078177,-0.002487345878570269,-0.002361796918896156,-0.0018956046585238665,-0.0011338815883687875,-0.00020290604931082535,0.0007258138779077344,0.001488521659323932,0.001978342453912648,0.0021710779780919533,0.0021188005386917935,0.0019170011225776342,0.0016618845559391,0.00141596498620714,0.001192974446896046,0.0009630784283408147,0.0006725872861295579,0.0002705521946463138,-0.00026482152774209063,-0.0009071279697784804,-0.0015774971741401678,-0.002159699362991422,-0.0025321275587492165,-0.0026061098376728197,-0.0023560571421418837,-0.001829723424868797,-0.001134650344190062,-0.0004055001888030117,0.00023685833903481764,0.0007208072883855502,0.0010408185695173176,0.0012475620517443029,0.0014133971337776552,0.0015878271895633323,0.0017653987306283701,0.0018851330475906222,0.001864637388309127,0.0016509043824468705,0.001256850269300798,0.0007586812459489861,0.00025323489117578114,-0.0001980228813520887,-0.0005999295410276173,-0.0010054702649486033,-0.001457826485352135,-0.0019321468405034705,-0.00232092435674849,-0.0024792537482271047,-0.0023046226666650496,-0.0018005542621143801,-0.0010833818406280112,-0.0003289961180386703,0.00030630591772936883,0.0007451115968724707,0.001000746121844496,0.0011452221331928413,0.0012589481178470782,0.0013902600937259783,0.001540048029455386,0.0016707756597174478,0.0017291936293995238,0.001670139538992697,0.001472434641034834,0.0011434262731085893,0.0007135331407272185,0.00022508870782295522,-0.0002792691390991649,-0.0007644152880288051,-0.0012050961526758664,-0.0015838827566871088,-0.0018870214110341967,-0.0021002282495929145,-0.0022058375846158063,-0.0021822899345237718,-0.002006754298197205,-0.0016618044617602863,-0.0011467335217522955,-0.0004914164990641938,0.00023441979374638235,0.0009267054111001703,0.0014728388160427687,0.0017909103850478744,0.0018634384611204225,0.0017454360778157317,0.001539366311096694,0.0013488153713850488,0.0012353092243061296,0.0011998821266321871,0.0011952827154141643,0.001157119723092906,0.0010336603702269065,0.0007986773668135426,0.00044599711816000555,-2.1658782668703178e-05,-0.0005938951098270527,-0.00123909730993393,-0.0018875490559259907,-0.002430560502828064,-0.002746694086167912,-0.0027468737569722058,-0.0024144940103972305,-0.001816953713380276,-0.001081153707890987,-0.0003457623167882028,0.0002853893368177727,0.0007670735147123559,0.0011059363795581831,0.0013329052259833131,0.0014747660963347453,0.0015417238115767453,0.0015336598435158155,0.0014543445410761433,0.0013201985635755181,0.0011577950664478918,0.000993272500976877,0.0008403549516652418,0.0006923790175523221,0.0005215899892418491,0.00028743932843309356,-4.6756650462072725e-05,-0.0004933666891526364,-0.0010243179701561384,-0.0015676416302388295,-0.00202081295196437,-0.0022780653230771637,-0.002262725589725356,-0.0019533088248891587,-0.001394296073494623,-0.0006876257023607988,3.322172610477944e-05,0.0006395191099774457,0.0010432762063338596,0.0012210033027584767,0.0012159968852640053,0.0011169881782266623,0.0010205688233522977,0.000992425746551677,0.001043744776760034,0.0011327736502855503,0.0011899251359096925,0.001153235710318297,0.0009955040487778805,0.0007290014134442241,0.0003871903126045405,-2.014703086465077e-06,-0.00043077362149809655,-0.0009017019542873591,-0.0014007309522608925,-0.0018737239425800955,-0.0022272866748443186,-0.0023582784709457495,-0.0021975390404855664,-0.0017447839020202503,-0.0010776518322218778,-0.00033157788869861936,0.000341311152997326,0.0008205567551458258,0.0010573011540742922,0.0010899160120176948,0.0010243067323478356,0.000981948738226327,0.0010383421288708593,0.001185948822913555,0.0013454165107714116,0.0014191917417501125,0.0013527422641911122,0.0011629111427625878,0.0009155296347283003,0.000669283565686664,0.0004260161364697145,0.0001241546164731885,-0.00031594117087290505,-0.0009210232974551498,-0.0016148701818145103,-0.002226473631605213,-0.0025591426447515247,-0.0024841353840870327,-0.0020053952414575,-0.001259058606015747,-0.0004507440852754066,0.00023176171890851923,0.0006844704788280412,0.0009050438617783004,0.0009655351322410297,0.0009634390581419024,0.000976929300483897,0.001039793664469294,0.0011388070318835907,0.0012278042678334606,0.001249269632833022,0.0011542422128872165,0.0009143690992866663,0.0005258738182919974,1.0660027468598152e-05,-0.0005808202624272569,-0.0011676921414048788,-0.0016470344429625233,-0.0019184468209951493,-0.001918221171443421,-0.0016456838586295995,-0.0011655127062892789,-0.0005831335742716476,-5.923206864198206e-06,0.0004898369632905146,0.0008714312758865285,0.001139947374144878,0.001309239723833173,0.0013890890647240998,0.0013819816272940917,0.001290768180109287,0.0011255728187233318,0.0009003592575912638,0.0006211940823818663,0.00027910624015714015,-0.0001401573801069352,-0.0006306125692234037,-0.0011421030013241368,-0.0015800382103156865,-0.0018374478260454762,-0.0018444685489530223,-0.001604797158788148,-0.0011943939115170766,-0.0007219010024279514,-0.00027546512571805247,0.00011132331929326368,0.00045596251133693316,0.000792929371535469,0.0011339388383597721,0.0014476603134382367,0.0016688883392437872,0.0017284983143199476,0.0015845745378922317,0.0012374184723754104,0.0007244428571220976,0.00010540355639386686,-0.0005477100828919749,-0.0011519579913939217,-0.0016159489616352646,-0.0018564889617117832,-0.0018286171496721005,-0.0015502231618396028,-0.0010992083143486755,-0.0005791368068984279,-7.402215932842063e-05,0.00037776632540581875,0.0007751247712148699,0.0011223895508348253,0.001401795495973157,0.0015723928016028268,0.0015951317551226695,0.0014623045997946412,0.0012054412489589518,0.0008725119092212748,0.0004907830572129067,4.624137298563426e-05,-0.0004986888632899188,-0.0011554310638356995,-0.0018604677234945314,-0.002465291448907696,-0.002781203489501297,-0.002660895419504361,-0.0020745513894311566,-0.0011388061521670548,-8.064899586927225e-05,0.0008490725786004789,0.0014730257127060517,0.001749891731258869,0.001771823167182742,0.001698601081246416,0.0016637834405253717,0.0017040812092203204,0.0017497568333967475,0.0016775074126355104,0.0013907630114912604,0.000878800821817534,0.000222731131500249,-0.0004495310983529243,-0.0010280438336911844,-0.0014663426938151614,-0.0017838879943623935,-0.002028441029561164,-0.002224086932138292,-0.0023380326738624575,-0.0022882307103127783,-0.0019898162574599797,-0.0014139792301175124,-0.0006228979223114012,0.00024327946859481172,0.00102250404413699,0.0015977014656685664,0.0019352573799511796,0.0020748569422829087,0.0020826000914316465,0.0020024582437133537,0.0018390707239958953,0.0015795131470736738,0.0012320657386346292,0.0008478764697323277,0.0005046107150678087,0.00025923180555082674,0.00010063262065565341,-6.291266861462703e-05,-0.000364404511646397,-0.0009006131553250067,-0.0016570301252445915,-0.002481759803861441,-0.003132154082461055,-0.0033767184060605323,-0.0030998801442861895,-0.0023528872481499473,-0.0013252646246617304,-0.0002575775527316928,0.0006534011981757628,0.001309863032463593,0.0017119450954081717,0.0019175017624334899,0.0019949192981325503,0.0019937099441387114,0.0019382770523958066,0.0018349378026960865,0.0016801540750248079,0.0014658549262978053,0.001184855247562672,0.0008382662232594329,0.0004408539841216555,1.8774225026840335e-05,-0.00039974469646071527,-0.0007931906160175246,-0.0011478945011383142,-0.0014519724880211937,-0.0016890546513496445,-0.001837692423700531,-0.001876001963276315,-0.001786979646032035,-0.0015617278979524081,-0.0012021451097678514,-0.0007258494991616799,-0.0001726060399807501,0.0003932732877401407,0.0008913017009137387,0.0012460025791025205,0.001414277314354168,0.0014051124283100149,0.0012779271628745993,0.0011155564226004923,0.000982731399638437,0.0008916723591907863,0.0007950377988626242,0.000612467314641643,0.00027830779966336503,-0.00021390591829506455,-0.000793104264265154,-0.001327977695672247,-0.0016724995728450726,-0.0017204408908861586,-0.0014469835216988855,-0.0009212188158254508,-0.0002841642591459312,0.00030050362032336855,0.0007048006547931291,0.0008799514860673781,0.000864970705242253,0.0007554965982352136,0.0006493440568205967,0.0005992629140484669,0.0005983221180526495,0.0006007507120706572,0.000557563514290986,0.00044039912714220406,0.000242326173032404,-3.388079983609759e-05,-0.00038068496975467874,-0.0007752179582710763,-0.0011633953748782506,-0.0014584647729500705,-0.0015649373607116018,-0.0014188822141140442,-0.0010212734335867204,-0.0004442013516031089,0.00019301070256430458,0.0007635873833054007,0.0011695852040300252,0.001362592732891935,0.00134782353728547,0.0011762587327011997,0.0009278984917990563,0.0006863678608999043,0.0005081624253525624,0.0003980633670009751,0.00030635063756439087,0.00015494275615492723,-0.00011843142263784075,-0.0005224953422164286,-0.0010024483209670918,-0.0014608177035742272,-0.0017934241709891162,-0.001919786013255275,-0.0017976032158474892,-0.0014250452931425582,-0.0008397702691476591,-0.00011776450009934694,0.0006331423712890433,0.001291466168252721,0.0017513827306479244,0.0019537464253164454,0.0019053150254060242,0.00167561818226461,0.0013693034901460896,0.001082564206937745,0.0008613652014029726,0.0006817755563312616,0.0004652137774542003,0.00012500129230025693,-0.000377335925860797,-0.0009963910032914735,-0.001610192617469527,-0.0020698560541812286,-0.0022655837934279694,-0.0021721273294159804,-0.0018490824550325652,-0.0013996719863843387,-0.0009167901677625968,-0.00044977924283168703,-7.442386572360088e-06,0.0004136377631837664,0.0008018908867894859,0.0011256474674986316,0.0013510811772951897,0.0014661269716550033,0.001490473875019628,0.0014640674223348918,0.0014225772117288167,0.001375977215366771,0.0013024238838622135,0.0011593804656348304,0.000904948689292916,0.0005188078014333854,1.411609335981044e-05,-0.0005629311950206222,-0.0011435030508301516,-0.0016511551975335198,-0.002017103893325248,-0.0021939790839932503,-0.002166821555939692,-0.0019577861807073584,-0.0016193328250397015,-0.0012139799063127384,-0.0007874417071322466,-0.00035051330029583724,0.00011541379681399497,0.0006279178920427226,0.0011664662086831637,0.0016570120144239401,0.001995768722772342,0.0021023596320315597,0.0019684374397490175,0.0016671360924647056,0.001314297028325936,0.0010056989030064443,0.0007702081773846684,0.0005660420540804438,0.0003177988356651326,-3.2099454304464333e-05,-0.0004878559943676426,-0.0009966380177479418,-0.0014728612949091327,-0.001833276432014112,-0.002024380317315011,-0.0020317823900911653,-0.0018722491865486638,-0.0015769994159031669,-0.0011767588055391278,-0.0006963051248926992,-0.00016073546379587916,0.0003915310812412751,0.00090049859320103,0.0012928776897280516,0.0015089674033146021,0.0015347612558227449,0.0014166729082988722,0.001243216520122512,0.0010990691351958496,0.00101766473721211,0.000962526287392807,0.0008503080640469884,0.0006016613310435875,0.00018881052015062524,-0.00034709471603274595,-0.0009146965792135688,-0.0014111985430902106,-0.0017570991450002057,-0.0019112198071086612,-0.0018662422009667725,-0.0016361827044286627,-0.0012476079942296894,-0.0007386467679782184,-0.00016157634365380477,0.0004179619922198049,0.0009287371445568682,0.0013073018575631722,0.0015131718339752996,0.0015418761468166085,0.0014307963105383292,0.0012507469219653997,0.001078911533778386,0.0009596147300250628,0.0008727828145066239,0.0007336261564837501,0.00043359398623392414,-9.256249524059915e-05,-0.0008097663203309299,-0.0015726382794340925,-0.0021759204144213354,-0.0024426887087453256,-0.002302544453128748,-0.0018161692318543463,-0.0011353636426317992,-0.0004269695311942349,0.00019259000716170084,0.0006795690075198711,0.0010425216862712838,0.0013054590796241544,0.0014819308957455032,0.0015696518018865082,0.0015575385477877286,0.0014329774887965436,0.0011850156730441868,0.0008075642623648941,0.0003073749720470339,-0.00028423841053171157,-0.0009026903117559288,-0.0014525056479406464,-0.0018255599074706859,-0.0019331379169894762,-0.0017410998977664298,-0.0012908997346047577,-0.0006908781210828003,-7.552217407315494e-05,0.00044969595725314953,0.0008469311173330543,0.0011430959622790102,0.0013863653155615665,0.0015920155547228196,0.0017172361712108372,0.0016846003612965381,0.0014376046603248116,0.0009870920957959837,0.0004142159020839388,-0.00017165054097323677,-0.0006889254326306762,-0.0011143059897337226,-0.001468770605216943,-0.0017729291453477466,-0.0020068923201172254,-0.002105270663904108,-0.001991833309586098,-0.001630218848817672,-0.0010565757743994817,-0.00037281982515621287,0.00029519167393035357,0.0008492057299002322,0.0012504171986112737,0.0015162203446277952,0.0016887547192763574,0.0017980564529079292,0.0018424173187496463,0.0017941731001862205,0.001622129833916825,0.001313628926346171,0.0008832615920761511,0.0003664533642782873,-0.00019399285243664854,-0.0007578777283072735,-0.001288593311046218,-0.0017471971614554118,-0.0020867217611946075,-0.0022539463588843026,-0.0022014279389884813,-0.0019064238110588615,-0.0013886230849463142,-0.0007168814696527574,2.7352875844939453e-06,0.000657727748026637,0.0011668344731487874,0.0015039962966937204,0.001692878113363173,0.0017751476908747384,0.0017749360196740772,0.0016846878427659857,0.0014807306070241792,0.0011540163371574655,0.0007305205997468276,0.0002643340405825357,-0.00019218783011990274,-0.0006180924231417252,-0.0010281390632078515,-0.0014445141320703378,-0.0018549228964652733,-0.002190371425543529,-0.002345162278778257,-0.0022315022815964924,-0.0018339059967538574,-0.001225841658304503,-0.0005359659481745703,0.00011437504251104297,0.0006620383178917192,0.0011106960732120033,0.001496354119191912,0.0018375679420370153,0.002106323165761403,0.0022389735207654963,0.002177971658726193,0.001914563813847029,0.0015034098986571325,0.001039946036383397,0.0006153485656715174,0.00027602820755713684,8.516000161808363e-06,-0.0002464173103060696,-0.0005611197763129845,-0.0009846883279959872,-0.0015141727455489137,-0.0020814600662028425,-0.0025633021989332223,-0.002817894189479957,-0.0027390584741311197,-0.002304536968863434,-0.001591879552554759,-0.000750789138485621,5.4529612621890926e-05,0.000703183102690669,0.0011485751509606092,0.001413401762389843,0.0015589314613311692,0.0016485372592165931,0.0017223904817648952,0.0017892964354378025,0.0018314110308890266,0.0018145215736149463,0.0017001127146815851,0.0014588049268247382,0.0010829252658687018,0.0005919866390723602,2.604375149192089e-05,-0.000569824459639118,-0.0011583647488301735,-0.001709508610248016,-0.0021864292986429985,-0.0025313597040594704,-0.0026680086292872524,-0.0025276521505912357,-0.0020883205683795134,-0.0014031936318786395,-0.0005962309887011376,0.00017867028891859426,0.0007954307686437703,0.0011991833142752113,0.0014127213962560165,0.0015062968578260065,0.0015519275367420204,0.001588791254008633,0.0016150430926867932,0.001603429969065639,0.001525509557419963,0.001368181234286377,0.0011346403640005785,0.000833134696946655,0.00046448916551470665,1.9759587761595306e-05,-0.000507335383070175,-0.0010989597278637459,-0.0016966486176366847,-0.002204031566049081,-0.0025138125177431685,-0.002549342579564645,-0.0022995644937433596,-0.0018262315438398043,-0.0012366630136436093,-0.0006363416700849487,-8.900764472093153e-05,0.0003929237450211174,0.0008251936043394267,0.0012150223445472883,0.001538011725468006,0.0017448271428888071,0.0017922880656164285,0.0016762149164778583,0.0014423148075441473,0.0011671422715727525,0.0009219320129020536,0.0007422844283081211,0.0006196613605963003,0.0005139757255968474,0.0003744795146586703,0.00015683410446400278,-0.000166277856665833,-0.0005962116280763018,-0.0010981095462151472,-0.001594810196774816,-0.001976018243159871,-0.0021290461917954613,-0.001983614677538425,-0.0015500998916940995,-0.0009286352921773777,-0.00027877457940167754,0.00024016408371383275,0.000531214292622487,0.0005947777645455131,0.0005203653037204054,0.00044043553709697983,0.0004691335670835605,0.0006535780387746468,0.0009571002579455806,0.001278210945233156,0.0014937011453555122,0.0015056315775858482,0.0012734503195574063,0.0008224314512257496,0.00023113246174905907,-0.00039345331256121507,-0.0009446378156176122,-0.0013417742624257116,-0.0015459015283199955,-0.0015594674879707115,-0.0014107853297267352,-0.001133045659526589,-0.0007519240343406625,-0.0002900913830692512,0.0002158383652315422,0.000701338156529106,0.001079128075726545,0.0012680666920538367,0.0012328455140115534,0.0010098620292023418,0.0006986101246850354,0.000417387308306003,0.0002452407320960425,0.00018305855796907832,0.00015732980374314615,6.563246546212017e-05,-0.00016159888902059563,-0.0005180493982182419,-0.000921120168648178,-0.0012529371963077066,-0.0014177208609154688,-0.0013821385144713694,-0.0011773025724555889,-0.0008660201418832567,-0.0005009221291578168,-0.00010326958655589507,0.00032497423081498996,0.0007696098241178438,0.0011823175096170703,0.0014892759807080193,0.0016257696869863723,0.0015706789772494522,0.0013545654242566344,0.0010357362374709188,0.0006630133880148022,0.0002533267021969215,-0.00019942703306025154,-0.00069148724044837,-0.0011782069425671049,-0.0015709604050418893,-0.0017688635357222659,-0.0017071771309775522,-0.001391873328222252,-0.0008990132863981838,-0.0003405469509263812,0.0001821405620969904,0.0006112285785686603,0.0009371675326734466,0.0011776434341516787,0.0013470292482215692,0.001435780291579266,0.001411283106774275,0.0012379354574022154,0.0009030257403720103,0.0004325193888254568,-0.00011209154752007445,-0.0006529881104961694,-0.0011195463419951639,-0.0014639282926319146,-0.001663491997409977,-0.0017132732948074564,-0.0016161402221184797,-0.0013773493847687673,-0.0010065347094863988,-0.0005258808051405306,2.085593576021873e-05,0.0005666444634751686,0.001033586725565574,0.001358360990424121,0.0015186293201876668,0.0015431450788469367,0.001495357507609952,0.001436147336833938,0.0013850313996034431,0.0013018812180446038,0.0011018845357638077,0.0007001342038285496,6.602920899931167e-05,-0.0007406022155386103,-0.001573869474479873,-0.0022492075847866428,-0.0026126851805770065,-0.0025979509484744694,-0.0022426424618728416,-0.0016583380551154613,-0.0009736299420288175,-0.0002837863398051805,0.00036577533016692097,0.0009581603025093133,0.001467438629723243,0.0018373541693953897,0.001996756318910268,0.0019046655222732286,0.001593348315837806,0.0011740166639205827,0.0007916952680436557,0.0005504310620844249,0.0004536060448378824,0.00039885465200036486,0.0002350441255544089,-0.00014906919168002224,-0.0007540914849140034,-0.0014563598173472536,-0.0020587371990311867,-0.002378894405432724,-0.0023294719058624745,-0.001949954894816135,-0.0013764327752986908,-0.0007691058978833375,-0.00023970249287674642,0.0001820262379024824,0.0005303181270492751,0.0008539163645518238,0.0011712202368726061,0.0014569889231563597,0.0016625237609157895,0.0017495290338899441,0.0017131398651596174,0.0015816002219139044,0.0013970560581804746,0.0011915176789905626,0.0009705897462100428,0.0007104304820142117,0.0003675781632882049,-0.00010115274833506619,-0.0007130457827863577,-0.001435303549592027,-0.0021726499533789192,-0.002777420417739448,-0.003087223387124873,-0.002982685714835303,-0.002442860223443515,-0.0015689454624677568,-0.0005572642759161138,0.0003718089472797173,0.0010561001132862397,0.0014437533429715224,0.0015902428951114268,0.0016065169661911907,0.0015908774392978339,0.001582905440090765,0.0015608953699700837,0.00147683457618449,0.0013019368253598834,0.0010525044462942443,0.0007807036196172604,0.0005380581882220906,0.00033728052145007824,0.00013951731113888421,-0.00012241089300183946,-0.0004983592724918531,-0.0009816513614377205,-0.0015008109902804405,-0.0019463510619279795,-0.002215218267997545,-0.0022473221465467573,-0.0020376047256183147,-0.0016248603508255545,-0.0010712873130538977,-0.0004463663820438831,0.0001812587143230791,0.0007486528739565299,0.0012048604176943286,0.0015176574209859683,0.0016766476781054866,0.0016908834629437758,0.0015833464919526646,0.001385762161470346,0.0011348921171505774,0.000868802482684274,0.0006210748565522882,0.00041252002629980607,0.00024261562414657877,8.545606537355567e-05,-0.00010420055830959456,-0.0003721919367357916,-0.0007381179738578128,-0.0011729526626113004,-0.0015957307588274812,-0.0018960013922459653,-0.0019744744756207584,-0.0017834242181136867,-0.001348231968279062,-0.0007608467964475605,-0.00014814979620710912,0.00037235965601351456,0.0007322700352722913,0.0009306133617654052,0.0010217889885448216,0.0010781410704408369,0.0011465806547229901,0.0012235515550161106,0.0012628544983377993,0.0012107619792499037,0.001045114551230848,0.0007923031450404555,0.0005109539653767939,0.0002535906440208907,3.2166372081792165e-05,-0.00018896690626791016,-0.00046604324142595575,-0.0008293895708018377,-0.0012454099569789284,-0.0016126482337666956,-0.001799571862423553,-0.0017074691800413608,-0.0013254826595443718,-0.0007466176508264335,-0.00013316914024889405,0.0003531692150840169,0.0006215130539674703,0.0006856554092918201,0.0006437701846256986,0.0006162899533207749,0.0006779991240262723,0.0008222951006075259,0.0009745633134525553,0.0010417581701324314,0.0009653905300089684,0.0007465939760112721,0.00043272120600423684,8.096404497274931e-05,-0.00027193459765006804,-0.0006129783651333894,-0.0009313925692576501,-0.001194254351720036,-0.001342906466509742,-0.0013170735499435933,-0.0010918985026915997,-0.0007023393870470708,-0.00023671952084533893,0.00019885332126698911,0.0005247492747733317,0.0007152901332731585,0.0007956294705341023,0.0008140460237074597,0.0008097396647725244,0.0007955927615245359,0.000762130625498118,0.0006937320226625234,0.0005818311245646456,0.0004259069680451279,0.00022573237264912437,-2.3002101651157392e-05,-0.0003206924444024195,-0.0006474943220289892,-0.0009542632259951223,-0.00117440864861598,-0.0012539438847882283,-0.0011795198037167641,-0.0009822125567404433,-0.0007123671644355476,-0.0004043624766204505,-5.9863339225397724e-05,0.0003354114105366884,0.000773846220065146,0.0011991246731703083,0.0015169113020205433,0.001640730798150264,0.0015415746892500472,0.001264743611238391,0.0009011344248854745,0.0005330902205659437,0.00019150278479185007,-0.00014905698648265907,-0.0005366842369565054,-0.000993366167367909,-0.0014822682414033389,-0.0019111681855282555,-0.0021698019951821947,-0.0021789092221893474,-0.0019232018063726742,-0.0014521043172605387,-0.0008522631281713637,-0.00021094445667968064,0.0004089284808491962,0.0009718635286794748,0.0014553877007484793,0.0018325506141953648,0.0020661567577129297,0.0021206266303864085,0.0019847159901596055,0.0016896458791447104,0.001307742287927877,0.000926458938669817,0.0006071323985843933,0.00034987494478523205,8.804920838390837e-05,-0.00027663215611666193,-0.0008106122426582013,-0.001490016726616137,-0.0021840525176291176,-0.0026967476969646234,-0.0028499726427181375,-0.002565127730310071,-0.001899937436185554,-0.0010214315952010323,-0.0001314759539866888,0.0006141658138974783,0.0011522274138265059,0.0015052561160086256,0.0017334992850384064,0.0018782821522828571,0.0019319196019924384,0.001851302051341806,0.001603739229822241,0.0012113208446385985,0.0007590766718513929,0.0003552093386369683,6.54591673616492e-05,-0.00013389019315133803,-0.0003464627188919209,-0.0006873118860748395,-0.0011955617384587238,-0.0017865323987293444,-0.002279492235916717,-0.002487806578804258,-0.002316514998777317,-0.001808026236860971,-0.0011119238583536585,-0.0004037013132895704,0.0001945984707073567,0.0006482130688663689,0.0009897213294134102,0.0012705291853621656,0.0015191822694789808,0.0017281730577651299,0.0018680622196578635,0.0019117338229700791,0.0018498801857384666,0.001689219453143997,0.0014390606163073659,0.00109979831585128,0.0006636057450005302,0.00012672233848756763,-0.0004959856400460815,-0.0011632779656905925,-0.00180884848646326,-0.0023486537368117427,-0.002692303770050624,-0.0027604491144540863,-0.0025093845954558425,-0.0019562496983997497,-0.0011896976278175848,-0.00035205417332581234,0.00040640759016005864,0.0009809731937627665,0.0013447094952580853,0.0015409708710744773,0.0016420002680427558,0.0017002462898881216,0.001721685251873157,0.0016738951148410153,0.0015184120919059308,0.0012428775777200574,0.0008716442373258668,0.0004500181470101543,1.565361769584029e-05,-0.00042076254494054883,-0.0008697494126573301,-0.001334051195854089,-0.0017764043532928096,-0.0021101946834788604,-0.002226948838243914,-0.0020496462701649603,-0.0015801776356403206,-0.0009099385711099108,-0.00018573211556954816,0.0004488269983382347,0.0009040236687085784,0.001163804696848811,0.0012716842265147559,0.0012964315921030044,0.001296788389964471,0.0013001717198957406,0.001300817802980996,0.0012726393266567569,0.001185370004173708,0.0010132715907048937,0.000734464404394108,0.00032976003412097597,-0.0002074977325500066,-0.0008495486303811573,-0.0015151586598610527,-0.002074299225709468,-0.0023852591023510554,-0.0023502933140339315,-0.001960602240687362,-0.0013052039922664441,-0.0005380942451122507,0.0001794727127520687,0.0007330127102547814,0.001081184716852175,0.0012475562466921276,0.001289423507127766,0.001264287157937871,0.0012096175205395152,0.0011385311751604683,0.0010440155363344156,0.0009043476309010465,0.0006895153029388536,0.000373358730281023,-4.765519389064851e-05,-0.0005374669069163405,-0.0010186802164706622,-0.0013930868686681305,-0.0015770898569603363,-0.0015335439118232027,-0.0012831255807146738,-0.0008914328144160175,-0.0004419430921313492,-9.620415420704624e-06,0.0003554784540568983,0.0006333806773849528,0.0008307256057591792,0.0009704338347996719,0.001075838352301249,0.001153664715150905,0.001184168072093946,0.0011257450548302615,0.0009337496937075103,0.0005846589462651069,9.43978922866535e-05,-0.0004758743166186025,-0.001027968463169051,-0.0014483429057417163,-0.0016409292831402894,-0.0015627663356573857,-0.00124667826259275,-0.0007951078449310962,-0.00034132867560148676,6.85333802904426e-06,0.000212729679818052,0.0003202367192563384,0.00042047775334784466,0.0005922048640429917,0.0008487935403063726,0.0011219515016297863,0.0012925088025277551,0.0012516764720446178,0.0009580207534096406,0.0004581350374473686,-0.00013796353667423376,-0.0007073042317974694,-0.001157200559497377,-0.0014386781459411661,-0.00153282953659056,-0.0014321156008914432,-0.001137139021808857,-0.0006706333796857031,-9.216368161954589e-05,0.0005050560804683358,0.0010196916607985024,0.001377292559944243,0.0015542136979799965,0.0015757405757516,0.0014888645758436897,0.0013260836352531218,0.0010834553504391856,0.0007280155106989174,0.00023054997014273723,-0.00039744755859636805,-0.0010865280652778172,-0.0017223978892084153,-0.002181373786393592,-0.0023692797786083446,-0.002246838204783535,-0.0018347313712964485,-0.0012019546996089481,-0.0004466088935887647,0.00032259161929581895,0.0010011666609990237,0.0015023410778939716,0.0017718741890222715,0.001802048892229008,0.001636693666714717,0.0013586010285063892,0.001058516726729789,0.0007969729504362402,0.0005780309985604115,0.0003509615684176362,4.259647298691753e-05,-0.00039337847400149333,-0.0009347166751922585,-0.0014801924387654855,-0.001880774562884558,-0.0020015365589769194,-0.0017849892530018708,-0.0012826994064519368,-0.0006374261829793029,-2.401274253562317e-05,0.000422126828351236,0.0006557725256962453,0.0007300526286755623,0.000759440214544093,0.0008548651711283076,0.0010620022390154128,0.0013345509819509805,0.0015580731717746228,0.0016122657396684874,0.0014360431922692872,0.0010567477031924422,0.0005665330691997583,6.293272189549404e-05,-0.00040537990271927843,-0.0008499250439474617,-0.0013035761677189983,-0.0017618575076053062,-0.0021514611292788345,-0.0023542727556533304,-0.0022733700542835874,-0.001894631821062261,-0.0012996842369098053,-0.0006213280558705127,2.6096536181484427e-05,0.0005927942617010071,0.0010874198556557377,0.00152993080610286,0.0019036804017832335,0.0021447567136837487,0.0021767280375652154,0.0019652409848725876,0.0015532679752432467,0.0010515099766296716,0.000587822512575726,0.000244528251560129,1.8785521728631872e-05,-0.00017221534003656442,-0.0004428387788946545,-0.0008702617097951014,-0.0014390315906007514,-0.0020286434189996094,-0.0024551639077886062,-0.002550720289711997,-0.00224254442096303,-0.0015906267277787324,-0.0007638848212921842,3.245382070330262e-05,0.0006405544114913189,0.0010037790271778151,0.001167720727824268,0.0012335148596203682,0.0012919787347156792,0.0013753505228818286,0.0014517563901957553,0.0014610391150346922,0.0013645548915742515,0.00117369264695811,0.0009386041742706561,0.000708143174234445,0.0004923109471621579,0.0002547742389435339,-6.032974198698127e-05,-0.00048660575380178443,-0.0010046856017923017,-0.001538163428427203,-0.0019762696298956336,-0.0022128085276325003,-0.0021859510419810664,-0.0019021937950617672,-0.0014322240607976852,-0.0008790046115670625,-0.0003343733813845056,0.00015149452850368554,0.000571343092403413,0.0009362007567858538,0.001245484892353235,0.0014741112169257896,0.0015845083703238548,0.0015531634323083866,0.0013924364931580172,0.001152735835496591,0.0009021583637446519,0.0006928705847395089,0.0005312828937302756,0.00036981213095698805,0.00012965348822637445,-0.0002522628521739749,-0.0007752443577419049,-0.0013538093101209186,-0.0018395148054759988,-0.002078082744740476,-0.0019741105904899367,-0.001531544278664836,-0.0008522062512356072,-9.698319404313825e-05,0.0005697789692218881,0.001030011165598663,0.0012406488250954477,0.0012349740315065183,0.0010975327001909174,0.0009221844239013319,0.0007717232125490268,0.0006588510184087199,0.0005564701715887229,0.0004265272148079582,0.00024575523616529637,1.2958553106850014e-05,-0.0002598999369831118,-0.0005576942235414783,-0.0008610096793590761,-0.0011360762631288167,-0.0013293673240137064,-0.001378566868798167,-0.0012385130621707637,-0.0009075586031112731,-0.0004369735454871352,8.415108474794502e-05,0.0005606057355206766,0.0009217393442461972,0.0011364016365447475,0.0012097159157585956,0.0011700844040249147,0.0010560161304521425,0.0009056954928223603,0.0007466084503515429,0.0005844636917015355,0.00039757862464544344,0.0001459376573794966,-0.00020292221906932683,-0.0006425361668021207,-0.0011106419470524238,-0.0015017415168490035,-0.0017069441914707385,-0.0016612282505726354,-0.0013722282800633216,-0.0009146538123988468,-0.00039418759526785806,9.805808918184088e-05,0.0005151085905176797,0.0008533262848403506,0.0011264299306646697,0.001335285627731318,0.0014559320974400073,0.0014543213818153983,0.001316284685158263,0.001069131331646787,0.0007756689921785298,0.0005000670550472271,0.0002660929835009921,3.731769995664368e-05,-0.00026200645306878676,-0.000692426499943128,-0.0012426220460789693,-0.0018082386622694639,-0.0022252711660405416,-0.002343577022334368,-0.002099408579908302,-0.001545066862630619,-0.0008204336685501298,-8.663009723065178e-05,0.00053813025614308,0.0010076455091133788,0.0013345685582045205,0.00155278157460421,0.0016828948191828191,0.0017204881771071654,0.0016487965369038798,0.0014617911304161304,0.0011792324999060253,0.0008431032492935265,0.0004978734222075488,0.00016703952222755342,-0.00015878340689422184,-0.0005118129011731967,-0.0009164880071032244,-0.0013543376508806297,-0.0017484887660340204,-0.00198436711991507,-0.001961046056965437,-0.0016455624668939494,-0.0010974313732577162,-0.00044757027933032276,0.0001567190429247942,0.0006099752105222133,0.0008802155653668785,0.0010023699483559718,0.0010438966455009456,0.0010652008511674385,0.0010947965491483569,0.0011263637232653144,0.0011316185749073648,0.001076996682519864,0.0009351694272276012,0.000689792160424671,0.0003371283763206127,-0.00011152462596568673,-0.0006254987481628253,-0.001150710894800564,-0.0016108650154187765,-0.0019193597273349232,-0.0020028648604149455,-0.001828703554575657,-0.0014216765128172524,-0.0008589147734043433,-0.00024342636911555728,0.0003301694106395762,0.0008000513981531001,0.0011415948785327662,0.001355238968142655,0.001450967230154779,0.0014414107832598966,0.0013454097826460201,0.0011932227159302392,0.0010219525960033248,0.00085755703732347,0.0006928287835778417,0.00047924879755593134,0.00014650216667720195,-0.0003532014412712351,-0.000997880051363649,-0.001675186959649604,-0.00220749104425273,-0.002417544960235334,-0.0022054414166192376,-0.0015979090282074574,-0.000743300462737127,0.00014594871840108202,0.0008739235970300968,0.0013253525599213791,0.001486341400478834,0.0014206976396564082,0.0012235006373769422,0.0009803249751393916,0.0007493076880453654,0.0005634349056191497,0.0004370073131163792,0.0003632259352248838,0.0003056419338152138,0.00019960945483999575,-2.3095001834205417e-05,-0.00039223960383507,-0.0008647389892250106,-0.0013250058602420807,-0.0016276940907325298,-0.0016626663068942482,-0.0014062386275142378,-0.0009304515853948281,-0.00036736726942655074,0.00014957595417819456,0.0005359124399362014,0.0007762847112594627,0.000910820423590683,0.000999757893524592,0.0010852101657333353,0.0011674217774666278,0.0012049954340024368,0.0011370794572894932,0.0009153251152553757,0.0005300522661150461,1.9866307170481328e-05,-0.0005371413658995918,-0.0010448430899192376,-0.0014138228532076778,-0.001581015977717524,-0.0015202574109935952,-0.0012445762768538652,-0.0008027800124369044,-0.00027125993072042975,0.0002594463003191465,0.0007023694776442256,0.000992611589967705,0.0011024572662877432,0.0010493335230546868,0.0008918950452769859,0.0007091364277504234,0.0005636316698897974,0.00046367431614191405,0.00035001915539845574,0.00012671758895569437,-0.00027127014312706846,-0.0008124967519726049,-0.0013540948877794618,-0.0016994859171209982,-0.0017014155418661886,-0.0013467733436860695,-0.0007665766025876019,-0.00016283735170359646,0.00030044262169383416,0.0005726404853747928,0.0007150612998444452,0.0008334080634166037,0.000996276052923045,0.0011927733670872385,0.0013478614379393641,0.0013739435453799353,0.0012198639505640488,0.0008899008736461964,0.000430781652922848,-9.545164622008084e-05,-0.0006313648298372483,-0.0011264362530187145,-0.0015272858167387484,-0.0017715137489164264,-0.0017982726472617217,-0.0015746399907218918,-0.0011216057819103903,-0.0005198049857260477,0.00011299592843919522,0.0006622615970380089,0.001053578632103137,0.001268334610878257,0.0013343282618609792,0.0013011133025346757,0.0012148771723846197,0.0011030519243769037,0.0009702636179511612,0.0008014382801777244,0.0005679722987532501,0.0002368519003123268,-0.0002145908541007224,-0.0007782313485970569,-0.001396629031226058,-0.0019604800576094104,-0.0023331846970458,-0.002399280736938239,-0.0021159291343995613,-0.0015392540006032938,-0.0008074611277538196,-8.549236362055108e-05,0.0005018922692850028,0.0009137419576813167,0.0011903296913022736,0.0014075257129566622,0.0016165724954317427,0.001806422777943711,0.0019117562306964887,0.0018610028827688871,0.0016325905872542354,0.0012803896279061477,0.0009067906905723499,0.0005957786247602409,0.00034896264822975327,7.302925990673769e-05,-0.0003617075368167167,-0.0010208460138295358,-0.0018284673791225706,-0.002570900016000699,-0.0029901743350115016,-0.0029158550821447296,-0.00235613839395439,-0.0014932265965241654,-0.0005876290515248301,0.00014905661062136538,0.000638639696184867,0.000936082400654358,0.0011570012037497401,0.001385989857331507,0.0016225736601648798,0.001791348448238778,0.0018010626329521616,0.0016099637083621416,0.0012560303737958662,0.0008368289967410604,0.0004560236622810453,0.00017116914568239246,-2.85144727616021e-05,-0.00020702247460723552,-0.00044204619146071726,-0.000782190087435031,-0.0012184696106090557,-0.0016792060528538642,-0.0020494866936577637,-0.0022094624621073413,-0.0020790302889558895,-0.0016517420780369045,-0.0010023507616798274,-0.00026239443043498106,0.00042692002590152996,0.00096349377830912,0.0013122856221520682,0.0015005457200855856,0.0015857605060486612,0.0016160306323476765,0.001605399739099466,0.0015362011486850153,0.0013832142521557054,0.0011410017613050312,0.0008345716157282269,0.0005054735913860575,0.00018335175534174943,-0.00013513500683683967,-0.00048160157068189,-0.0008849390548441007,-0.001333503915170181,-0.0017570711912150412,-0.00204394719843839,-0.002086946037397219,-0.0018340378073061904,-0.0013163736520461244,-0.0006393530960936821,5.7272566775679046e-05,0.0006489549330420887,0.00106174746890224,0.0012797475155432493,0.0013271186876942923,0.0012410221856249068,0.0010546134915390521,0.0007984686019174065,0.0005119167137725745,0.00024654501626850903,5.085391123504793e-05,-5.7523760319461766e-05,-0.00011158558012862183,-0.00018688781380651743,-0.00036182621826538904,-0.0006644473008070357,-0.001038045824446663,-0.0013527275513524654,-0.0014648153918607324,-0.0012938661169633098,-0.0008705966890058504,-0.0003234890441845501,0.00018956577016206134,0.0005621376338302325,0.0007827020235291859,0.0009168740093695415,0.0010454685721663804,0.0012027578536356277,0.001355428616733136,0.0014317467773378226,0.0013750038621029564,0.0011807413589450227,0.0008928633703950919,0.0005662230859413198,0.00022760650717539293,-0.00013398930033122446,-0.0005407915217274525,-0.0009846092843474163,-0.0014034088584140444,-0.0016970705430618316,-0.001775496557122272,-0.0016088252783562533,-0.0012470205243588599,-0.0007957699066784159,-0.0003632856697947721,-1.0088274707010885e-05,0.00026879437093513335,0.0005199055382409954,0.0007818816582940676,0.0010425200111161591,0.001231085617654025,0.0012531473117100302,0.0010484647013314346,0.0006367769542543133,0.00012161102916355719,-0.0003542682773504044,-0.000679531680669741,-0.0008313356252615281,-0.0008836366810183595,-0.0009578842538349108,-0.0011413611632136796,-0.00142031026803103,-0.0016700860935279982,-0.0017137204110430908,-0.0014198593460376194,-0.0007844011586566244,5.498295480514548e-05,0.0008853153899531332,0.0015303501456522066,0.0019415907064916865,0.002210559677673155,0.0024908152679944603,0.0028743726507231534,0.0032984224549911377,0.0035445270463524163,0.003340379084645266,0.002512617665799245,0.0011042936923650994,-0.0006136676206813626,-0.002246908505169621,-0.0034396529006187277,-0.0040059006266731515,-0.003967805178281729,-0.003499116756690572,-0.0028220175284282487,-0.0021176360628036473,-0.001485748253043768,-0.0009523424521513091,-0.000500788879334971,-0.00010230307282643554,0.0002654101005882426,0.0006108988458184893,0.0009291898705707127,0.0012065029700569466,0.0014263676492264577,0.001572925244793266,0.0016288383075116887,0.0015708149862684255,0.0013708335919443292,0.0010095973196300118,0.0004994001125482923,-9.727044235355688e-05,-0.000670018620913918,-0.001090706400129916,-0.0012611560271569228,-0.0011546549112867658,-0.0008279590977210037,-0.0003955618637706956,2.122896481666735e-05,0.00034412832424252267,0.0005617607536530933,0.0007176744511121716,0.0008717138026086916,0.0010569257287623682,0.001254948111277522,0.0014018185885163823,0.0014193103462403316,0.0012532996378836385,0.0008980871071025468,0.0003955616115487981,-0.00018595761219636586,-0.0007770925492971282,-0.0013215749095901869,-0.001775089418244458,-0.002097431299792853,-0.0022507910698588394,-0.002209662652041858,-0.0019757404446561822,-0.0015847769548859294,-0.001097239204385128,-0.0005767648629717542,-6.991240648606344e-05,0.000400199044530759,0.000824379743979345,0.0011918518788283866,0.00148212543959312,0.00167026171976258,0.001739784002291607,0.0016914096123965864,0.0015399963402377458,0.0013025580751581003,0.0009880664326007622,0.0005985288362399565,0.0001414828000984627,-0.00035566245391570274,-0.0008409900420685718,-0.0012476072075605737,-0.0015119447019500546,-0.0015907790476118284,-0.0014702683685177964,-0.0011672863047201237,-0.0007269526313895536,-0.0002176909417721031,0.00027917529679278826,0.000687626051560492,0.0009586874054685301,0.0010851897969935977,0.0010997761245125869,0.0010545584151811591,0.0009909782444148239,0.0009145849659150566,0.0007886443066118813,0.0005528741694275076,0.0001615074932342054,-0.00037708855138491053,-0.0009820962805434641,-0.0015184612344690085,-0.0018473898745592042,-0.0018842973861266377,-0.0016326413599777032,-0.0011760364652743903,-0.000636577120160184,-0.00012564085214924418,0.0002877576512505148,0.0005824957097655055,0.0007728056877263163,0.0008909499476991842,0.0009727551883188283,0.0010458249588296508,0.0011178801303390173,0.0011668935479087917,0.0011404636091693649,0.0009722815590641318,0.0006153434609429343,7.878898284543844e-05,-0.0005526960742735206,-0.0011334213932209462,-0.0015051405090625025,-0.0015599022278262487,-0.0012872168665817958,-0.0007808563708160089,-0.00020013262329917248,0.0002959832116329718,0.0006093271691351165,0.0007289903080256126,0.0007151031130323473,0.0006542424766618193,0.0006122673798575461,0.0006058515413515922,0.0006004145142540733,0.0005301591398698424,0.00033060310300443707,-2.6927783676034597e-05,-0.000510074322684228,-0.0010211572992420417,-0.0014213581444064327,-0.0015793953335796525,-0.0014259739764869296,-0.0009872504081536969,-0.00037766749722165853,0.00024644253931518185,0.0007485273209945505,0.0010562760508651032,0.0011685855939255227,0.0011293408505397998,0.0009915874525313181,0.0007959722770339019,0.0005702199041187265,0.00033752741404036006,0.0001172902567810709,-8.58230448475944e-05,-0.00029155326934472074,-0.000535163726686153,-0.0008365061898684169,-0.0011648748436055181,-0.0014274255443062285,-0.0014972010534017193,-0.0012711360904841488,-0.0007278168699827411,4.6676553077353825e-05,0.0008795607083175538,0.0015701133488104052,0.0019606934322588003,0.0019900413036615565,0.0017072759479081535,0.0012418039255564024,0.0007432237256196354,0.00031882925041627503,-2.3221547891937467e-06,-0.00026309780690191736,-0.0005363928432790689,-0.0008729809150907913,-0.0012675142233413421,-0.001657086629173717,-0.0019468163724798118,-0.002045284257201973,-0.0018944724117427114,-0.001487247768753089,-0.0008711178130229188,-0.0001381822282733576,0.0005973097332560805,0.0012279749053639597,0.001679075727148992,0.0019219692127314808,0.001971374007662333,0.0018690339363911495,0.0016614136919185223,0.0013813544166103352,0.0010415738373412147,0.000641361181258904,0.0001805017234432836,-0.000328204143349328,-0.0008530269090012166,-0.0013440587067243958,-0.0017390470119461722,-0.001974525574218259,-0.0020027819714704704,-0.001810826609635887,-0.0014317837938071466,-0.0009389839172630108,-0.0004213328894683633,4.9706215847581184e-05,0.0004443298039014537,0.000775598441783647,0.0010753944425994527,0.0013585069233638175,0.001598497466407655,0.0017345264036814562,0.001707904688619809,0.0015039004428066757,0.0011674996054944129,0.0007790829441126669,0.0004052586360834561,5.9432682000925836e-05,-0.00029842179785586904,-0.0007200310557418447,-0.0012126288941685054,-0.0017082495380218881,-0.0020829526285452878,-0.0022166997369342497,-0.002056459773871768,-0.0016428888787065467,-0.001085720268483881,-0.0005063616537006005,1.505303856219652e-05,0.00045788741477830727,0.0008398593028628139,0.0011775906134868378,0.0014587987573407768,0.0016440314496565557,0.0016933165037730483,0.0015964515986270887,0.0013851896418519485,0.001119439485340612,0.0008568801823981324,0.0006246046672857971,0.0004082453857079117,0.00016299045973123887,-0.0001598889536372582,-0.0005828853501447596,-0.0010806348499802585,-0.0015760899676672741,-0.001958589076910094,-0.0021204114400319354,-0.001999664846915162,-0.00161116705408263,-0.0010484196900844055,-0.00045120303874942116,4.933832938235191e-05,0.00038270454439897445,0.0005620239969534773,0.000665754805125694,0.00078730782661111,0.0009792968968941702,0.001222769546138597,0.0014385542844371955,0.0015338985337459996,0.0014561958388526197,0.001220646752657917,0.0008949525370058277,0.000552029685016278,0.0002229632624658807,-0.0001170346025443083,-0.0005177575648669713,-0.000996478874502473,-0.001493084838195724,-0.0018739280974098146,-0.001991156701076362,-0.0017657770410557906,-0.0012419876010605299,-0.000574760367458119,4.5291317688677594e-05,0.00048473136285600275,0.0007216382146434657,0.0008314494844413013,0.0009188739021672853,0.0010427461199004665,0.0011805029180078257,0.0012493537084041452,0.0011641503834170974,0.0008918043985283343,0.0004696770621728395,-1.7671348514963715e-05,-0.0004826154083956149,-0.000869614385061351,-0.001162366764202855,-0.0013645701351780446,-0.0014723895657569762,-0.0014600730287537495,-0.0012896203919747443,-0.0009382865822308079,-0.00042528530664523803,0.0001804449602489989,0.0007770887586511276,0.0012620792516305325,0.0015629237973443719,0.0016539084993892372,0.0015554212720679417,0.0013202697765018641,0.001013603028225025,0.000692012403047604,0.00038675439898249126,9.65350256574025e-05,-0.00020564097201807485,-0.0005517747951702404,-0.0009518373769938481,-0.0013732245962137317,-0.0017386146053046062,-0.0019464360459304382,-0.001907462166342431,-0.00158279529348675,-0.0010065132889496222,-0.00028158901346206854,0.00045104901409264326,0.001057712092123995,0.0014515902774232278,0.0016104734644524078,0.0015684385404876773,0.0013902227770477501,0.0011425449672122449,0.0008734163811548937,0.0006035302168824355,0.00032899454669406436,3.305261070764401e-05,-0.00029702345101662644,-0.0006542796396230083,-0.0010048506970611075,-0.0012926297280293278,-0.0014534725884622571,-0.0014333842401440763,-0.0012058347937855295,-0.0007847340742139209,-0.00022896168594183295,0.0003665193483985245,0.000894781482116944,0.0012698188154269265,0.0014533700303595851,0.001460236493233004,0.001337310135422895,0.001128075617819556,0.0008452480597675896,0.0004704395949694111,-1.7550110063966695e-05,-0.0006039004997601788,-0.0012151378853008142,-0.00173081002126609,-0.002026761540010885,-0.0020274456637102197,-0.0017383484381945616,-0.0012407757017564756,-0.0006530921395232088,-8.14411803472324e-05,0.000412944387768396,0.0008158300851825289,0.0011380642892002133,0.0013895123891411866,0.0015662846045556755,0.0016550105577159632,0.001644898532126027,0.001535041846978478,0.001331062121339486,0.0010350409687669717,0.0006385971154007501,0.0001278341482755906,-0.0004980445866602953,-0.0012020137885411569,-0.001893355951726531,-0.0024358505924150036,-0.002685034707277998,-0.0025423855922638568,-0.0020009564441560014,-0.0011580420026228375,-0.0001866693997955147,0.0007211567422566008,0.0014135544206378718,0.0018159123056194248,0.0019349626193584058,0.0018349279051151244,0.0016017910474340506,0.0013126051844753002,0.0010188173984347676,0.000742461566102775,0.0004792962730543923,0.00020562256874036029,-0.000109651596665334,-0.00048633436272281895,-0.0009128370747516319,-0.0013362063250351303,-0.0016722469282146205,-0.0018347756223951967,-0.0017701887565290148,-0.001478845438642739,-0.0010127136684289627,-0.0004537539933369396,0.0001118994747816163,0.0006106365862424826,0.000987022303535662,0.0012064631071494,0.0012619623535611883,0.0011814586476436109,0.0010237940594668136,0.0008556405613034259,0.0007170171707118209,0.0005963036281224135,0.00043450508616715627,0.00016199573830352515,-0.0002501972008676598,-0.0007542889348513336,-0.0012287816866410617,-0.0015236727729197263,-0.001526379121318745,-0.0012138301686193261,-0.000663250673667301,-1.739808592332451e-05,0.000575317873571251,0.0010142795351814362,0.0012694233401829781,0.0013680179506906527,0.0013586746673372521,0.0012744246396971838,0.001113028339414483,0.0008414310038681675,0.00042002190485426684,-0.00016424793655647188,-0.0008691871373235317,-0.0015864466120772349,-0.0021585073625024105,-0.002424521346489838,-0.0022813466742619246,-0.001733355107493811,-0.0009038120730966276,3.5579013360658492e-06,0.000778547286789397,0.0012796170546222748,0.0014748303259282777,0.0014321954982354126,0.0012695632745152582,0.0010921897573307473,0.00094755071563999,0.0008150153645360935,0.000630829307656316,0.0003337823583552927,-9.12168665933454e-05,-0.0005926270669810977,-0.0010642534465484439,-0.0013833005720430504,-0.0014562987896260353,-0.0012528656640822216,-0.0008150630515325997,-0.00024197624473452141,0.00034165117512537443,0.0008209002680504864,0.001120431475260026,0.0012217993594068046,0.001163616300119048,0.0010220955386047023,0.0008749183066213412,0.0007602304087349953,0.000650420553335254,0.0004599334174015374,9.278440161115346e-05,-0.00048821066067993176,-0.001208953176144319,-0.0018869332601191332,-0.0023003505923285044,-0.002291998207998955,-0.0018488432509227786,-0.0011090942724515233,-0.0002932753911932904,0.00039752675561112493,0.0008576875034108657,0.0010919682623809867,0.0011744958532168435,0.0011860892575617558,0.0011676980894324508,0.0011103788860297662,0.0009784211940253393,0.0007452970952361237,0.00041923518795656785,4.5635235960642985e-05,-0.00031065895670534137,-0.0005893975178230333,-0.0007517050449846281,-0.0007849853934484147,-0.0007003357085124742,-0.0005285715635245467,-0.00031567798569300063,-0.00011335790873873543,3.773981973299032e-05,0.00012600977999854433,0.00017520494437998566,0.00022989978589700762,0.0003250811206653723,0.00045884722415267653,0.0005884908509425414,0.0006555972960414682,0.0006248845657277832,0.0005098148179391857,0.0003649758286067184,0.0002471073071364741,0.00016899673659179605,7.818595510183793e-05,-0.00012031140595446834,-0.0005043930231403338,-0.0010700138415292366,-0.0017005088369667133,-0.002194395813914992,-0.002345046822448073,-0.0020356833350266474,-0.0013012935485373742,-0.0003230795823820059,0.0006451120076997508,0.0013827080212606437,0.0017868165574211133,0.0018928815491100804,0.0018254776247662616,0.0017127112505602258,0.0016162498112544728,0.0015151559389254199,0.001345300307591243,0.0010612828761669157,0.0006764160391639048,0.00025436025351811657,-0.0001392827077174993,-0.0004886114936952591,-0.000841972462855757,-0.0012734134186872335,-0.0018121190298427425,-0.0023866327025323427,-0.002826782558444823,-0.0029326226871211093,-0.0025764897243938326,-0.001779891724292947,-0.000718652099443206,0.0003489984852810841,0.0011919877699777645,0.0016942142071802735,0.0018774469985903845,0.0018566039238471883,0.0017624262039704552,0.001678459164081382,0.0016213134751567845,0.001561505539782639,0.0014593679663812795,0.0012892506849894812,0.0010415022624658044,0.0007109047806348402,0.0002888801298934719,-0.00022904711167616942,-0.0008232314555543613,-0.0014319734876222315,-0.0019520868247970811,-0.0022650765830300804,-0.002281182491504531,-0.001981320394443003,-0.0014344098036613902,-0.0007775595362089328,-0.00016537627211766663,0.00028790657058692644,0.0005450944135946669,0.0006451760739406452,0.0006696106445830769,0.0006962743786560225,0.0007635670770610481,0.000857629803488768,0.0009233133532315057,0.0008912139160727373,0.0007099222620699352,0.000372604631534981,-7.137986084856468e-05,-0.0005256660190494497,-0.0008764076360963219,-0.0010329701156967755,-0.0009631205998669756,-0.0007053935478979307,-0.00035073058387571085,-1.5612209438398779e-06,0.00027036807123470655,0.0004454200507965947,0.0005480191890040973,0.0006185082244830873,0.0006844405050073698,0.0007472228996082296,0.00078735876011303,0.0007795659886193815,0.0007052663230161215,0.0005556617114433393,0.00032838510156141677,2.6003196412451707e-05,-0.0003389370875698768,-0.0007359517578191151,-0.0011139304253656394,-0.0014085480348506566,-0.001557362790098286,-0.0015160406212854458,-0.0012705642216978372,-0.0008434768155790946,-0.0002928224090107225,0.00029843016419050204,0.0008421842654843529,0.0012672188558674813,0.0015319806864430136,0.001621665393071679,0.0015353541174232517,0.001277397413295747,0.0008623462486007289,0.0003279864366953465,-0.0002589351463062376,-0.0008141428084287608,-0.0012585929733260424,-0.0015371701067110142,-0.0016237029627392333,-0.00151627157644743,-0.0012333803150471295,-0.0008157140391073247,-0.00032787107869174407,0.00014929616593948566,0.0005391137437694569,0.0007953242028622046,0.0009202103327465601,0.0009621017443534438,0.0009897492801390416,0.0010543600608456574,0.0011581854358115335,0.0012459749799998067,0.0012245315475345818,0.001002946158718463,0.0005374186278642099,-0.00013783146815388517,-0.0009076271265244724,-0.0016046887733592123,-0.0020616116715867347,-0.0021674801522762457,-0.0019072091105126771,-0.0013663619594198122,-0.0006968836912983818,-5.677666435678771e-05,0.0004487564326889527,0.0007958629046599809,0.0010272012289845294,0.0012051926356249707,0.0013625011501724599,0.001478454414099106,0.001492627194225226,0.0013437119945850873,0.0010076054626025734,0.0005121358520319759,-7.630850771910732e-05,-0.0006804404649993333,-0.0012339700626712664,-0.0016861351781395921,-0.0019922387442833107,-0.0021041127321411793,-0.001974263526092681,-0.0015774502558701987,-0.0009397565753432921,-0.0001556632536913206,0.0006252268306386112,0.0012457204128625127,0.0016041391803088545,0.001697763313988161,0.0016163408120105239,0.0014840673834385937,0.0013829895842408756,0.0013052020167498427,0.0011632766246199475,0.000850774432406194,0.0003145531077257336,-0.0004026719609533512,-0.0011693862225983917,-0.0018133872030303604,-0.0021848359240121728,-0.0022068815522188552,-0.0018962824362177006,-0.0013499944291044217,-0.000706318141420915,-9.757386529722287e-05,0.00038752488131505174,0.0007198648071723864,0.0009221880827449716,0.0010439855786865257,0.0011304359164942442,0.0011984926395650136,0.0012306803266770798,0.0011891060502972018,0.0010411312899440272,0.0007809569664188373,0.00043391616598931594,4.190716636392133e-05,-0.00035820072947907207,-0.0007457113685606295,-0.0011069023394092204,-0.0014127131409878845,-0.0016046158905913895,-0.001607888003103843,-0.0013715588511972157,-0.0009104552311548383,-0.00031716396134888925,0.0002706121085702171,0.0007306732657782383,0.001007696568243573,0.0011242332962697606,0.001147797776135444,0.0011385452463646179,0.001111178485589135,0.001031368937215431,0.0008434806007667902,0.0005096170402057209,3.84180154855444e-05,-0.0005083747850896698,-0.0010321417059014086,-0.0014290382200711816,-0.0016249258769027233,-0.0015992016302684721,-0.0013861064119451755,-0.001052308110469739,-0.0006631005415219783,-0.00025731397526309013,0.00015406924376070396,0.0005667466323139776,0.0009570360762866867,0.0012732345898812,0.001454967720526599,0.0014700387956834149,0.001342256950559212,0.0011452890986041941,0.00095880994621095,0.0008119809707036522,0.0006547939718711353,0.0003850865679730759,-7.73549717470077e-05,-0.000714119342803911,-0.0013820369493216201,-0.0018632259077839977,-0.00196995643191894,-0.0016465861031406384,-0.0010084345375972767,-0.00029140560900306803,0.000263116313040598,0.0005256463504942305,0.000532955043401899,0.00044867126971466373,0.00045271721071304363,0.0006242107645380643,0.0008875857714600753,0.0010543676319298596,0.0009348845359115716,0.00045249814992605526,-0.0003053641632495229,-0.0011237669596460725,-0.0017578638186693972,-0.0020360894065311937,-0.0019187903460384037,-0.001492020410602063,-0.0009107732474414259,-0.0003271610178001004,0.00016131051204046755,0.000526011759183064,0.0007888756294157089,0.000990156734158554,0.0011613018898128053,0.0013127567066066673,0.0014354897960047596,0.0015087011460042218,0.001506954391283359,0.0014052150710838016,0.0011845616907759586,0.0008409182510494159,0.0003948612084545064,-0.00010344591749267512,-0.0005798316245329703,-0.0009525900909390339,-0.0011537471050585201,-0.0011465697933352459,-0.0009341021221945035,-0.0005589794283563502,-9.70924569716424e-05,0.0003545910820545318,0.0006983065962919261,0.0008632503504613082,0.0008315738997592732,0.0006465888760451372,0.0003915303667001462,0.00014413790475134754,-6.874350165847519e-05,-0.0002868961082801232,-0.0005887561984575351,-0.0010338664118861728,-0.0016109847299514385,-0.0022251568408074604,-0.0027325377750058717,-0.003001445068855429,-0.002962921654117152,-0.002624119619011937,-0.0020453091446077662,-0.0013055958713531798,-0.00048487749927844095,0.0003312683542469816,0.0010430950149975533,0.0015517008520730164,0.0018051597008288825,0.0018505717305348367,0.0018475822285309534,0.0020122181208282134,0.002501837972103995,0.0032974767797895256,0.004158096928899624,0.004694026587750608,0.004541552044129865,0.003552332157389677,0.001887361630882499,-4.698766460901893e-05,-0.0017853491182161898,-0.0029952390558125232,-0.0035577909433225597,-0.003508636862620754,-0.002918308470785706,-0.0018308979105161787,-0.0003166820704526615,0.0014180818061013175,0.0029867004165147226,0.003925866560516295,0.003914124571836668,0.0029685049762025353,0.0014727437470394376,-1.6869912174208648e-05,-0.0011034142985064084,-0.0018305752246613252,-0.0027185234933920386,-0.004471096318789691,-0.007461384231778714,-0.011275949461802832,-0.014636125043442012,-0.015852075794251148,-0.013655222447748479,-0.007974172228196876,-0.00017401530559756767,0.007451021714424862,0.012698293471498477,0.014434034874753941,0.012994168743356554,0.009829436232810764,0.006656717555004596,0.004625509791655537,0.003933275726638269,0.0040111420966098075,0.004067966939757379,0.0036217107175083203,0.0027238314088919337,0.0018096173978379912,0.0013302591600218398,0.001419269738055326,0.001787755900651125,0.0018883210742616542,0.0012324714124980797,-0.00032813063018673726,-0.0025105087823846725,-0.0047372454206876975,-0.006413946748063174,-0.007194733485518839,-0.0071051538819009025,-0.006476224356563299,-0.005739537887288093,-0.0051964411284986765,-0.004879317963299292,-0.004570031625982714,-0.003955934119836378,-0.0028318131443599934,-0.0012360736575629996,0.0005488611971297561,0.0021250658144506152,0.0031624986846693903,0.0035404830085618896,0.0033795715194792015,0.0029577812233948925,0.0025654099496018375,0.0023789500291257065,0.002414262835897898,0.0025678335317477936,0.0027059611488550028,0.0027431929726554876,0.0026691592934994677,0.002521222168155169,0.0023336643186544744,0.0021032194933293486,0.0017930094789904206,0.0013669567999929732,0.00082566525190941,0.00021608664224796948,-0.000391602072916157,-0.0009418373749562256,-0.0014180551663946091,-0.0018365386079776053,-0.0022155213912821658,-0.002542860522413867,-0.002766054364026878,-0.0028128025834817556,-0.002630088756167959,-0.0022182237065108343,-0.0016399027751802554,-0.0009994894650635932,-0.00040444236137323437,7.076947905394152e-05,0.00040210565475643596,0.0006114320075201734,0.0007480362120514941,0.000866122463221733,0.0010031139566276388,0.001160685005146942,0.0012940644077936805,0.0013190877883731288,0.0011420672451436706,0.0007048277378988068,2.548412371409061e-05,-0.0007861117185427217,-0.0015493391608041155,-0.0020653682038546985,-0.002182429886402401,-0.001848694795687993,-0.0011320740157749621,-0.00019972261095979496,0.0007340931251724846,0.0014727906224699864,0.0018941393325641815,0.0019817171637273303,0.0018205863938750562,0.0015568693715257724,0.0013346827316009164,0.001235322416433443,0.0012446860592381938,0.0012630409467167757,0.0011521238678849862,0.0007985102031145819,0.00016705769849435111,-0.0006754865231970264,-0.0015744061656499768,-0.002333624700434892,-0.0027796162149310594,-0.0028198633029871125,-0.0024724570716894373,-0.0018535379101183745,-0.0011283420595971133,-0.00044945296730871683,8.944517934502282e-05,0.0004675020621601513,0.0007201791214407718,0.000906999368324311,0.0010795378586099975,0.0012594887748179286,0.001430766078470862,0.0015467697376014649,0.0015509794239224749,0.0014031312528434694,0.001097980997554868,0.0006662063031732994,0.0001586556082083595,-0.00037286818004144507,-0.0008840015619202723,-0.0013324843038955113,-0.0016694050383785491,-0.0018401248496221177,-0.0017987422025393493,-0.0015282350469518723,-0.0010540511840683505,-0.0004433472837549082,0.00021003887457245315,0.0008087260564476673,0.0012745968287399961,0.001563997228203746,0.0016711211984961128,0.0016187379407107858,0.0014391610295209898,0.001153410614250719,0.0007608407480694157,0.0002495008421818885,-0.00037401863263949954,-0.0010522511857026526,-0.0016669710427691295,-0.0020675886160363786,-0.0021302787658385356,-0.001817758098275685,-0.0012047129824978402,-0.0004517463788776283,0.0002597881628586497,0.0007978464330560629,0.0011195318403187113,0.0012644756762621564,0.0013112763019274675,0.0013241977748538756,0.0013185038331610202,0.0012589051685496498,0.001086188651421796,0.0007539472645279211,0.000256862396986821,-0.00035876089792886593,-0.0010015613789892228,-0.0015542256821649998,-0.0019014681405373009,-0.0019627186007806995,-0.0017204470662185592,-0.0012306074707465638,-0.0006056771558601091,2.5361041944578456e-05,0.0005610589810352595,0.0009531662173661083,0.0012031392716865266,0.0013369770937909204,0.0013776417847357779,0.0013320205868154135,0.0011960368849200746,0.0009680538616601078,0.0006573555964433867,0.0002824768815487222,-0.00013498673361798876,-0.0005719116722521967,-0.0009976691513644974,-0.0013670586383509398,-0.0016215812060310167,-0.0017027421289658646,-0.001572516595479821,-0.0012318573448882035,-0.0007292581839272006,-0.00015449754949481984,0.0003836883120568787,0.0007914461442328322,0.00102291871994972,0.0010960031335647815,0.001079074336148563,0.0010514996681758187,0.0010570027206633181,0.0010758120520186127,0.0010329488929465926,0.0008399789195633501,0.0004481800573461212,-0.00011550543901015734,-0.0007484610748773109,-0.001307590291265032,-0.0016617283579945588,-0.001736818357078252,-0.0015353016915478739,-0.0011249844419956166,-0.0006066928306403669,-7.751037477646055e-05,0.0003948603691188113,0.0007785133966907497,0.0010661431090526008,0.0012562803669835191,0.0013403365326286965,0.0013040593497038342,0.0011408704193851982,0.0008648722963984875,0.0005114389593344015,0.0001238876778202997,-0.00026314529482354405,-0.0006300846859835407,-0.0009638800588840394,-0.001242717900783639,-0.0014281046849269827,-0.0014731305905882493,-0.0013440297572214518,-0.0010428098786280891,-0.0006170515846916679,-0.00014879082923620047,0.00027529419897925607,0.0005991881992132843,0.0008187787971109927,0.0009737241022739091,0.0011109529169765096,0.0012409116650833145,0.0013164711106750729,0.001252206018682219,0.0009750713448741097,0.0004756631787136093,-0.00017149075273287196,-0.0008299728954588382,-0.0013515600337057044,-0.00162669344920539,-0.001613092855736343,-0.0013365815976749788,-0.0008721205879201586,-0.000317451327585554,0.00023126255743174257,0.0006969979818561654,0.0010307068564845193,0.0012112752643585085,0.0012389528054619577,0.001127312132380958,0.0008988070983968,0.0005847478119006284,0.00022521209840550794,-0.00013628981810261294,-0.0004631585266671708,-0.0007345203014134246,-0.0009453577827861369,-0.0010966253644530033,-0.0011812763978415203,-0.0011757666475858263,-0.0010448812892800818,-0.000761178492324185,-0.00033096734868103233,0.000188840133053401,0.0006981118891698195,0.0010882761209221547,0.001289195443054749,0.001300430726021981,0.0011846222216760742,0.0010237360543235692,0.0008645630680790709,0.0006890604073356522,0.0004301648210452454,2.46065419459736e-05,-0.0005291804647641197,-0.0011431535909693761,-0.0016597108748298548,-0.0019118643627366533,-0.0017954734759051255,-0.001319579466260607,-0.0006103987217765184,0.000135151969627124,0.0007271900747954733,0.0010563467881025918,0.001127832521072165,0.0010402747071440294,0.0009222088693502816,0.0008606636324605614,0.0008586458667375714,0.0008411559757308104,0.000703061446599932,0.0003713635901171897,-0.00015026407134002807,-0.0007745366071163076,-0.0013607268520661692,-0.0017648968780660335,-0.0018876780168915741,-0.0017021948687852449,-0.0012552166962462425,-0.0006453997417837717,9.993515025545456e-06,0.0006067326403765764,0.0010743883215020554,0.0013831218565885546,0.0015379300807908524,0.001564433777669421,0.001492317826661681,0.0013430311831231214,0.0011256175384104215,0.0008398831616673882,0.000483083828600626,5.6537925929614724e-05,-0.0004293556117910204,-0.0009512916094028862,-0.0014695316656843551,-0.0019255142418171832,-0.002244617055628214,-0.0023492336081880377,-0.0021828107001584346,-0.0017364611385942016,-0.0010631811707305086,-0.00026779036640555104,0.0005261628935974486,0.0012163186249489507,0.00174643831056239,0.002103863416778226,0.002295748792819399,0.002324851818402544,0.0021844548963710956,0.0018754193904646538,0.001429076634593681,0.0009128553308342826,0.00040726477870696096,-3.471631707048224e-05,-0.00041816105833542027,-0.0008015826888213754,-0.0012539538409084042,-0.0017964473729631472,-0.00236436962712193,-0.0028148492775671085,-0.0029806393308364426,-0.0027453320164144155,-0.0021033812453351668,-0.0011743669266070743,-0.00016187519520416454,0.0007255683418654197,0.0013535490659205582,0.0017011804748923625,0.0018424319436690082,0.0018841468160963517,0.0018997589439198436,0.0018966158284680805,0.0018301080496672742,0.0016476702146431491,0.001329969629619322,0.0009030080510594369,0.00041693929995089644,-8.923642972999478e-05,-0.0006077285271059111,-0.0011476670126388654,-0.0016930824081184503,-0.0021643535164358116,-0.0024193203761802853,-0.002308409881050984,-0.001760729985178699,-0.000850153850368634,0.00020582965257669183,0.001124699488444695,0.0016778283710475411,0.0017865478913204659,0.001543908556299366,0.0011519066013684805,0.0008095947717828649,0.0006125288183861904,0.0005160216344656167,0.00037881153093755645,5.98835511321197e-05,-0.0004864459909433912,-0.001168759247057251,-0.0017906974251395218,-0.002137606806945568,-0.0020714908270060735,-0.0015881309300812803,-0.000814165806803864,4.6764303992686846e-05,0.0007892700358306974,0.0012714144220347166,0.0014494413951386417,0.001375432124553715,0.0011626775666066487,0.0009326273435590427,0.0007637167586091312,0.0006628247590793261,0.0005717244712211739,0.0004057171826891111,0.0001064798168494991,-0.0003165740832406904,-0.0007780589458057877,-0.0011477884992674413,-0.0013073518030293472,-0.0012038061471572018,-0.0008731469583593307,-0.00042246928740716916,1.8614211415676003e-05,0.00035215364017933176,0.0005456434894977509,0.0006309419768650027,0.0006716428460416023,0.0007182989399807301,0.0007769182422114564,0.0008072090531572586,0.0007478166357440664,0.0005500597588073501,0.00020114579859106436,-0.000269406195497221,-0.0007941359541979449,-0.0012762113662490022,-0.001603828658739773,-0.0016764378122525792,-0.0014414471112236726,-0.0009265270310253135,-0.0002460288237270394,0.000431109933420649,0.0009434646494166857,0.0012003802533553727,0.0012126321431416268,0.0010730387510584785,0.0008981300327543823,0.0007642033714576005,0.0006725949052656144,0.0005602418708601543,0.0003460213370238968,-1.3983053951924923e-05,-0.0004908984217227262,-0.0009839738273011904,-0.0013567645878747741,-0.0014913088911411329,-0.0013354193045067128,-0.0009223393758889088,-0.0003560489008688118,0.00022801902349261995,0.0007074681529895934,0.0010049846930851112,0.00109986750137215,0.0010207111638793189,0.000825701240181098,0.0005776488677861854,0.00032133115199443224,7.188086344207372e-05,-0.0001791112354023785,-0.0004417981310600384,-0.0007037356497551398,-0.0009200109007316239,-0.0010262260438989033,-0.0009675180901787476,-0.0007268365413490094,-0.0003374998863287145,0.0001250445259438058,0.0005675095172089203,0.0009091216053302589,0.0011065917208585834,0.0011632070659567603,0.0011163999377837293,0.0010082126151287941,0.0008543342660118579,0.0006313263318503968,0.0002929063334451776,-0.00019134358110983697,-0.0007966762710952078,-0.0014278757312052867,-0.001940434826168534,-0.0021905763964537176,-0.0020904239930917678,-0.0016422725813173772,-0.0009378562932259008,-0.00012632404702201533,0.0006325957552255955,0.001211870801406461,0.0015451435850113674,0.0016354281966119827,0.0015441617059706431,0.0013616095120556949,0.001164659907934734,0.0009779722777030688,0.0007611537414539308,0.0004369651821332563,-4.811885471223289e-05,-0.0006651615056021931,-0.0012862455144032735,-0.0017282219972297023,-0.00183668312347626,-0.0015629473944536762,-0.000989970085866194,-0.00029390585490826626,0.0003349490455497212,0.0007684195427259239,0.0009773960812550257,0.0010179932134934473,0.0009818722775003573,0.0009402358268797654,0.0009095855175536966,0.0008533459409918484,0.0007141340044213428,0.0004555839559767182,8.840744588076415e-05,-0.0003338924376549931,-0.0007441861468233594,-0.0010940800251054822,-0.0013672409303106302,-0.0015670952339697148,-0.0016916987162261053,-0.0017163751748863754,-0.0015964824848697277,-0.001287958645981789,-0.0007744426341839681,-8.935514340033365e-05,0.0006765072106538908,0.0013895271600976786,0.0019117882168615027,0.0021522633039452155,0.002106131535148831,0.0018575781132827006,0.0015395676836960713,0.0012696399264923693,0.0010954292417290784,0.0009774551956873829,0.0008154657827231617,0.0005027021221352203,-1.8543759669817708e-05,-0.0007239214892298628,-0.0015080768658307588,-0.002216417056755845,-0.0026931247427436356,-0.002827201459978991,-0.0025820929339570196,-0.002002681872682624,-0.0012014422287673552,-0.00033008244122126204,0.000455844544258179,0.0010320638939306983,0.0013333687946398697,0.0013676240393129383,0.0012112546783398489,0.0009847468219714847,0.0008118700137862516,0.0007733080683641208,0.0008716700897091797,0.001025328926645511,0.001099178413645881,0.0009633663089146165,0.0005554364866827959,-8.270556965799447e-05,-0.0008107827059651509,-0.0014375690602244301,-0.0017906616099173831,-0.0017805630773164082,-0.0014327649465536202,-0.0008735666614610718,-0.0002748815284994876,0.00021713710403991541,0.000535647384129367,0.0007032370645309624,0.0007962708264573741,0.0008864612505210034,0.0009945459942695418,0.0010817459305417793,0.0010803626849737774,0.0009411853634192389,0.0006668604168661284,0.00031115655136786774,-5.344486445087431e-05,-0.00037715073243458795,-0.0006551504484879711,-0.0009158516937585615,-0.0011834297855141756,-0.0014409976711258214,-0.00162109692742514,-0.0016326052766996902,-0.0014091346342951425,-0.0009497270718982668,-0.00032788265591365807,0.00033455439987479575,0.0009117370449313617,0.0013131383210711579,0.0015034037639986282,0.0015014156839949252,0.0013642348525182138,0.0011618277663546363,0.0009484979901528758,0.0007403125275249696,0.0005103927630151471,0.00020890136462670822,-0.0001988381141827865,-0.00069602827886134,-0.0012020782493885548,-0.0015940503186832127,-0.0017526520216029993,-0.0016108027659099448,-0.0011830241755495237,-0.0005640365092731178,0.0001022150299332783,0.0006711413234933672,0.001045049040964142,0.0012003836871466744,0.0011830342338060309,0.0010745966045535098,0.000947034476629583,0.0008286547863171144,0.0006970096850751899,0.0004996362379711697,0.00019079067834430568,-0.00023340290078602518,-0.0007180485898771319,-0.001160698265826625,-0.0014480888168893146,-0.0015017454210464565,-0.0013092328976617336,-0.0009252808667220885,-0.0004447094481925509,3.5435661825239816e-05,0.00044458239521302627,0.0007483541846437247,0.0009424270004351445,0.0010396445637395342,0.001057187016815301,0.001005845358054894,0.0008822883369271081,0.0006678665867947968,0.0003389595887102697,-0.00011076941560793604,-0.0006457706588921295,-0.001178697906379584,-0.001588305662519396,-0.0017620137548100523,-0.0016422247665011866,-0.0012506615162559214,-0.0006777836350285433,-4.486639974929184e-05,0.0005402952874721059,0.0010137049914577846,0.0013614225508698724,0.001603219882888089,0.0017630548514421098,0.00183995521002085,0.0017937246930548884,0.0015556841282211424,0.0010640787126424006,0.00031005038372596016,-0.0006290852166269077,-0.001590224180504446,-0.002365111383799299,-0.002767998423389161,-0.0027022408169318137,-0.0021963166839254118,-0.0013930812743381035,-0.0004971448151384404,0.0002969580690425431,0.0008665611842798989,0.0011890879155025645,0.001327487789881831,0.0013815397744112892,0.001428977706810922,0.0014856871789064763,0.0015045049386909965,0.0014107668645446856,0.001151841753033425,0.0007307565871608442,0.00020549003859057807,-0.0003419014380895729,-0.0008435506589051672,-0.0012664701652499912,-0.001605607551006162,-0.001859401911314233,-0.0020084345908080504,-0.00201238522808075,-0.0018260560737309289,-0.001423808398515468,-0.0008198048406507653,-7.610654259495903e-05,0.0007042897907055819,0.0013990898183304985,0.0018988158808064704,0.0021398310909962097,0.0021248614694655975,0.0019195369207010457,0.0016224787536310028,0.0013194674844182234,0.0010427835739412672,0.0007578967871134506,0.000388083143254597,-0.0001325439048537405,-0.00080497214612496,-0.0015417014731245202,-0.002190483864526053,-0.0025951494257466776,-0.0026600113684439497,-0.0023817993147563997,-0.0018351382033368567,-0.0011287935141098872,-0.00036594765111486747,0.00036933252064320335,0.0010040091437719203,0.0014691951796752811,0.0017123770642741424,0.0017248535224353612,0.001561744121477213,0.0013319839580805783,0.0011545422023917563,0.0011007497057648346,0.0011546304694790039,0.0012153415390571101,0.0011428508989899078,0.0008241902802683817,0.00022781406298433033,-0.000577395424360493,-0.0014423438590402398,-0.0021843923503285264,-0.002641572806568542,-0.002717704541854495,-0.002406721228181942,-0.0017899646022643107,-0.001007504411011603,-0.00021365482105009821,0.000466428003466672,0.0009631280107533545,0.001264975395111191,0.0014022558933806635,0.0014229821631690977,0.001371886326320252,0.0012782042942121416,0.0011528708970688542,0.0009922275022875358,0.00078412804628097,0.0005136940859916233,0.00016901019346647573,-0.00025080863187149603,-0.0007243246085804649,-0.00119790194744274,-0.0015869442015148112,-0.0017959483259753805,-0.001753914755215416,-0.0014483412196303338,-0.0009371988210971806,-0.0003292052524120966,0.00025847711589022646,0.0007424910462708062,0.0010934319045496888,0.0013253645998002137,0.0014642764859783232,0.001517562638166499,0.0014658093810290128,0.0012825438825684367,0.0009660793874210986,0.0005563928506903266,0.00012033914644474426,-0.000285568187785284,-0.0006449148373001342,-0.0009769510815649108,-0.0012979613975088312,-0.00157830032837401,-0.0017330435853785088,-0.0016616780120645063,-0.0013147632902995423,-0.0007417039996791203,-8.305904384435288e-05,0.0004921801552046755,0.0008659765651330515,0.0010180703781561735,0.0010146124077584986,0.0009523487425837423,0.0008980657974815623,0.0008590822981836902,0.0007942010882407737,0.0006484199898725929,0.00038683011331257255,1.3150289553928978e-05,-0.0004279890797692459,-0.0008604491077880174,-0.0011949972697259895,-0.0013546948617727786,-0.001300454376033053,-0.001045031795799238,-0.0006465149781895076,-0.00018365857340480731,0.0002730501403439566,0.000678466227561892,0.0010108997965195359,0.0012574840679440776,0.0014007915358447373,0.0014176168058101068,0.001289824890333652,0.0010173638307536736,0.0006231478587552925,0.0001480452995688017,-0.0003574207900209626,-0.0008381196119799682,-0.001236778167988493,-0.001499787970200209,-0.0015890562647442848,-0.0014943704156929905,-0.0012369890695319405,-0.0008607468576790707,-0.00041681683754018854,4.709607341922453e-05,0.0004874728432226359,0.0008601212076901503,0.0011199276549678698,0.00123111088079281,0.001183393855126461,0.0010021470787932862,0.0007424974928801021,0.0004672061295883318,0.00021894509379353187,2.3204720813962097e-06,-0.00021347842523135947,-0.000471422006619332,-0.0007936437669522085,-0.001154835089034619,-0.0014762369359338995,-0.0016465871917976634,-0.0015647189237313736,-0.001186718293236501,-0.0005549444510436611,0.00020782466265510105,0.0009395221700886573,0.001497405888880126,0.0018066648724132887,0.0018760685268008766,0.0017746247150781142,0.0015839698457702548,0.0013543528421086485,0.0010889975658814302,0.0007627573945439238,0.0003579310668131448,-0.00011058609034539976,-0.000598269818436788,-0.0010558986781998125,-0.0014528409716994923,-0.0017784792598875912,-0.00202255580556447,-0.0021550504666939816,-0.0021270801816453584,-0.0018956844070843618,-0.0014544436218029329,-0.0008471212046120437,-0.00015546400291295993,0.0005288132986169797,0.0011293926165705296,0.0015957340600087277,0.0018993353808303883,0.0020261501561876063,0.0019751480103791224,0.0017648718130594248,0.001440828839430902,0.0010730660713575517,0.0007375263408825594,0.00048485603544394057,0.00031143901617206087,0.00015243874656302025,-9.096809493220031e-05,-0.0004975007976685832,-0.0010721194925652194,-0.0017248779847474894,-0.0022976186231361633,-0.002625828532813447,-0.002603130670583077,-0.002217083767712112,-0.0015441739942995399,-0.0007144332095988759,0.00013228730563980532,0.0008800239082563481,0.0014539316642917539,0.0018237504206885728,0.0019977176221076783,0.002009166956423309,0.0018989421236557079,0.001700561702519208,0.0014357897062139704,0.0011218113594146351,0.0007814859516902598,0.00044437228938906393,0.000133806157433248,-0.00015086942558953308,-0.0004400871751587831,-0.0007775657751176797,-0.0011878891212444651,-0.0016479265028767674,-0.002081322134383269,-0.0023812858968712334,-0.0024500292416282446,-0.002234996384115967,-0.001746444646964834,-0.0010524979743249201,-0.00025775554811769026,0.0005246997807374814,0.0011989841021276392,0.0017032743396027126,0.0020143844957682434,0.002140957234590091,0.0021106090406762213,0.0019577305321674537,0.001715718620333059,0.0014129754188620576,0.001070013183348862,0.0006966211552730888,0.00029103886882721913,-0.00015563474220206539,-0.0006483356730969404,-0.0011726367609723172,-0.0016812965014934723,-0.0020909105480254524,-0.002295545114337073,-0.002198891490518871,-0.0017574576023630995,-0.0010177783867926715,-0.00012633342200657656,0.0007027004436660983,0.001258541648400314,0.0014173946115770175,0.0011981161150369255,0.0007568795555527635,0.00031689191165218075,6.48074752190881e-05,6.550651982106413e-05,0.00023844022692334408,0.0004070008941153958,0.0003954920538314597,0.00012480094976320547,-0.00034158873437937544,-0.0008248560012482208,-0.0011169767335897974,-0.001080036035024143,-0.0007073727741233575,-0.00011901348762805952,0.0004988928683176423,0.0009741178293967725,0.0012087709194547002,0.001198727661780807,0.001013994785508062,0.000757159745241195,0.000519476231092912,0.0003482041508773571,0.0002324793280675006,0.00011196751869589448,-9.073698025748982e-05,-0.00042225448162734375,-0.0008569288938889998,-0.0012894910910678018,-0.0015759660017493462,-0.0016062885284378141,-0.0013656559787155885,-0.0009431212233836732,-0.0004791242545535345,-8.570938306962116e-05,0.0002078513832349723,0.0004500607560599261,0.0007109752561085718,0.0010170559092228014,0.0013219578384165685,0.0015301492827288622,0.0015537882183252229,0.0013632112255424983,0.0009988710479055104,0.0005404790677197925,5.8353302152567156e-05,-0.00041688098465002835,-0.000884927447467535,-0.0013365159792607963,-0.001718588269058624,-0.001936977276251338,-0.0019012220795793814,-0.0015819906224886701,-0.0010390642421369207,-0.0003979044807878673,0.00021006263381754644,0.0007033795312218493,0.0010683334479952519,0.0013338960559018491,0.0015286309685688649,0.001652374190586036,0.001679270289793557,0.0015836097763310742,0.0013651793642331547,0.0010549005576000468,0.0006979573161762724,0.0003272560965729321,-5.428711045061597e-05,-0.0004697694538628133,-0.00094263767755927,-0.0014631061998307757,-0.001967705368263428,-0.0023480382036028483,-0.0024884783704852455,-0.0023145466303414195,-0.0018267133682750877,-0.0011032815832260504,-0.00027344838054502266,0.0005246561603342773,0.0011825517547530584,0.001642720866160091,0.0018970999428972908,0.0019671851259044524,0.0018794005797561479,0.0016522155908164251,0.0013029935442303916,0.0008661005960536281,0.00040219692502475586,-1.632335257466567e-05,-0.00033885446311785074,-0.0005652799668766659,-0.0007449902868192039,-0.0009410970105408278,-0.0011811028966862316,-0.0014274538461418117,-0.001588896625049765,-0.001565986286170185,-0.0013030141620743608,-0.0008182243763033858,-0.0002001493665628449,0.00042446020425381274,0.0009357093707990163,0.0012605569433198332,0.0013918154519597715,0.0013782727802572614,0.0012916737719686124,0.0011885998394524614,0.0010872713342721574,0.0009690539669542824,0.0007993830448704907,0.0005529640684895742,0.0002285344551232328,-0.00015275699146649092,-0.0005603051577446818,-0.0009665043350970328,-0.0013482415210109328,-0.0016762273308439538,-0.0019026345368226443,-0.0019625732343725834,-0.0017971486323329604,-0.0013888672681492166,-0.0007869528659190568,-0.00010256153976399851,0.0005282631392191622,0.0009953751932922107,0.0012516886962562284,0.0013181716074121348,0.0012583330186542612,0.0011417770749154782,0.0010196341012714079,0.0009210930938373127,0.0008612501844542813,0.000842823178242125,0.0008447765219963303,0.0008093623689961094,0.0006478793930229094,0.00027555283205394623,-0.00033601831341585164,-0.001118105961050373,-0.0019046941152732542,-0.002481811938548134,-0.0026675717564795757,-0.002386127463860863,-0.001700974539686956,-0.000792637474443286,0.00010912702089099899,0.0008098274543259722,0.0012166814324842106,0.0013598928536221835,0.001360300919640062,0.0013585254448670709,0.0014395566418800476,0.001590434008060744,0.0017125928547024332,0.0016811751773889707,0.0014173315915547826,0.000932559164291439,0.0003214304416815034,-0.00028977277662372745,-0.0008054281225066094,-0.0011965834660779247,-0.0014921805057872813,-0.0017362786760397367,-0.0019423905944577421,-0.002074694356335498,-0.002065510514341248,-0.0018550922197468744,-0.001429445075601138,-0.0008373302551342357,-0.0001797954585861001,0.00042357255575631173,0.0008788246021146564,0.0011529032616402618,0.001281178639070477,0.001340664870208405,0.0014018005862156831,0.0014859404952186623,0.0015539717289464795,0.0015333502209497155,0.0013669423339705026,0.0010524760677878926,0.0006465870451162615,0.0002306587008876222,-0.00013787665609259051,-0.00045445380162677495,-0.0007561871921788641,-0.001079161378540612,-0.0014152449526144285,-0.0016995286843016978,-0.001838057609064287,-0.0017582433026437313,-0.001449789800649166,-0.0009712422913310208,