-0.00013954068071581386,-0.001670352007045647,-0.002894227362605837,-0.003553150503732061,-0.003497229472752845,-0.0027434714022822673,-0.0014984743040809372,-0.00011481184954747863,0.0010180992532412229,0.0016107854255125037,0.0015791307841609495,0.0010668332878780882,0.00036966952238392864,-0.00020345573636319054,-0.00046216101708031307,-0.00039310387236730785,-0.00012445615971898609,0.00016930610873332674,0.0003595265510413243,0.0004035232125251505,0.00032520689564084857,0.00016702861543303228,-4.4267106193708085e-05,-0.00029489221378948063,-0.0005549649050850241,-0.0007567582711198004,-0.000808364144398002,-0.0006411888762773502,-0.0002594193680437334,0.0002466300290929939,0.0007381049121684895,0.0010957655013813102,0.0012769207147508787,0.0013261686746238645,0.001334616536723708,0.0013746366182103115,0.0014511521626584516,0.001497516019976095,0.0014142909597506122,0.0011236922806459532,0.000607288778901124,-8.99141394385709e-05,-0.0008829694913059473,-0.0016775209157148612,-0.002388532242885791,-0.002941969767153051,-0.003267771616851161,-0.0032968642557874364,-0.0029707327579736103,-0.0022650458851353377,-0.0012215924065628585,2.5848883049469674e-05,0.0012529563156389043,0.0021909024304136394,0.002613936740255577,0.0024360837521950744,0.001765208564069446,0.0008731115468100545,8.33223856895229e-05,-0.00036988793831450216,-0.0004343873728877746,-0.00023393790611554374,2.8209061638787784e-05,0.00019334499842067407,0.00022457717187432088,0.0001982541814925685,0.00022711038272864867,0.0003728896518011321,0.0006054087172303363,0.0008277319395633459,0.0009422684639854675,0.0009106858432961684,0.0007715285361638252,0.0006100018568356738,0.0005027576268062574,0.0004718603788656495,0.00047370664835437773,0.00042741710417069185,0.000264889376945846,-2.7263132403573863e-05,-0.0003989784152831858,-0.0007669777355503384,-0.0010659615976572456,-0.0012886001473753157,-0.0014872876635288305,-0.0017335051306472692,-0.002058025996214915,-0.002409675602048999,-0.0026614346576427166,-0.0026648129492150285,-0.002324216940344411,-0.001651145064430285,-0.0007697021084700812,0.00012916573985642102,0.0008628391780329083,0.0013275899814740892,0.0015335590671200943,0.001589010530872331,0.0016416227827595897,0.0018050494190632884,0.0021064466822068363,0.002479735672611557,0.002804863831641311,0.0029690395804975716,0.0029163589439944225,0.0026626261272632325,0.0022745894906576357,0.0018320215558215803,0.0013952333694564828,0.0009896016033521717,0.000604075432317607,0.00019582610783504088,-0.0002994432937870428,-0.0009440458654225198,-0.0017590042574686892,-0.002683709667235427,-0.0035643462122194533,-0.004195803319139364,-0.004412817590935403,-0.004188498760588317,-0.003678416242547386,-0.0031663220221633866,-0.002921223514555051,-0.0030357229812852707,-0.003341473874387525,-0.0034652930661522264,-0.0030116702076884837,-0.001778513157784329,0.00011682768676180632,0.002279532031716848,0.004226504301424532,0.005609768901878907,0.006340352833760545,0.006547949071824459,0.00642290804830043,0.0060617692823408675,0.00542459951099002,0.004424356891205565,0.003070039892929293,0.0015465621525822815,0.00016120680244349934,-0.0008157324867145298,-0.0013090981830976031,-0.001483225393276887,-0.0016341207932089518,-0.0019963358548499375,-0.0025940678678544066,-0.003238147470430674,-0.0036684750379535197,-0.0037384245249293055,-0.00351028123361255,-0.0031988365420736464,-0.0030109306049408806,-0.0029987887872458627,-0.003026532494480526,-0.002863693668945771,-0.0023344241202522056,-0.0014239432908585425,-0.00028318504420888485,0.0008575091970006478,0.001802596331162122,0.0024647399692026943,0.0028655166649971427,0.0030806994118832316,0.0031759368647811224,0.0031731600678720174,0.0030597289233505894,0.0028234454912124548,0.002483821400146421,0.0020971063141142455,0.0017320705930187355,0.0014326739955353445,0.0011914467541407018,0.000949735611255686,0.0006234928451931427,0.00013844938493216656,-0.0005427462667979797,-0.0014070658737247322,-0.002385377270269608,-0.003350138602303399,-0.00412458924828015,-0.0045179617323212766,-0.004388910580376247,-0.0037144212977748034,-0.0026247291340626665,-0.001373444785408651,-0.0002452218564092455,0.0005583127508187007,0.0009952377407012498,0.0011799308098560152,0.001301389986234477,0.0015110498516448163,0.001845158446472431,0.00222309988488641,0.0025138861070403765,0.0026216910727401145,0.002535134881338044,0.002315748470286174,0.0020443340334287655,0.0017685481401220273,0.0014861101572255274,0.0011666224145655355,0.0007871238262695196,0.0003517015558616558,-0.00011682848985260816,-0.0006014326572678907,-0.001107608653185395,-0.001654805352327426,-0.0022443875227502468,-0.002825553360726041,-0.0032874611579741565,-0.0034936586724130868,-0.0033480084370685987,-0.00285540004995849,-0.002135733533155621,-0.0013747891751892463,-0.0007365189563632729,-0.0002883855830206033,1.6380113390733085e-05,0.0002926188609972029,0.0006452180247037214,0.0011065837978016355,0.0016221281097950676,0.0020849657407694205,0.0023941477098795645,0.0025023820543385714,0.0024303161477824695,0.0022456421645449956,0.0020236743924793936,0.0018124505918554103,0.0016186252306774817,0.0014166523498133172,0.0011716183922302103,0.0008612373964827524,0.000485744377221914,6.284355392514971e-05,-0.0003861716925425727,-0.0008481850546440201,-0.0013189253185856432,-0.0017912704061000754,-0.0022388482061212133,-0.002607154323019558,-0.002821573336159503,-0.0028127980745885723,-0.002549656238798983,-0.0020625533123000087,-0.00144203181752561,-0.0008078317463122303,-0.00026037668509255256,0.00016051518745911655,0.0004854275639250455,0.000786016835017574,0.0011230108939139334,0.001503316957943129,0.0018723884009876426,0.0021443017825212318,0.002247652255186924,0.0021582686419614502,0.0019030225721711619,0.0015396209339222815,0.0011291479012220957,0.0007159113852804068,0.0003196992779123534,-6.159072609735784e-05,-0.00044244193205443777,-0.0008358659701322276,-0.0012386403471160458,-0.0016219222608811923,-0.0019340953557669643,-0.0021173956763814407,-0.0021308271753591444,-0.0019663454541114997,-0.0016490109740215316,-0.0012229112427276834,-0.0007342041334696037,-0.00022241209152157803,0.0002783239200266091,0.0007356668489966627,0.0011213177179370966,0.0014192450722601846,0.0016320206547490103,0.0017767777947602658,0.001869856789105742,0.0019092165913316215,0.0018683393924806768,0.001709629068907015,0.0014116421944600473,0.0009927787958701226,0.0005141019501175395,5.65464131735508e-05,-0.0003159900360907794,-0.0005870692863306998,-0.0007940442257109645,-0.0010054432062086877,-0.0012800861956918643,-0.0016289751087527025,-0.0020007107399502696,-0.002299714129674151,-0.0024289281128615924,-0.002334282178545165,-0.0020265218193572508,-0.0015697557163861257,-0.0010467891826048225,-0.000524216270542724,-3.630481524483434e-05,0.000409405656578936,0.000816162399050678,0.0011850412035136625,0.0015098773440905806,0.0017770078468979,0.001966767148137248,0.002058437396432409,0.0020409148724755697,0.0019248212174604374,0.0017455110581817569,0.0015495130485442031,0.0013692887318927822,0.0012026422040960101,0.00101295215281309,0.000753049543221699,0.00039811626092329426,-3.5487676812522104e-05,-0.0005003793480295449,-0.0009512814914533056,-0.001375907359721006,-0.0017967350131210115,-0.002237173377432517,-0.00267474238459658,-0.003018828312124761,-0.003137068476764133,-0.0029202987885446983,-0.0023467776008004207,-0.0015048946371354517,-0.0005606908426384876,0.00030895828309658417,0.000979287682245326,0.001407037373369144,0.0016205261917183605,0.0016857564061346522,0.0016705927724031747,0.001622255126271057,0.0015619152527669234,0.001491785052257022,0.0014068498930926683,0.0013041778683275673,0.0011861502566137593,0.0010583483428361585,0.0009256881877126049,0.000790101605823925,0.000650613848676262,0.0005044634255620564,0.0003473088829833277,0.00017149203064685493,-3.663422078312422e-05,-0.000296976700120768,-0.0006297072879712542,-0.001042417040154679,-0.0015157072719737983,-0.0019962469035061,-0.0024039555501276515,-0.0026525074804182244,-0.0026751560995699883,-0.0024458633434666028,-0.0019890603514094527,-0.001375885715249569,-0.0007071178864451405,-8.501767362143636e-05,0.0004184439903335698,0.0007831105318796612,0.0010388866392121142,0.0012401628168534752,0.0014320988092901602,0.0016299439675859628,0.001821373428868599,0.0019835889689997295,0.0020977059507301956,0.0021495957410488107,0.0021211539546293944,0.0019854031350776797,0.0017158078439995388,0.0013079932774958279,0.0007998125050713268,0.0002719583341130248,-0.00017995004800335374,-0.0004927656299298119,-0.0006767512720104769,-0.0008212987199074278,-0.0010534443771260638,-0.001465489262241767,-0.0020502252157919543,-0.002682890530463682,-0.0031654805746143063,-0.003314260027900879,-0.003045904119601868,-0.0024172797928619814,-0.0015990802433015405,-0.0007991444775290845,-0.00017601800793734241,0.00021610505340580394,0.0004305246528952481,0.0005855513357584226,0.0008009662831025658,0.0011423086747045731,0.0015950301053424152,0.0020768494635912296,0.0024795864159852313,0.0027175632881110347,0.002757192231644035,0.0026152493105784883,0.0023338075570458125,0.001953489499792148,0.0015040690319686376,0.001014766582435319,0.0005282654577369485,9.728831161975198e-05,-0.00024309488561573387,-0.0005097292584734521,-0.0007803565587669775,-0.001157141831806516,-0.0016974277890123195,-0.002354534970087052,-0.0029734822313381044,-0.003354574240248691,-0.003352216978558393,-0.0029497742909420925,-0.002264337829112142,-0.0014801811190335965,-0.0007552216283629974,-0.00015914808726691452,0.0003240528872709004,0.0007424112277229879,0.0011167899360295167,0.0014192489489209309,0.0015996415106280225,0.0016345352309963827,0.0015576290175244123,0.0014465818286751092,0.0013749677806862018,0.0013649201952427804,0.0013760122800774814,0.0013389007336476375,0.001208642200033925,0.0009981722652775728,0.0007681467338663183,0.0005824127460465945,0.0004627230366563088,0.0003738902979158592,0.0002457770750905787,1.3083113606749547e-05,-0.0003529010686924318,-0.0008338056722505907,-0.001371425098196561,-0.0018826818537538885,-0.002276876445827968,-0.0024754021155357405,-0.002432881526111901,-0.002152818588602938,-0.001688404652620875,-0.0011246210043069837,-0.000548152494601919,-1.9481982290709858e-05,0.0004389310861080709,0.0008335879077086062,0.0011774544058996287,0.0014689851924813099,0.001685510184053668,0.0017938377777463048,0.0017700226242252466,0.0016154673177124464,0.001360263124730644,0.0010535259660219298,0.0007479377476223572,0.0004867535933130641,0.0002964275764372273,0.0001821706097409237,0.00012320800119972,7.005281800347938e-05,-4.824485404975364e-05,-0.00030066331221194874,-0.0007188207368945003,-0.0012661023078728705,-0.0018321102916487493,-0.002264093873554951,-0.0024269700912138356,-0.002263798282420005,-0.001823454673071025,-0.0012382375276782094,-0.0006624632571856174,-0.00020528246337615227,0.00010726249502127609,0.0003246068729534316,0.0005285106139263882,0.0007822086144014366,0.00109954147843549,0.0014461926955559351,0.0017653076398815378,0.002007604890193257,0.002147790386529529,0.0021819880234930627,0.0021150564900546,0.001951538079135472,0.0016969059826709423,0.001364259005935245,0.0009761806733458167,0.000556171931491651,0.0001141173794951668,-0.0003626151385174844,-0.0009020302398402973,-0.0015231322302562912,-0.0022052695371811066,-0.0028700746477926028,-0.0033926009202184613,-0.0036439323659094277,-0.0035470098164608246,-0.0031141838371233654,-0.002441715946982642,-0.001662464688958407,-0.000886092636657144,-0.00016457916220194934,0.0004982705077605439,0.0011071906503878693,0.00164038526558684,0.0020474281149404643,0.002281494425628062,0.002340533895231727,0.002284274084282537,0.002209702195189225,0.002196180514012356,0.002253973700126315,0.002311104852090674,0.002250721063360126,0.001978473061268689,0.0014786333175881563,0.0008232325155674591,0.00012743560752820544,-0.0005209927975557071,-0.001111325588532087,-0.0017019588791694006,-0.0023548079454305555,-0.0030537535893935056,-0.0036665800201439625,-0.003986268674967174,-0.0038350586215770612,-0.003169687755651545,-0.0021215847602133998,-0.0009452794494811175,9.53565508813399e-05,0.0008375809261119103,0.0012677938718077698,0.0014894685843788967,0.0016412869563874814,0.0018193208423518438,0.0020440982283213924,0.002277180016505749,0.0024603360305098525,0.0025449691241580885,0.002499261610686145,0.002304431066373204,0.0019572621920637442,0.0014809441829288375,0.0009286623730775522,0.00036478094191952815,-0.00017157995492350555,-0.0006947307839033437,-0.0012651805428771999,-0.0019424022727678402,-0.0027234936051569497,-0.0035084464281280128,-0.004119466200812735,-0.004368906637420561,-0.004140549930826476,-0.0034416099919283164,-0.0024007555484089663,-0.0012170400713999326,-8.750435620413381e-05,0.0008533914036849763,0.0015602662599190757,0.002065269253567701,0.0024403264856996286,0.0027525145652150494,0.003030335448625001,0.0032513547604625425,0.003353083316167337,0.003261953507060129,0.002930136182394918,0.002366568864993217,0.0016482630974964572,0.0009030462275330607,0.0002658763730469361,-0.00017573192962108935,-0.0004225774949426393,-0.0005680397536966815,-0.0007571580859664065,-0.0011141678688957376,-0.0016718721506830516,-0.0023410729117966343,-0.0029412197322215006,-0.0032806024088857183,-0.00324488183092598,-0.0028464569053332418,-0.0022097137813568437,-0.0015046695432541601,-0.0008698475632052856,-0.00036689242902327563,1.4955277550131839e-05,0.00031930326118986265,0.0005818455020112388,0.0008155655756196321,0.001023477550994888,0.0012172703019391919,0.0014184901213587504,0.0016387183738369002,0.001856947658516567,0.0020156108102779065,0.002040438100684345,0.0018710902649557567,0.0014853993513821852,0.0009091733154374922,0.00021326625431209085,-0.0004984726251591156,-0.0011096265952380985,-0.0015189784904573618,-0.0016687166315564749,-0.0015607315932089278,-0.0012514046364594078,-0.0008267428794853661,-0.0003711926211564092,5.4532765216235956e-05,0.0004192900091514472,0.0007139009513480784,0.0009383598489829299,0.0010917675408060662,0.0011694811034190958,0.0011675314202639398,0.0010901317318631671,0.0009536842675975089,0.0007819274337592565,0.0005921103864938273,0.00037882925382814976,0.00010614303811258205,-0.00028311095798077705,-0.0008389852693973379,-0.0015651830479158912,-0.0023862260344421184,-0.003142211899805039,-0.00362556713798655,-0.003654815030020361,-0.0031556560660843383,-0.0022061160882987686,-0.0010149311454478527,0.0001612708946840881,0.0011186724555398667,0.0017703786715034004,0.0021445105344719503,0.0023295098568104134,0.0024087449027724184,0.002423469048132241,0.0023758419764624587,0.002255434510868622,0.0020628177880779156,0.0018148713841541324,0.001534930069681811,0.0012407188436886472,0.0009392386108181996,0.0006284603530897841,0.0003011432859297263,-5.170714735905249e-05,-0.0004367541118874881,-0.0008526613637324171,-0.0012847929316768536,-0.001704167141118339,-0.0020729715820597436,-0.0023547517054418217,-0.0025238094759913775,-0.002568331854419681,-0.0024858920635646873,-0.0022757060198421884,-0.0019348215547374654,-0.0014622603735547964,-0.0008683907255254534,-0.00018283064904953881,0.0005437333894292289,0.0012439878893060511,0.0018433786850901327,0.002274038710254876,0.0024914663872196664,0.002487891588625339,0.0022946807064420254,0.001971416517555462,0.001587733327665036,0.0012074444311166001,0.0008796249714697452,0.0006336303413945618,0.0004730335456813962,0.00036932142611359925,0.00026325521072169454,8.146826841207166e-05,-0.00023355229761352794,-0.0006932292765544365,-0.0012490652056238326,-0.0018042738994171726,-0.002246390009880657,-0.0024857499160103724,-0.0024828975592398345,-0.0022548160161647325,-0.001860666758479571,-0.001376391177368491,-0.0008701243557524487,-0.00038698561520574535,5.4082472568166566e-05,0.0004535119872119008,0.0008189485857523205,0.0011534085158560715,0.0014491271108030626,0.0016896197447861885,0.001857287919607325,0.0019398804742075764,0.0019305614347536336,0.0018232808016575553,0.0016115374665478578,0.0012970891484299632,0.0009048676253270569,0.0004897823611889843,0.00012146097174292082,-0.0001523172298599541,-0.0003427495717896955,-0.0005277398664784831,-0.0008132405062383656,-0.0012625624561220363,-0.0018368773288429873,-0.0023913984062290537,-0.0027381244119077733,-0.002739764766124734,-0.0023766367520214765,-0.0017471456486414419,-0.0010072480950113452,-0.00029121062093247587,0.00033831722216145447,0.000887248104902513,0.001385655505346271,0.0018374694765169695,0.0021988702636133494,0.0023973909257792793,0.0023760004213287675,0.0021320735811336798,0.001727433840232235,0.0012648440218248351,0.00084420387256022,0.0005196064454863329,0.00027680251054405336,4.2901380856008055e-05,-0.0002729008855499206,-0.0007253065438935545,-0.0012945723334629833,-0.0018870627976873815,-0.0023743781058029796,-0.0026458075548650476,-0.002643349416509913,-0.002366290452140197,-0.0018556857083461724,-0.001177564931826675,-0.0004140424189850271,0.000342699498892403,0.0010029834725016782,0.0015002121996421688,0.0018093002574172633,0.0019489754461239923,0.0019627038792232403,0.0018885798195591537,0.0017384458387240008,0.0015014370727489152,0.0011693672663430055,0.0007640249960243469,0.00034339406154816675,-2.165016511004262e-05,-0.00028683404504852396,-0.00046380063617465007,-0.0006178494839513358,-0.0008319143944745083,-0.0011552862097407397,-0.00156528988994623,-0.0019637870821229975,-0.00221219908444815,-0.00218908723051562,-0.0018436374707563753,-0.0012214043500366927,-0.00045220488998307877,0.0002940188317247425,0.0008663587545651458,0.0011859720844919787,0.0012736690255916415,0.0012396240159440282,0.0012347055969321149,0.0013784760715961331,0.0016930243144690543,0.002076269011545337,0.002336114561312442,0.0022783582122204524,0.001808821576158057,0.000994137944129833,4.140996229629257e-05,-0.0007990644232990983,-0.0013565917215927982,-0.0016178370256748644,-0.0017131572501265916,-0.0018199323363014635,-0.0020428030095409897,-0.002345159974650713,-0.0025727786512428877,-0.002550723027213359,-0.00218927917054259,-0.0015340971979233638,-0.0007370586989218972,2.47253581302606e-05,0.0006289315786950986,0.0010456885572986054,0.0013239846682955394,0.001545844190517874,0.0017763961157519193,0.0020311608234164094,0.002270015048648357,0.002417255133437852,0.0023989638351185833,0.0021814980690395723,0.0017916646622821953,0.0013052930500862844,0.0008068907855730803,0.000341402305873983,-0.00011201245763826754,-0.0006232554661713293,-0.001255528412276742,-0.002001179149981181,-0.0027503025598681506,-0.0033178932537689947,-0.0035214302832155915,-0.00326903919573155,-0.002609494817137856,-0.0017156219743306085,-0.0008095956503057247,-6.95925655889028e-05,0.0004352351271692566,0.0007523471353598245,0.000997915214772755,0.0012826154924040407,0.00165048738846388,0.0020593959424588786,0.002407161701544357,0.0025844079502726266,0.002526070675175242,0.002239573622628607,0.0018009267210645154,0.0013224285417081998,0.0009046336921288264,0.0005912180046375635,0.00034693897162552936,7.237064785530498e-05,-0.0003464815697325082,-0.0009740336213539739,-0.0017772245640674546,-0.002619470643087844,-0.0033029325449500627,-0.003642198565149537,-0.0035367268346975875,-0.0030091646705685095,-0.0021925657511575446,-0.001274115269826383,-0.00042369056522485206,0.0002587263778060583,0.0007552132408018128,0.0011035345776675616,0.0013548337990848974,0.0015432175951641729,0.0016816879478623486,0.0017772327826753812,0.0018448359849742232,0.0019050764101631798,0.001966891347318044,0.0020110867468776782,0.00199060812985957,0.0018512495218018566,0.0015611989510033648,0.0011306084856052537,0.0006080367155190442,5.5273182791749996e-05,-0.00048360019126256237,-0.0009982089315857905,-0.0015009635189747934,-0.0019953170942049415,-0.0024452920286858033,-0.0027703080364015046,-0.0028739445667317768,-0.0026920035458154724,-0.002230739644357147,-0.0015715555034208802,-0.00083993828322461,-0.00015789062692191723,0.00039418524511812054,0.0007903372778514065,0.0010478361465385345,0.0012047357178463455,0.0012998671188314348,0.0013615288189478192,0.0014029734665944457,0.0014204641130518831,0.001393975822178407,0.0012953196043098327,0.0011059258000914907,0.0008364424548643767,0.0005321969099841818,0.00025342573215551904,3.743012868686409e-05,-0.00013190723368098196,-0.0003204913989428855,-0.0006004732295031142,-0.0009909488081774273,-0.0014229129395810446,-0.001756174539311883,-0.0018430945583537265,-0.0016040483505084739,-0.0010724778809035186,-0.0003855657342112381,0.00027376090595615586,0.000753855462848998,0.0009930748332697352,0.0010330402630365646,0.0009823548272948845,0.0009522553479032455,0.0009995950334666698,0.0011052902852809621,0.0011930978346501625,0.0011719339904034459,0.0009787197892917943,0.0006060832493800157,0.00010878552213030031,-0.00041207178116152833,-0.0008441139233026163,-0.0011078193742752153,-0.0011911470188649947,-0.0011551131199119546,-0.0011027129740137952,-0.00112391725140786,-0.0012454492299532058,-0.0014141093935163625,-0.0015246546793256694,-0.001477225858039392,-0.0012309766190434586,-0.0008223768233861354,-0.0003385433850394443,0.00013579495964480802,0.000562804329063154,0.000958972523191893,0.001361830344994297,0.001779755487793305,0.0021608355765662915,0.002405530868824794,0.002419540722995403,0.0021752782088092413,0.0017412242751943395,0.0012558916148043928,0.000857555828145222,0.0006101519500669665,0.00046988645941817617,0.00031303860549368527,9.094767491437867e-06,-0.0005021901778870508,-0.0011718783876109352,-0.0018610103808050257,-0.0024065446007294606,-0.00269842858732344,-0.0027260931679097683,-0.002568667261661168,-0.002334950117194077,-0.0020897995359641032,-0.0018134054019573135,-0.0014205701663909515,-0.0008296520085472245,-3.864167019793194e-05,0.000841011405229912,0.0016188502128068178,0.002113335139284193,0.002244217719565506,0.0020747274354201155,0.0017771507790931486,0.0015406923273411873,0.0014745226510057543,0.0015604940470894946,0.001678916385266578,0.001687127032937661,0.001501427779673733,0.001135265637687127,0.0006768521028327086,0.00022692143552048452,-0.00016153820432921508,-0.0005057240443157886,-0.0008678754975788895,-0.001301708027925822,-0.0018048968906203885,-0.0023061546990545637,-0.0026928510691875723,-0.002860643024724372,-0.0027559859909788813,-0.002391032494559753,-0.0018297027359364918,-0.001158976333162056,-0.00046203083723855756,0.00019768131080421695,0.0007812472828535864,0.0012719695133228905,0.0016692265157921796,0.0019799655821270768,0.0022091251386596217,0.0023519710933649404,0.002392414956574845,0.0023093920505196583,0.0020886706069782684,0.001733446239137324,0.0012671989563950148,0.0007269038149278299,0.0001508747565310726,-0.00043073250548512367,-0.0009962482724067427,-0.0015236552559974967,-0.0019799499552423613,-0.0023184871782716368,-0.002489225622783002,-0.002458066027485368,-0.0022250263798038314,-0.0018306359950435907,-0.001345497865905099,-0.0008466723243771282,-0.0003919060517187656,-3.956191702711865e-06,0.0003290334433863575,0.0006401990096727859,0.0009654763390857657,0.0013261383503100745,0.001715215234446238,0.0020905619098713756,0.0023792828690997123,0.0024970920263277367,0.0023796408011475547,0.0020143055582707895,0.0014564795314736454,0.0008181683916030319,0.00022836066675674675,-0.00022031769318440515,-0.0005132120545524207,-0.0007190219031036869,-0.0009507357869598838,-0.0012992555704303618,-0.0017758847113029962,-0.0022976603921486304,-0.0027246012076132513,-0.002926127306217166,-0.002837342612554535,-0.0024757188068909824,-0.001916571704941764,-0.0012507667524243732,-0.0005533742112526956,0.00012334337112721348,0.0007405201844465205,0.001264498061561359,0.0016699635211976822,0.0019494936895909335,0.002116971754051785,0.002198154409470606,0.0022140367360936534,0.002169673973842455,0.0020569723118845514,0.001869001543370817,0.001614875327105211,0.001324032409401111,0.0010356667369454588,0.0007778742810366588,0.0005473433620405753,0.00030204362635253645,-2.4683184040573966e-05,-0.000490227792864544,-0.0011034330502192812,-0.0018021105321680783,-0.002464219473866022,-0.0029512681898929685,-0.003162412776425132,-0.003070585717924883,-0.0027234803856005644,-0.0022136412540795644,-0.0016377573099542505,-0.0010662879861991757,-0.0005336448174464171,-4.6115017825722453e-05,0.0004025609129712709,0.0008178610497272808,0.0011986011363867475,0.0015383031935743811,0.001829849673175984,0.0020680838933302137,0.0022464668642538385,0.002348611194435825,0.002342033175040266,0.0021846591576345923,0.001848595146420654,0.001351010358552612,0.000769231783458673,0.00021982418225400098,-0.00019683617047874195,-0.0004570409069154785,-0.0006373817631930585,-0.0008762553457634576,-0.001286602871511572,-0.0018691259595876569,-0.002482472788451213,-0.0028970893617791668,-0.002909003616824641,-0.002450636134914575,-0.0016341207344641724,-0.0007008833668202508,9.438260526232215e-05,0.0006004442114931681,0.000824452272976674,0.0009006117062974566,0.0009974585683691303,0.0012201166201989638,0.0015610323718650255,0.00191968508870735,0.002170109250323971,0.002230248568932113,0.0020931353116837846,0.001810194962977945,0.0014488785516898173,0.0010575994449160725,0.0006556762408983245,0.0002414179758291664,-0.00019943798108937834,-0.000692368916327517,-0.001269727566438779,-0.001949514016828403,-0.0026993196726820415,-0.0034088791791917206,-0.003900474548311125,-0.003987861311001551,-0.0035619878047759602,-0.002657985967316861,-0.0014614429773061825,-0.00024372623883808217,0.0007434077186120098,0.001361223062596716,0.0016218930595632034,0.0016592661233807032,0.0016537503305383626,0.0017490033463077273,0.001994913736313781,0.00233587644507894,0.0026446831572488833,0.002785841946161035,0.0026806463585607853,0.002343891205409051,0.0018733533586151971,0.001396683564958747,0.0010047304561184372,0.0007094884261260429,0.00045042141405535695,0.00014240001999650054,-0.000268003956811719,-0.0007746525934383983,-0.001326643694329819,-0.0018680573130962059,-0.002368156106851569,-0.0028187701128104528,-0.003204915681835111,-0.003477782150350641,-0.003557676329827318,-0.0033704646604962793,-0.0028941510221600145,-0.0021831969331332383,-0.0013530252943055989,-0.0005337784260491549,0.0001788866217612723,0.0007494820176854896,0.001196046302236851,0.0015618726911062818,0.001884867624126032,0.0021794082792999745,0.0024350566864999204,0.002627378937505507,0.0027319327758858836,0.0027335470493101187,0.0026278497309434267,0.00241760287914339,0.002109368847612354,0.0017144929724036235,0.00125328541461402,0.0007565479652615421,0.0002590580143938241,-0.00021360631973822703,-0.0006558142159114226,-0.0010802908793712093,-0.0015025664368598585,-0.0019207556027858216,-0.0023041154792552893,-0.0025980194828217115,-0.0027426361539660132,-0.0026956053146115016,-0.0024486537472864014,-0.0020323227798713056,-0.0015082825969694159,-0.0009528143203980336,-0.0004368970200767426,-8.081824930373366e-06,0.0003214469197572793,0.0005762499556333049,0.0008047865948241108,0.001053108967858899,0.001334205740836262,0.0016093001416677502,0.0017962357560554758,0.001807502018490852,0.0016018513936278023,0.00122065053328607,0.0007834626124685546,0.00043786802547838687,0.0002858267778061937,0.0003265109835911928,0.00045069280607428744,0.0004945722199623756,0.00032642995534309797,-8.101513877596753e-05,-0.0006328557652668384,-0.0011586882081125688,-0.001497452567660308,-0.0015732631676969439,-0.0014212614089089846,-0.0011523390745391885,-0.0008818774868541051,-0.0006680588899604198,-0.0004958394860688873,-0.0003093754594271913,-6.300474148773435e-05,0.00024679689429608746,0.0005852867518560119,0.0009066481885522279,0.0011783216550451223,0.0013855582483280333,0.0015191256543062143,0.0015618538038755406,0.0014875246019387942,0.001273781291931799,0.0009200039238679478,0.00045808454900203685,-5.177522516317933e-05,-0.000540384810651591,-0.000955791929520384,-0.001282306039917054,-0.001539334754672627,-0.0017577978785683537,-0.0019474341463315919,-0.002077189597197983,-0.0020842144028403557,-0.0019080340370228844,-0.0015292366358357497,-0.0009891884624120381,-0.0003795048812414723,0.00019276074368685208,0.0006467909542995994,0.0009575872651405104,0.001160819666235593,0.0013306485881100583,0.0015395175176950038,0.0018177039026928826,0.002132157186626643,0.002396177280585772,0.0025068219812170007,0.0023931821222991563,0.002052595095128166,0.0015560004989938082,0.0010167742448487082,0.0005353042119766022,0.00014661678031764472,-0.00019893316446378318,-0.0006067159035098848,-0.0011721448627764377,-0.0019127242336654296,-0.0027361441413219084,-0.0034641310092434043,-0.0039016301139748145,-0.003916727004633247,-0.003491921645566527,-0.002724097606283706,-0.0017785258221417236,-0.000824776058893014,1.3282502864845541e-05,0.0006756436873884949,0.0011563503904284988,0.0014833143530410746,0.0017032553701168366,0.0018735023616213036,0.0020505429801472384,0.002267471171188406,0.002508035380425013,0.0026985169968360766,0.0027340966882933664,0.002533432237483083,0.0020912333770670257,0.001493704174676694,0.0008817528037600587,0.000379410163104795,2.850902780919518e-05,-0.00023075851509999235,-0.0005205541563992189,-0.0009501386386010795,-0.0015488345819402241,-0.002244753603405838,-0.002897234394686963,-0.0033587590881261242,-0.00352854056339531,-0.0033721832718712702,-0.0029085912735447046,-0.002186174794633106,-0.001271160571563627,-0.0002534077587755337,0.0007448219268973637,0.001577727021341356,0.002110723828356612,0.0022687507974124286,0.002072350408194526,0.001638726633015338,0.0011423827781900952,0.0007516157914339975,0.0005707098624145213,0.0006145834433602306,0.0008236220458797527,0.001103384714842969,0.001363040400095603,0.0015347824190168867,0.0015747928212306145,0.001457986174311784,0.001176105820297808,0.0007388487359130169,0.00017274177589478973,-0.00048341004378466175,-0.0011816521069990993,-0.0018628712643033807,-0.002454009229564657,-0.0028740999311762123,-0.0030535480400726124,-0.0029593980816037813,-0.002612137815722284,-0.002082857035219357,-0.0014698341251495658,-0.0008636540096912129,-0.0003154488038288938,0.00017732780503021525,0.0006592967973773501,0.001182628987983836,0.0017649614218793594,0.0023621970708186425,0.0028742898624409194,0.0031856357911540087,0.0032205090847477924,0.0029813688625789946,0.002544757248074096,0.0020148502245330253,0.001462820374679422,0.0008907836680457468,0.00024377811966262578,-0.0005373031402517957,-0.0014538552275324256,-0.0024156776770836723,-0.0032565579945246625,-0.003795109380635188,-0.0039127811670048055,-0.0036093224348799835,-0.0030038584119834004,-0.0022772210822598594,-0.0015856854942682852,-0.0009954562001453185,-0.0004749289317604183,5.5719648501814396e-05,0.0006539074930990078,0.0013081877415821968,0.0019399474907639573,0.0024447908188243127,0.0027442483318974743,0.002818931269335548,0.002709999765917433,0.0024939655653205004,0.0022468893597895317,0.002015461486093884,0.0018063156407366152,0.0015946076114103007,0.0013427198588942446,0.0010155475141182652,0.0005842957067015767,2.3462531595115014e-05,-0.0006848400039253557,-0.00152964261437958,-0.002441485880198879,-0.0032799368759982798,-0.003862279113410816,-0.004033291406193552,-0.0037441577810625576,-0.003092551737521132,-0.002290815391991217,-0.0015694465046738318,-0.0010648405325165277,-0.0007555990977924136,-0.00048747742929933517,-7.509065047488651e-05,0.0005793304224396217,0.0014215345178230688,0.002272551904954917,0.002926939504263458,0.0032582166083531807,0.0032685017901520645,0.0030606166368866896,0.0027610508369766747,0.0024470899569472553,0.002119656652918137,0.001729441117343815,0.001231679612677422,0.0006313560733837397,-1.0053036511824373e-05,-0.0006094421963209152,-0.0011140118790664178,-0.001533041048569356,-0.0019243975004111396,-0.002341601482447926,-0.002776276978929083,-0.0031366840465905143,-0.003280678449777531,-0.003086477930339551,-0.0025208819436408824,-0.00166651069784692,-0.0006937765714691018,0.00020658535099998365,0.0008957895539023756,0.001330304426975978,0.0015595285085793268,0.0016836270228485417,0.001794338879597342,0.0019274375446456256,0.002049220129070368,0.0020828107335537378,0.0019591772179660973,0.001663486933797459,0.0012498413966004888,0.0008162701900467199,0.0004548133701269367,0.00020419192012318532,2.9518615088116858e-05,-0.0001607145966023532,-0.0004675969887385986,-0.0009459840226829328,-0.0015663830975775742,-0.0022138772397111927,-0.0027262347972634034,-0.0029549535827006496,-0.0028228424875496277,-0.002353640195625094,-0.0016610277941446726,-0.0009014816205275374,-0.00021168344119319314,0.0003405429650602623,0.0007682260001397093,0.0011352255466272618,0.0015022844091442608,0.001881241593042602,0.002224338292996172,0.0024526880960835393,0.002502207244932387,0.0023554470246245143,0.0020414214815660833,0.001611205568999404,0.001113264451517318,0.0005866008393163989,6.923734869338516e-05,-0.0003959956256908721,-0.0007728133420898271,-0.0010550313187202118,-0.0012799585191479437,-0.0015112627842812196,-0.0017937068908789138,-0.0021078009066540257,-0.002358651853243741,-0.0024134185202126595,-0.0021701990550326063,-0.0016201147100231613,-0.0008665618014468317,-8.824319099165652e-05,0.0005373537502596983,0.0009111799114830852,0.0010493015414636915,0.0010586018574971034,0.0010657683442613908,0.0011422630141528663,0.0012705214088454607,0.0013693090139027374,0.0013569454096240068,0.0012079152391270623,0.0009666134155129869,0.0007129817694390571,0.0005058398581268084,0.0003421487190681089,0.00015922095507984004,-0.00012028948907717946,-0.0005282451518993753,-0.0010144978874987325,-0.0014593812672240038,-0.0017298593458980405,-0.0017456423433060766,-0.0015152623179089315,-0.0011223364990462007,-0.0006746435181936265,-0.00025064645237269994,0.0001244872862448044,0.0004647248365313041,0.0007883368281197004,0.001090254789621661,0.0013391879890785022,0.0014968638142058678,0.0015423521991768095,0.0014839344655139402,0.0013514831086655354,0.0011753265649780845,0.0009654317053453184,0.0007039159730358016,0.00035576048185590007,-0.00010763812376261443,-0.000683884045172777,-0.001325764882912773,-0.0019451035203299767,-0.002434448715605413,-0.002699998132822065,-0.002693575908571915,-0.002429725772555768,-0.001978792287921474,-0.001437549586142394,-0.0008902391182773325,-0.0003783016144789632,0.0001066288926839596,0.0006030141960384398,0.0011427153621432367,0.001716149459566804,0.002258618805930347,0.00266777457513139,0.002846290893298049,0.002749109414087933,0.0024099864783418273,0.0019317661792635594,0.0014441036315900645,0.0010496927835342985,0.0007848560644087432,0.0006108209484839618,0.0004358731628710574,0.0001560986645351942,-0.00030149226680272184,-0.0009470695997341013,-0.0017163369130230245,-0.002483558167507806,-0.003097647285813219,-0.003431102611943805,-0.0034235111551029524,-0.003100136878102398,-0.002555628251247586,-0.0019100912112704597,-0.0012601737634408844,-0.000650880349373401,-8.079857025230437e-05,0.0004680811971458694,0.000999554615921271,0.001491966031385804,0.0019093596403296233,0.0022207927556272843,0.002411162350545869,0.0024787921838806725,0.0024281619686956483,0.0022682823317773004,0.0020182311750611163,0.0017116900584625875,0.0013916695325530625,0.0010950687691305102,0.0008360171474932202,0.0005990891343649173,0.00034723296595051765,3.961587639653505e-05,-0.00035152389344320447,-0.000833820777778085,-0.001397026831625927,-0.002015339404704987,-0.0026414354461434717,-0.003195124877499262,-0.0035612889367716586,-0.0036119653879216514,-0.003253465031489558,-0.002480089302572326,-0.0014042552452958193,-0.00023772811825929996,0.0007787777202493146,0.0014698406216022211,0.0017956790380174478,0.001857901022700365,0.0018340857033898655,0.001876240889478895,0.0020303538616034326,0.002221735338617137,0.002311095929471052,0.0021844776070775885,0.0018221570660872665,0.0013072819215362668,0.000773013087625857,0.0003234137472952867,-2.3159940138355864e-05,-0.00033534744382987297,-0.0007159808091487068,-0.0012274757235737493,-0.0018384912280587618,-0.002421544567529315,-0.0028031747095398933,-0.002841139563170005,-0.002490288550588189,-0.001825256910992314,-0.0010097570716083297,-0.0002282831432615714,0.00038605989096598514,0.0007932001448246202,0.0010399470996226082,0.0012144485474198119,0.0013892821941334373,0.0015837664965678232,0.001761509709561971,0.0018582900184941004,0.0018212513029737898,0.001639024585158664,0.001350190154093326,0.001027463900526657,0.0007434438158115584,0.0005311421878379553,0.00035843655044865596,0.0001347870190311054,-0.0002447348247107953,-0.0008357120761023782,-0.0015957702808744036,-0.0023824369369614753,-0.003003643783581701,-0.003296006280675173,-0.003189817895534165,-0.0027287191444110097,-0.0020393573479298064,-0.001273167524840518,-0.0005519410349602364,6.109854350563824e-05,0.0005607072601185882,0.000978121107908507,0.0013513547201282824,0.0016995219636944403,0.002010830460919406,0.0022482225044639817,0.0023683779205393063,0.0023434958044569196,0.002175337673433158,0.001896890684259126,0.001563551082746982,0.0012382517599367265,0.0009736932729814659,0.0007940120232728024,0.0006806872339011072,0.0005709158359595866,0.0003755412340596569,1.5004334473703827e-05,-0.0005404775869163023,-0.0012472618426197062,-0.001996359294205963,-0.0026517656260432194,-0.003100267893040871,-0.003287762942048699,-0.0032256343091592275,-0.002967621401813652,-0.0025729938567951314,-0.002078247365823883,-0.00149356912323899,-0.0008240739068677849,-9.847148947442864e-05,0.0006183956678456431,0.0012421258460238445,0.0017066154129296975,0.0019987929863385175,0.0021653453999699187,0.0022833079543794314,0.0024099960202030807,0.0025427911130164148,0.002615294923442491,0.0025350302541786132,0.0022421640959021825,0.0017544881022219156,0.0011701721942276562,0.0006236947535693668,0.00021825819459875978,-2.7012873186768637e-05,-0.00018464522989403804,-0.0003770969741285081,-0.0007100043148863033,-0.001217164592878345,-0.0018440755313308822,-0.0024729564217801404,-0.0029708178477587154,-0.0032352538344060273,-0.003220134601622859,-0.002936632293532695,-0.002435875715055557,-0.0017850672773236308,-0.0010491957127118116,-0.00028569354078534587,0.0004494366260343548,0.0010941653068094097,0.001583981088336633,0.0018711095964464028,0.0019504825920986279,0.0018738754049912674,0.0017366783727591917,0.0016377960806935564,0.0016322656491433102,0.0017043373602916808,0.0017783651118838464,0.0017618035299746752,0.001594765837810871,0.0012774911372639818,0.0008618598402052189,0.0004151436343704481,-2.0330309850401132e-05,-0.00044716860769633993,-0.0009009294260144188,-0.0014127748612915662,-0.00196770393272719,-0.002483465998059998,-0.0028269269857557617,-0.0028661697509074447,-0.002535919834294596,-0.0018824186838609998,-0.0010599201347465082,-0.0002737414895153938,0.00030625352890735675,0.000618315736708281,0.0007272525726106109,0.0007761826464416496,0.0008979188435878324,0.0011375485239915892,0.001431355596384387,0.001652179602363949,0.0016906508901778224,0.0015215677570615904,0.0012162164895191327,0.0008955349206667716,0.0006542943474687792,0.0005027845506511122,0.0003613848483839382,0.00011176506055420368,-0.0003252315922004229,-0.0009307135703898309,-0.0015820045418228437,-0.002102867706695421,-0.0023409162551003134,-0.0022302639273146315,-0.001809408006541058,-0.0011924030159419646,-0.0005166276832250946,0.00010300791364067615,0.0005965358013091203,0.0009398493404462919,0.001145232599000565,0.0012496511659759206,0.0013017615397262162,0.0013462374731550188,0.0014077715884707972,0.0014813704707827336,0.0015347745847064601,0.001522788145978711,0.001406546024155181,0.0011681858461181842,0.000814494861986359,0.0003694669229341895,-0.00013844271397502918,-0.0006859823319463368,-0.0012550643965597806,-0.001822148250075669,-0.002343842176993202,-0.00275095901332757,-0.0029614187772922474,-0.002911394846300761,-0.0025894781516413662,-0.002051647582937489,-0.0014034307593841938,-0.0007559938532048652,-0.00018084365697952919,0.0003102037570645171,0.0007492539817797925,0.0011733595362219459,0.001589027120115821,0.001962634926073578,0.0022404533739952344,0.0023824192029866503,0.0023865518955459328,0.002289372325724941,0.002144463138329806,0.0019944107173492263,0.0018527192015038705,0.0017028684203803236,0.0015100922079055584,0.001236426448621208,0.000852531490851797,0.00034489963068530115,-0.0002810568340333567,-0.001001873423855229,-0.0017791911485732336,-0.0025606560041653284,-0.003275309897382471,-0.0038282293324404756,-0.00410721887026592,-0.0040118301142059165,-0.0034993563505529082,-0.0026244199153185785,-0.001543669172404924,-0.0004717961342238648,0.0003974237205342768,0.0009673689826098135,0.001270215858625529,0.0014340521766291118,0.0016028841765896693,0.0018558233046342062,0.0021713550232802963,0.0024525559851420473,0.0025909603674383335,0.002526954483989629,0.002273911298744203,0.0019005887443280822,0.0014902974139736143,0.0011021441697948759,0.0007509078023129215,0.0004090301544546152,2.5913434916011537e-05,-0.00044316206228891056,-0.0010079535867407912,-0.0016255865999969543,-0.00220451381459592,-0.0026318357157339408,-0.002813102866033053,-0.0027056647050044953,-0.0023300556979892802,-0.0017572313963705561,-0.0010828559111299104,-0.0004031946355036179,0.00020054116481138225,0.0006721770405288075,0.0009894823694123474,0.001170314047404902,0.0012683062962118039,0.0013523451037914498,0.0014739398840877965,0.0016375986184733334,0.001792688631698092,0.00185592680750918,0.001755029846589333,0.0014683717901588654,0.001035597190893546,0.0005322226345004972,2.5397253839869616e-05,-0.00045927978384250993,-0.0009381459212916309,-0.0014384213028999435,-0.0019582569605508327,-0.002445060240396111,-0.0028057901029095392,-0.0029425101956573065,-0.002793046629312909,-0.0023566672183167226,-0.001695051617953303,-0.0009113218807205683,-0.00011808409127626635,0.0005925525664670407,0.0011668807394746464,0.0015912144717211078,0.001880038957066918,0.0020589139333439,0.002151122168598763,0.002172641196286734,0.0021338303631243936,0.0020428519281728654,0.001906932505954075,0.001731245369288498,0.001518377034898515,0.0012713623017910525,0.0009991362755882413,0.0007179050313227756,0.0004417940168044417,0.0001647359479136798,-0.00015270228866165144,-0.0005747415617622719,-0.00115534641512419,-0.0018926660461319697,-0.002702180205914821,-0.0034310847154473668,-0.003911811099813313,-0.004026863859187285,-0.0037496887458892277,-0.00314260899194141,-0.002319876831536911,-0.0014016909891280249,-0.0004836282744697778,0.0003694016537138804,0.001112249499396538,0.0017074835155754943,0.0021248996679742553,0.002353956507839707,0.002418395686124418,0.0023777914102347687,0.002308089644642333,0.0022682482888713037,0.0022718378042756305,0.0022811882345217097,0.002227850011212852,0.0020475640556710437,0.0017117123735665416,0.0012419875688779991,0.0007039583965712793,0.00018229111496224123,-0.00025436521215558726,-0.000585619488835968,-0.0008526620743725287,-0.0011412477898053216,-0.0015364474723004052,-0.0020680356324256394,-0.0026752310905563004,-0.003214269837444052,-0.0035117137809754094,-0.003440341676783254,-0.0029788366617420673,-0.0022230240442681886,-0.0013427818218815302,-0.0005086896925582752,0.0001725259024004381,0.000682706377433204,0.0010707205754340718,0.0014038820613255826,0.0017229941667890481,0.002023595583897463,0.0022662112121857613,0.0024018601428112316,0.0023956165373474037,0.002238708022550621,0.0019491721776249368,0.0015655022517574724,0.0011369393807505053,0.0007120573509430148,0.00032699859293913475,-3.954934820536108e-06,-0.00029177986601909914,-0.0005671757595570009,-0.0008659319170290185,-0.0012090643832185395,-0.001585630318411366,-0.001947627232289413,-0.002222578138559729,-0.002340513468978329,-0.002262856716775943,-0.001997773916807675,-0.001593223040865083,-0.0011120456723578524,-0.0006044659407920467,-9.433168029776897e-05,0.0004147072713193172,0.000920781691078145,0.0014080083023589708,0.0018436533089798565,0.00218741889264975,0.002404267679742414,0.0024730612541500737,0.0023892247193591162,0.0021640486768802203,0.0018233018293140348,0.00140518659649529,0.0009552054103861311,0.0005155508871756587,0.00011025862430612436,-0.0002671559602971739,-0.0006541133320123928,-0.0011018034252337804,-0.0016441640131284675,-0.0022660961620039654,-0.002887660794936963,-0.0033764643011707954,-0.0035888809667754423,-0.0034263185189596086,-0.002882094551371592,-0.002054746383743987,-0.0011173671938019356,-0.0002540954688221191,0.00040780518055712363,0.0008390346468297487,0.0011043855567684773,0.0013172757832623776,0.0015753603923772117,0.001908828429820749,0.0022673463489304843,0.002552274704101693,0.0026757806946381526,0.0026118378355809366,0.002408052382573482,0.0021518720447992667,0.0019147879620811858,0.001712371616219066,0.0015053844980119713,0.0012367910214326479,0.0008740968180852132,0.0004248887812745453,-8.357452303255644e-05,-0.0006399613211576861,-0.0012650479489608468,-0.001988036072728307,-0.0027956044922288264,-0.0035927721400542804,-0.004212034190720071,-0.004475412025077184,-0.004276613448642713,-0.0036353758569341987,-0.002693149758505818,-0.0016543969758707788,-0.0007062593006635289,4.454879518109582e-05,0.0005931439113326457,0.0010135629810447359,0.001406600472046226,0.0018424124955601997,0.002322118405668766,0.0027746914719982193,0.003090765277032421,0.0031779546430423375,0.0030103244822479386,0.002645320468300712,0.002197330266950382,0.0017811858853733972,0.001457035509483522,0.0012077319048596957,0.0009602237568518976,0.0006353622185880088,0.00019365463901587006,-0.0003504344137412483,-0.0009491298444896115,-0.0015551042013955381,-0.0021391006750797474,-0.002678312860804768,-0.0031288944564685202,-0.0034113847001718163,-0.0034297429422912593,-0.0031190051809911346,-0.002492568763676731,-0.0016558895763749703,-0.0007726906283041852,6.488615774695363e-07,0.0005773250539379098,0.0009663635545697941,0.0012510666535034505,0.001532476984277483,0.0018666941943143505,0.002227401286310904,0.0025140483628415776,0.002604393623384909,0.0024253901789792615,0.002002438661571525,0.0014553096139155505,0.0009384088556743576,0.0005573546601586294,0.0003110543751556709,9.57440779284658e-05,-0.0002288574190033117,-0.0007488179586188975,-0.0014338616407935994,-0.0021407431458576385,-0.002680337041989944,-0.0029090213339781146,-0.002791868605809077,-0.0024046889881745607,-0.0018805411554886802,-0.0013381215500165007,-0.0008347058445968788,-0.0003646535139202428,0.00010643263844421888,0.0006004856248542262,0.0011043411992636035,0.0015740224792859655,0.0019571238715871842,0.002217103403973937,0.002346332387393651,0.002363383247309689,0.0022985630361646503,0.002176401635156748,0.002003960641902504,0.0017705743142433332,0.0014590681804526966,0.0010619127435759817,0.0005913979406340393,7.514617137678606e-05,-0.00046181357805115896,-0.0010152587789409699,-0.0016029149701424475,-0.00224076152660712,-0.0029058784360815083,-0.0035122429943597756,-0.003923346364955929,-0.004003712283846002,-0.0036840114213030394,-0.0030014847676608433,-0.0020898640219252657,-0.0011235202495931081,-0.000248030080083241,0.00046525343628834,0.0010219109336535234,0.0014733120277250333,0.0018766703564330389,0.00226753393458891,0.002650280595287647,0.0030001497797649294,0.003269887227679661,0.0034002843708651103,0.003337113554685203,0.0030532907142408355,0.0025681895744179236,0.001952150624059637,0.0013076919275878084,0.0007297735671725426,0.0002607702806870842,-0.00013620463536368515,-0.0005656287484786753,-0.0011460658210795175,-0.001934958939976517,-0.0028702349825758186,-0.003766591470812734,-0.004379452698779399,-0.004511244367056192,-0.004105747690642623,-0.0032773195125290525,-0.0022558581838019974,-0.0012769949503468622,-0.00047987076423656127,0.00013043163944637703,0.0006403402130260616,0.0011404318263686882,0.0016538586811569204,0.002124381089459769,0.0024630651871872314,0.002613267451552697,0.002585960506405165,0.002443478591017382,0.0022485185520689445,0.00201961011278455,0.00172799980556115,0.0013382618358954777,0.0008591710987541997,0.0003600443765153338,-6.776679030825214e-05,-0.00038023523870369834,-0.0006264783492091481,-0.00092664535123597,-0.001385036463103886,-0.001993647404580587,-0.0025975320074846527,-0.0029572337414418125,-0.002877518548089657,-0.002322986482044342,-0.0014465307587052101,-0.0005128732350051969,0.00023428719832962281,0.0006823243357869682,0.0008789194438388662,0.000974896097657328,0.0011225702519490667,0.0013887117155115879,0.001724820019309126,0.002001838560365672,0.002082936549470284,0.0018936074586285937,0.001457166257458984,0.0008856839750995244,0.000336072598556935,-4.994647684137968e-05,-0.00020219541846458488,-0.00015577958205327275,-4.6101327596868196e-05,-5.9309492850015936e-05,-0.0003515598357730974,-0.0009699764732919807,-0.0018142397297766814,-0.002662611029105924,-0.0032554815756425876,-0.0033995971728477724,-0.003044420415395817,-0.0022959023797754323,-0.0013641682437658463,-0.00047246510848648253,0.00023015968779364709,0.0007150214559960648,0.001061269072518066,0.0013931552341802172,0.0017988438699347875,0.0022730799146948046,0.002715545981257646,0.002986428358569824,0.0029864708701977335,0.0027131337332582336,0.002259827602785666,0.0017623258728627507,0.001329281214103541,0.0009989665773384442,0.00074044605008972,0.0004856954491955635,0.0001647178076311395,-0.00027443508960642044,-0.0008587786001834192,-0.0015839901268630417,-0.0024018699080456288,-0.0032097215424930947,-0.0038586158391176505,-0.00419123759739268,-0.004100522747980141,-0.003580659566146478,-0.002738572566864509,-0.001753392457702585,-0.0008027514865141623,3.956317993287085e-06,0.0006497771319214182,0.0011835375772514378,0.0016646731934029603,0.002115842441608227,0.0025098043311191864,0.0027923998954833204,0.0029210331312233945,0.002891314760229531,0.0027357739917983756,0.0024987386505891307,0.0022070744209637416,0.0018578650285854229,0.001431034031350007,0.0009165170079679685,0.0003349187698896474,-0.0002645448908487723,-0.0008281101620693759,-0.0013262264232389116,-0.0017654857383550533,-0.002173462034442087,-0.0025651747475412675,-0.002913477054416686,-0.003144476620519159,-0.0031637562450069602,-0.0028999747908800342,-0.002342230549349872,-0.0015523107366461324,-0.0006476231102584102,0.00023551195967596022,0.0009825473468470865,0.00153117036689894,0.001882135280165733,0.0020868070917138526,0.002214747814394212,0.002313270682574394,0.0023783643005936134,0.002356078940801139,0.0021794105669014924,0.0018216545133146673,0.001329771581931474,0.0008086695762093462,0.0003604075940949189,1.8399700450882488e-05,-0.0002744680737779274,-0.0006240540682734372,-0.0011062966137880086,-0.0017061892499671792,-0.0023160636210875028,-0.002791735261926145,-0.0030251899753503298,-0.0029853339289719998,-0.002706618626769971,-0.0022448353216444217,-0.001639769740977347,-0.0009127856167489251,-9.571933814562041e-05,0.0007389985521523423,0.001479005375322334,0.0020120801294936574,0.0022825652079271385,0.002324271613096178,0.0022420479282938073,0.002148873545672538,0.0020983804664221305,0.002058613387175223,0.001945238513025645,0.0016906135483360932,0.0012997924399153996,0.0008540275258498869,0.0004593080368705821,0.0001753027019641178,-2.737255909113787e-05,-0.00025360858053344196,-0.0006228214845143349,-0.0011974183369216878,-0.0019405988728191242,-0.0027236765669348393,-0.003375581394668911,-0.003747178497484827,-0.0037589782514291636,-0.003413288479902417,-0.0027736832440328867,-0.0019323618152028855,-0.0009872724767236258,-3.557634619800093e-05,0.000827730662241705,0.001521056097404983,0.0019991689710584276,0.002272655481979573,0.0024043599551773075,0.002477027404283083,0.00254770225851876,0.0026164399994082896,0.002629761368879925,0.002517539992912949,0.0022405133165676037,0.001818805466566372,0.0013242559918825692,0.0008425521572521397,0.00042933520507092073,8.568242485955738e-05,-0.0002363285313810333,-0.0006055390709421194,-0.0010778896925816902,-0.001670718674657964,-0.0023505275632646986,-0.0030337243513203446,-0.0035993667345361135,-0.00391412109597984,-0.0038675873776233905,-0.0034100886816027273,-0.002579339997670482,-0.0015024178885038693,-0.000366817499946812,0.0006336575669637148,0.0013605730124351878,0.001775580009568852,0.0019463112823311487,0.0020064099949556654,0.0020854646505193363,0.0022431483188466625,0.002442528146422523,0.00257693888211652,0.002534617039758933,0.0022643346770950283,0.0018059803804431483,0.001270661087005305,0.0007825588987268113,0.0004144625767940024,0.00015128480242312828,-9.925077627776055e-05,-0.0004540688220029312,-0.0009870109318618745,-0.0016799565584846837,-0.0024168652202569926,-0.0030235124900522153,-0.0033346050444610577,-0.003258624882415808,-0.0028124051067837013,-0.0021106478807908823,-0.0013161106548650163,-0.0005753498172820922,2.8823588290647403e-05,0.0004888511265898196,0.0008501321467778481,0.0011729465253834297,0.0014982384728733067,0.0018286052759785459,0.0021268927582037706,0.0023301313435835527,0.002374676638577711,0.0022255568422291996,0.0018984375785127574,0.001460997693545612,0.0010078337706416237,0.0006182320469276879,0.0003188598058988059,7.270127000478426e-05,-0.00019908649526417885,-0.0005738343337265521,-0.0010839320355220867,-0.001692584205336765,-0.002298095452561544,-0.0027649519721225178,-0.0029711909811361106,-0.002855105174374542,-0.0024414017468653024,-0.0018319662227993224,-0.0011618910440818085,-0.0005413320128148139,-1.4675956748612753e-05,0.00043990635728752183,0.0008721572254751175,0.0013089602631025073,0.0017245028273308038,0.0020498505188355724,0.0022145794840019634,0.0021932668252448687,0.0020268793093519664,0.0018042274739804795,0.001613247610547527,0.0014916614899961194,0.0014083361207843385,0.0012876523876617582,0.0010609932223009286,0.0007110660789663298,0.00027935014335588265,-0.00016766358029683757,-0.0005884767958707925,-0.0009954652372090042,-0.0014396521405496674,-0.001960163407165553,-0.0025335437061679953,-0.0030598776040913983,-0.0033985270338044095,-0.0034334095596437303,-0.00312860216374548,-0.0025417160738095833,-0.0017894209072168914,-0.0009886872028311085,-0.00021042877665960368,0.0005282303659942052,0.0012332734302271569,0.0018897898472932443,0.002437428155502304,0.0027847080066330694,0.00285617816127189,0.0026441272549556616,0.0022307171255170786,0.0017618812497883875,0.0013836004555158822,0.0011763090187427209,0.0011261323158134958,0.0011481552551942877,0.001142540132415597,0.0010441632604379775,0.0008351864084967072,0.0005200441928650244,9.067428869124301e-05,-0.000484036089241541,-0.0012304158459721182,-0.002120743024406842,-0.0030393681998065664,-0.0037950010917620217,-0.004181785122981772,-0.004060638723838581,-0.0034185839951507637,-0.002375720184570091,-0.0011388525959517926,7.161471903729933e-05,0.0010860506538228306,0.0018180455136058528,0.0022624381850618676,0.0024703980217340897,0.0025156677569551453,0.002463083294308879,0.0023479183969952076,0.002172297771801311,0.0019195231683354244,0.0015785248346926939,0.0011637168260393302,0.0007164129609494967,0.0002844481584638606,-0.00010850738923934961,-0.000483084792367443,-0.0008965307950297287,-0.001405457780141485,-0.0020157873385570724,-0.002647624105388345,-0.0031400079822016076,-0.003303535603675547,-0.0030034996185494193,-0.002234739702676614,-0.0011463485500563875,3.882157116717505e-06,0.0009486420454960436,0.0015171553188213652,0.0016964495324119189,0.0016192858120151466,0.0014876029733337465,0.001471573459648958,0.0016338777005365708,0.0019129988814936432,0.002167643771019272,0.002254204533393778,0.0020960791544691465,0.001712500279772854,0.0011980730855685876,0.0006692468398972436,0.00020820003677365809,-0.00016814207685940798,-0.000503007726116381,-0.0008671910850155405,-0.0013180654731219093,-0.0018672736753815972,-0.0024659692697287577,-0.0030103531101723733,-0.0033677467387320226,-0.00341948246885217,-0.00310820794206039,-0.0024688532521872633,-0.0016241072090403359,-0.0007407372387018146,3.5020102152456904e-05,0.0006308303182488884,0.001062758967337266,0.0014047914678951617,0.0017327493371658946,0.00207547202017061,0.002399514036059403,0.002631846262592519,0.0027027503912316155,0.00258239860597192,0.0022932198229775025,0.0018973586298612862,0.001471134116742392,0.0010794248484219818,0.0007560245047840481,0.0004907935875141103,0.00022655779573843506,-0.00012622265132744136,-0.0006512817602935826,-0.0013734144014762198,-0.00221667414995689,-0.0030051701556937935,-0.0035201199138573747,-0.003593715655495905,-0.003192753442561606,-0.002443186059154689,-0.0015756619112763126,-0.0008165332322806228,-0.0002821303082394034,6.523162804292497e-05,0.00037516060132078703,0.0008057760869948423,0.001418134216121404,0.0021271482142770394,0.0027346653204479462,0.0030259422537161915,0.002878799895076692,0.00232917910056037,0.0015590006809539456,0.000812151690301656,0.000282277204062521,3.014845952579461e-05,-2.997069867788425e-05,-7.390083120361484e-05,-0.0002744101697942837,-0.0007175344321932962,-0.0013637290753795988,-0.0020646757362651684,-0.0026217740166857724,-0.0028582416203507465,-0.002677547134357063,-0.0020922809692199024,-0.001220024467696789,-0.0002499158267076141,0.000612663849686172,0.001210013777609138,0.0014834180556453382,0.0014883867889613626,0.0013619538343674728,0.0012538960523979016,0.0012558703257067535,0.0013657954599317363,0.0015039300192085296,0.0015659152693606323,0.0014790093729338777,0.0012319233434681313,0.0008683476100063877,0.00045401825757500813,3.766809809047577e-05,-0.00037342149091538384,-0.000809935993483977,-0.0013087077222165837,-0.0018675051622473648,-0.0024127757437066993,-0.0028056159865648923,-0.0028934475782105918,-0.0025871207342573594,-0.0019221304767655415,-0.001064319619921373,-0.0002477097260601207,0.0003293759119369577,0.0005969082789457921,0.0006431928464013698,0.0006622019206175337,0.0008432080586718981,0.0012621925979421397,0.0018363197534137202,0.0023675068910861013,0.0026488186849198464,0.0025713224255868856,0.0021720360361313948,0.0016018397484837668,0.0010393173496445899,0.0006031766045915654,0.000309172161718472,8.624783635455513e-05,-0.00016727559055382463,-0.0005236877928196145,-0.0009922225324421148,-0.001521072710083813,-0.002024004675289456,-0.0024120953632841284,-0.0026163557793128763,-0.0025982734749873245,-0.002352671218071499,-0.0019067853415054945,-0.0013155320753307502,-0.0006519400548075584,5.625689992337017e-06,0.0005859625883519982,0.0010352007482103778,0.0013246868056029718,0.001456004793296668,0.0014601610828784734,0.0013878235607405597,0.0012915944328885337,0.0012071179983150224,0.001142578414715233,0.0010824605086271833,0.0010026456062852509,0.0008864421946786793,0.0007313927638664092,0.0005442107481196651,0.00032935356688018396,8.011143563935804e-05,-0.0002206559011184285,-0.0005880401554742416,-0.0010156287685257105,-0.0014599854182974987,-0.0018410872567140414,-0.0020639585268103387,-0.0020545161858129915,-0.0017922962326579655,-0.0013216240086462957,-0.0007330730530119125,-0.00012380135810944866,0.0004410520443228126,0.0009424473987683622,0.001387543852424315,0.0017690023379526296,0.002033816815832653,0.002090289875223797,0.0018586219986132652,0.0013385573517567348,0.0006483724131220128,-2.9224831954937453e-07,-0.00039022002661025517,-0.00040638760213945746,-0.00010359294419521941,0.0003074821153848644,0.0005530681411502793,0.0004218244311668174,-0.00014031890041999633,-0.0010107126063386507,-0.0019485348464071597,-0.002694998834870008,-0.0030650830598888687,-0.0029949899335728553,-0.0025377480963840525,-0.001822926247293777,-0.0010047060396315526,-0.0002169055537609907,0.0004567039896638647,0.0009944284887304301,0.00142916161081637,0.0018205515987241856,0.002213053770440901,0.0025967781237967603,0.0028931779075524553,0.0029797290745638633,0.0027484457436055022,0.002172560873251054,0.0013458628564348941,0.00046717770083896937,-0.00023239108980648493,-0.0005898519845503995,-0.000588071232944456,-0.00036760530797434125,-0.00016376874446861827,-0.0002008314338905076,-0.0005956514855862012,-0.0013126927662473493,-0.002183028870583307,-0.0029716880965039065,-0.003462682039196661,-0.003529912286925857,-0.0031704742198873266,-0.0024911139283330013,-0.0016561376990152,-0.0008210046008790148,-8.210427021909883e-05,0.000536086097385977,0.001056841258659079,0.0015113103512966479,0.0019105422728224676,0.0022444584611986972,0.002500616813412661,0.0026807296404407436,0.002797214102581426,0.002851971528174292,0.0028178174421035424,0.002643161227440875,0.002282154520376189,0.001731224378552527,0.0010458169487411655,0.0003227724570146002,-0.00034493826732691303,-0.0009164998357319249,-0.001424854744377483,-0.0019530233527362468,-0.0025708532445177443,-0.0032647269510282387,-0.003905460408471907,-0.004285015442442466,-0.004213395542301413,-0.003625355416286,-0.002631807841917449,-0.001478303179773723,-0.0004290402156233737,0.0003569147953854888,0.0008841345792241193,0.0012822148558866535,0.0016994516941020953,0.0021984216479181773,0.002716807114444881,0.0031111642191770606,0.003248783843173264,0.003087348829697199,0.002696642623768063,0.0022166691694950167,0.0017834517477384047,0.0014659091854265986,0.001243098051158984,0.0010253611425782925,0.0007022295163119011,0.00019260412132107753,-0.0005221745441234356,-0.0013900478910075348,-0.0023010303949944585,-0.0031121336035290657,-0.0036777889519722957,-0.0038834819296391402,-0.0036791769189811396,-0.003102061663184017,-0.0022738934121598435,-0.0013654983756304533,-0.000538279503539567,0.00011167378791343487,0.000579186798910611,0.000932143955486545,0.0012600136134844062,0.0016165637953552737,0.001987089994477893,0.0022962777560198012,0.0024503561341193392,0.0023891968707014308,0.002119908198178555,0.0017146460904265463,0.0012751486062810556,0.0008839381099077428,0.0005680395307593515,0.0002931363655007172,-1.047413777598323e-05,-0.0004048964056923057,-0.0009068577845731587,-0.0014728339550839384,-0.0020118109105187352,-0.0024170916443477745,-0.0026016712079225523,-0.0025229110487135636,-0.0021890447644506835,-0.001648910847597769,-0.0009738557584181686,-0.000243131595896708,0.00046154585779892526,0.0010576311214587544,0.0014715917288861133,0.0016622706997019648,0.001646124440196043,0.0015016255074388083,0.0013392310177084907,0.0012485414041525792,0.0012544167832969008,0.0013103111262081247,0.0013318724312746414,0.0012471631280040368,0.0010315005933994549,0.0007084368303039199,0.0003214464253209642,-0.00010205767258484889,-0.0005696350367942122,-0.001111156044025303,-0.0017388090660797576,-0.002403300922427608,-0.0029782809981222175,-0.0032934170801304655,-0.0032074072585122917,-0.00268302335674877,-0.0018185620645407399,-0.0008123041788493884,0.00012394892597189988,0.000855054725834859,0.0013666419133009041,0.0017405395737512435,0.0020785638389019647,0.002420579310252068,0.0027054461184752715,0.0027994885801545947,0.0025792749865018475,0.0020228580902942185,0.0012537177061441736,0.0005030589460715988,1.5529185287356442e-06,-0.00014329541737847815,-1.2766154836633977e-05,0.0001573733663827556,9.696144320805346e-05,-0.0003567589248739046,-0.0011715153977351906,-0.002130527901953616,-0.0029310831562771155,-0.00331703960296347,-0.0031796940116114144,-0.002584523638831582,-0.001722605959943526,-0.0008212960830438413,-6.084698711239148e-05,0.00047060109216636717,0.0007781865950399647,0.0009326486332048695,0.001032737419635827,0.0011686644585229122,0.0013900958090261202,0.0016834754719125752,0.00196985482689518,0.0021337299199508,0.0020780562687110187,0.0017788488355763412,0.0013042870631838036,0.0007806394558311796,0.00032179443261852393,-3.4070817928466036e-05,-0.0003387633029853376,-0.0006876785943807572,-0.001140655793029498,-0.0016612526265693262,-0.0021169000399203722,-0.00234522619346096,-0.002248200133354549,-0.0018543873450071451,-0.0013072038504269405,-0.0007842566664568406,-0.000398278296746247,-0.00014224143431956516,8.828203621921645e-05,0.0004125957405488372,0.0008761330057706572,0.001410646663796904,0.001866277531761095,0.002094567138929584,0.002031945440730769,0.0017340448751429205,0.001341055312824982,0.0009955941283823972,0.0007625021416742843,0.0005975384487598118,0.0003814272128821831,-2.746715699103935e-06,-0.0005938640311473704,-0.001320237141462928,-0.00202610766113421,-0.0025408731273796627,-0.0027528219238880606,-0.0026485444884918625,-0.0022998450578146142,-0.0018104229451981779,-0.001257349278462305,-0.000663415938922451,-1.460739823533943e-05,0.0006934816204283188,0.0014148614973905618,0.0020472930715264223,0.002467165656912353,0.00258593542831547,0.0023972134906689664,0.001989032021560779,0.0015129492483091252,0.0011221160039525818,0.0009063648318339494,0.0008562139651333504,0.0008746968624902135,0.0008304050929693325,0.0006216049514295611,0.00021587408525378907,-0.00035256666460831414,-0.0010165200643954724,-0.0017099367468711925,-0.002377280505910958,-0.0029579832265937507,-0.003369162506878331,-0.0035115624958677576,-0.003303496534836217,-0.0027238500176244413,-0.0018372274654087659,-0.0007855952009621489,0.00025045765198208013,0.001104673040821858,0.0016729890135134754,0.0019404599622714518,0.0019780928854249177,0.00190993386974751,0.0018616921518066526,0.0019102217376026523,0.0020539112512414043,0.002216722239788612,0.0022856198973085105,0.0021663517426568127,0.0018319291624039628,0.0013387300332148482,0.0007995066823369288,0.0003248647615746555,-3.694760130254024e-05,-0.00032862047631430864,-0.0006619153136655942,-0.00115240948821418,-0.0018420330520618948,-0.002650252919386606,-0.0033840692512398744,-0.0038094828358156297,-0.0037547255119556606,-0.0031947211790964228,-0.0022707800479151207,-0.0012312323814938088,-0.0003217842218010111,0.00031743136467304867,0.000696020344916547,0.0009405851330052001,0.0012078170203959487,0.0015910425275407437,0.002066986496512193,0.00250725123083485,0.0027468946963647174,0.0026740543147629,0.002292960404976078,0.0017259640378388735,0.0011536391896874872,0.0007265507906944753,0.0004962950509544483,0.00039940113800402945,0.0002971497752155239,4.7065843188345965e-05,-0.0004287929212866623,-0.0011066977628519663,-0.0018665575678121678,-0.0025336414460578878,-0.0029384370434559007,-0.002971926429742418,-0.002617600510166352,-0.0019518099122937775,-0.0011155763706921814,-0.0002693922625331836,0.0004533848381288429,0.0009790152475659941,0.0013012262542655972,0.0014637857576670354,0.0015280689247911174,0.0015418424349593661,0.0015231274734378202,0.0014640435800916118,0.0013489407618671031,0.0011738778157141063,0.0009539990738717179,0.0007128677030048599,0.00046079424558881214,0.00017984040969390436,-0.00016806889641968314,-0.0006091642240437656,-0.0011214218057524422,-0.0016215411366467284,-0.0019906855544714144,-0.0021284256459591223,-0.0020036336385026556,-0.0016710355607048506,-0.0012429951258020305,-0.0008333887130083153,-0.0005059773440901688,-0.0002544352346539126,-2.0573448922430013e-05,0.00026413356095868315,0.0006381762327346718,0.001089875369709445,0.0015624596368655822,0.0019762042402132417,0.0022543263964582582,0.0023428950249844665,0.0022222851316312364,0.0019121308750545854,0.0014703715307476698,0.0009828590328302188,0.0005394779270235045,0.00019968841057976493,-3.8377788127900875e-05,-0.0002450171096054208,-0.0005294458178723697,-0.0009811851623952143,-0.0016110080532827605,-0.0023263425731175264,-0.002959781809569995,-0.0033386128319176874,-0.003357741721434845,-0.003016072445629758,-0.002399853933678913,-0.0016298089181797852,-0.0008088130653112388,-3.6506750238307845e-07,0.0007582469056943065,0.0014295697289495543,0.0019640284552315946,0.002314468381878636,0.0024655597677153353,0.002452678150231092,0.0023509805787430187,0.002236945547611769,0.0021461374010923987,0.0020561814878777567,0.0019077392846973658,0.0016495403519757113,0.0012759586223596961,0.0008306075912919112,0.0003734847452377603,-6.504854886293856e-05,-0.0005104318875312003,-0.001029204441406204,-0.001677866221085002,-0.0024435375609882285,-0.0032136619835308393,-0.0038000202232517785,-0.004013063702510302,-0.0037508460946193796,-0.0030530734582813,-0.0020872878559509396,-0.001073177090657257,-0.0001876900063788709,0.0004962541266181386,0.0010074888094322588,0.0014209793214743896,0.001790286017965186,0.002112023547453908,0.0023397579812919136,0.0024289763296101797,0.002375479706666112,0.0022196266431873833,0.002018236119744562,0.0018102993123071689,0.0016033443972748801,0.0013861572033733185,0.0011502402031644124,0.0008970770677106613,0.0006243507587766888,0.0003062503403528646,-0.0001088670925815065,-0.0006727268933560738,-0.0013950238989244386,-0.00221118201621627,-0.0029826736422886814,-0.003534890358948283,-0.003717745690905095,-0.003462658065890388,-0.002810570278440583,-0.0018981519806486621,-0.0009082173539021333,-7.11947230994949e-06,0.000702791917580328,0.0011973750859564398,0.0015120055009966334,0.0017058804871551824,0.0018291050635185896,0.0019054441056725422,0.0019325414732957859,0.001893090005568236,0.0017686844931175674,0.001551612453629236,0.0012532792251052924,0.0009073832515766168,0.0005637107021640011,0.00027049533193394267,5.1137097073297834e-05,-0.00011177798535188925,-0.0002735241153224903,-0.0005036804540297308,-0.0008514437732463247,-0.0013145890977466963,-0.00182554045374963,-0.002262787718461644,-0.0024879257730087917,-0.0023978947457853486,-0.001971708834973102,-0.0012881525901689511,-0.0005011193704766243,0.0002200442499918224,0.0007577596142512258,0.0010871047750653031,0.0012692984376006461,0.0014025230051958211,0.0015585302749997335,0.0017405846253582108,0.0018846553704815337,0.0019003720293410177,0.001726760093469201,0.0013717232400544974,0.0009146861779740418,0.00047129106869684523,0.0001377319904878894,-5.7689813742440275e-05,-0.00017113001920918516,-0.0003178562459733842,-0.0006144176317187959,-0.0011133354330917732,-0.0017610910628586447,-0.0024034167023642603,-0.0028423107327595004,-0.0029222612486195596,-0.0026029570188499727,-0.0019780570307828607,-0.0012275979051935668,-0.000529766293959844,1.842781317333412e-05,0.00042832717432485977,0.0007837961457730662,0.0011692496737846165,0.0016077539266715298,0.0020449868607096845,0.00238288454557255,0.0025356453634466265,0.002471201803453584,0.00221739157608115,0.001838892524531317,0.0014073685064900877,0.0009831779895528542,0.0006102440824135329,0.00031301821438436885,8.658364875584616e-05,-0.00011527031154408263,-0.000377026134497376,-0.0007891910940615466,-0.0013924960726873906,-0.002128383763144963,-0.0028331449626540655,-0.0032925349024659186,-0.003335767337146689,-0.002919040990983092,-0.002150941922783753,-0.0012448440174285728,-0.0004249233903661411,0.00016408359368228474,0.0005002166328915773,0.0006667143773157632,0.0007910811858790976,0.0009758841903533824,0.0012545193523059656,0.0015883186156455376,0.0018990116567954543,0.002113649051973445,0.002195948377126606,0.0021497401128894164,0.001999098316015886,0.0017637154501272535,0.0014484204950668913,0.0010528805891008854,0.0005907319678306803,9.89586735516364e-05,-0.00037455722502688945,-0.0007988499406638529,-0.0011807432214222726,-0.0015574784859301318,-0.0019596761401556866,-0.0023681272664649844,-0.0026976190279202217,-0.0028255680668761475,-0.002652764316878097,-0.0021605363648155218,-0.0014296033880515173,-0.0006091331224774207,0.00014619331359813496,0.0007361518740108383,0.0011410255258517811,0.0014041434675925203,0.001586647459871228,0.0017243343447424712,0.0018114661575858219,0.001816901060823844,0.0017172033373157526,0.0015223711942150733,0.0012767008664359679,0.0010343830809696052,0.0008256035449260862,0.0006345555089651553,0.0004034373873316903,6.195635998525412e-05,-0.0004310441766184822,-0.0010530435395108987,-0.0017078805065291103,-0.002249561334610935,-0.002534767991356428,-0.002482513291018262,-0.0021103925508416583,-0.0015253822230516486,-0.0008723128411944231,-0.0002695070857545804,0.000230906710134719,0.0006379213209374997,0.0009824896446369402,0.001276727631285836,0.0015012013157625114,0.0016257225200790918,0.0016424652257508456,0.001581816459007563,0.0014965448196082797,0.0014251071171380795,0.0013603031306074567,0.0012451208366784975,0.0009992945794356672,0.0005618492421328915,-7.249356631542523e-05,-0.000840015043773711,-0.0016225848899090083,-0.00228301482071878,-0.0027071702977180118,-0.0028376905541037476,-0.0026872642704720453,-0.0023259109581168715,-0.0018467844888250045,-0.0013261913303665193,-0.0007986482820512477,-0.0002603674266687887,0.0003029039694812758,0.0008832851340851782,0.0014352866341333522,0.0018874449900902037,0.0021740205797498987,0.0022682569477841526,0.0021980509831494425,0.002034020534574965,0.0018544908456909776,0.0017055595408061845,0.001579399744233248,0.0014248204373970017,0.0011838104451222307,0.0008294020541951741,0.000378580292981659,-0.00012733315073269164,-0.0006568038815121676,-0.0012069217418437842,-0.0017894673328740182,-0.002393774846748943,-0.0029563708786300054,-0.0033649387719749653,-0.003500434878169938,-0.0032939005068996167,-0.0027634925046247857,-0.00200952735427013,-0.0011712498921058931,-0.0003708443178917913,0.00032517346678633853,0.0009103867553636108,0.001413088333797218,0.0018609897994687763,0.0022575884980797064,0.002580485124936821,0.0027967067970247478,0.002881327487758506,0.0028278150946877134,0.0026473151757357882,0.002361391038253809,0.001993987522536691,0.001565247786136005,0.0010869658180961384,0.0005597943812742465,-2.518852533969052e-05,-0.0006771488471754451,-0.00138897783481833,-0.00212128748273393,-0.0027983893503810047,-0.0033229543422746916,-0.003605120618203985,-0.003592835812029639,-0.003289307089430859,-0.00275023266424901,-0.0020631243948671853,-0.0013183458586918176,-0.0005837858524895455,0.00010737050873762784,0.0007516963280408296,0.00135613074415619,0.0019138069342061594,0.002388865003697532,0.0027210050757199298,0.0028496073454010104,0.0027446125851068705,0.002426283945578123,0.0019624407058671123,0.0014450347985006944,0.0009589890980012523,0.0005584571152089238,0.000258747402608517,4.173015080171315e-05,-0.00013344524243448248,-0.0003199500962433331,-0.0005716585544988717,-0.0009256991816712158,-0.0013802916698241094,-0.0018788411510365724,-0.0023150659495749766,-0.00256545772782815,-0.0025384845256380393,-0.0022163009943111005,-0.0016652427144973354,-0.0010077867441677765,-0.0003710557008845141,0.00015998178147548235,0.0005618377766388006,0.0008605924737006455,0.0011026984143981215,0.0013269164654416627,0.001547875511121368,0.0017519569061743186,0.0019025434264405372,0.0019527195649300523,0.0018634279802132614,0.0016220551503006591,0.001253731678067886,0.0008184861913948829,0.0003918720768969676,3.351080781764556e-05,-0.0002441759021637143,-0.0004893157110678764,-0.0007913233820518995,-0.0012295668821852637,-0.0018122249407953588,-0.0024412109836489124,-0.002931522681811142,-0.003084937232858496,-0.0027843666290475124,-0.0020583371879038495,-0.0010780181606366305,-8.588615548522764e-05,0.000706829334955683,0.0012006951378054638,0.0014280670001794462,0.0015090234690504642,0.0015737320717896304,0.001695589729257444,0.001867150362217313,0.0020223769412945937,0.0020833532770473152,0.0020020575977402802,0.001778422821136371,0.0014529832712228486,0.001084082975845863,0.0007223845085525607,0.0003924470173444183,8.631324177333418e-05,-0.00023051554412199717,-0.0006034981695352436,-0.0010682986223611403,-0.0016305110723473365,-0.0022526668483801495,-0.0028546103996476132,-0.0033290889045354765,-0.00356819612128903,-0.003491982411720639,-0.0030704229966282584,-0.002333267774282414,-0.0013666932229513447,-0.00029885844068530036,0.0007227117254749247,0.0015596415584735322,0.0021142573080455036,0.0023575721751344317,0.002342154114592183,0.00218787140065332,0.0020374661725758927,0.001995832134053515,0.002081879494946328,0.002221728126691131,0.002291451695484748,0.002187519297547808,0.0018843259604756721,0.0014448829097522403,0.0009788125367988663,0.0005732104968276459,0.00023790863984810126,-0.00010163936467108927,-0.0005583517895515923,-0.0012099626960737184,-0.002039485964946273,-0.00292323042340406,-0.0036737435048645965,-0.004116063609633084,-0.004158583278447424,-0.003822784888061622,-0.003218179556268158,-0.0024791050001448534,-0.001701275757331123,-0.0009143505735984349,-0.00010255278140146212,0.0007459498262440976,0.0015978766163779648,0.0023709177662930396,0.0029683323445691503,0.0033260937950286354,0.003439881942125695,0.0033565322728470355,0.0031407664197590185,0.0028428036123401834,0.0024866580451716963,0.002080077129027559,0.0016313097437419162,0.0011565331529736795,0.0006732578063459582,0.00018804337455282678,-0.0003091916265184631,-0.0008386000254615529,-0.0014156127823180837,-0.0020359951331430626,-0.002665852296208129,-0.0032384154358023644,-0.003661030953618444,-0.003837580942805387,-0.0037048461283298605,-0.003267136666200014,-0.002605613336085806,-0.0018492063730210402,-0.0011183155624554628,-0.00047207463054366845,0.00011003809286722153,0.0007004201117566879,0.0013631778272212417,0.0020942401513041786,0.0027975810696973524,0.0033171637698543336,0.0035133246067428304,0.0033424806355112904,0.0028908945059806764,0.002337066562448853,0.0018613018524579463,0.0015558721927547807,0.0013893721434744216,0.0012433174629513596,0.0009928975222973078,0.0005788182839704529,2.8505841910245796e-05,-0.0005777681308374653,-0.0011639107036877571,-0.0016953330702398463,-0.0021736839198495533,-0.0026001147901771144,-0.0029406077057986205,-0.003122703691053567,-0.0030679302722634613,-0.002738335989969793,-0.0021667251609847854,-0.0014519055021677408,-0.0007220177549500705,-8.649831155995227e-05,0.0003984713489099678,0.0007358130103187624,0.0009668649237296525,0.0011409438967474599,0.0012943030099602008,0.0014462178491041928,0.001603876607265536,0.001760815593194018,0.0018827719070695723,0.001892951816975805,0.001679341591410848,0.0011375204424706547,0.00023687492191630868,-0.0009254893267221351,-0.0021209457861850935,-0.0030495390396513868,-0.003442822888052308,-0.0031636946098696295,-0.0022579555646640437,-0.0009357990835296932,0.0005054681656154088,0.0017809002455181422,0.0026980576305339387,0.003191694981737897,0.0033104829115939236,0.003170850972859198,0.0028991863701439244,0.0025824607741977194,0.0022436402473912363,0.0018508625972667035,0.001355641439707064,0.0007394892700348034,4.1512592411097125e-05,-0.0006506170902830031,-0.0012422272060480027,-0.0016822885789929385,-0.0019944520378095076,-0.00227028276523705,-0.002625444910279815,-0.0031371203665741376,-0.0037899973390723555,-0.004456309399329446,-0.004923553828436256,-0.004964704162588379,-0.004426087419649345,-0.0032968071427020807,-0.0017281693620603894,8.359018500100424e-06,0.0016097164682607286,0.0028410923307696403,0.003606713492475366,0.003963456523621203,0.0040733525349791674,0.004116731962626002,0.004204153492587001,0.0043258090575728665,0.004361237537193507,0.004145343712467105,0.003559646186862803,0.0026035101410366145,0.0014080687395635636,0.00018403918763035807,-0.0008702078136648255,-0.0016516533884119908,-0.0021822727851374397,-0.0025708554109919986,-0.0029317961306080816,-0.003310074396118078,-0.0036547948661353417,-0.003850279508599454,-0.003778192536585607,-0.0033716515913344504,-0.0026378840493128815,-0.0016521437347776183,-0.0005392940278221867,0.0005469537033452161,0.0014506627341083413,0.002051493455559047,0.002305116333488169,0.0022632626576518074,0.002054116047424024,0.001826625460258826,0.0016864161417271212,0.0016566603694007948,0.0016809039826897886,0.0016596977300604022,0.0014964805457186535,0.001129610794017043,0.0005428162006287264,-0.00023744712625048246,-0.001144721029584851,-0.0020716647344620562,-0.0028747963391135964,-0.0033973189784679662,-0.0035118653008407393,-0.0031685801528882965,-0.0024245119271619708,-0.001435447958772131,-0.00040881682221703697,0.00046434106209801277,0.0010703089646816803,0.0014021519876233697,0.00154678208043997,0.0016353622808076515,0.0017775197743636387,0.002008253359323127,0.0022732922880491337,0.0024613905909945523,0.0024665562087091367,0.0022443338170700985,0.001828611652414082,0.001300705002028282,0.0007346765208501016,0.0001585051603038392,-0.00044233744573369713,-0.0010841323676959544,-0.0017387706888186776,-0.0023171011370134594,-0.0026965629827764323,-0.0027797269504671197,-0.0025510254641590542,-0.00209787525411517,-0.0015797297964282096,-0.0011563955332794527,-0.0009110631523501194,-0.0008095039216395998,-0.000719541449872942,-0.00048318968187989865,-5.454358545051944e-06,0.0006859400182963125,0.0014417478483122522,0.002054472518367245,0.0023525180176727552,0.002277080478206529,0.0019022831157252493,0.0013897574378994972,0.0009048151716223086,0.0005415874023198559,0.0002966275106507602,9.936505873671527e-05,-0.0001261510811472722,-0.0004083774243321464,-0.0007122399060355553,-0.0009611142296725545,-0.0010769311117816073,-0.0010151243996167794,-0.0007817511042629115,-0.00043197072053712785,-5.3515098864596704e-05,0.0002615558016798398,0.0004506105925549378,0.000506066206019386,0.0004761695481075737,0.00043454513989796316,0.0004324875615197036,0.0004633055986196714,0.0004646060332993197,0.0003620429634768976,0.00013004110457566032,-0.0001710722098689985,-0.0004137971880679628,-0.000477497768655134,-0.0003365624422205095,-0.0001018364036599161,2.3530952132588545e-05,-0.0001420676643931041,-0.0006414105470924382,-0.0013327385026171324,-0.001949718361885167,-0.0022365043800553893,-0.002079855176565466,-0.0015601493746888345,-0.0008918870288816992,-0.0002925152815388835,0.00013751568339176,0.0004501609720184614,0.000784368455848934,0.001249390132623777,0.0018369367272277005,0.0024183387075694647,0.0028224207779396528,0.0029356112302651033,0.002755847876651229,0.0023714184845801236,0.0018924862827164736,0.0013918489001170503,0.000892790475655533,0.0003967866921081133,-8.707824927673682e-05,-0.0005419607488644025,-0.0009687486421354923,-0.0014041485876900663,-0.0019006682467761558,-0.002471376813203715,-0.003039648092720759,-0.003441837065907787,-0.0034975792792692065,-0.003110855037000243,-0.002336013215358649,-0.0013620555858423178,-0.0004231354752367147,0.0003076846777098263,0.0007770650739976229,0.001035458648680947,0.0011713517969190715,0.0012484353329116683,0.001286102470299116,0.0012849545284480638,0.0012648498440499783,0.0012774411854851056,0.0013794145695787238,0.0015865580944583913,0.0018458060770492248,0.002049352074336332,0.002082981056639591,0.0018765846445013934,0.0014270456135630875,0.0007872294819125232,3.8073500899889396e-05,-0.000733951323739059,-0.0014447938324982832,-0.0020143412321255807,-0.0023757851577314213,-0.002497052695335765,-0.002401212546627252,-0.0021643249579910762,-0.0018802274268900085,-0.001607146246129795,-0.0013312032050424047,-0.0009774749355547481,-0.0004689298757813438,0.00020195097220319827,0.0009377160583681022,0.0015656921400171622,0.0019210759586677185,0.0019360899838310847,0.0016811253720572497,0.0013309855502545483,0.0010742462093816267,0.0010179596978215025,0.0011414189922178378,0.0013209340268697319,0.0014042072172314249,0.0012866612549231173,0.0009482469059434178,0.000439635817160609,-0.0001617134030201398,-0.0007918042218815081,-0.0014123351546499342,-0.001993755539354391,-0.0024894081583312203,-0.0028269145304390736,-0.002929178368503702,-0.0027535992682648875,-0.002321939348344913,-0.0017171104002018781,-0.0010446607642157345,-0.0003811120128346967,0.0002581261786823413,0.0009090430361380172,0.0016105543564000088,0.002345237035793527,0.003007363376427311,0.0034249675018563613,0.0034337183415077306,0.0029676863522158426,0.0021149338599939756,0.0010988526777209247,0.00018693490480948725,-0.00042642001551746345,-0.0006985898679038466,-0.0007376081302976938,-0.0007280284269370559,-0.0008303816788256225,-0.0011084102887843187,-0.0015143653946631639,-0.0019275034953532,-0.0022167677611340465,-0.002295140591364406,-0.0021451482392755346,-0.0018113383430265497,-0.0013688556365079332,-0.0008855874489145999,-0.00039744080545125527,9.065627490768206e-05,0.000581135077441881,0.0010567878771861306,0.001473364641882921,0.001780031446094604,0.0019523060084703848,0.002009345743149527,0.0019983806899612493,0.0019560790448113997,0.001877241181697731,0.0017176795517815518,0.0014325246446540302,0.0010230296710241843,0.0005554265102267256,0.00013216125737406542,-0.00017154249789573897,-0.000365826640329564,-0.0005564912838569224,-0.00089084215470199,-0.001463156576715346,-0.002234553570592127,-0.003021180282339611,-0.0035678917509043093,-0.0036718589418754163,-0.003286110845844211,-0.00254199403250305,-0.0016778327171366402,-0.0009169283218772104,-0.000364920340987481,2.0523306325969954e-05,0.0003802696371079234,0.0008599681858721748,0.0015242804224233457,0.002319438794075898,0.0030963044356034928,0.003677295729091247,0.003932309092195224,0.003827124588791987,0.003423610626025815,0.0028373716917065896,0.0021809558619072756,0.0015253247694280928,0.0008959488869927832,0.00029450063406114067,-0.00027840757660390123,-0.0008185611309953174,-0.001330430623103992,-0.001838099182796467,-0.0023763413576602718,-0.0029595147895660296,-0.003545849901251274,-0.0040241914757867085,-0.004241686133498896,-0.004067383290687214,-0.0034616065679814035,-0.002511212522282581,-0.0014054862097097845,-0.00035982650573375516,0.0004744599849045702,0.0010655658455512357,0.0014913283692651715,0.001871126934257158,0.00228116470500633,0.0027043169054181814,0.0030428739664620013,0.0031819787082446906,0.0030610321347344194,0.002709667056763128,0.0022313989360910075,0.0017508819791847473,0.0013581895007233585,0.0010780243310139317,0.0008718325622981678,0.0006623908396092186,0.00036455623532478763,-8.813204433513371e-05,-0.0007225215919837349,-0.0015092362842256753,-0.0023537867122047605,-0.003105367987825753,-0.003592751113660589,-0.0036839529261374158,-0.0033467505278084574,-0.002675609027437754,-0.0018610745556740208,-0.001108963611528987,-0.0005494710762562938,-0.00018651456816083474,8.429383325028847e-05,0.00040118968327099353,0.000850002419019847,0.0014150482160038896,0.001991090446541787,0.0024432159597087824,0.00267557670361319,0.0026697731816864934,0.0024767007024713004,0.002175133086479387,0.0018269543788166525,0.001454270473859199,0.001044831918947384,0.0005747133921255951,3.1627450105782995e-05,-0.0005721368558703209,-0.0011991043805212832,-0.0017943339923659546,-0.002296237666840182,-0.002647054512551663,-0.0028018426843920505,-0.0027357781494576332,-0.0024490448732153464,-0.0019684642888078995,-0.0013460681863046496,-0.0006550267405160264,1.889540262905133e-05,0.0005938135355384721,0.0010156110182110802,0.001279742963007909,0.0014355922040509346,0.0015634800890745287,0.001730687113325901,0.0019493245710639163,0.0021625262642778653,0.0022708985000106877,0.0021863607543023047,0.0018820552005628282,0.0014082205225727025,0.0008645053069406179,0.00034542879433010457,-0.00010911543500871884,-0.0005303268952327235,-0.0009945441171560082,-0.0015674167732363292,-0.0022460095073476133,-0.0029299285410282834,-0.0034421352778387197,-0.0035976303435420022,-0.0032913592026893516,-0.0025598540937623003,-0.001578443362977545,-0.0005889115486407357,0.00020633753472382773,0.0007257231937994094,0.0010218336952753843,0.0012248550474449405,0.0014555202463255761,0.0017603595081086046,0.0021011449630366293,0.0023928855750781353,0.0025571232565414215,0.002555916761423834,0.0023931713566817257,0.002095353584196669,0.001694410397022948,0.001226387684697728,0.0007399420936438153,0.00029639565573017396,-5.2002042440579454e-05,-0.00029905199555491346,-0.0005103592385420511,-0.0008088161526905537,-0.0013123757254207636,-0.0020512798397503266,-0.0029154103476890262,-0.00367410496795183,-0.004070225484443043,-0.0039418215695432085,-0.0033024890494409843,-0.0023333417695761303,-0.0012918103442976793,-0.00039045801726942796,0.0002871218945530192,0.0007921071079547184,0.001243713905821012,0.001735169865330316,0.0022681273140834524,0.002749812210056365,0.0030489887099526946,0.0030743352543639597,0.002828874934622077,0.0024101478506090204,0.0019577652943233445,0.001579974481491966,0.0013024084411512892,0.0010686418159986076,0.0007905256562467538,0.0004147751447904239,-3.8723883958110304e-05,-0.0004928639880767973,-0.000872234276136837,-0.0011629941163544349,-0.001429281607685891,-0.0017700974714835878,-0.0022412470457778264,-0.0027930210040634377,-0.003268060941198838,-0.0034681019013705168,-0.0032551776251872507,-0.0026298349107869577,-0.001740541913848794,-0.0008173441560961421,-6.522393928215596e-05,0.00042585527096220823,0.0007076587359218339,0.0009258887260973578,0.0012268023579586399,0.0016703563710385757,0.0021961659008700248,0.002657818818420692,0.0029033455591427975,0.0028560770424673285,0.002552803156072317,0.002121711734253991,0.0017152742298666788,0.0014348358672746943,0.0012842497928450066,0.001172366357248463,0.0009599546317207164,0.0005273891770116422,-0.00016784327178473874,-0.001068284978822701,-0.0020356706725378803,-0.0029000035384104724,-0.003514770471714894,-0.0037960223716814066,-0.0037342609321350593,-0.003380773162220972,-0.0028184887277056354,-0.002130833244023057,-0.0013813154814686691,-0.0006112561793519519,0.00014677811687954288,0.0008521996092203512,0.0014512246020309955,0.0018901054716093488,0.0021398468001621413,0.0022158292814095123,0.002176874431116609,0.00210001845773979,0.0020430912748912733,0.002016935110294573,0.001984703477413046,0.0018885275400237584,0.0016860171100502603,0.00137408163257649,0.0009880784585387103,0.0005803766444040793,0.00019225631621771927,-0.00016668650791241778,-0.0005226408278878896,-0.0009228396172138086,-0.0014069827473097525,-0.0019769013203274725,-0.002579541831826639,-0.003113620332616926,-0.003459014983723377,-0.003516651170255058,-0.0032422604533220906,-0.002661685782159603,-0.0018640583821012925,-0.0009766392926222976,-0.0001294016675436225,0.0005802026272796591,0.001110732218202046,0.001479004747555441,0.0017390710090084826,0.0019473178154145654,0.002132072524380005,0.0022847898606826863,0.00237646245175296,0.002385680469010096,0.0023171813261750993,0.002198184041651853,0.0020570752295562948,0.0019009647383224906,0.0017072585496948388,0.0014334786086168552,0.0010386634451346123,0.0005050987719532484,-0.00014919802942363932,-0.0008720192050320423,-0.0015916524720407652,-0.002238163486759638,-0.002760779065868504,-0.003132147538905665,-0.0033386672046683023,-0.003367206084221605,-0.0032025558427288313,-0.002840829780827473,-0.002308125920673963,-0.001665969256427246,-0.0009938298205199067,-0.00035752211714083494,0.0002150787450477139,0.0007333135895052059,0.0012180140804343837,0.0016694164830666851,0.00205274459422238,0.0023130127250484385,0.002409345792822287,0.002344998051459676,0.002172328492265311,0.0019690656601927467,0.0018005421214584102,0.0016902385731307184,0.0016144750191345687,0.001521867873218636,0.001363902972491315,0.0011178573906902036,0.0007897474100061941,0.0003983304654663006,-4.702455316250875e-05,-0.0005581353685934559,-0.0011589671556670666,-0.0018577984705018737,-0.0026156511263354205,-0.003331882237890228,-0.003861386237662938,-0.004061215000254106,-0.003846934061905944,-0.003231478017440782,-0.0023265919882482105,-0.0013049253125931638,-0.00033939827647822744,0.00045344460131623823,0.001041575706362842,0.0014659445854167698,0.0017973683271227882,0.002086272077842048,0.0023334613893022547,0.002497454714733907,0.002531258705642538,0.0024229578961122394,0.002212567866071502,0.0019737728230580466,0.0017724874133357178,0.0016290072621913,0.0015075227710072282,0.0013388914921288852,0.0010619789832382034,0.00065838518636256,0.00016062057479633059,-0.00036930951993042257,-0.00087615475601171,-0.001339656088558245,-0.001777573779046398,-0.00222151523569494,-0.0026796587074940483,-0.0031092293294722583,-0.003418077830549509,-0.003499260886345903,-0.0032825961666261352,-0.0027751403006527633,-0.002067176989050244,-0.0012990308081271508,-0.0006049072266712738,-6.130534339686427e-05,0.0003352941664343942,0.0006516899340939185,0.0009727671995345858,0.001353941473742957,0.0017975104863692274,0.0022620911244219753,0.0026917700415826536,0.00304132965005615,0.003283114488930915,0.0033993879913139405,0.00337459988698234,0.0031978512830354716,0.0028735754720671017,0.002429240784809648,0.0019093005963001135,0.0013540675118823855,0.0007747243369464492,0.00014286909046643545,-0.0005919908439453026,-0.001460486192747125,-0.002429444817568027,-0.003385369697204133,-0.004162172596759626,-0.004604150233461845,-0.004632458207755903,-0.004278961267614404,-0.003668937773209338,-0.0029629786094549594,-0.002290240492160792,-0.0017067878418726599,-0.0011954571846835844,-0.0007007188202646172,-0.0001764141678560109,0.0003792108628365594,0.0009192990999051855,0.0013773550332021203,0.0017127519660179859,0.0019439249019651678,0.002145059330206196,0.0024037636038069833,0.0027629459586765983,0.003182587631441594,0.0035474131996755184,0.003719961298738187,0.003610819718520914,0.0032253773412167317,0.0026579392390618716,0.002034470931333344,0.0014370364239787404,0.0008557538200313949,0.00019862302002480363,-0.0006445932136297436,-0.0017195686499724087,-0.002951114730582504,-0.0041442410023689365,-0.005044047499470737,-0.005427627346876136,-0.005187279549813253,-0.004370052503878235,-0.003159439520079547,-0.0018099146233659194,-0.0005628641317631964,0.00042275173046329843,0.0011004166222845452,0.00152041978743159,0.001782038511952977,0.001978808931308449,0.0021605413492563866,0.002323622085984945,0.002426795795990793,0.0024199795282995643,0.002271081017999083,0.001979666365725956,0.0015746490755722958,0.0011017778188346069,0.0006100675933917094,0.00014240323165550894,-0.0002710062551155292,-0.0006196036592997836,-0.000918404356180466,-0.0012053034798912422,-0.001522683336957359,-0.0018861338988455222,-0.002256612946975687,-0.002537838464360612,-0.0026097130400686295,-0.0023854709118795356,-0.001861609089967951,-0.0011307450339891503,-0.00034823950033182867,0.0003308733283588749,0.0008132583164843446,0.0010980224361412769,0.0012640490973231488,0.0014220154421221065,0.0016549715084329553,0.0019751676323063413,0.002315757238505815,0.0025595275239561305,0.002591011175639278,0.00234931437992622,0.0018591350101989314,0.001226127864091518,0.0005972725594348934,0.0001025945209238105,-0.00019507185845642054,-0.0003177016164449308,-0.00034953574895766823,-0.00039053735191805605,-0.0005155248755962071,-0.0007601109285135191,-0.001130299135266814,-0.001613997444729883,-0.002176733857235671,-0.0027461065259330236,-0.0032080137234134294,-0.0034338443071266485,-0.0033332449137444065,-0.0029020223987951755,-0.0022309324364396107,-0.0014641547653081624,-0.0007303971401009235,-8.924012622738112e-05,0.00047473148780672366,0.0010100992185113093,0.0015408672619954909,0.002033793709631401,0.0024135802535825944,0.002615898750365616,0.0026417530920489823,0.0025733907513928516,0.0025351148711591324,0.002618278115027407,0.0028153160841005364,0.00300564813698819,0.0030072603902245123,0.0026692881541260744,0.001955486279950912,0.0009707646176423349,-8.716231006389817e-05,-0.0010263068654240994,-0.001752803277159971,-0.002301604791810758,-0.0027866165140819116,-0.003302348759676309,-0.0038399509749795003,-0.004270182007716729,-0.004403318095246188,-0.0040907329555894744,-0.003311652435780855,-0.002199389509905375,-0.000994118633060318,5.4279297139261614e-05,0.0007864610894811176,0.0011895900032794279,0.00138343949812303,0.0015449348696203798,0.0018096529553316178,0.002200588461266032,0.002620944740658343,0.0029140405112668133,0.002956292312541878,0.0027294973349807623,0.002329462831148547,0.001905053533928129,0.001563641331592752,0.0013001823783658447,0.0009944302807640374,0.00048145174378288634,-0.00034233603833428957,-0.0014369820293113744,-0.002607750374004587,-0.0035731478920322714,-0.004078471994591146,-0.003999238741160726,-0.0033866342462567554,-0.002437154760372915,-0.0014045858311490741,-0.0004979820937273303,0.00018692123573917004,0.0006748809216529735,0.0010610710430338484,0.0014356060104696873,0.0018241300797355938,0.002174147097732836,0.0023903818011566744,0.0023952572151632674,0.0021775868477717348,0.0018015899812807137,0.0013735739376862033,0.00098868817991204,0.0006892285793544123,0.00045491590913341044,0.0002243471886290714,-6.906730860003181e-05,-0.00046542354997008983,-0.0009615011549775174,-0.0015103873821882114,-0.0020344981408388025,-0.002447182075839494,-0.002676215400815312,-0.002681197371253364,-0.0024592201420035116,-0.002039476800274059,-0.001473266219103859,-0.0008259676205058832,-0.00017150761679675071,0.0004165583648672598,0.0008823645762197119,0.0012087100563050006,0.0014264608408053802,0.0015980394124199323,0.0017769180519612467,0.001965982212484332,0.0021052223932173835,0.002103730092369408,0.0019007132269215003,0.0015165358461477184,0.0010563494002367446,0.0006573210639980152,0.00040792417444159544,0.000289081133714335,0.0001771078323050551,-8.760116262698683e-05,-0.0006026289164121863,-0.0013324863594682242,-0.002106743435370608,-0.002690485992062905,-0.002889796099509227,-0.0026368986994230086,-0.0020130444073218376,-0.0012028218906113529,-0.0004099616844033217,0.0002194754028728109,0.0006327913400254847,0.0008598704062044363,0.0009741785784662168,0.0010498676683413353,0.0011311873325413895,0.001219822947576572,0.0012801605912713386,0.0012603396110752122,0.0011231611088831544,0.0008743194068062381,0.0005713186391940018,0.0003020172130491184,0.00013816136167501238,8.769728312920844e-05,7.629884813934973e-05,-2.441244713056537e-05,-0.0003311750743806583,-0.0008787803728285318,-0.0015830207711040537,-0.0022583356378848853,-0.002684472157948614,-0.0026935999199804096,-0.002240361956621008,-0.0014243236260509545,-0.0004537956944705798,0.00043512236129215117,0.001070197868172993,0.0014052312000249628,0.0015245206345035507,0.0015870931621605271,0.001736478550014992,0.0020196956208716355,0.0023570155922711263,0.0025805743406522403,0.002524388362544857,0.0021188172626817477,0.0014370285715894578,0.0006655367382324595,1.2964337039587178e-05,-0.0003937436093085973,-0.0005692806364429551,-0.0006544445028911379,-0.0008350859322096759,-0.0012401861065864672,-0.0018724651085492258,-0.0026043744663948884,-0.00323606245003857,-0.0035813710946524142,-0.003538622732570048,-0.003116355481626967,-0.00241011897318224,-0.001550785828730063,-0.0006556554086306012,0.00019426408440543293,0.0009486589531531098,0.0015715353685691069,0.0020349017157101283,0.0023283416961951426,0.0024710889598745386,0.0025080329592709633,0.002485365124646724,0.0024220852549581436,0.0023005203665194328,0.002084907717518269,0.0017541567029543132,0.0013234785412303926,0.0008393599284576402,0.00035419791847466817,-9.811772898284652e-05,-0.0005079904969285212,-0.0008769252443237676,-0.0012004313076546804,-0.0014631706620639566,-0.0016497240097317644,-0.001759510317512229,-0.0018103225523755841,-0.0018249061654330612,-0.0018102277532299786,-0.001746469215241046,-0.0015961743167130992,-0.0013289218593584276,-0.0009452879350495822,-0.00048404301925382117,-7.706716284488655e-06,0.00042437785084431545,0.0007787771492637964,0.0010535299631143245,0.0012655207420199245,0.001430269380310638,0.0015478764890012168,0.0016020822495828734,0.0015693994561699473,0.001430829505536604,0.0011817454853203764,0.0008396799049475128,0.0004486118005785078,7.39270287828903e-05,-0.00021748849007997286,-0.0003884524829961042,-0.00045795539474442,-0.000502273334916487,-0.0006208050946315716,-0.0008787265029069606,-0.0012574515829449251,-0.0016450090880458768,-0.0018784431769487964,-0.0018202329065215063,-0.0014287948193096767,-0.0007838575636763359,-5.2215412269868025e-05,0.0005864586397550585,0.0010126262775204489,0.0012025439180140796,0.0012159274311721439,0.0011516419601996992,0.0010987808371243492,0.0011044764771182961,0.0011659032534748598,0.0012424681800557325,0.0012788976736909173,0.0012290381925411718,0.0010715720651705168,0.0008124264539103048,0.0004743386870731201,7.994566797093214e-05,-0.00036160756104201917,-0.0008549049467181563,-0.001401247304160252,-0.0019709688228437237,-0.002483185432303654,-0.0028142132827722,-0.0028428076210820783,-0.002514634272102488,-0.0018874484503962087,-0.0011218281451162461,-0.00041344285738790414,9.787066458159181e-05,0.00038878253705032425,0.0005475181766444943,0.0007098844249172984,0.0009785056552076548,0.0013726427950196,0.0018304318328120049,0.0022505803315122728,0.0025411013321247314,0.002648160340243296,0.0025589645712747575,0.0022905403014129317,0.0018792211835433476,0.0013758064110463899,0.0008406386228520028,0.0003315316356157945,-0.00011452637207921119,-0.0004962324072767571,-0.0008484020688628775,-0.0012240553582867587,-0.0016642599199188806,-0.0021686566850121877,-0.0026805801545114467,-0.0030962124326484233,-0.0032981936834447726,-0.003202288002604278,-0.002796066184599447,-0.0021486006377926924,-0.0013835028978779662,-0.0006280435305407474,3.478589864910057e-05,0.0005865010635079336,0.0010577612502125058,0.0014901808311452071,0.0018997858001212602,0.002262777485754184,0.002528514144853309,0.0026480608122353335,0.0025996781645869,0.002397805288466929,0.0020841908669107156,0.001710515744569713,0.0013244547314098744,0.0009643919886131917,0.0006580386295394497,0.00041677477292909575,0.00022485497029622328,3.3502219985765856e-05,-0.00022795113369500483,-0.0006224920947772246,-0.0011706765933790235,-0.0018297725895566898,-0.00249892716261844,-0.0030489585424924247,-0.0033638548740093435,-0.0033766036181644195,-0.0030856030030963926,-0.0025475161359591616,-0.0018530814672651351,-0.0010983330314648613,-0.0003623392269585827,0.00030342765617886916,0.0008746488166462324,0.001346127818074706,0.0017210616350128148,0.0020033461438270376,0.0021969611709075137,0.0023108210890659844,0.002361621072169839,0.0023678934564944306,0.0023372028433451993,0.002257496810461162,0.0021030256973193725,0.0018533706123954074,0.0015108445361037366,0.0010996124433107124,0.000643331913999007,0.00013789946126524586,-0.00045437853255302606,-0.0011746731513646255,-0.0020153507294969723,-0.0028823752065913243,-0.003605811644534121,-0.004001607671223242,-0.003953172892869948,-0.00346726595067266,-0.002673222247655812,-0.0017662078001381152,-0.0009245757955697628,-0.0002431011050698633,0.0002868175502537297,0.0007448368389487928,0.0012188136979714094,0.0017466588011540707,0.002292454011655028,0.0027654356117171246,0.00306632688466723,0.0031321315354412038,0.002955649178640726,0.002575345509285303,0.002050144994817771,0.001438309618908902,0.0007886879412182978,0.00013875977920950952,-0.0004889377096119227,-0.0010907051152815733,-0.0016751815776921556,-0.002240282638114364,-0.0027445251479045014,-0.0030966925800265327,-0.003181413084761055,-0.0029141725429562126,-0.0022953539884677915,-0.0014282896928388999,-0.0004863129656329652,0.0003549158204534412,0.0009828797162042804,0.0013779444801461536,0.00159691278530073,0.0017260233812873551,0.0018322821600552136,0.0019369589529684471,0.002017883883026335,0.0020301977632080567,0.0019287612328671329,0.0016813992318977088,0.0012735434848756319,0.0007116360517768218,2.9805671427831672e-05,-0.0007046458140165706,-0.0013974676918414796,-0.001951631996213411,-0.0023019372070763955,-0.0024399107413948184,-0.0024102149986304456,-0.00227753185419848,-0.002084295418772949,-0.0018271169774237714,-0.0014672432811566418,-0.0009678755606595243,-0.0003344292107146144,0.00036759987867327685,0.0010291455522394894,0.0015406009391006634,0.001838452141651616,0.001930660883959606,0.0018877682941402117,0.0018052852995823266,0.0017579991501644613,0.0017699546008840394,0.001812986770963499,0.001828634305136522,0.0017556761712490573,0.0015471406762077571,0.0011733784162265008,0.0006199291038652282,-0.00010889987900893612,-0.0009774004312118549,-0.001903782425728005,-0.0027566509027963718,-0.0033743439512383695,-0.0036090857253595985,-0.0033828539120014526,-0.002729309849192673,-0.0017961907504494739,-0.0007994404892206143,5.395374721576347e-05,0.000639036786746343,0.0009473106507021835,0.0010674249167653637,0.001124080549293967,0.0012078293872325166,0.0013326247797778464,0.0014424873167722693,0.0014601358501678016,0.0013447997590390465,0.0011207993189914702,0.0008583404924701755,0.000620866199654074,0.0004168071708540485,0.0001915083055372659,-0.00013134342096582987,-0.0005832851152308489,-0.0011036452899584916,-0.0015468930468243581,-0.0017476840353426542,-0.0016084609401579373,-0.0011566865984938036,-0.0005355202684155031,6.675017859751263e-05,0.0005057100095997934,0.0007376938350834766,0.0008183799626223648,0.0008530579230246846,0.0009321643036227386,0.001086435671961785,0.0012791827591694068,0.0014313185475773038,0.0014598428081495684,0.0013089187921534909,0.0009625071550645145,0.00044038724078335927,-0.00021277267055630014,-0.0009357111375144024,-0.0016528222591465122,-0.002274947732235978,-0.0027075272726763983,-0.0028708856029056925,-0.002726574110849908,-0.0022948436978747068,-0.0016507554837939405,-0.0008996577764146212,-0.00014558110750138994,0.0005322042863009054,0.0010881767775139015,0.0015086213851353294,0.0018048867055613566,0.00200411841012761,0.0021362500869574084,0.00221800623519642,0.0022405488182755855,0.0021703885272516665,0.001967701044885888,0.0016140371161782665,0.0011318280428833207,0.0005803394603765207,2.7389432706077788e-05,-0.0004865101281353126,-0.0009675476457531907,-0.0014560601808725196,-0.00198640931163168,-0.0025426333252071944,-0.0030387713782657143,-0.003339968590376474,-0.003316567300901012,-0.00290369173723817,-0.002135765103773949,-0.0011397566028699293,-9.255465463829172e-05,0.000836374823852893,0.001533211133688956,0.0019634004601686936,0.0021669409420187963,0.0022306537398802833,0.002248046276881287,0.002280198030095744,0.0023314079387824365,0.0023495794477669443,0.0022528875941321344,0.00197313205682028,0.001496681565366158,0.0008815208006374118,0.00023756226371145564,-0.00032430633912819613,-0.0007497064194529378,-0.0010720519472561356,-0.0013953265748809088,-0.0018309918879822985,-0.0024182876863603343,-0.0030712746438575737,-0.0035884561600858177,-0.003731627654929485,-0.0033414026047858276,-0.0024296180985720678,-0.0011943414319415006,5.630024590966179e-05,0.001033132482239534,0.0015800017967793874,0.0017173484874140532,0.001602999778268293,0.0014417343982936707,0.0013935529320938068,0.0015190953952000743,0.0017742836583184405,0.002043987640198938,0.0021953211142239234,0.0021315904322212146,0.0018302293912611145,0.001350452146834352,0.0008042989273386847,0.00030135959491640494,-0.0001052206858462247,-0.0004401266922931026,-0.0007797984492213547,-0.001192136429212274,-0.0016772595061127226,-0.002146211500836467,-0.0024536419116793573,-0.002468680769228338,-0.0021446332748788657,-0.0015481319565250138,-0.000832514390112012,-0.0001722317215046735,0.0003059860505674587,0.0005631879377844028,0.0006466736394843528,0.0006543983189564216,0.0006845512640027513,0.0007913270929085242,0.0009631069507055525,0.0011310564006530867,0.0012054922273713722,0.001125119004929294,0.000894897592074954,0.0005896609399224393,0.00031666080095367233,0.00015435348450131003,0.00010185894438002755,7.117183770039839e-05,-6.800127255312649e-05,-0.0004109317438121616,-0.0009492767485241029,-0.0015520124262485904,-0.002012962381229644,-0.0021453547337139276,-0.0018741833242243418,-0.0012742421606404015,-0.0005311550182459472,0.00015197511230708143,0.0006481200038366988,0.0009489200422471062,0.0011389190983305455,0.0013244674373632554,0.001562218681925436,0.0018259137741780686,0.00202436086705188,0.002055268935447659,0.0018628118310030156,0.001467392317405715,0.0009528106175901827,0.000420828697868275,-5.826682451167713e-05,-0.00047045126605043145,-0.0008473451708541161,-0.0012313917206262337,-0.0016395516336888598,-0.0020452106144870632,-0.0023856412214796237,-0.002588478790571939,-0.0026018038258223395,-0.0024125174463009652,-0.002046052719720807,-0.00155136020152385,-0.0009817815035055575,-0.0003819276304573283,0.00021521133282324367,0.0007838180987733139,0.0013003804219160057,0.0017434834956965217,0.0020969672474805785,0.002350515961717357,0.002494774135379061,0.0025164331037896763,0.0024023261733659602,0.0021540709514406182,0.001802535159448415,0.001407316651119136,0.0010358816550558694,0.0007323371118299775,0.0004943811203988609,0.0002724351726602768,-8.523600654441224e-06,-0.0004161624241263751,-0.0009819798974343111,-0.0016857375692960475,-0.002454331846313,-0.003172415336093389,-0.003703265135548298,-0.003919811502101843,-0.003742220666335685,-0.0031705442261985984,-0.002295755531061309,-0.0012775414629049525,-0.00029282361346757025,0.0005237935996289515,0.001119495871463311,0.00152365949725138,0.0018111380433875233,0.0020511043798817296,0.002271396184245187,0.0024562538130296556,0.002571451807683392,0.0025928968795934123,0.0025170361477563617,0.0023510588832606023,0.0020994498351583875,0.0017640813893025076,0.0013583328965764926,0.0009184390163384057,0.0004941034401577596,0.00011744067481185322,-0.00022918598262488225,-0.0006180963653734713,-0.0011400164389106112,-0.001840663115897118,-0.0026665322483667873,-0.003456452275308666,-0.003992115201033809,-0.004087560800224673,-0.003673948812851024,-0.002835673022918223,-0.0017779021570464067,-0.0007414229334461822,9.189173115381206e-05,0.0006567465360700662,0.0010019096059124084,0.0012379607644883446,0.0014694375687628338,0.0017468197018633562,0.002055821884572771,0.00233833654205106,0.002525527653659596,0.0025647319903568623,0.002432752504225656,0.00213819999764585,0.001717724824170903,0.0012271003613963775,0.0007255998967031026,0.0002555499024904214,-0.00017450812459741645,-0.0005917246964797231,-0.0010394986740508987,-0.0015417541638580348,-0.0020686410435346437,-0.0025269486383362808,-0.002789391020931683,-0.0027536121660234154,-0.002398467601009139,-0.001801508758076734,-0.0011041839671569582,-0.0004447917313870895,0.00010088803630397132,0.0005381790154746914,0.0009248285303605738,0.001316296827862277,0.0017186278920401973,0.002074715088131541,0.0022892305832922203,0.0022772066438080454,0.002010937482429723,0.001541775032757385,0.0009848284696380733,0.00047130384246580145,8.937467350700291e-05,-0.00015755451161207057,-0.0003520640822457509,-0.0006185659498677381,-0.0010517581593885439,-0.0016520415596016792,-0.002302874991842085,-0.0028070183698164046,-0.0029689672233213873,-0.0026849482590087783,-0.0019950482721352715,-0.0010699749407085037,-0.00013872210873841923,0.0006059874363819431,0.0010778415234033848,0.0013117826356566754,0.0014229392880307896,0.0015356440450499135,0.0017186113436908454,0.001954422560254279,0.002153086646161926,0.0022004755163923927,0.002019409415190418,0.0016161299094830744,0.0010885329550268663,0.0005864266915135195,0.00023717211544540268,7.297083386447873e-05,2.949700481773133e-06,-0.00014614867553111412,-0.0005353172905972395,-0.0012140090510964134,-0.002073184126261846,-0.0028812541407675393,-0.003387572390121842,-0.003439246731952046,-0.003048172740955106,-0.0023724991413261736,-0.0016253309721901926,-0.0009647032572491073,-0.00042753147887027794,5.8643505376228124e-05,0.0006000691323472069,0.0012482260652028122,0.0019534900801113095,0.002586820262111723,0.0030115677065259585,0.0031571071779310424,0.0030477968973298118,0.002772735846717451,0.0024219374056683083,0.002035401056032442,0.0015989981969691232,0.0010845197484791813,0.0004977110264463573,-0.00010690387952379862,-0.0006580102114874015,-0.0011212409292284532,-0.0015303797638202788,-0.0019668934052945604,-0.0024963531170050673,-0.0031024995520092568,-0.0036637875657035096,-0.003991499638053068,-0.0039113517387924365,-0.0033459825343422935,-0.0023569777476257557,-0.0011279098143424046,0.00010112354707879053,0.0011169417190944886,0.0018003095278975468,0.0021526461405643334,0.0022761176445671213,0.00231782674897729,0.0024005089034288343,0.002566711269961908,0.002759569069108206,0.0028500694084997173,0.0027009768104193973,0.00223972630560248,0.00150610402308271,0.0006499114631265267,-0.00012405963682179033,-0.0006409280353608664,-0.0008312471808721569,-0.0007603445721892664,-0.0005965737987944507,-0.00053380349749376,-0.0007052745541246976,-0.0011281540287474863,-0.001701514703270019,-0.002254936097613634,-0.0026223846473858842,-0.002705960955680344,-0.0025012328933328104,-0.002077486057658238,-0.001530880723164207,-0.0009410989063114668,-0.0003545465463613968,0.0002043095186290051,0.0007114125084128771,0.0011334722707380044,0.0014394271503396449,0.001622705175688971,0.001712706524251378,0.001760408151290443,0.0018036336995295088,0.0018364270870369723,0.00180761080264887,0.0016534593160141258,0.001343434830308507,0.0009066463364454332,0.00041931241376648096,-3.91979503479963e-05,-0.00043199224257133945,-0.0007803733432401186,-0.0011374265124355152,-0.0015351133148011193,-0.0019391501151728384,-0.0022430567460101003,-0.0023096683381411366,-0.0020400084435460153,-0.0014334732103969058,-0.000607674306017468,0.00023408823008285254,0.0008762153579642465,0.0011756352587293144,0.0011217005364180595,0.0008419161355796559,0.0005460109732040886,0.00043068490357241977,0.0005899838944469151,0.000976048993075478,0.0014289331102172193,0.0017568968931034013,0.0018231055713808966,0.0015957018306319549,0.0011423483879715599,0.0005806177812469439,1.5223011144872107e-05,-0.0005050149736956591,-0.000990590696472819,-0.0014760822841558222,-0.0019679195376066418,-0.0024083437204097434,-0.0026824997237013277,-0.0026706498147362023,-0.002316973954506292,-0.0016719077246048074,-0.0008794569929259722,-0.00011580183722797007,0.000484091285608462,0.0008704506945590527,0.0010743255124654027,0.0011674272365175984,0.0012168975087571768,0.001260612902401859,0.001308537097868235,0.0013576180720508773,0.0014034211320216863,0.0014402800474441423,0.0014537658480546728,0.00141536172910761,0.0012866199032180324,0.001032734517344116,0.0006392790264410258,0.00012409062410274722,-0.00046120809615078943,-0.001040940175703004,-0.0015331994818676697,-0.0018706051031516617,-0.002018162667894282,-0.0019820410952290425,-0.0018041155912132257,-0.0015419502843564037,-0.001242117382610621,-0.0009213061009814387,-0.0005679891543421279,-0.00016546495287877256,0.000278770524070022,0.0007200252404976324,0.001093050345706034,0.001348814409479506,0.0014829737411153855,0.0015308217530979116,0.0015305942712553564,0.0014865047893431594,0.0013663308367273706,0.0011385755201103883,0.0008164441513764903,0.00046592119866510975,0.0001645418468905679,-5.8831320233618777e-05,-0.0002530508149966442,-0.0005138402073087564,-0.0009100502028309451,-0.0014181067008455874,-0.0019126149759035138,-0.002223492202457659,-0.002225327578748788,-0.0019040627828055905,-0.001362148122042106,-0.0007626052484929475,-0.000247591768174394,0.00012249331868262835,0.000379532056186014,0.0006075932575959034,0.0008781307470102593,0.0011975046969162743,0.0014959482045609966,0.00166398636291887,0.001615617978112416,0.0013424038530323015,0.0009280678120480733,0.0005154729985173903,0.00024297103929205315,0.0001811709027231055,0.0002988165777004393,0.0004722276917470288,0.0005351218728369206,0.00035059857027558644,-0.00012258616330078527,-0.0007987376786949703,-0.0014878497971261232,-0.001968724712877028,-0.0020826133926227326,-0.0018017183476230676,-0.0012358224727370562,-0.0005734884466041912,7.578082642512897e-06,0.00040975361238841873,0.0006302405614866816,0.0007249872672897833,0.0007554080094365449,0.0007540484142854811,0.0007238430080717476,0.0006599994305809486,0.0005718774795673736,0.00048825294367945847,0.0004439333703514789,0.00045731010536427167,0.0005120968422810364,0.0005539402869538223,0.0005065413714594471,0.0003034396467782672,-7.71482841901215e-05,-0.0005910967214339002,-0.0011329359684112401,-0.0015672904985227242,-0.001776408484090154,-0.001705187317270057,-0.0013837720721581505,-0.0009150461578789196,-0.00043010998725926286,-3.2426980577629624e-05,0.00024098436200067712,0.00042206888232522406,0.0005795312463117996,0.0007722336087321631,0.0010138283091334058,0.0012650239491364648,0.00145410755854346,0.0015134963597467355,0.0014146985876709287,0.0011855994965400641,0.0009007271723430171,0.0006460802617261675,0.0004730170149739472,0.00036498804020172813,0.00023909019250407254,-1.176913744828801e-05,-0.00045434343569667856,-0.0010634249313104876,-0.0017152339434408125,-0.0022339447929525837,-0.0024686527331967975,-0.0023598771554766656,-0.0019606768719854987,-0.0014036001843351197,-0.0008345137924487622,-0.0003501347933997236,3.0000997388610583e-05,0.0003485231189951306,0.0006671611393696414,0.0010222986678560812,0.0014013655116885699,0.0017477169704435067,0.001987019395333278,0.0020603409160802745,0.0019490553707879252,0.0016815504038087627,0.001318980946407762,0.0009257801626061477,0.0005385703020218185,0.00015044818800029645,-0.00027769437596132174,-0.0007808879180065518,-0.0013469870728137594,-0.0018937463047742744,-0.002286523315674943,-0.0023947989450249373,-0.0021592985163876493,-0.0016297112783678004,-0.0009475109535654518,-0.0002817518988061855,0.00024505324503314055,0.0005993210013980043,0.0008272528179273932,0.0010057205034068187,0.001185177672762625,0.001356664749072382,0.0014585363018887383,0.0014161036160774017,0.001189943721896306,0.0008045105230579863,0.00034050268456370966,-0.00010372017146295285,-0.0004574775677046017,-0.0007022420564417635,-0.0008625585894277703,-0.0009737694703001404,-0.0010515038253553456,-0.0010838232052907278,-0.001048197039802601,-0.0009368568168485467,-0.0007693330185015348,-0.0005824715361608594,-0.0004057945876571276,-0.00024013575285003426,-5.418417253545834e-05,0.00019830816133025342,0.0005495609309136214,0.0009917344829221367,0.001467114133505991,0.0018803490245211194,0.0021284670394619634,0.0021367007436006065,0.0018866616178291043,0.0014273661781359504,0.0008650486364226841,0.00033209914791920817,-5.958913839573914e-05,-0.0002676929400682263,-0.00034926231858764577,-0.0004486344500058458,-0.0007353650906542318,-0.0013120524616316174,-0.002137709042443066,-0.0030151528866402253,-0.0036614107241456657,-0.003831978679996059,-0.003433944287129188,-0.0025658759188589395,-0.0014643983503520256,-0.0003909305508295281,0.00047765092907030293,0.0011001098897091399,0.0015474945506480605,0.0019295882097618998,0.0023167191781185673,0.0026980826346183887,0.0029939488184734155,0.003108967650526164,0.002992269145154507,0.002668734262280933,0.002225431711928477,0.0017652084102104174,0.001357416731048177,0.0010127741393289409,0.0006898965299037977,0.0003212904820011837,-0.00015900659433831012,-0.0007946407368814891,-0.0015899026206813763,-0.002492540221282133,-0.003383176998649527,-0.0040875260357242935,-0.004422126737594303,-0.004263258145406255,-0.0036069481266965877,-0.0025843791177547317,-0.001417899564542614,-0.00033597688454729195,0.0005111234896533204,0.0010941013688798014,0.0014880053001356224,0.0018084921405246935,0.0021349755402685034,0.002460158389161313,0.002693403443010122,0.0027188222588474635,0.002477262421197641,0.0020220526897305165,0.0015082092364704634,0.001113638677467584,0.0009356355835137874,0.0009257032156994966,0.0009055255005359193,0.0006593279313107756,5.313776038739078e-05,-0.0008835935775361017,-0.001956900174443764,-0.0028869528181381288,-0.0034251694086268013,-0.0034520293333436714,-0.003011602524974696,-0.0022730809645690043,-0.0014454082814068794,-0.0006905880770427639,-7.626482914288146e-05,0.00041659156270133476,0.0008451716222933073,0.0012489072076557121,0.0016185020701248115,0.0019035411295283567,0.0020480811920574713,0.0020282029460151375,0.0018672415827511823,0.0016209759604815222,0.0013449587474375795,0.001066537531801505,0.0007791563071505125,0.00046044218635692396,9.924044848330996e-05,-0.00028889181791056826,-0.0006690166717911478,-0.001010302997172942,-0.0013055579122348477,-0.0015689545113845896,-0.0018117548533059741,-0.002015318230850591,-0.002125291776223495,-0.002075471228462478,-0.0018265523752254774,-0.0013931429024713275,-0.0008412430203176712,-0.00025959966503035084,0.0002752429557944424,0.0007194626388277446,0.0010596782893872892,0.0012952420067287992,0.0014220314694330452,0.0014325506503394822,0.001333732190409822,0.0011673071071952737,0.001011095667723282,0.0009508434221337498,0.0010348114290759474,0.0012398729967793422,0.0014740194368852244,0.0016170015386078815,0.0015751850883365488,0.001318159611054161,0.0008791052357273064,0.00032589045636912707,-0.00027384765024758475,-0.0008725181780436667,-0.0014413468798510029,-0.0019572475133979605,-0.0023919970277153525,-0.002712050403578596,-0.0028870314352624315,-0.002898374085710017,-0.002741160478686164,-0.0024197347485609222,-0.0019439104957341452,-0.0013313525787652814,