121.17781964124826,121.32533585308738,132.16058741813853,132.46683663307175,130.7112687093488,136.89007215341283,137.03807096799105,136.38933231005373,140.22869664634146,140.15373179842953,139.91846650218258,142.14976138171352,142.00770858524788,142.36064266180492,142.9929444612134,143.33931410402,143.25549928188073,142.89013056402152,143.40772987091646,143.41400189214758,143.2731365872115,143.52709210177076,143.24251463092315,143.24073444406665,143.46234523494,142.98099789283563,143.119686463672,143.34923757993113,143.40329295987888,143.24289444801877,143.60120377029943,143.33816425120773,143.4929290643738,143.54475838394507,142.97057830149734,143.31984476847143,143.53112142830182,143.38724382157926,143.4988296587134,143.35466013933345,143.54561602418744,143.060079555689,143.36505483737233,143.26615239887113,143.21791348217312,143.22720950340212,143.52145177128182,143.03602013221155,143.30994989262706,143.32689987937275,143.41845922019212,143.38388643485484,143.216947364455,143.75564650598756,143.1163491226749,143.17289578780802,143.35473751842474,143.13914125230897,143.57009239624355,143.2146032702886,142.938197586727,143.27218778348956,143.1185705120948,142.38919060638975,142.61292022738397,142.44072776584926,142.44263837152425,142.49433806102104,142.64841835388154,142.61268535637475,142.50379116526463,142.59265549516908,142.56238452547038,142.33645422071817,142.31197771587745,142.49320432212642,142.54259600556662,142.43509669651593,142.2753634075799,142.73076777823937,142.50418999661795,142.3489080178927,142.53502465464675,142.36206377858002,142.7719007017279,142.51651414152826,143.02832614779518,142.5587427065688,142.12527595884004,142.74785423881946,142.59219537894182,142.1201663669065,142.47176554681914,142.55876265382156,142.5952112464291,142.7204491503071,142.68345567476,142.8475802804161,142.91566310544,142.2873033707865,142.43381580920953,142.49142621290008,142.73272583499642,142.51957763415,142.6953019123626,142.84752482724767,142.66434146525395,142.24380723615073,142.21333383385263,142.11889763779527,142.4541179126378,142.34706677683468,142.20548613456415,142.04618383565753,142.1908763505402,142.15402204063273,142.3661553500263,142.20476369092273,142.51269799465743,142.43879508104246,142.21502026722715,142.26574714371617,142.34245084796638,141.95826477187734,142.4159119095043,142.28039414034694,142.16322329515683,141.9251642281278,142.6556653590827,142.32620300751879,142.20960420183832,142.26529923503824,142.41545348531017,142.35105903560162,142.51020792526745,142.34182023317035,142.04275872397784,141.90172349194455,142.46537823990354,142.0207997601469,142.32715863831066,142.47822975517892,142.19289683135605,142.1751605513201,141.91511270875458,142.5515811691983,142.16888522254303,142.22000376010527,142.20344840539423,142.30958831940995,142.3062930742289,142.27294595204089,142.4996425749652,142.168261473226,142.06532757649708,141.99523523673744,141.90539272713627,142.20488558826855,141.6429239809859,142.07466726821565,141.8350732256853,141.94357625845228,142.22754491017963,141.93027018890646,141.9506888504103,141.84334046787578,141.9873417721519,142.17150932730357,142.2413064795957,142.17697581556544,142.06408088097118,142.49346034626143,141.97570500544478,142.40899656590815,142.4421520274086,142.50107340589807,142.03211301382694,142.71196186729213,142.26706812194203,142.1054568670898,142.01368781258225,142.37311406155703,142.45867331520097,142.5411951109099,142.31016304552472,142.0999023510854,142.40307448852718,142.36144986449864,142.01950507281643,142.73623395686704,142.5343045464759,142.73573392594824,142.80076166057086,142.48148565843388,142.46959852781012,142.35244241014482,142.3585875642613,142.86875047130684,142.44845593207603,142.1669539153241,142.1682927741019,142.35948569929153,142.38378723085003,141.84663425579657,142.43886651864673,142.35314225611359,142.34244928625094,142.0370634087843,142.2690618312873,142.24424360609015,142.15162874386175,142.6960458798672,142.36378662659655,142.80990173847317,141.92005824807705,142.53662851980124,142.31456580528845,142.49458524479206,142.248575284943,142.64581219704655,142.6593472702662,142.50914210625118,142.68515037593986,142.76183465458664,142.3357448084564,142.7495671158624,142.32227932625577,142.70466965665398,142.64609595484478,142.2888980602559,142.51773902585688,142.59925333735575,142.79667045024593,142.30195208184452,142.4508372530574,142.57346954161642,142.35471258317983,142.3271648962126,142.68896094103454,142.58319505204406,142.68412919760297,142.2468318730493,142.35029759662473,142.40661867249634,142.49343170098243,142.37737267430933,142.24201598679025,142.60954283345268,142.54690911828928,142.12383483697076,142.78249886894886,142.80947546531303,142.83848965595206,142.57479099194094,142.48096924932167,142.57190774101153,142.31926736620406,142.44724148326802,142.1800270717401,142.43472855366764,142.38917942736748,142.41351716883312,142.2704657000487,142.63798689068034,142.77806699864192,142.87768126888218,142.58189411897504,142.72249905624764,142.45827392120074,142.84287756791332,142.67181220657278,142.35875145201783,142.5673724192396,142.52310237226965,142.6880540153144,142.67167608286252,142.5645397528824,142.4326605642257,142.2293115048217,142.62098501070665,142.58808951637127,142.58349904325968,142.56438243126664,142.7775893260968,142.57061469265366,142.33026630760023,142.44005546602705,142.4614202735619,142.79787794416436,142.85392666214892,143.18244289220314,142.60085450865753,142.6839990989638,142.6604135338346,142.7081420723907,142.4400793948019,142.6212360141173,142.31308778897673,142.6429188742344,142.50332169800697,142.48300979987235,142.56493019066207,142.64139097744362,142.56805555555556,142.44520829441436,142.86054791440242,143.02044728434504,142.66585411588224,142.91442542787286,142.66490319675822,142.9007963338592,142.53091972116033,142.76434795673077,142.9557505460571,142.68496133343345,142.93691659138813,142.30739619538812,142.78316019271304,142.49919236692836,142.52400631151852,142.45505407029137,142.60259252301333,142.35066396578887,142.10871844805632,142.38182571364013,142.00172297550378,142.1866856906845,142.44577133170088,142.3173051618482,142.49169147292665,142.6154164939909,142.3643623003674,142.67483875834498,142.88400815833208,142.6989077212806,142.65223447912354,142.7275363410409,142.58879277924032,142.56683345246606,142.72315404621008,142.36226938653067,142.73432374344858,142.67390241149693,142.59433500320162,142.87069813176007,142.3829611248966,142.74527591658511,142.5335060254533,142.66325917017437,142.75255908475086,142.6911233248005,142.60551044955645,142.66625263474856,142.70421107941752,142.6341655420603,143.0410045937194,142.7428978337456,143.1741606940777,142.88546205860254,143.12553215537054,143.11975709112855,143.18648679288063,142.8449248120301,143.04923042100498,143.14304600740348,143.20218393410414,142.93943619507047,142.7051142546246,142.8041674488455,142.88751647524006,142.98991836888237,143.36332414990378,143.06602212023174,142.7098140650772,142.8184822199692,142.61357839459865,143.08939325504366,143.20513400429718,142.92994277970186,142.42726830909567,143.36476183286783,143.0695632513095,143.02196975396885,142.93288691595816,142.92122604209814,143.1496113500868,142.80563189398788,142.76212462462462,143.04485388507135,142.3924330398951,142.51105438985024,142.2605647005887,142.58301347181455,142.61312055402914,142.72116760828627,142.66360557019195,142.62944563621994,142.5499774368231,142.52059586954067,142.51312478876412,142.65379694438172,142.42128952402385,142.5839539607312,142.33456006609336,142.78530199569926,142.44939772599346,142.51468599759616,142.69045286715394,142.82786144578313,142.79016863470028,142.4942554629421,142.7853941471131,142.59912690049677,142.65246678959846,142.43156036360904,142.81646357565927,142.15427606901724,142.57553631915695,142.40569755658146,142.43178230474328,142.47905494093382,142.37595255077142,142.74726019658794,142.9650428933147,142.60844985489769,142.60073839662448,142.69471698113207,142.5813751744427,142.14119545232825,142.25238524528586,142.75747721858812,142.453685915546,142.57764958715077,142.37231162580838,142.59692876546936,142.2448043894923,142.54454734454734,142.8141224551578,142.48559701773544,142.67258739676433,142.65767024007246,142.61800808248668,142.17617437053738,142.57390713989363,142.48772220548358,142.2479447426705,142.68135145337862,142.16520726070127,142.53277545327754,142.3325815666817,142.59518599562364,142.47175215769042,141.95785842831432,142.01900228627113,142.4401870568713,142.298400752587,142.2649753081766,142.20504138449962,142.29367623213545,142.10923140402866,142.06222322299783,142.21597744360903,142.3338228648893,142.53131839106481,142.37619245126504,142.0447895566059,142.3485424111341,142.0770095559303,142.33447355561404,142.37525858502275,142.23791429968776,142.50911350455675,142.4238251119389,142.58926078261197,142.37048995682372,142.2526086630133,142.18188648059802,142.6039208294062,142.26010432694113,142.32900823648876,141.6529796375864,142.16474476956014,142.4964953271028,142.0035576526982,142.12847861193526,142.77979950822774,142.38710284595695,142.47041531619809,141.9037519171062,142.53472510080266,142.21015742128935,142.34658515545888,142.27408993576017,142.76360203888993,142.46538867128652,142.46304364155336,142.69365533870845,142.56809719035618,142.36088361259297,142.4745133340835,142.59177989386126,142.44661144578313,142.42160514730782,142.44240444544567,142.86352132361273,142.53232311809717,142.2283227192222,142.18007995172727,142.36277173913044,142.2341612331813,142.1905480330404,142.1658567823106,141.98578626757916,142.13139841688655,142.10265500075425,141.85624671324467,142.22705988973644,142.03492218630177,142.16661017587467,142.30665359082678,142.31518375971623,142.01091251175916,142.48224482849903,142.48937618147448,142.378863447442,142.44266575840146,142.4174228675136,142.11975369272034,142.5622180949854,141.9705272679305,142.42584039975773,141.98821144315963,142.20034685567788,142.2418539749585,141.86036443038927,142.0246457642448,142.07701287941552,142.04796298386188,142.1648517276461,142.2323023019252,142.23442326527538,142.1509817197021,142.17294365772824,142.54873209629267,142.4358219100487,141.83541259582142,142.0288551973214,142.0519182259704,142.4107527694809,142.21714199486948,141.8963963963964,142.16840834496548,141.80440244496944,141.99251992181627,142.19095780813646,141.66142557651992,141.99812164243585,142.13240339302544,142.1540548688574,142.2916446524266,141.91661667666466,142.4173955662796,142.11988567990372,142.4541407281645,142.14391546329722,142.62088617149757,142.07628486691445,142.02505634861006,142.02606083364626,142.16884191522172,142.06013229104028,141.78391338553178,142.01598946576374,142.1862061163694,141.93225879170424,141.9303181698659,141.76500150015002,142.05540280968702,142.28154571159283,141.9246912189811,142.64463184963884,142.29788838612367,142.1553105835434,142.0856133493686,142.07837461940383,142.0230109790946,142.29589030775605,142.1000677404787,142.1423956729144,142.26533609489738,142.42628955516955,142.03851941017155,141.6992889221557,142.28602620087335,142.4696074372389,142.36239669421488,142.25874547647769,142.5856176036901,141.91101424223066,141.63119582754868,142.02886574598145,141.80719175505905,141.96612087829172,141.4995483628152,141.803864588444,141.95432220039294,141.98434841782918,141.7925672113864,142.12400816141465,142.32093058502576,141.88468645122364,142.005584062783,142.0058892370418,142.2106955107598,141.94169558002716,141.98154229419092,142.14953624834374,142.25018919327985,142.1365916204699,142.22165609903382,142.26650542307547,142.0072832937092,142.41867446986396,142.15978544177085,141.92395078502415,141.56423656803398,141.5169192677071,141.99525280687212,142.11620795107032,142.18797446840654,141.99777190332327,141.75819425650278,142.21084086696675,141.97586453972923,141.9533997434156,141.77798675895275,141.86636326023998,142.0643810816927,142.04218867924527,141.8734658534749,142.08374087728538,142.09692992381383,142.00478054656327,141.90736002408187,141.95997439566233,141.920349318678,141.65252775277528,141.77457341083817,141.7436377245509,142.0429727187206,141.7380693533271,141.66844038072398,141.92561859347427,141.6493817013487,141.5884843035888,141.79196820278224,141.57988342549694,141.93396722790138,142.2011139545386,141.833152194281,141.9985343304897,142.0886623532952,142.15695707735097,142.1386368748594,142.08400029919963,142.49176505978792,142.61183690373105,142.50041449996232,142.22260660299315,142.22499435538495,142.20564046715987,142.31714221014494,142.15471215030686,141.88349806456463,142.06263612467143,141.9373641202489,141.8896269608947,142.0537840375587,142.32647979778926,142.26993149137996,142.15299209634927,142.30775310500565,141.941467993242,142.62282559370746,142.5231134385714,142.45977617845435,142.2337672108946,142.42034064360539,142.1422660246765,142.42470619355328,142.00157687253613,142.38465887674332,142.278560368594,142.11861087046594,141.9558734939759,142.1942954287873,141.75744232433857,141.80723434624198,141.80946098756124,141.613777526821,141.69236856981345,141.71486700324016,142.03967235391818,141.75275697241145,142.0636394519307,141.83753438076937,141.64156615188065,142.18409994321408,141.78854841138383,142.01751141638675,141.76638541509718,142.0958940397351,142.11670947273,142.00230093168872,142.00128379398882,141.9709898898446,141.6258644016837,141.91303364006637,141.92491609156392,141.72498400632222,141.92724802837628,141.7972077970949,142.14956199969794,142.0168645541859,141.59985715896704,141.6981778480536,142.03816361231816,141.9801778715707,141.9632460930145,141.54150745485876,142.28005754088431,142.27905132369048,142.10150715900528,141.76901440144013,141.99551704652478,141.68183353981306,141.93811992786294,141.6734005472059,141.72616899714328,141.98398884870403,142.06039888192188,141.70679684566278,141.93668500791438,142.2824591898428,142.12845074671895,142.0220771378972,141.94207535097294,141.75447887323944,142.3146773704938,141.98799217044342,142.16224166540957,141.94268402830048,141.61605271039232,142.02620268436132,142.29517048672733,142.52882869249396,142.0346359460884,142.11553814867816,141.95015400796333,142.01935144478261,142.07517238780662,141.79839315212493,141.95446505851805,141.95729068673566,141.81379543406428,142.02915177731805,141.7167829544602,142.2011236378719,142.1149542217701,142.23388526383283,142.50727101038717,141.8256310388735,142.19962398947172,142.52889409276327,141.93360123183234,142.33080608049488,141.9745889948202,142.32514227565673,141.9666504107739,142.3039684032349,142.30855186425373,142.3450847457627,142.21959459459458,142.2626293022381,142.18842160698165,142.4634008158332,142.2437913907285,141.9539448990316,142.22971699890718,142.32441623214692,141.92554311057657,142.20924097384489,141.89841079009656,142.1993295416023,141.815038213697,142.18970637993908,142.4894653375623,142.06691002145035,142.48529912589396,142.33019723418727,142.06801387422712,142.19021328089548,141.84777376654634,142.3666174410239,141.9588906891744,142.06718726422213,142.39009556907038,142.11160899197952,142.31095139020238,142.34500623983664,142.2635061056293,142.2031917709791,142.06139854334126,142.16963948303228,141.66852158219282,141.94380539317368,142.11443874471937,142.53781862188941,141.9374484362109,142.41009582735984,142.48968019959173,142.38247387679655,142.37305719028217,142.52073175341118,142.70055747279002,142.36443302863188,142.36368788966558,142.36163711806864,142.262671594509,142.41959257719492,142.44727506038646,142.56458443620963,142.22894598452407,142.54730597748053,141.8590538458648,142.28271618918205,142.162046105168,141.97506403495555,142.1337625178827,142.2041262776751,142.26669184290031,142.13859741828338,142.52576382841784,142.30525441015374,142.12092181194132,142.15747260609257,142.2915644461219,142.11189417351324,142.22208820203542,142.53200090675531,142.3330569479516,142.1223592211112,142.46774680867134,142.12382315282068,142.3905283018868,142.21114082332116,142.21650145113264,142.02304737516005,142.15491364356285,141.69237691701977,142.17540748566253,142.47747815891987,141.83752912001202,141.99483408748114,142.15511127876272,142.24784035610548,142.04348153446523,142.24887782429934,142.21260554885404,142.4206229210765,142.06072006320304,141.97435029523487,142.03910950661853,142.34278058721412,142.16556566381036,142.17055344158535,142.37241509433963,142.02047421904405,142.3316230287482,142.25289393310962,142.50908335536502,142.24593373493977,142.60727204220046,142.3824073026291,142.109122423603,141.70814062793758,141.88403665573028,141.55746005550972,141.67439671723827,141.8495568546106,142.08339006126616,141.96000907166615,142.0134690325754,141.73777409388893,141.684611612027,141.75436277102062,141.84722851533002,141.87250198330247,141.92935172935174,141.69237160120846,141.70476046888547,142.0135222150676,141.74269535673838,141.9550697779963,142.053647094431,141.7792673716012,141.6988878416588,141.91909458489212,141.53345123419626,141.72166855417137,141.36952674974586,141.50422737223522,141.72272916587787,141.76726516726518,141.4793048854041,141.3990373768519,141.4633072407045,141.7299228675136,141.76847272040777,141.49570718481698,141.49725481347772,141.5163243812533,141.86718012609958,141.71873587464216,141.55866636562052,141.62823547090423,141.7173176789343,141.4981760746117,141.7733101991551,141.5567437307026,141.48514627809783,141.7321779187434,141.43807874727094,141.71406438935912,141.37697576396207,141.35609113161362,141.46495327102804,141.38044501336546,141.90716963981365,141.4667292879955,141.8963919855378,141.81072353846733,142.02721576324927,142.11125372796255,141.46515111793565,141.78733833565855,141.5712031261742,141.97050614769554,142.16915102905568,142.22242438025927,141.8440487841602,141.76825504366155,141.88531763995775,141.46311244602967,141.65263911389067,141.36890358457956,141.45661739817217,141.4601483377885,141.39894498869631,141.59300921032764,141.3938823883517,141.66521788427377,141.36426233209167,141.3755466747097,141.27531978931526,141.38573902567578,141.53754851350843,141.3965264463742,141.53843547658485,141.53938459223593,141.47843284987758,141.47843447470524,141.61710947804787,141.33120372806192,141.74963170022286,141.67298274692985,141.95750311921054,141.7718325791855,141.77320093634373,141.7301581311092,141.7857601753524,141.38431784896167,141.6924611389213,141.69590334151405,141.51457078313254,141.49689604575042,141.66075596717116,141.30216827627672,141.05947592014738,141.45329722002785,141.75197370906207,141.33017698117462,141.49992475545523,141.41804387019232,141.63570917040443,141.74199871828702,141.95842459028773,141.5445912469034,141.8253639817915,141.83635611077665,141.30490588631517,141.3876761224873,141.4349002367264,141.3717303066747,141.5113983194544,141.50122396716003,141.51961596385541,141.9048050428415,141.78777819690683,141.58892863867445,141.35880273745957,141.71790521434227,141.7788131436979,141.7263788426763,141.5298411981636,141.72776837751456,141.64232863849764,141.2278774289985,141.63585833927968,141.4766018177721,141.55572702977378,141.9051789219387,141.4985326209647,141.53786882165008,141.89598671046173,141.3497880640684,141.6453713812446,141.9027913994719,141.6295141107061,141.22992591483947,141.70353082887902,141.68339289072784,141.4833264563562,141.9085916340656,141.72178054451362,141.27689778840406,141.8351263918146,141.93973407661306,142.06533459000943,142.2531683765842,141.74622322435175,141.74435638357812,141.6737106823812,141.78543210805523,141.90368112014454,141.700893192224,141.8342105263158,141.84088090495698,141.4114918449798,142.08478971699176,141.97692596768132,141.7403370786517,141.89982735325026,141.68616541353384,141.8105524612374,141.65604952166572,142.15604710856107,141.85346676197284,141.84171147121856,141.976395173454,142.04368822153475,141.87470831765148,141.889709762533,141.94201317027282,141.85583515407217,141.65272877411607,142.1163176759102,141.96465672990064,141.8862746574311,142.01737160120845,141.71412961567447,141.21045536249252,141.68207003128416,142.27066929133858,141.81528950542824,141.67457984776547,141.62778633988648,141.70481746330447,141.72485496873352,141.88178973953032,141.68630849220105,141.82238626092197,141.7928633266835,141.93435754189943,141.7302572202166,142.20169497938028,142.16268014789105,142.40516065474387,142.3493220531027,142.20743558836824,142.33120060218292,142.33883487828774,142.1858387145217,142.69033038481894,142.3366295527458,142.41098420596327,142.60239146014862,142.4989428377256,142.37968478998567,142.38269651066395,142.5536454799065,142.97923993193422,142.60045223289995,142.462721447418,142.51005442999698,142.28371760096442,142.39645951035783,142.60556958209293,142.32830486795575,142.5367666478023,142.4973952434881,142.3469280060309,142.35001129433024,142.31049694593167,142.14045197740114,142.22869836966754,142.0234515935057,142.16604540833615,142.38144563738092,141.75945042982093,142.19219015280134,142.2383729680915,142.23606347291846,141.9978966346154,142.12969938973856,142.40371545083823,142.57414750198257,141.9331057252195,142.12209236781783,142.41957620088982,142.27719271851964,142.23740412092044,142.25897329667433,142.76950233458604,142.06644368446766,141.93344594594595,141.96812659367032,142.11959019172096,142.00696064414177,142.533663853461,141.87853627380997,142.00206883580967,142.12521673577083,142.24359892906972,142.30471164719185,142.0200819826257,142.02361288385015,142.4606037735849,142.11783511358507,142.40435798838874,141.9290567170902,142.1891342023962,142.2308212741966,142.93253231247394,142.25205788385642,142.01447102046936,142.33040891633405,142.47215423428852,142.4495374740419,142.0881523006885,142.03360744996434,142.5103492640103,142.21345514950167,142.05901404737693,141.59148330022117,141.8805014871428,142.22559202326548,141.9787161907632,141.86059213500076,142.00701278135958,142.41714978591187,141.93033343391673,141.65059561835332,141.9821590223295,141.77830880969404,142.1491025883242,142.19950077531107,142.54010654490108,142.1472283980857,142.0234210526316,142.4020657561197,142.1834505178801,142.1425714932468,141.90578891900032,142.17512824381413,141.6227783414121,141.85228945679665,142.00853119927524,141.8959751853533,141.91378268097324,141.81131221719457,141.69535849056604,141.88939290844485,141.97527036224758,141.75258857637712,141.76378783880574,141.96576222507747,142.15835854765507,141.96673831881435,142.39320093989238,141.70365353501148,141.95380670462688,141.86123140651478,141.91030138433104,142.23531642209835,141.97605628475242,142.17004094631483,141.82927289183888,141.9865462378595,141.67372945257125,141.84246265278406,141.8188088955899,141.8199690577714,141.55464871370543,141.839563921687,141.93372857034967,141.68013835106584,141.96025665219852,141.9257388419783,141.8839201479301,141.726020696143,141.82803506263872,142.03075415520294,142.1192965241348,141.81669800676946,142.14239763868918,142.06273132411815,141.70413800879467,142.1362038332136,142.01273909427687,141.90620637615544,141.91014799154334,141.91030815071852,141.87929538682056,141.71011269835287,141.71617447642006,141.66520952668074,141.878530753856,141.9786880917355,141.99502375028274,141.82809618785987,141.7471779048766,142.024192938686,141.75815145689623,141.7304344549531,142.105356737535,141.8786768870596,141.8045756068144,142.05593348450492,141.90835192256796,141.8529745256633,141.96164166131288,141.75898480220235,141.9016381038853,141.63969171483623,142.06507575757576,141.6315155167219,141.59086279096087,141.88288220172387,141.74844568371077,142.1471920289855,142.3154651646316,142.17011146797657,142.19213313161876,141.76190117221364,141.98146330413772,142.06887822571505,141.96662256662256,141.71397322270414,141.8891112285736,141.89600090631018,142.15111954459204,141.92074715468672,141.87898161458727,141.84075374797024,142.27670766319773,141.8952725627686,141.79862605216474,141.85798525798526,142.1799363057325,141.94886213533607,142.14856538010812,142.10450920361342,142.26101284042272,141.7229844014283,142.17670181804436,142.27580077903414,141.714597031749,141.62048464780253,141.6114604118821,141.9598700120919,141.84570091341436,141.32624539785107,141.6584365237683,141.84798493408664,141.64995490078172,142.01107624844062,141.51744623251616,141.4321270365643,141.80774867535982,141.9537051011168,142.12713049393446,142.01453104359314,141.71493535778714,142.02008365047666,141.77565210854695,142.090823334088,142.13701114679765,142.17938859361453,142.3168604651163,142.38458632414054,142.01451018720397,142.08520010541773,142.04732479276564,141.75084541970392,141.9545814330406,142.01709627505,142.3105470227737,142.0898952603421,142.28482375609204,142.00733579113685,141.7318783515206,142.2362353296351,141.7920134983127,142.1505015461196,141.98085818510023,142.42892824704813,141.95565910115738,142.2690552517443,142.17617753623188,142.25241728357759,142.14538673096484,142.13611121604774,142.25044371436124,142.0484501956064,142.21465436051986,142.09494075606545,142.2987223457581,142.13733468972532,142.51013142445933,142.28837595232707,142.70983550507162,142.02085375971038,142.20114052645494,142.3120166793025,142.07070135746605,141.93003014318012,142.33179357086064,142.289435928415,142.59054371729735,142.27369256348246,141.9743840879982,142.03885873661994,142.18196250377986,142.3642562218266,142.34983548277296,142.25270744500207,142.6316029143898,142.075478090649,142.3579644343549,142.45235122763214,142.41511508854424,142.61883782757312,142.4115711854793,142.4343499318904,142.10164503471174,141.94411598569008,142.16867288026867,141.79700380170888,142.2320172452916,141.95686186016775,142.6534015539132,141.92318954837256,142.40596564092883,142.54170759350208,142.60139198850098,142.85445101607522,142.39247291532973,142.53087025435883,142.44763092269326,142.0198142647667,142.4549064095292,142.3477702191988,142.30356535218723,142.00902968508973,142.59843442746936,142.73905794080866,142.36692330917873,142.13701315839083,141.92449639206254,141.95749718151072,142.1570275976474,142.27922322775265,142.34478587897343,142.42602252967416,142.18571105754745,142.3176861250519,142.30991127053048,142.40493901748292,142.19442351168047,142.3032851808547,142.22710664105173,142.16271007611726,141.6378530016832,142.3667962410839,142.01994516019982,142.26811320754717,141.9750517403575,142.0287198404035,141.79153851924087,142.04219948849104,142.22908569487944,142.22712874274077,142.2047223271628,142.18332013126627,142.15406976744185,142.28005743217713,142.14339025217686,142.18208605643912,142.2069330510717,142.07242717714888,142.36445874337622,142.13344166887117,142.5731087335913,142.10761451965888,142.36073889015066,142.3831362623248,142.51679019815458,142.3554203205322,142.35637271592327,142.03656003323638,141.85414702221553,142.2006891589988,141.95127198611007,142.46461923923772,142.34020931290763,142.00491883915396,141.67443260943205,141.90587658788496,141.92965298493374,141.81033702782176,142.0023061509962,141.65910461260174,142.11628259551244,142.13225391541198,142.06630878572508,142.3031071415055,142.07855007756632,141.9762156448203,142.21157707315226,141.87565647787812,141.8671497584541,142.00604709172683,141.8353713768116,141.83377874807093,141.88126768534238,142.12758137243756,141.78366762177652,142.06105398457584,142.12785336356765,141.77545868967337,141.9596371882086,142.5141640366554,141.8584511023177,141.85355018447407,142.00445417484525,141.88561734213008,142.03245428441892,142.30216263303413,142.07245829873952,141.82130222054948,142.06942867953083,142.0842085379675,142.1263019364542,142.30881024096385,142.43590902244313,142.23152746425885,142.2901183387352,142.67773533527478,142.60296776137392,143.24505913917545,143.60434848599834,144.09194007206523,144.12929437998412,144.53591535990932,145.24382458007145,145.52388031255956,145.15345278230237,145.1961141469338,144.8928774066649,144.72749593925886,144.64398853522403,144.64300041630398,145.15931456362324,144.94640488193156,145.16284455919205,144.7758640226629,144.92295710975193,144.89510224211844,144.97021114704205,144.486301369863,144.570886891897,144.13036896877958,144.17265177657276,143.7672606211932,143.7814303067112,143.339939599849,143.21558373151737,143.29549481621112,143.22657426935825,143.27607570548903,143.2437320646428,142.92076708612765,142.8693243905196,142.67649165127585,142.93849116447666,142.03504637941353,142.80077741716357,142.70473642563775,142.26092670471613,142.5374727505074,142.97761872301749,142.89621323668214,142.69735501641324,142.87800181241505,142.8392115399139,142.52396899458157,142.94095245277327,142.58676476108255,142.52874341610234,142.95602149723715,142.65609626882616,142.12195489288,142.2144499302755,142.6484090909091,142.58350039717064,142.78256748559295,142.4071547044632,142.57744082280874,142.56459728369842,142.71990162693908,142.50096208262593,142.49183911945417,142.40384978297791,142.4386409161344,142.40085135236947,142.52295620024898,142.64885380867858,142.79591295116774,142.5849903784477,142.50171795355863,142.62214158823753,142.30671047165893,142.25540617307328,141.95316336166195,142.0759786274584,142.17829809805258,142.32293480729916,142.52784393784734,142.8658153018303,142.36831989146,142.65419959913777,142.74491493383744,142.60945113889625,142.31862042970224,142.43896456737482,142.26793233082708,142.77038382920736,142.24013825231046,142.82366282366283,142.74072813882273,142.92528713847088,142.8677526646005,142.9420827497445,142.7457953815337,142.5154964499042,143.29103855768503,142.81071938660452,142.75852978835582,142.62171238821176,143.0168745970953,142.5211612320205,142.74603294259546,142.7353672316384,142.8458171389759,142.85361338823617,142.62307721238105,142.7071839837429,142.90788976972442,142.70100030084237,142.6730957214828,142.78317615993964,142.66390572644102,142.76084664055438,142.54534835525075,142.72233332075615,142.6087546146312,142.48663684546855,142.36506923856345,142.5753455528846,142.63052314640572,142.63313520427357,142.57578034030726,142.88118100710722,142.91191474889467,143.15588290840415,143.0160901349009,142.52193113772455,142.7104956596896,142.82864651773983,142.5551471966998,142.65640948664065,142.78501689823509,142.94937712344282,142.5521809491551,143.07237763561344,142.1914662470967,142.63844557630637,142.4057263094612,142.77701504922115,142.56977225672878,142.88451364220393,142.69617008443907,142.31936720276568,142.40876434079368,142.81792388590452,142.48655468514613,142.64808322967318,142.79552824070583,143.1196215704825,143.11134239109867,142.7630725118841,143.31555774851026,143.11427164608742,143.22884987296652,142.9203355882242,142.86599184166792,142.93006121060984,143.05690933858028,142.88200992086033,142.64485734745412,142.9962579377079,142.88223085921285,142.71138669673056,143.25082184016625,143.45086399213523,143.16313287557534,143.40503068414273,143.3611982019416,143.0806554906762,143.40620283730757,143.16720595981639,143.31414877155905,143.56599358369505,143.13446834155712,143.57659397243677,143.12492463069037,143.18964540614024,143.1904582169548,143.35083342782627,143.24353367016062,143.3071476990284,143.204945799458,143.2653176576984,143.2276548422362,143.43271119842828,143.37476885920222,143.5206761243586,143.50621481733347,143.21789310904086,143.36135404101327,143.50419818456882,143.65775138079746,143.06773685394944,143.19292773665026,143.75692365978404,143.43126979339465,143.39262693656,143.52946958527087,143.05949338544798,143.08362159723268,143.66041879662237,143.22891202655802,143.12748269635873,143.23957706201082,142.4814717477004,142.71864534336783,142.84199036434808,142.80991174473863,142.9752486437613,143.12617545979833,143.07180841033377,142.99441846432342,142.72921909627013,142.84091336568483,142.93178142980707,143.11384290508693,142.69330785371702,143.11302414949327,143.1987781423238,142.9547831320769,143.02326369282892,142.858384765919,142.86020046725451,143.1005747126437,142.5938312055135,142.73235083487242,143.01803539019963,142.77983174255857,142.57177303895713,142.76317874797178,142.83282341831918,142.8110741803898,142.5701628713618,143.07164224317467,142.64537030061027,142.87027536778575,142.67541243535052,142.91256148316307,142.9924971580144,142.8370625141734,143.20652503793627,142.86313282165676,142.8471417206501,143.02087048912838,143.1238763512232,142.62112808903981,142.43193302662343,142.95196936957427,142.92058500359943,142.72215070049225,142.75957977477137,142.53785792432188,142.99306450390358,142.44661109644326,142.68281738999283,142.91575008504367,143.09578297275792,143.07067794681134,143.0864815657715,143.2061742006615,142.6351683228171,142.8085984848485,142.827036421339,142.7342207767651,142.60173176541764,142.8071301112419,142.79495842982422,142.80427949252035,143.2854542006448,143.07698136081225,142.7607125297833,142.63460014341246,142.6531575766732,142.76287334593573,143.0710654120504,142.580760676995,143.04103147516116,142.8299837250672,142.60378070407123,142.54621152179647,142.60533262935587,143.1221075790911,142.51259839554066,142.6990291262136,142.41523988711194,142.53307172772892,142.61608256776682,142.5278921327945,142.81962874749536,142.4514223359422,142.70323068203288,142.46005052599827,142.52206353393376,142.61117820212846,142.72219911521157,142.3647992776252,143.02391691619604,142.97096126907203,143.01256433545262,143.08964656020586,142.72964254904167,143.2734616836542,143.00557816975729,143.01153976694195,143.09037647414576,142.6548053413579,142.80595045062032,142.7293216051946,142.42223395827833,142.6068472962249,142.39752956240113,142.47171161669428,142.75499924253901,142.64516494728488,142.6667169925266,142.56100415251038,142.65939920649916,142.7356300105884,142.63575156971027,142.3318890814558,142.62798866855525,142.43796807625387,142.50473879748276,142.29650481768374,142.36600665054414,142.13606927710845,142.26356120946735,142.57254396604003,142.40063580971125,142.24995274638036,141.79699021820917,142.3211662249148,142.2489406779661,141.864928999209,142.09171082513248,141.93121033544878,142.12626434822138,142.12920219821868,142.22408293460924,142.08787006890284,142.2024980069094,141.7320606655097,141.87537821482601,141.6906366477166,141.7176590215795,141.9580190102595,141.95711206081464,142.29608684100657,141.7848024775285,141.83437783147085,141.62551703391742,141.61328816111424,141.74031899249653,142.0026455026455,141.82250820847642,141.581859905199,141.84346579116192,142.04600740349022,142.21616612451774,141.7353495028623,142.07643745510907,141.67701863354037,141.86971101314947,141.8541964621754,141.6747191644438,141.71490288891394,142.02371422098028,141.75169096648128,141.60792786022918,141.65813796212805,141.87669478758662,141.81367277102996,141.96318741295593,141.9491219493852,142.12065061514076,141.92036165002824,141.8145655525059,141.7517541555664,142.05930354993984,142.08435502068446,142.09755913816483,141.83825349788063,141.80345370092897,142.2967773511031,142.04624168889222,142.3140576763798,142.3781655110039,142.35320703551656,142.10527503101852,142.11346797547859,141.93381165245484,142.51566401816117,142.12697276733587,142.43287422430754,142.357887185683,142.4089401477461,142.27788237066045,142.5920868479782,142.13116541353384,142.4206438965543,142.31185352963382,142.42007631569004,142.09218655816758,142.42377300034005,142.62096621647183,142.66825956688285,142.26468258458752,142.32109572501227,142.62932473444613,142.7012603610764,142.90755697114474,142.80484660017444,142.61456637771133,142.7420883077506,142.84135126918986,142.6167001630579,142.59502785462539,142.6546585264116,142.57876608629826,142.96261398176293,142.78222559817698,142.6033261355457,142.87123974475844,142.84785741372772,142.96875593903226,142.61802769999244,142.75604762265868,142.71490746697953,142.63388970894366,142.80315557915497,142.6260787282362,142.9282180102002,142.34577462128368,142.7562836965601,142.57868039520005,142.64577099352297,142.4740085441004,142.66685638398786,142.4616781417871,142.38299237563223,142.77821691875047,142.5050811466707,142.84446978335234,142.72302609091946,142.7812049472646,142.60063547301132,142.22911406715153,142.61160933893368,142.32396918894426,142.79279108550637,142.6307116671076,142.56874550342687,142.49863996977712,142.83363033175357,142.5652698676121,142.60425322958375,142.35404711567503,142.67470107461784,142.56636263861031,142.6482868164284,142.42062026604364,142.40665887409978,142.43171606569757,142.76624853147382,142.24816694867457,142.59061745169083,142.51754319776654,142.65466918714554,142.51908799698512,142.64122512179463,142.5441304101732,142.74693153064692,142.5300109405063,142.7040827888356,142.88223952820204,142.60577285402064,142.41462219709817,142.54303811785996,142.48033994334278,142.36644957271392,142.32050413844996,142.2758581581733,142.77977049927807,142.678616185015,142.40360967119452,142.52115711854793,142.24161530608387,142.1673567718136,142.5280469341408,142.15431586882775,142.32768340206576,142.4160387717239,142.32304208341196,142.33213664877937,142.55290594078176,142.3825518570295,142.2359343225126,142.77097849136626,142.59894768718297,142.45274177090812,142.1949564627389,142.71720006067042,142.7521134235566,142.36223506743738,142.2104646769928,142.46435876069995,142.20173847316704,142.39550655451995,142.22416473889794,142.12023016353726,142.47189602097822,142.45056824660762,142.59619482496194,142.1519945499962,141.74294104359612,142.437680608365,141.94655452042394,141.96420463145148,141.98522130249083,141.94633206092445,141.92165306739196,142.40311787072244,142.15680708527307,142.60954446854663,142.06834246834248,142.20511656070238,142.04068449682683,142.1312386569873,141.62400782454952,142.1211122476039,142.14257058511845,142.16366389099167,141.94162292791603,141.77591480684265,142.32507598784196,142.01026359642478,142.029919709135,141.67018231128523,141.8790585029895,141.88719247193984,142.26374417459175,142.0431706394249,142.08690877418866,142.204610076961,142.19646037821656,142.06815520042315,142.33399044658427,141.96183004563798,142.21711797008143,142.01571590479787,141.94097222222223,142.3550515776699,141.97354197376876,141.8532854984894,141.75707600573628,141.81687964114744,141.60778183735735,141.49452781225318,141.77361268403172,141.9951524332513,141.8271511671829,141.58470212366097,141.57709981167608,141.63718974127897,141.66888163081427,142.07235132386728,141.79706868618365,141.84241398759164,142.16798732171156,141.9891013312215,141.86009952499435,142.06760117567262,141.7800022536904,142.02737562516452,141.93831388784344,141.75205992509365,141.98830519309593,141.75354703100368,141.73952107063644,141.7818462349001,141.82733298184831,142.08846008323874,141.89378629062665,141.56841788348638,142.04086729481213,142.1519342249839,142.36154868096412,142.18841128574132,141.88315309544444,142.12860486184508,141.76208402349044,142.11101441598245,141.76971501809408,141.51558084328724,141.7390763899352,141.91859630566992,142.10554819163036,142.1471580783377,141.86336506497432,142.08466090122894,141.5323716620843,141.74274391394601,141.65749039692702,141.28311444652908,141.61041265526484,141.84254593673043,141.05510747646022,141.2420688618253,141.503503880642,141.82948020550015,141.89038868723532,141.27819577157476,141.37855637513172,141.6275028333963,141.6321691523504,141.9211123723042,141.52979333232764,141.68836172704266,142.02102272727274,141.58578856152513,141.70027155465039,141.97693618632835,141.73525858814648,141.37239769604338,141.50496395002077,141.94234780959604,141.61227267571553,141.49122607972166,141.4366626524161,141.61350433798566,141.74672819426584,141.37261182499907,141.3799215567959,141.84473365617433,141.63943014359478,141.9427803233991,141.55921869707575,141.3788726576289,141.539933694997,141.22366245867147,141.2362666265875,141.7251342561077,141.71936459909227,141.2516441805404,141.6043067623725,141.4943014567137,141.635167825824,141.34317051108096,141.57486993892783,141.6094839609484,141.28564432892605,141.57660619803477,141.28632285304982,141.3684210526316,141.3147486747622,141.4507068803016,141.1688506739759,141.73365526087449,141.5290133212915,141.6023039566314,141.60637816646562,141.5837565361321,141.5367370007536,141.58669529513693,141.57786391690502,141.58502863170585,141.47204828366654,141.682346284421,141.00284665518015,141.21860062478828,141.68585892931353,141.73222641509435,141.61060577467447,141.63232742361373,141.41593886462883,141.46580392746972,141.52092042330435,141.74091817873176,141.35294779900175,141.84398552909255,141.94669187145558,141.8241264810203,141.8781908255493,141.93023520054538,141.67579098391604,141.2906779979694,141.27973501957243,141.31328566051937,141.5847995167258,141.91833566804226,141.8828372865992,141.94991684306018,141.82787287911424,141.65189945189945,141.59045064782987,141.76097985764048,141.78583614512644,141.18063567469744,141.32129895660063,140.88434733471465,141.1290614398794,141.41523118767,141.6071807301924,141.6155420773313,141.47705866777622,141.78072005766532,141.590659444718,141.73721239779425,141.32681173131505,141.29155137778116,141.19422065887514,140.99830220713073,141.06640964584042,141.26721856808044,141.38902771467514,141.33494430809893,140.96323279604394,141.12629947453976,140.94899536321483,141.28147084388345,141.26621289468707,141.70573944731248,141.26564856711914,141.30914862260514,141.03751505117398,141.57543673901534,141.50545124167172,141.48292313517607,141.20781768789615,141.10017336247833,141.2811567938989,141.70840929808568,141.36862655900526,141.10356011464776,141.4321921694723,141.37668025977948,141.2113913076256,141.28897783483745,141.51107325383305,141.40784194989024,141.28311639313338,141.63203758429947,141.36459001547112,141.32188290362765,141.4330072148982,141.22080367566753,141.73876255949233,142.1325552313464,141.77070497070497,141.5371486700324,141.5046855594445,141.72952862970237,141.61190133918439,141.4603360392675,141.52429860665333,141.3093676991484,141.52981209119437,141.26731479388047,141.29790763430725,141.4623989116469,141.80678583627463,141.34862765797013,141.46966953372566,141.4787487249235,141.71236508237075,141.85993324736404,141.36626723943024,141.85919769251205,141.64126900098313,141.932218176301,141.6075820445115,141.9580650049246,141.8231354296742,141.95119268838408,141.56641037238052,141.9840451737598,142.0762178952951,141.77893784629302,141.67565633357188,141.74802911998793,141.76651433319483,141.87624267624267,141.42454107733974,141.91815769522364,141.70188636449552,141.55247427360774,141.4949994338982,141.46356466281748,141.75130025435632,140.9070440535258,141.32294499848896,141.43029091046296,141.2726656626506,141.64058003937603,141.52053446383286,141.5411960258396,141.67791550147382,141.7050160893432,141.44198957625198,140.94246575342467,141.93653685568967,141.60723855530816,141.80654559213016,141.5647529536104,141.77242292415357,141.43390609691764,141.6979611907554,141.53486346248533,141.20072400920094,141.57083901257005,141.68281036834924,141.5781196839678,141.6881015536188,141.5723353610156,142.22092714226054,141.90517828753124,142.00185353306097,141.8207543600802,141.80563327032135,141.68323310261357,142.06256643887625,141.81653561167397,141.7385319366184,142.0125264910687,141.89186121306142,141.87169497295457,141.79517434384692,141.82464634238596,141.82943827885308,141.69337016574585,141.59400853764498,141.43468282037776,141.6422500094443,141.86821177005226,142.23975830356466,141.4304503485962,141.57962648556875,141.70449226123066,141.6547470861152,141.5886575735822,141.52911688213788,141.62873233048606,141.93992034894748,141.7849063741252,142.13331308836928,141.6892024447295,141.75850237538648,142.07496490762168,141.8608800846817,142.0012876836843,141.87482988053833,141.60972667295005,141.93498029705972,141.81806123995756,141.28461161941337,141.55749669124597,141.51879642547416,141.82369187696267,141.64507958111224,141.40464520021115,141.68343855139304,141.52343573099856,141.5592824300897,141.70637590233946,141.57759855280017,141.3514923972217,142.07895533686602,141.94393545224898,141.91166918429002,142.25841077185663,142.27758398422688,142.08546135512427,141.77237919197253,141.87767745835066,141.66038589086523,141.91172351137524,141.4150310792993,141.74849574266793,141.52703366456342,141.72336795814695,141.57371467483827,141.93442435775452,141.58328288179203,141.4081022808942,141.95876406202493,141.72990732300212,141.67964366944656,141.48765899454875,141.51094531131648,141.13250556666793,141.23151574654483,141.2275279840199,141.1765016004519,141.469992441421,141.33480558701396,141.37551514234943,141.5490077261021,141.62945431135682,141.28974717508785,141.37930903999697,141.3698879127537,141.48669446550417,141.49829144202295,141.14798562511822,141.31686277477206,141.03861105869032,141.3172301518192,141.4299423456228,141.54544764507193,141.3061147553344,141.1376502958803,141.51671272286785,141.23718577791198,141.69538484894488,141.596830451926,141.29324273310684,141.82282430838313,141.3049439135854,141.10401935947365,140.8505418422637,141.25328685636342,141.17883321998036,140.69378062570675,140.8464706771463,140.73159584513692,140.76109912569547,140.84985653881003,141.08278949764758,140.68636191915377,140.86631503054682,140.70626987732848,140.64996220710506,140.48075326439732,140.41438420675885,140.67536889897843,140.34945973419676,140.32973359422036,140.696076576747,140.7377880358697,140.5229382026711,140.37165906434953,140.08032897701668,140.69849036565012,140.57806994278786,140.503368660106,140.10836380083677,140.08187949809715,140.32594745583572,139.84455043942012,140.1890197855309,139.91029023746702,140.37808758902864,139.98118957149845,139.90525088392386,140.4177009232632,139.8496803309515,140.37527401920025,140.28807921989568,140.17892831554735,140.2181831922612,140.18673200150772,140.50266389571132,140.22617477484266,140.01736542735526,140.60907471286154,140.11620356387797,140.16996151814683,140.0671647422836,139.82020690175943,139.51678887008836,140.04663310496232,139.38813419393574,139.90387596899225,139.5879334414972,139.7466591166478,139.7915345114031,139.7733736762481,140.1856850405641,139.74685789771655,139.98656066628809,139.8302641509434,139.72042524315765,139.55450094161958,139.60127393336347,140.18510235026534,139.71032821439326,139.391736715701,139.70879535339822,139.77147487844408,140.08846707585056,139.76949536949536,139.51722708082028,139.65685125685127,139.65368798339935,139.72091441526544,139.4676770335828,139.65069138314306,139.74779161947905,139.43439576528888,140.01411427277532,139.74573012102704,139.93238851095995,139.58023251439107,139.93496918598058,140.0703576419049,140.2808115282518,139.67975330926595,140.2976768903735,139.81913089360418,139.79156758389007,139.75038666113394,139.8435515573027,139.50639001653886,139.84470454974513,139.63060825052696,139.88956892969134,139.85830969937606,139.48191000226126,139.85164336985267,139.78357589925346,139.99686461166516,139.3027495404929,139.76551256451796,139.97693904510285,139.5256496920535,140.0823604971854,140.1684759995461,140.02467645172246,140.04534831121833,139.9317933038916,140.0576697781641,139.98117265318442,139.86688507305317,139.79761365352667,139.82974795614663,139.97530024926354,139.72820396941964,140.15909263046277,139.99516214377505,140.1215975771342,139.7632886613462,140.20060548722802,139.73254633632843,140.2057476051645,139.96538736770742,139.86171093220977,140.41818663437525,139.86528399894607,140.0258169072476,140.4958924853303,140.6496062992126,140.2415509957755,140.29403108964684,140.5403350856624,140.5673007828751,140.12329797637855,140.60820641054787,140.6800744454573,139.9120605855092,140.4901269660792,140.51529839442594,140.25178821481285,140.19999244170666,140.40648123553297,140.2696450844767,140.48693937900444,140.2209658510759,140.22128608130572,140.44359790766433,140.68775409400052,140.58239465999165,140.44662878787878,140.08812549492816,140.64473684210526,140.64571017128998,140.26865390413025,140.60150717612754,140.8491196114147,140.9827579658957,140.36604243751415,140.3992368142663,140.20380076166057,140.0738942217203,140.8664084453558,140.92735286295073,140.72670736794205,140.48827179176754,140.5346867793278,140.5759649189128,140.62022199492367,140.66622526578638,140.3549020348069,140.8319034241895,140.73641828286264,140.75835475578407,140.75530142381098,140.64177804702587,140.89982538718493,140.65469560934955,140.52552700298983,140.53628130802167,140.70069914127214,140.4813130164506,140.57143939968165,140.19321010939268,140.6050331125828,140.63805077991574,140.48127653123106,140.25751412429378,140.54824329429542,140.8993720208822,140.82235823038272,141.10885076666162,140.72891657229144,140.98459436897625,140.76337612177667,140.7911284518353,141.22650904667782,141.05286293531395,140.571950576358,140.2917778863867,140.50069703477638,141.01477121701157,140.721044663134,140.37748394408766,140.41599182623173,140.34176259671636,140.5234248178489,140.66749886518383,140.48984360278877,140.16431766076596,140.19267605633803,140.49257108379214,140.47377148025325,140.53874594431448,140.73641037272247,140.76458813309665,140.67665191573056,140.8074183526559,140.5676768440145,140.72373599757796,140.9533000302755,140.5922502263809,140.77214091732046,140.76558424375307,140.43723644578313,140.60410302824604,140.63257132061213,140.61537004772364,140.4392728649877,140.17017179535586,140.7955175688509,140.33510718599032,140.23347668628338,140.35850838748678,140.46494450967765,140.58476472149547,140.5366010598032,140.28717696841468,140.5493181217181,140.27269645144278,140.65124298923755,140.54135395345313,140.62390891840607,140.787879937768,140.87584821259335,140.48922926019543,140.81213708300126,140.59034320959626,140.78218234136,140.90913576498272,140.49752615477584,140.9133404158446,140.49574653105978,140.74609019131492,140.385704576348,140.4028581150051,140.4393262679788,140.55113786966564,140.60228903830173,140.64771996215705,140.77460461941064,140.52300132300132,140.4522487821457,140.47554030098442,140.83542917563537,140.5552161122426,140.6537356321839,140.42385030369337,140.6191503861881,140.3870406116347,140.38442334606802,140.35455061494795,140.49554569923046,140.4568825375222,140.50367396409362,140.13564621237805,140.48725330504942,140.4940807140966,140.6003260169074,140.2236648424231,140.24878434920277,140.63101057178582,140.52238410596027,140.78473328780635,139.9205728677217,140.45122411969172,140.21745204651864,140.72797239915073,140.39598533247647,140.12717264261207,140.0959348367147,140.3900309878316,140.5732146239818,140.29966380840855,140.77200911507785,140.2766439909297,140.46139010739677,140.43686019718203,140.58717715670682,140.70379650721335,140.45978921920448,140.48339316077838,140.4525158658205,140.49962198533302,140.49077504725898,140.30651600753296,140.66116918896478,140.80948240009073,140.8720309126037,140.74196597353497,140.68929691337036,140.5692243850913,140.52287754562286,140.84774628164857,140.37518882175226,140.26796204247628,140.28381182329196,139.98280458043928,140.07795820177418,140.41706985182944,140.44965100924355,140.36590413123636,140.57452584744166,140.67906081310633,140.65393343419063,140.85267062876179,140.39386970291056,140.44925401322,140.52348029770675,140.38992572484258,140.54104054972439,140.49827983819137,140.4734197302301,140.50699221407513,140.5961735177117,140.24022767537411,140.5235298575326,140.49244117758496,140.49776379624015,140.15977982204797,140.53857229463475,140.32794378754107,140.20460541192432,140.27244535209138,140.4274855349242,140.29586245985263,140.54308450170518,140.5125755287009,140.61204328645223,140.81325506532855,140.58232477472382,140.47441650013198,140.57923786481174,140.72865865220524,140.28332012229646,140.32402509068925,140.35577323096706,140.24880184157894,140.2296396701683,140.4837661110481,140.2982198084031,140.17173200768275,140.44199584199583,140.33922781087398,140.48859947149867,140.2957549663872,140.30185408501657,140.58335221693483,140.3623002713295,140.62415853566296,140.37032009953626,140.36806000527685,140.45509727039664,140.24659703631085,140.3198744848966,139.85818905622114,140.49914943484671,140.15200120486463,139.90926829268292,140.17259954043772,140.05594458248626,140.08320162564914,140.26572398190046,140.27587116217742,140.45626959839814,139.96266136295407,140.2444436087398,140.49310305732965,140.10160447901401,140.35678240566392,140.41108223151392,140.45126639529624,140.68426813618177,140.40923320635162,140.31500244830315,140.42491132744698,140.28907486993893,140.4270376531075,139.89989846952204,140.23535185744487,140.28958097395244,139.9912517834347,140.4469307529483,139.89051396774073,140.27956055572335,140.3539642330523,140.34024081832936,140.03376623376624,140.1180948074459,140.35087984291218,140.56558308706525,140.1374934096558,140.3269760942634,140.1764373232799,140.08176883058132,140.38965452142722,140.51880438895193,140.2866470410628,140.1364903556359,140.27571099444802,140.5025386480752,140.08440332326285,140.4506545247581,140.1572719367888,140.44341161740715,140.9836652324563,140.21498223599667,139.73291995490416,140.33118556701032,139.99695477273582,140.00429071474275,140.46143647246004,140.1570197974913,140.25887557185527,140.5495645588792,140.21189409061805,140.35321118176003,140.5539842365275,140.93149233970115,140.21666103032354,140.56189503932245,140.53479922794534,140.00835843373494,140.62428490244363,140.58376478591134,140.5069975035933,140.24837020009798,140.49246401994486,140.2464703661759,140.27044427710842,140.7579098935243,140.83236118475872,140.46353635023252,140.46773281031946,140.6926768440145,140.76089423513392,140.15722182529237,140.80889040472942,140.32417147381517,140.31068949909476,140.34349877335347,140.39556614837514,139.81228886720217,140.13297451917649,140.31632422668773,140.44414271705514,140.2337871797757,140.3638138138138,140.7102652129626,140.73528745183955,140.38721578075592,140.49973654497555,140.3471089904948,140.7968690917341,140.7647147600362,140.61058145231186,140.57351058220985,140.45317073170733,140.57423580786025,140.415758623281,140.50254476908577,140.38230974884212,140.4607499528924,140.34272512115407,140.64127188173467,140.76560139014808,140.4298056970383,140.61944999811385,140.7013222516056,140.4788992903518,140.55787211581963,140.6209625749067,141.03448406389583,140.76965230536658,141.07136624046743,140.7658883095292,140.58696144269223,140.83506365565322,140.57258825750424,140.31015660292124,140.7849389159953,140.7708152563474,141.06520423600605,140.92540819032465,140.58207604103802,140.7474082482028,140.57028066998643,140.5630572767115,140.24931217728866,140.63035991371154,140.54045270755395,140.30868845053456,140.66635124905375,140.87707250445803,140.8990756175178,140.5773418008619,140.71698684011497,140.53007902597648,140.5417894657296,141.0837923044783,140.7274274047187,140.72217174011814,140.48879008252007,140.57753828701078,140.63828582216348,140.54790792606872,140.6240874531906,140.7976425106125,140.44679404878786,140.4726654064272,140.4794215375321,140.55771700536374,140.82941265745941,140.4530925303208,140.31760852377545,140.64811944811944,140.20197618063642,140.48324043386563,140.30949064488198,140.1350793591235,140.48352187028658,140.35762909473843,140.6317654153475,140.88175867418366,140.87236538388768,140.56041760892506,140.60645648480272,140.45858791581807,140.3010922787194,140.48858188955572,140.49313777241537,140.18259527037205,139.9778787651168,140.35750612168016,140.3462730571515,140.43503914671507,140.47661999471637,140.3129877474081,140.89836090396335,140.87463104518278,140.82865359872852,140.7302848065358,140.66416219889754,141.04595825426944,140.80978773140293,141.12632812795403,141.10361910524526,141.20438287725673,140.95954019511458,140.79781049452623,140.8271511671829,140.29142406370912,140.8660102253361,140.7472935119994,140.4920569191387,140.95567006403212,140.2107911237938,140.37036062121612,140.5451496193563,140.72053210385096,140.85790509346856,140.5814680835029,140.777370884929,140.41302713673608,140.54673654839561,140.38883447600392,140.54433581216261,140.94922896222482,141.02466002500094,140.77619047619046,140.9982991911709,141.11460111528393,140.82194108761328,140.4724616948387,140.80172413793105,140.4193767192976,140.3327682977361,140.20673530188182,140.50514839491217,140.67230011367943,140.19772307460323,140.36604844814534,140.47546569741027,140.47702564491078,140.33569998867026,140.4985241807311,140.52763800083235,141.04058268674882,140.4076298394712,140.74368203690372,140.60058253896202,140.73211855436261,140.92087177734746,140.83773728170084,140.8072728654482,140.29792863622617,140.49526371627766,140.0041111907366,140.3717870953067,140.5183317535545,140.74733840304182,140.28832241202986,140.28906900992348,139.9734686945692,140.15476325221655,139.89899597638475,140.0979792256846,140.0642239915475,139.8988126549936,140.0365246890313,140.27506601282536,140.25507235425246,140.00553484694453,139.5601515037876,139.82640955142932,139.77788653390053,139.9,139.75623988254338,139.87629992464204,139.56734479787195,139.94665512178594,139.94733663029936,140.0795334440586,140.25793082661443,140.39187606272435,140.0734263098379,140.21635595139256,139.69048689138577,140.24525310482807,140.11848806065865,140.17131774187473,139.96164115678238,140.06867696946853,139.75436750948643,139.74080757951725,139.98242968101954,139.9990554275135,139.7327303561334,139.89832748140597,140.0812455126025,139.87945856270267,139.52652554799414,139.7917185201946,139.9922055318022,139.9534892507651,139.90462569159547,139.90459670424977,139.83017873941674,139.91060988948817,140.2430876448754,139.98789364510654,140.01277413520236,139.9684713495617,139.91937429325293,140.26536566881396,139.83202268431003,139.79241652518394,139.6137075176342,139.68093620234052,139.67780763844203,139.65130434782608,139.64855058770172,139.65260133091348,139.82174654290586,139.75321375753668,139.49558661969164,139.66429058921665,139.37626119487587,139.20907275535964,139.4307878604405,139.37312079776385,139.34464278974977,139.3611236973267,139.04736802470066,139.50603686461525,139.49762012692656,139.6091506725102,139.5161778046568,139.48400909435392,139.12820609535305,139.06219065251068,139.0261630098771,139.25752926468917,139.4021788470268,139.1785283018868,139.18772413272433,139.3147307924985,139.4796088538508,139.39007896029318,139.55023072849687,139.52425676955122,139.13573072714237,139.71229082077943,139.11654503047174,139.38037411374265,139.6291440912363,139.5224857218503,139.6579276852449,139.27071240105542,139.6737325091957,139.38504050268756,139.03528392830245,139.2861888045899,139.51065924495438,139.19623310938326,139.23930526713235,139.28978774831936,139.42645222327343,139.41305005292605,139.31718991444617,139.19990947495475,139.57781726080216,139.2027966770665,139.76514664143804,139.41085358959864,139.3251729843562,139.65137891953154,139.15908749248345,139.48730926121772,139.58211265478707,139.57787102139562,139.65400764080644,139.5336482146231,139.65432519401855,139.3721797431165,139.261054134265,139.27083724952067,139.60340660170706,139.83174242424244,139.4512479326417,139.68272925928716,139.87902556753903,140.08622709238617,139.89360099431283,139.81208356860532,140.28082658390736,140.02087107487924,139.78700116598338,140.52647159284982,140.4500852434173,140.11441526544493,140.0653027329005,140.3017590315869,139.89400399984908,139.98861751846826,139.89606073195603,140.2826871226218,140.16588377907416,139.9478907252283,140.19365584071465,140.20348947468236,139.84011792720264,140.08763883097683,139.94254869394535,139.92579158165194,140.04540986085905,139.9911691448411,140.0788648301402,140.45577302382037,140.1365323435843,140.03327661183587,139.6054047950619,139.98266989556532,139.84662692423785,139.6817171907362,140.0163959256314,139.533686942783,139.66399939608968,139.8618052400424,139.92962288489264,139.63175790547433,139.7268809073724,139.71636597450737,139.5524536284991,139.47437443473018,139.66545743113025,139.78358885280568,139.77776937618148,139.7103427472569,140.16379833206975,139.6193858758973,140.2428014680843,139.85456807812676,139.54489420077422,140.0731035003587,139.91553277298254,139.96438531695185,139.9953140352203,139.68225776105362,140.09731797863475,139.81781437691234,139.82872657340022,139.93861737914352,139.96931934396423,140.16905792150612,139.82848079755297,139.66222372830302,139.9650745705116,139.9618407133142,140.14373227453206,140.11761148904006,139.8788711194732,140.18152986483426,140.1080672586435,139.88442116370214,140.3001590547603,139.81558333960984,139.811590926219,139.69370624106,139.79365976855516,140.0551862204427,140.17161105022487,139.8831354814396,139.84270805862187,140.09542360060513,139.85439777385025,140.07658676315393,140.12824865150316,140.19241223103057,140.0965894102129,140.20744038635678,140.14710101162615,140.30632806309197,140.26525609112167,140.15646846575962,140.30475362756954,140.3480785910925,140.1703895908544,140.25351740786843,140.32921997056494,140.09002634550245,140.18307465730146,140.1000301750151,140.17877874104786,140.26636977771068,140.23402730632873,140.24736464276268,139.92878125941547,139.95012037315678,140.25462927972185,140.33585105177687,140.11062530624554,140.64188703514546,140.5543088140844,140.41736662883088,140.58786135916452,140.46040146675236,140.31610884969095,140.71902889124186,140.51117085731596,140.44620791293505,140.35582035521702,140.3681924616663,140.16159444884414,140.29682312103833,140.4677004538578,140.21226753178166,140.60818646958498,140.51843858852038,140.60863983082848,140.59622200437371,140.89872939040993,140.69341688056772,140.7115892789732,140.5871379479627,141.28892272554245,140.36325059146043,140.94614336537734,141.02658626313195,140.82787287911424,140.31456157487415,140.50384731442367,140.6869689989805,140.40841509433963,140.4994336630673,140.72065328342973,140.87018194197526,140.48910548300907,140.562952079566,140.81299920505734,140.61042586096337,140.65691529518344,140.5837605548854,140.73803402646502,140.684655445694,140.6454189270645,140.77003813191376,141.12914082589623,140.97330005294606,141.18385701275045,140.6101975540922,140.51709192326535,140.61563161075853,140.02483561901184,140.2603085977289,140.25434922072532,139.89423800210622,140.01872828877814,140.07441772391593,140.17764772512743,140.15917150833772,140.15392737282704,140.17497545131806,140.39875118259224,140.39454394317238,140.2617690362037,140.82747615972036,140.3702429991308,140.24189958884992,140.54982804882658,140.70977403700334,140.4890265553583,140.29961529757864,140.61757017842936,140.01992181626824,140.07079412871659,140.1955522050509,140.35934493038,140.47343049749557,140.56845988781387,140.8515124085389,140.8487915407855,140.43466656642357,140.80604457876842,140.9437221256331,140.8411091383023,140.46735899461942,140.71371333534927,140.53387236936564,140.7119612517501,140.61587025555724,140.59760790824026,140.29997367332356,140.59351347260068,140.88415005326434,140.3781496732273,140.86906890909782,140.42082938837342,140.14950592140002,140.3702134100197,140.1092513006107,140.40354196624537,140.55934965512014,140.60549275472272,140.5672014530044,140.25195930670685,140.56633655881464,140.45545901020023,140.64558400242387,140.9467527535131,140.46744958839966,140.46854704727383,140.69478428847393,140.47038577912255,140.78684110731893,140.5086571903826,140.45158616532288,140.43933893048938,140.3329556613037,140.5262421538229,140.67651838693828,140.31393198203298,140.53607350828102,140.54112047145932,140.45928301886792,140.74383229907673,140.60247977621532,140.4520516975018,140.55207585659778,140.65376327826712,140.51181725658714,140.79155493447143,140.9088225275349,140.6589947089947,140.3977315547517,140.55677226900275,140.7832853680703,140.7034347102436,140.6859974376366,140.80868549025521,140.69568822553896,140.74671350861288,140.30472248353715,140.253888156656,140.35566854990583,140.185136406397,140.6590866165527,140.24544395596138,140.8148078087167,139.9912260967379,140.4943511335392,140.45255666842382,140.688217089372,140.9523196364325,140.72190735283004,140.87976428814264,140.86884005899927,140.56072439162423,140.57555807794174,140.30547821506508,140.37716822816722,140.5101494114096,140.41864489673074,140.59373234396776,141.11274918517395,141.16145418704272,141.3683771697112,141.60708333333332,141.61888402295378,141.56245060775976,141.8501604076241,141.79463647647347,142.17320422135643,142.41965436216176,142.5864664498071,142.84468623672976,143.27371972252757,143.0282926461724,143.18788749432935,143.13668710727535,143.13283350372978,143.1846962705197,143.35654088527826,142.99227916130496,143.11692167161453,143.02630877593757,142.54726858877086,142.78214802957544,142.41267610982416,142.26870657909723,142.66836347059717,142.78830422706693,142.6484751813452,142.3536760808662,142.9718245507158,142.89376522533496,143.09922818279077,142.84402587519025,142.71172366724804,142.83668122270743,142.86752120497508,142.9086940015186,142.65601453939647,142.95351839896708,143.068125688666,143.40086174025777,143.01295789633684,143.16955713255663,143.25866200129312,143.31172392778242,142.92790574329445,142.78521913708852,143.14543661330703,143.12807264161697,143.10162400638953,143.19603975419164,143.15811689546337,143.11624113206116,143.15815918693616,142.79577758405034,143.2219856268299,143.01339251840048,142.88847611827143,142.88647297246106,143.2779493043644,142.7280701754386,143.22096908939014,142.8954636600961,143.0098269843679,142.9859618586348,143.35875394621735,142.98377664591587,143.2994512771996,143.59262347901898,143.6964434987461,143.52843736940085,143.4273896710052,143.68447228549735,143.77352672453176,143.5181162172427,143.49990509812852,143.644545800076,143.83333333333334,143.79906399817366,143.67666603379533,143.3668726542063,143.7177809063582,143.2584282417042,143.25635881907647,143.48825917074467,143.38830715532285,143.31070644355268,143.29778063442853,143.27957396808551,143.67554912634665,143.51984610696329,143.178476595099,143.6226479644201,143.41000911300122,143.07223168654173,143.2536689225154,143.09847159911794,143.05000190121297,142.79313346960404,143.01159749857874,143.36116379637357,143.6264082236468,143.64918529746117,143.53580611010284,143.19925110632022,143.3640137363674,143.5014898351752,143.77960140679954,143.51473803241612,144.1190791715573,143.71868521240907,143.83783885684124,143.57020747825433,143.62665662650602,143.48406254698543,143.70817135308548,143.41571003801423,143.30405965202982,143.31507366830374,143.0221267292397,143.18968643747638,143.06001658749906,142.97900015080683,143.17099052150598,143.068467857412,143.5321167052396,143.30319610580733,143.2723192396183,143.61073037749424,143.88777098599036,143.53809290215463,143.86415308829103,143.47706941456235,143.60565453721878,143.62600339174676,143.5539907875859,143.42470140537282,143.81283645462128,143.43331822987463,143.81172230652504,143.59557877204935,143.41089726623056,143.49952685567206,143.33376045827995,143.5108362646091,143.17756127034477,143.17832445300985,143.4850181598063,143.68587339470395,143.38720640435014,143.48643037783566,143.67154280516922,143.4085506207313,143.47598319391346,143.62411885090577,143.09273692533606,143.59059055267244,143.71714415643476,143.52467689517044,143.5993639495703,143.29984117380124,143.37403108102998,143.61864985951857,143.25984251968504,142.86112891670751,143.0827669536324,143.29561393532734,142.94510173323286,143.18008618734407,143.00441609421,143.01775125580693,143.1187358062074,143.13383054440826,143.19122993032414,143.26689636893718,143.17808219178082,143.19049602423325,143.11273360066582,143.07771177783664,142.88655288044913,143.0361527709569,142.96661379258254,143.3132936583147,143.42657872792054,142.73889848974378,143.3064473435432,143.36717357503127,142.97515176652465,143.00335494571775,143.4287172893662,143.25414010336112,142.91717422362584,143.47291461474353,143.59111245924015,142.96032908824523,143.52303226779253,143.76009842892296,143.40711746463958,143.19488070069465,143.14515702354407,143.26985388750094,143.15760519027202,142.77444347858952,142.34019725944887,143.04732268225115,142.81234418674927,143.031087690033,143.2537137646746,142.96787392029094,143.25169420543668,142.75750254803518,142.69259006963367,142.99893758300132,143.01001213592232,142.75822349786623,142.59119045821694,142.7109487393049,142.93688273356796,142.8449969770254,142.84444864762625,142.88390180976592,143.01798383731077,142.90508397294627,143.01235224810915,142.43023036609736,143.25618859014395,142.76289284361985,142.6955237446035,142.6909572455543,142.64400363416112,142.36929053671784,142.5163608851901,142.96447703354735,142.4538958829534,142.71485516874833,143.1135773227384,142.65319012140236,142.77872485509718,142.77772323956955,143.08039417113724,142.36600814356808,142.43051039697542,142.56645342014613,142.900125318042,142.696670963828,142.23201899879373,142.05856482351615,142.3646006341537,142.6320085032077,142.51293217707425,142.37182587666263,142.51159618008185,142.50648070946716,142.1733323243407,142.1159996968319,142.37690897984118,141.74944130904132,142.04812732659727,142.3652546876186,142.5678517397882,142.21424006616292,142.93714740070425,142.40648266526284,142.6425960125127,142.6662515566625,142.58148301730313,142.4408788232196,142.42689772085137,142.19585192964033,142.3053644599827,141.9889221556886,142.75412809370866,142.4078531668422,142.3015825395635,142.45057341605565,142.346513813193,142.31998798167206,142.24041026411692,142.49690939243177,142.15397319920424,142.67763853238714,142.2088925545475,142.2464566929134,142.64109032039457,142.98311295806573,142.73998041283713,142.49751749040848,142.27727016356457,142.08449542660068,142.19131415679638,142.18947328903405,141.86633053221288,142.27757097198722,142.2104530926866,142.43109167671895,142.43837476892895,142.27903383826964,142.05627445079747,142.0815642878651,142.07452972159518,142.48407980918486,142.34412143235673,141.707423416651,142.21151160596338,141.8533203051599,141.68493562070648,142.0162398972732,141.8595247076575,141.8612557542827,142.0366130988478,142.08650676366943,141.885625849313,141.5492857142857,142.2753425694602,141.8346821244401,142.06038647342996,141.87974707365726,142.13162664250115,141.74568625239652,142.25796334781788,141.80194269426943,142.0903344745852,142.23639314561788,142.1156452341515,142.27333610806312,142.15772229126654,142.09364170558987,142.3073196578609,141.85433709051156,141.7673621572763,141.5370800839832,142.05956597091404,142.0016183056716,141.3659703277402,141.83139403948653,142.047717764125,141.96485490903623,141.90208529024986,141.78328521615236,141.74745356500898,142.09978944202135,141.84423372437314,141.89639909977495,142.24487643158528,142.39888381914852,142.13402720372736,141.98240216126973,142.40395778364115,142.43084302764768,142.28027590365986,141.2861298623802,141.78417859015656,141.6376648681055,141.9534778850851,141.53459449335082,141.69346469128374,141.61798132103073,141.86394429808055,141.8073480746089,141.99604102254733,141.7446393030155,141.59449231922068,141.8226061427281,141.67410044977512,141.65803789157758,141.86380400421496,141.95056491873427,141.92124562789124,142.11091389728097,141.67958170328018,142.2247335399501,142.11084228035688,141.5500507080344,141.44163848177377,141.6747786777171,142.25714719617298,141.67040535962965,141.73519662498117,142.0707770334204,142.0766430277978,141.77916981132074,142.0056762279573,141.72346600331676,141.92482623148987,142.02340353132445,141.71590223295112,141.74167610419025,141.91264376513317,142.0120295063363,141.843211227223,141.58486592199782,142.0237040402893,141.71867219917013,141.9350944253113,142.02998142743434,142.04057125539813,141.78778377970008,142.08983192004845,141.8603312006022,142.0943438914027,141.89213652649443,142.51008755234108,142.11605891930782,142.5180296690757,141.8822063653868,142.06832087015636,141.97050503526572,142.3174236980447,142.17212093760617,142.25970397220965,142.09828705101117,142.04994726533073,141.68711471959105,142.41985890920125,141.5610222922765,141.85004329656263,141.83645264545282,142.13002640513014,142.06596226415095,142.02923976608187,142.0358437830488,141.97910391566265,141.86768246802106,142.328709653035,141.89219666215607,141.94368953965446,142.13410552442556,142.20578269708605,142.6861446467093,142.09892586193945,142.47589248690014,142.56655315928867,141.95579319953308,142.16445503005556,142.1497112226794,141.85202585882882,141.93983293196868,141.94590423129046,141.92558594484782,141.97101121903472,141.76017114547366,142.28267936795947,142.12932955618507,141.68888303477345,141.8278302774745,142.00463888365076,141.9229869884971,142.19147407043158,142.5413568067992,142.0298737992089,142.17886547322306,141.72348711803474,142.03951081843837,142.1494556003466,142.36116666037807,142.35901020022666,142.34675682822711,142.33450173375547,142.60883053989633,142.17711717156456,141.47783380018674,142.32586226479384,141.8653142792504,142.21010246134068,142.399341308298,141.96966270962878,142.20695395558246,142.22883537785856,142.01239138647526,142.05793650793652,141.8263592800815,142.2798225995982,141.82871156385588,142.08465207844324,142.540515863958,142.43042587109997,142.05311071657917,142.09418041471167,142.1544632383547,142.25495697008756,142.50894450985606,142.1995375459611,142.66050579958167,142.27570535883356,141.60906899668575,142.0647005375937,141.69507031604417,142.18895304664946,142.16319575918212,141.9743153275836,142.20208609899487,142.22718815264858,142.25233538391433,141.8216702582133,141.94591118844087,142.26690418435416,142.20055277903984,142.03097227999848,141.776831795065,142.1564104500151,142.0373359481068,142.23991226411528,142.32438571915344,142.45507279344858,142.01951974628105,141.8665887586233,142.02003326277594,141.684860347813,142.101971319384,141.95844509085416,142.03211667800196,141.74762765476729,142.002871174915,141.96300634824667,141.9296651078594,141.6872414052509,141.83581470732352,141.66798300048893,141.79082112872257,141.9872472079686,141.94910451144864,141.8839716525935,142.29311716352893,141.66002106530243,141.9584354844793,141.77058314196438,141.85641044973048,141.55026693736372,141.88168545275738,141.75773001508296,141.46506369186704,141.67038789025543,141.76498446616657,141.65818003248592,141.44127738189496,141.48589578764273,141.42411320754718,141.47634854771783,141.65141283434565,141.309096383275,141.3553799849511,141.71057717815592,141.1800601956358,141.4527440175134,141.99297406099274,141.4236145123008,141.46877824645978,142.00306655561445,141.42987208427388,141.6220288544845,141.6964582389367,141.64594911345506,141.1639960881667,141.41658791063395,141.30293208713348,141.2040138826015,141.09508171969955,141.31682868706736,140.92515725639385,141.0458193601869,140.80246681457527,140.96448252434513,141.2230588769487,140.64708756106728,140.96012212129207,141.22217180883243,141.35066808381416,141.3793691712791,141.28957631289992,140.948186333534,141.23512051155927,141.165332326284,141.02559166572303,141.2172516718933,141.08778438126964,141.00045402951193,140.92598752598752,141.1075891842763,140.7804003021148,140.8490994399879,140.76993725905209,141.10291945927526,140.88369634970368,141.22441781081696,140.8931777718853,140.78588394977945,141.1538374162281,140.9107122614774,141.03373676248108,140.82397949568428,140.94228228454946,140.88948837911258,141.08184501286513,141.17909317992581,141.01501626446782,140.4713050018804,140.74365740566216,140.47022061591747,140.46655108732523,140.83801295896328,140.62176557247005,140.70190928986491,140.67047382110144,140.92614324651726,140.82474460839956,140.9894422159994,140.7513393193994,140.92659164715656,140.464871765987,141.0842324436873,140.78240705829123,140.82378638948518,141.2729687677887,141.07824016328382,141.15302114803626,140.82667319498324,141.0692792690754,140.9382972299796,140.75468567334164,141.0294585384324,140.6319915573647,140.77972768532527,140.88076719776487,140.67677528724806,140.68749291302868,140.78070075972332,140.50288624787777,140.72032906902146,140.72992948452054,140.43482833746526,140.72737219392567,140.75461811053307,141.1172108508948,141.09358359454663,141.02908514013748,140.96182456670317,140.9639921574542,140.91074989652708,141.0979978130538,141.1145880574452,140.9730955259976,140.98414196715123,141.0320580674429,140.62325931501692,140.75133830958305,140.71225543785576,141.0802767904409,140.7377320830038,141.06590529670663,141.0591267434809,141.05097593329543,140.8881961762261,140.86060583141096,140.959394512772,140.93917744008468,141.6512957317073,140.93798332641745,141.18831635936849,141.3323099082708,141.12149956539812,141.28602256379193,141.58009266291964,140.7716769531838,141.0788002417649,141.23437913938614,141.23028582244936,141.12036476464357,140.70425340046592,141.40358591410484,141.38600801269936,141.5130714015867,141.18594121420216,141.5096730141871,141.2111304085177,141.1856630824373,141.3302090026078,141.47521445380704,141.68271235265132,141.18932478310072,141.49174179862112,141.4284145556439,141.3910728446811,141.56904113732608,141.3853426108002,141.2372144045998,141.0404987944545,141.0368776657985,141.32934766157106,141.0504825818127,141.17774174083573,141.50834787887987,141.32364172558508,141.35568898455497,141.44279115553536,141.3479344460388,141.574139302352,141.59365295766113,141.00986111633858,141.1117219565463,141.45934514143283,141.56861855046148,141.1010986530213,141.36825624386933,141.5609387970719,142.1326208496558,141.33381078024877,141.17087108537916,141.44131437646524,141.47266674232966,141.1383427495292,141.23857293709457,141.50024596057062,141.47514083708268,141.44153979826982,141.33109129383314,141.69472885855137,141.2240509189515,141.4530004909551,141.11811319337514,141.64042609451138,141.6667545875881,141.8164521121975,141.63693476788805,141.8165981674899,141.90599804084093,142.03584094167357,142.03919495525432,142.01607656226358,141.87579377078924,141.80854114007622,141.9299054820416,142.5352771230898,142.20421627360278,142.07154207021793,141.6538504989644,142.10774181336362,141.56965267836964,141.8646337772397,141.59931338891613,141.60938737040527,141.3273507167852,141.5304521627635,141.6611854539956,141.6919214798037,141.58207440811725,141.93555093555094,141.64605278060935,141.62313432835822,141.8518140589569,141.90318557986623,141.58090675920337,141.68342468342468,142.04948617799855,141.8290175027407,142.0264192304785,141.83829466138465,142.23802667474993,142.2799408575653,141.6990207156309,141.98010890939344,141.91576323046124,141.54363526933494,141.55854496056753,141.99863605364857,141.70874702706783,141.82824773413898,141.89974662481563,141.6596009504771,141.83183330812284,142.08103598650032,141.96703836703836,141.7715881642512,141.83515151515152,141.88929610458305,142.0169959875842,141.76314498169327,141.92164644517518,142.2701062215478,141.79805729835965,142.4522227705858,142.0152573737679,142.0992835209826,141.91284734068768,141.74987729829726,141.62184333887797,141.5863975461052,141.5422761461995,141.59665328992202,141.876282002583,141.7422719514508,141.66008846546444,141.6138696360262,141.79029140929933,141.76452333194564,141.91878057103855,141.66824196597352,141.45895395753988,141.94273361650485,141.73295755466444,141.5258019525802,142.11442333219554,141.74471864253053,141.7128940909949,141.59149883080636,141.89774191104038,141.7591807374877,141.09982697660422,141.53592746505478,141.538627014379,141.90826971048455,141.63632585203658,141.79788039364118,141.8367988486157,141.6816517570679,141.73087936101274,141.86317420720414,141.65793737518368,142.01030498200416,142.20286776420605,141.90737240075615,142.11308397062163,142.02997018080248,141.6620736390332,142.06863820292705,141.9297934212017,141.93602235818415,141.97945438722616,142.0906265398173,142.27561058988871,142.13461174062985,142.08013209839052,142.01944212840144,141.88262893034167,142.14182591846816,142.30242808830795,142.2502851494183,141.73488757485595,142.03529812348668,142.38398093148197,142.30381517752485,141.99434517077583,142.22550096594568,142.45278872385572,142.10679355009253,141.69743126856972,141.96447561941397,142.4169822754128,142.3252888804698,142.06024825915833,142.25127057574147,141.84539784539786,141.53438454864386,142.40050981585756,141.9604913930386,142.18967874231032,141.845042728579,141.8812615955473,142.02443559096946,141.8933242351871,141.94647118990795,142.00375554796858,141.70951876513317,142.3020377071034,142.0355870537406,142.29880993118132,142.0716184400395,142.05549440121464,141.75696307773705,142.1100030335204,141.88669241838977,142.14352520720857,141.99253787878789,142.3174058832495,142.07829560585884,141.82153822827036,141.9271264280563,142.1633228004721,141.9829020859455,141.965599817546,141.83249155052596,142.01051552653558,142.17124173066688,142.25238656676683,141.71162861031303,141.64955939639196,142.1773660832922,142.04825259646728,142.59847444698704,141.8039363832118,142.099836954461,142.11199210895708,141.9156663006021,141.8115284239192,141.62908527600408,141.64923903990308,141.90422513900972,141.53210629328515,141.6378133836004,141.6451101720495,141.62006056018168,141.80015142911225,141.93758994167993,141.69910734548756,141.73041735974596,141.57953772943577,141.9691911736876,141.77850753029102,141.92634518149575,142.30055038906812,141.79379149064576,142.02324436872988,141.8516657852988,142.09714632665452,141.87736778299742,141.70983848394295,141.6595351294242,141.4650329877474,142.03106884401166,142.1228223327134,141.9948852011821,142.16383067419562,141.84413866102145,142.21405775075988,141.9493143419956,141.94630314930896,142.2142992316718,142.15413704432007,142.3178350476335,142.4170280757818,141.91301553699014,142.1776672865981,142.033730834753,142.15422772539665,142.0020072716255,142.1671463192972,142.09078872706638,142.0731072465955,141.86878015681543,142.1424408703879,142.03736762481088,141.89697267470427,142.17503793626707,141.8540087905426,142.01384936444697,141.91069601788354,141.72336561743342,142.04945722310788,141.84495064540621,141.8711756454487,141.78660961108798,141.6705458680819,141.6128617363344,141.90372281886835,141.80584068785274,142.25343144730823,142.08951251045707,141.880144130476,141.92225638689595,141.93326999809995,142.2938778620138,141.95793150580909,142.2720632988436,142.26620018253726,142.36646387832698,142.03977100394297,141.908314998862,142.17709046640798,142.16730864574197,142.2221712713516,141.81926703163018,142.19319437564303,142.05012150668287,142.00881760480408,141.79520127359564,141.68507010231147,141.55644948064213,142.20439259794048,141.71836673082004,142.08088737201365,141.76163690588547,142.1076023835731,141.67347555219936,142.31880472021317,142.06367226061204,142.127124430956,141.92814982973894,142.01375573155482,141.83592596798002,141.96884570305116,141.64011487303506,142.28414197577882,142.21761756438502,141.90509732636522,142.03911313246164,141.86971657774245,141.87490517372174,142.1439595529537,142.07836075517477,142.14465193957338,142.25039884524804,141.72997133373568,141.99541701386258,141.92728510895884,141.97671601105517,142.45395639579203,142.25277809382942,142.05429761453993,142.4582906177621,142.58804012051408,142.10208175624527,142.15152893031714,142.1715597026248,142.22579910409232,142.2862843461407,141.94022580523355,142.08597918637653,141.8092140101369,141.89393996744766,141.68143929393128,142.02113316164218,142.08935606060606,141.9655368301458,142.05092838196288,142.11349425897154,142.1142954493829,142.10130657072523,142.07948950995987,142.32272036474163,141.9908069458631,142.25972991427054,142.08105143721633,141.89938173867148,142.3657842839806,142.47469266960084,142.63447961739922,141.7347500094194,142.1999318026824,142.38858097335054,142.5463489037178,142.14293853984654,142.2015374077175,142.5763274336283,142.29928867587205,142.0471150563332,141.9324672373305,142.0104479313096,142.06155716837026,142.35180530164533,142.13500570125427,142.37468103743763,142.2808127787732,142.03292071688944,142.17426344801368,142.50607549613378,142.20058604155568,142.49393638929143,142.5514503816794,142.0757984278282,142.29582238470618,142.07957307809176,141.99665793171548,142.3729473764607,141.84947092957105,142.07427701674277,141.99626723546888,142.11701317492955,141.891761579347,142.02012554688986,141.854120858291,141.70237959694865,141.86519960609044,141.8686355537021,141.8460051546392,141.90744115413818,141.99365356844265,142.44954023427067,142.24296577946768,142.1607461722579,142.17269030517235,141.9658832448825,142.12537528978072,142.01016846258918,141.82854873482356,141.74108327331993,141.6624124218898,141.8704392020026,141.85230290613856,141.70050395968323,141.69576258338387,141.64678708016206,141.49875104079933,141.81937808115282,141.9246336092338,142.4180612206,141.89476881026496,141.7187145557656,141.76410275812492,141.9414151372668,142.0663021189337,141.94788903206245,142.02670960409168,141.96795090351176,141.9406596735714,141.98583064974426,141.6512768284863,141.7958125094654,141.43434039026596,141.50339853485386,141.35499076134093,142.02208177872535,141.50766384778012,141.43546377741703,141.77557280818027,141.57615944225523,141.48937698472704,141.52768532526474,141.41013615733738,141.70452481840195,141.72358369261025,141.4804254356189,141.42930988944647,141.3677987800286,141.41015109838352,141.72351694915255,141.80359570932166,141.61784232365144,141.81083330181187,141.7913464814324,142.1779725320586,141.96738307855304,141.66393473580843,141.8716589687287,141.75030270924776,142.00702220535206,142.39882675605668,141.84208132792662,141.66378263509412,141.73925599422427,141.83085940473472,141.7185658339987,141.44877437960082,141.26153496477005,141.007820764697,141.02970483883144,141.40893757343744,141.50089248414417,141.31947963544226,141.242181295617,141.35265188772036,141.36567814263532,141.77376824296002,141.50079714546007,141.49829053335358,141.68174542682928,141.6468436892834,141.19765455994536,141.305186650938,141.16843466027908,141.0496099371355,140.75862329517548,141.3769755131574,141.21280624029686,141.4913086382268,141.40671981776765,141.1536332966908,141.02022880521253,141.4783911971163,141.68238742339463,141.21252880946085,141.16773314149407,141.3193544720991,141.36076692811943,141.0431483578709,141.17880469664362,141.45604520631068,140.99920646916567,140.92084183480694,140.92921960072596,140.95417329997727,140.72520411248865,140.94629418472064,140.45443889897157,140.77590324904273,140.78840909090908,140.47985001136277,140.4766188415699,140.33530280649927,140.482901279083,140.40522702272125,139.90429790769696,140.1996508008806,140.01843579648698,140.27438793299476,140.62557164634146,140.45468720289028,140.187431466707,140.3111438167478,140.70801033591732,140.62579569566535,140.38777209918607,140.94135990264678,140.63505006067962,140.16792566853,140.45436613307032,140.2281889346897,140.39020889207873,140.22380394970358,140.55184834123222,140.08261656858306,140.1950232575729,140.23697523406827,140.61945224186329,140.1204537745449,140.57982619255435,140.5917662682603,140.77907109437407,140.655423606632,140.03182383771352,140.48536104368932,140.46473107682976,140.5393296853625,140.77428180574555,140.69488690363048,140.55481966468608,140.43773642003327,140.67110352673492,140.78549963863213,140.57889332572734,140.2548293199259,140.86962996906863,140.3208635277156,140.51758354560317,140.3247250663633,140.47760400850288,140.61230780940784,140.45013088508668,140.58317806760712,140.53044469783353,140.69157846645854,140.61231540184502,140.6392869360295,140.3830804248862,141.0858572356109,140.9272748030597,140.80608943862987,140.88774149296955,140.68397462680898,140.77514703092393,140.78345277367004,140.66744934671465,140.84691011235955,140.69807093491303,140.6470789203963,140.79501995818285,140.7254045430373,140.48507773196656,140.72628027747243,140.8158004631563,140.4734730946795,140.33209843874042,140.5139793908168,140.59189936725647,140.88105275150963,140.94382878251267,140.71568850470123,140.67041283535778,140.7456925996205,140.94347793056295,140.96863265693153,141.35382795206473,140.5071752265861,140.8788051317088,140.928202204485,140.77977161500814,141.02320707263166,140.42251229663262,140.78542955848297,140.68290367895517,140.5482304745287,140.43811320754716,140.76670197472953,141.40495426829267,141.52631980469943,141.1401784019738,140.77707536813415,141.0310309551775,140.88471890518974,140.88404754694125,140.96922436309953,141.342997561719,140.9577026668184,140.90620616446145,140.98551713679103,141.18762346148003,140.97756373937676,141.41152498476538,140.79547600166157,140.80878689514608,140.96260691847704,141.52275067698997,141.0217457305503,140.4633667848789,140.96538753799393,140.82152469767618,140.64607635206787,140.73300989273395,140.46168647425014,140.89287885696913,140.68144611186904,140.81156016817545,141.0866557713504,140.90074394595004,141.05954552363582,141.1488172206587,141.07223930455908,140.75986991378005,140.84672388370072,141.3126022913257,141.58555813687778,141.54738363249163,141.59950466755572,141.5955677613762,141.13643945712337,140.95823551684967,141.15769128737637,140.8740583715032,141.03929683347255,141.0676116122186,141.30134590525435,141.32635299483127,140.92527713669554,140.91795027059757,141.48433872502378,141.8166953199618,141.72283788415402,141.82488286160526,142.04582919941998,141.8631339031339,142.4162939174982,141.89887939221273,142.0566610967644,142.4303025684018,142.26767197174004,142.2218682443964,142.64927226190932,142.6061681743578,142.67539506832583,142.54924054969737,142.77190309309768,143.0449433904529,142.90363059030568,142.90855986560783,142.895199330493,143.13776912505725,143.25748960042742,143.19072968553937,143.67045672064623,143.30960813435394,143.45362081444517,143.91479149066893,143.69922278800874,144.12598909118844,143.66285342617746,143.80509871573702,143.95531841388046,143.83041070604523,144.2187596420858,144.0795939554735,143.78641223129097,144.31072706978176,143.88625919117646,144.24068514241725,144.02658737770957,144.39876048964507,143.95432075110173,144.2135717031911,144.45205320994793,144.25190428560438,144.3151894361061,144.509441248021,144.0297208160761,144.50377736663583,144.42775056881726,144.58833990566768,144.57853028721635,144.55184500423695,144.19710967148387,144.5606796116505,144.52811849109003,144.57449679956812,144.65559797909677,144.62579924505044,144.27959958577839,144.38569780853518,144.01951088623122,144.0203142966654,143.98229545890018,144.08252296575316,144.24540136996845,144.0747713824637,144.67703432992496,144.10938102212288,143.99211871900349,144.23226655315196,144.31951587332276,144.14058457855515,144.03477421844846,143.96377649325626,143.8151915252936,143.95245605262144,143.7905387244173,143.67577106030382,144.10370455945778,143.9904937843975,143.84485076633504,144.13114943413657,143.91045119705342,143.80727384568067,143.4620481004902,143.36280476135798,143.6045484230341,143.54043468243606,143.56376973002034,143.5460707720588,143.51656845488637,143.8709106984969,143.96514529192737,143.91081826539994,143.87998013675082,144.09558654509232,143.97837672046927,143.88686690675044,143.8916596332387,143.85653604775754,144.11625407791212,143.88954401010758,144.1182460994543,143.9057334611697,143.66589914805434,143.51631603194105,143.31321971441733,143.65381807002038,143.51935100303018,143.34463233606243,143.3704327843738,143.58058088742433,143.34190152930856,143.55800681757248,143.56771472392637,143.3912877340466,143.17269152956445,143.26539034735757,143.18091853889652,143.2029905541321,143.11603181887716,143.5182982967623,143.2857252288483,143.018048612966,143.28484037468934,143.38162327718223,143.15381965707286,143.5047388818541,143.45038724024232,143.46783827245577,143.55601356036675,143.06214862125674,143.62517305029996,143.29978512777222,143.0695119617225,143.20491457093493,143.2482244999808,143.1409917671836,142.82910715649584,143.28013367135284,143.26872957908898,143.59889200938713,143.11580882352942,143.01594219520587,143.29374064550794,142.94871402912065,142.78746947496947,143.0676415419362,143.17281203238306,143.3102573953131,143.24305528873862,143.31896783098807,143.00195319980085,143.08168269414966,143.19051641389902,142.79432922629525,142.95287978204982,142.7881631871289,142.5785332314744,142.70371503998163,142.72755441643395,142.96228365752796,142.55537310012983,142.727088510801,142.56622086358425,142.7395331037122,142.66507177033492,142.55146581049573,142.54561772006875,142.72480961310322,142.67244347526685,142.69717851537078,142.45364793779066,143.04308390022675,142.58846462561633,142.52079593629455,142.81229649492434,142.69651096282175,142.53300500133622,142.9381680266636,142.88564206656199,142.6522353840275,142.7013612725604,142.37482389673684,142.6978288243599,142.436923546002,142.6400412560165,142.06596035543404,142.43439223891954,142.7940446650124,142.4403767684857,142.42520765068963,142.49155836731583,142.51686935305554,142.82146136189746,142.76357937387715,142.95247752056628,142.75447912289414,143.01535810034468,142.55141324609122,142.57168404231032,142.82701938147483,142.46707293848792,142.82013700202825,142.68753578927277,142.61134173744145,142.77464304802626,142.41666032712058,142.59971054235223,142.31242873432154,142.5707538186112,142.48613172012327,142.43998476770753,142.580868038325,142.53702857142858,142.52748341846458,142.60355863750667,142.64726105890443,142.93545917390804,142.55648997298223,142.62885967594008,142.64630470449083,142.2584401790456,142.71014492753622,142.29200850805228,142.81995884773661,142.81209437275712,142.32386773471015,142.70603283696067,142.57851522408484,142.57366556177848,142.2021260440395,142.38675547098,142.67158319993902,142.35875394621735,142.38101761997183,142.58509013137794,142.51304514154552,142.10223945857572,142.54363469340888,142.5054898810207,142.26534419738044,142.77787559808613,142.59398697816928,142.50778708912102,142.6432598274209,142.12370034657425,142.57644856957336,142.341641893437,142.26878932316492,142.56810961840242,142.55268998239842,142.7577485268233,142.63874325513757,142.59199233716475,142.72749597114574,142.6778691043171,142.72638536622858,141.94423267515438,142.47601150527325,142.583969905186,142.39772596761227,142.23100106821303,142.2784153734701,142.14314593027692,142.54614824188045,142.2130346853894,142.4385897828082,142.45950387952453,142.81088033170806,142.48091778202678,141.86667172560328,142.6898960052189,142.74749183163559,142.63001263931977,142.7326440742868,142.31239019173478,142.60104776107988,142.48247391154771,142.4189850198716,142.2310831426392,142.33954838956177,142.39275063087865,142.40194730813286,142.5736149372513,142.41995794303193,142.62632688254456,142.2279577276716,142.34444613976197,142.59288144664907,142.93596646411814,142.45522958209185,142.47942119731215,142.8707451701932,142.41148052343274,142.46091161798864,142.67434386716658,142.65948407838334,142.31545187278073,143.0540956484937,142.46259075277035,142.37475631665455,142.46753494767398,142.4874223483396,142.61855709581067,142.10946373442084,142.07998321763674,142.63098343050015,142.0559405940594,142.24157003356729,142.49730019530503,142.43603672532518,142.25058261700096,142.39079229122055,142.16820399451134,142.35774809160304,142.2420166145873,142.35630162129092,142.72028535266367,142.32482421277896,142.61313672922253,142.37362973148467,142.35280186408954,142.4504907014931,142.30958653075248,142.63241379310344,142.34283091750487,142.3964659986231,142.19789521848548,142.12656488549618,142.29736137667305,142.07726631326037,142.27074871637674,142.12471794087276,141.88323924321026,141.98814803486772,142.1391384121402,142.02216701700746,142.38748606787348,142.4247801205976,142.4984047664809,142.22579410639113,142.28370506629878,142.27277965580822,142.2091600718737,142.43745919582165,142.58898272552784,142.20330887971878,142.4763148795574,142.43782223932283,142.12745435756113,142.10361482730863,142.3226413644745,142.44816439621334,142.1078015809371,141.90344091757802,142.35870734706424,142.4036947420978,142.4720919504882,142.0736620795107,142.3929270070193,142.4038174083017,142.34787274817938,142.07552420892108,142.22689396835105,142.3599295531988,142.05591365040618,142.19283145895494,141.9109782111839,141.97506481622693,142.09937698276192,142.22683375488617,142.36539272434547,142.44897880835381,142.35273828229793,142.24684705342813,142.24196193600062,142.57487718759594,142.05870453070727,142.24117602021283,142.51090713572472,141.98635581884196,141.8942773266232,142.50239436080145,142.22708142026323,142.23711930386995,142.30162430728072,142.6455715658021,142.4352121304947,142.20868866878274,142.37863928899785,142.02490479817212,142.3045224977043,142.01658134026133,142.17013304786664,142.15690096701448,142.41419483406148,142.34878114117333,142.0716521606352,142.15537101526922,141.95050674388477,142.50294680443935,142.4787189211968,142.38468023144424,142.5424974168612,142.06542198514003,142.52248909967108,142.22430298638392,142.06486177311726,142.50590573754826,142.46225226257303,142.5379700830177,142.34262857142858,142.94666973603438,142.89571116476947,142.89302022178734,142.64065904659964,142.49560666259168,142.43454017720745,142.72200683275113,142.67982977418242,142.3917285178667,142.57401511373664,142.29802842732693,142.34790751003248,142.299552392976,142.38233718527587,142.244841920598,142.33757937418713,142.58225324027916,142.39176520108674,143.06368667845337,143.01399700885838,142.9695834925487,142.614328221561,142.44372904602255,142.59694714749094,142.54528070980572,142.78421173410848,142.36209988172905,142.59394587983488,142.52329982032953,142.69138490926457,142.79367146797426,142.62817030718028,142.8798555346371,142.71448869091049,142.25072463768117,142.6286818147043,142.28848720588798,142.38480607146943,142.2912,142.5247709923664,142.42532108693166,142.49001565423237,142.8658269651703,142.52730401529638,142.60250965989516,142.61942437793832,142.73298791019,143.00015364523315,142.74095669185624,142.5974145184732,142.61141522796004,142.90046536671667,142.85212810950057,142.57636203529998,142.659554091327,142.42645146485123,142.81565617805066,142.7434215573456,142.70042517332516,142.61100489446315,142.5275993883792,142.79603269002033,142.90332859830306,142.9583749711738,142.60308983406446,142.97418785717025,142.72635652973636,142.72479240806643,142.8282542113323,142.50476771683577,142.9173791358356,142.78621455088216,142.96579523206265,143.018344398818,142.7967781434147,142.70288028115212,142.70455936352508,142.91564322996624,142.66638562066456,142.52732407266066,143.02302202440333,142.50803956765841,142.6073462523411,142.60054275121354,142.53680513133781,143.20558843877316,142.5637049455155,142.8661586183127,142.73272171253822,142.77321640562172,142.7391354158711,142.42079622440434,142.7746608064208,142.78124521951966,142.56642903434866,142.6679747028345,142.68796031291737,142.80095693779904,142.63818327667215,142.9794620277416,142.7035606379317,142.5621059870859,142.59620388795346,143.05192758580927,142.57378432274888,142.76852383687535,142.8708301306687,142.6139342377558,142.42110906862746,142.52164435946463,142.33222426189383,142.69436760411864,142.5868449279804,142.36678240299133,142.5098753595398,142.55768788784187,142.35931711415805,142.2966885897828,142.69585553808994,142.62476511868695,142.73288379755564,142.74433123946682,142.74366531424636,143.10420271465375,142.79763000460193,142.45120415251327,142.40129140717534,142.74640156603846,142.5277533376688,142.84181398923906,142.81312356101304,142.5126182361276,142.72459369116686,142.23400679830425,142.62741861179362,142.63237153695826,142.16113906678865,142.94613195939712,142.51825208540598,142.68080202811709,142.91989713671606,142.141872071317,142.48675231596204,142.56404580152673,142.2515959872321,142.55340324118208,142.4246397804376,142.6116064624295,142.80514818209593,142.97425204682838,142.51675424567816,142.78552872860635,142.3512146903395,142.72611123861984,142.32392284664064,142.39326912095024,142.76651999234744,142.37145137384562,142.2325112278298,141.95284127525684,142.56259541984733,142.29983971912685,142.46326171725667,142.12624748605472,142.58235898998362,142.47851733455113,142.48921904761906,142.3942611409217,142.63236530378296,142.44555021734158,142.35789914686168,142.3474669813116,142.71923326587498,142.59453372523572,142.4707854041289,142.4840861444635,142.86944550669216,142.5295842217484,142.95965583173995,142.74612447499047,142.2251169512798,142.52208544532948,142.32215505113874,142.2350901261385,142.35955184634733,142.37980438603194,142.56753450319226,142.23455991476084,142.15504230505374,142.35386666666668,142.18104565200824,142.243107195973,142.3309193474615,142.33985077482302,142.28383896203016,142.05005324813632,142.50879742962056,142.20568752855186,142.1855717398784,142.2731819049437,142.51767048282727,142.48601879440753,142.33671484687846,142.26356589147287,142.2055818209547,141.92876701909182,142.523530538005,142.20885279652293,142.34257168012863,142.2316597890876,141.92278712230762,142.26405029529434,142.17169523809523,141.97015778641665,142.12929654751923,142.28430736343856,141.87306102324877,142.42656434925362,142.22197266740264,142.28889312249953,142.28229281873308,142.35264925942892,142.1096577946768,142.34776301725455,141.8770031138452,142.3405750066817,142.315837621498,142.41521049210417,142.15743217424532,142.20607707320806,141.97284204905213,141.8795359452263,142.19807501336797,141.68761861383132,141.87783528695388,141.97853848206458,141.88035067657708,141.66337877980044,141.4819240544744,141.90680512761992,142.3614720269031,142.10413808870598,141.8141895745409,142.33449290875032,142.04135538954108,142.36881954800964,142.5469108426365,142.27675811806006,142.1881252386407,142.22741326004808,142.0554093734508,141.6320926699582,142.10407032295052,141.71205204291257,142.01177008341904,142.14892234790585,141.71915751055013,141.68697702723262,141.9042845162766,141.61038369577594,141.97768453175664,141.96978126667176,141.80295867012353,142.2300864641518,141.84620665980088,141.84736281299948,141.80772306637724,142.17895301190978,141.98509965321443,142.12291164888939,142.412647948826,142.00729174620142,142.07299687428528,141.8828056539795,142.1493625467593,142.09810368557885,141.79199512548078,141.64216545939763,141.98959886811213,141.75766473459427,141.3640539001708,141.51401940270117,141.86261115139487,141.55230856925706,141.350377996429,141.13500927573543,141.68636502365328,141.8871812516726,141.5999162765917,141.45578775075177,141.42470749126272,141.70735148326088,141.7226291294728,141.54669911773655,141.71604749723187,141.87323297929242,141.8320427236315,142.30567819710524,141.61006624533618,141.66790832034664,141.63158495302574,141.78734100083784,141.50057112397198,141.43383840311438,141.61114709131778,141.54756460096044,141.42799696509863,141.32093747625922,141.27827409237787,141.66024638620848,141.59071150766414,141.58079001446077,141.68080561489168,141.56152731156547,141.74602689486554,141.69184163395954,141.77594671741198,142.0105359596885,141.77560585276635,141.70142829937154,141.23970448948666,141.41911065464643,141.23227838494233,141.1682856492373,141.2905634500362,141.5055659691672,141.21116782204618,141.23757474197356,141.047226443769,141.31141221374045,141.48250305623472,141.4213318069071,141.38053975646065,141.23938840712003,141.37843077624876,141.43343251697567,141.3487920128039,141.03081062644483,141.28869194781484,140.95048341232228,141.20621887710496,141.52124494622015,141.34525530781522,141.4042050735126,141.7937769962922,141.62705542021925,141.47121713655216,141.57302126684738,141.56510128562164,141.3343862987631,141.39123475609756,141.22056807797745,141.34081399771776,141.15887566087255,141.28179361272888,140.9936615174403,141.19647278406276,141.35283133907475,141.28083419116246,141.13665234092724,141.34082339947443,141.2057860677579,141.18157944814462,141.74478330658107,141.73284341868566,141.4400197967031,141.56603701437749,141.35323724548158,141.60894622342659,141.56251672336685,141.42740551466383,141.7376804950722,141.40199209245742,141.6870153187913,141.59464510469508,141.4495251897334,141.43202532128285,141.3738510240665,141.43766010323074,141.63360006125808,141.560737651605,141.5815448180879,141.53553668426287,141.27935114503816,141.34149322130992,141.3872234935164,141.34781946875714,141.4740958339692,141.65381244522348,141.6593519825974,141.67888120438653,141.96456919360404,141.55830375205161,141.82156547071452,141.85754670130268,141.7088858405731,141.69178865507777,141.68737856680255,141.40764549258273,141.73087051101018,141.6629397847821,141.66585104756078,141.53197408536585,141.31608626076354,141.44545731939888,141.26651982378854,141.7037391038385,141.67850460151985,141.36142058633408,141.7732422843627,141.33211941883843,141.6982561681389,141.36372262496678,141.60489923425655,141.40149701736388,141.64558359021197,141.48687913592454,141.68360400106494,141.83626733729614,141.88764900788362,141.51063910631507,141.61584505699798,141.4555606198724,141.4669177795533,141.71324850013374,141.8300118578587,141.71400191021968,141.75843769089798,141.58686036757416,141.80937069361508,141.4981504785875,141.89592829509326,141.30775358470527,141.71469993514174,141.70789343293822,141.8912272675283,141.65665024630542,142.04373621358485,142.04039712427252,142.2665266373878,142.04869956525056,141.9241736876215,141.8040095864876,142.58212726855044,141.78352003037782,141.77047807551767,141.9588386060212,141.97826502889066,141.8494943713032,141.77691661576054,141.332005312085,141.87708086181163,141.8307598226571,141.4616908599078,141.1884476534296,141.7380706386561,141.83203125,141.60135986859697,141.69381443298968,141.8654420206659,141.80710018382354,141.919010984805,141.57809346079142,141.9151640442556,141.99062595653504,141.89182572772827,141.8809996942831,141.9163956380333,141.65065668906536,141.85624115374316,141.62647844334222,141.72992952351768,141.75354291607778,141.6576232327092,141.64568160152527,141.6477793040293,141.6730123607508,141.79038351459644,141.74241096933918,141.95164565692173,141.92746807371722,142.05455869948622,141.9862215963156,142.02807898641709,142.54989652793745,142.03573197211534,142.2414820473644,142.30313348892375,141.81256405390016,142.00095158343484,142.00380604399786,141.96098100541613,142.42827586206897,142.21556954779624,142.11249334246367,141.96050228310503,142.33410947400566,142.302660203809,142.0934149494335,142.587907047852,142.72015894849457,143.06100643382354,142.54211367267746,142.7771660166705,142.14812281501747,142.31601995354328,142.7338228545204,142.2987691017873,142.36328988489976,142.5450589717165,142.35867119264657,142.1933275002853,142.2752090412737,142.08572081682414,141.87328429513914,142.62875421391357,142.1078808173827,142.1364745349192,142.56538240368027,142.1584437338206,142.2337756424922,142.00239325330497,142.55128205128204,141.92427921092565,142.13436869551978,142.2798306829882,141.9284818067754,141.85822514942703,141.97122192615151,142.08201159066647,142.27845971473366,142.0440143533364,141.92203299627462,141.94271249666934,141.95250971132606,142.0804755897083,142.26130845409705,142.20745555343146,141.91558813423433,141.54894506747766,141.99013686061625,141.98556370302475,142.0989338530322,141.7439939082429,141.90028283137136,141.65929793802644,141.68682785447334,141.8975052370977,142.06319859133365,141.75736667556131,141.9121688678525,142.0757181156645,142.3844117985501,141.96255540272045,141.90452951044685,142.15472998851016,141.87708794142324,141.79833854126971,141.72478182996076,142.0604473332059,141.54424846042727,141.88695319961795,141.63408978598852,142.0655125076266,142.1810674415048,142.1155346489215,141.91054520464263,142.24940608475745,141.87382448124882,142.27314054322497,141.86990756590208,141.77758358662615,142.22189948404358,142.04454105174847,142.21307099824602,142.13675735490517,142.54649203431373,141.58450570702666,141.66817095832226,141.85068994434704,141.9679636488602,141.66505519604112,141.79920583406513,141.6982558802295,141.9532192774765,141.6865603471244,142.1027350034475,141.5171941048783,141.75864698928422,141.46171967020024,141.8750190868835,141.6211539192941,142.07993431102963,141.72774968634758,141.9933577645442,141.69331251428136,141.87062004875077,141.93345790115924,141.88171879166507,142.13149567272865,142.6180449403852,142.5517595978062,142.39550501774335,142.24642150144663,142.03242729519104,142.05498648185522,141.79341260494624,141.75592975520755,141.76534694966276,142.32841611924243,141.53980250664642,141.80513877753597,142.14280227377478,141.64959445565668,142.01839528835856,141.82696629213484,141.77237072576347,141.8111471654896,141.806535151192,141.8595258999122,141.70426341834792,141.76079239665637,142.02538187665098,142.06574315016073,141.77717267118592,141.7495051766139,142.02959257703617,142.24963632187428,141.9606514955476,142.22262495230828,141.9189744370055,142.50223752151464,142.323595505618,142.71152225542022,142.36578216012487,142.41671725603277,142.51693079466423,142.65780680437425,142.63247571341833,143.12788876580464,143.10731688746765,142.9744748737038,143.01213178147628,143.07209567198177,142.74713772907614,143.4298706240487,143.07663693300435,143.05346354067714,143.10894734844172,143.24423032980425,143.0968612251102,142.7604849403296,142.8247618324667,142.3785776399864,142.50344436033308,142.79021854606162,142.6988120991309,142.72281579146775,142.7699464550184,142.51697127937337,142.46189900211672,142.72930165586754,142.77866929074256,142.6953254795348,142.9817803030303,143.37783183822413,143.32613726903668,143.53334092807776,143.43766346992155,143.29891674873116,143.29378124526588,143.19770697744815,143.55272134627046,143.4813596491228,143.56312663160682,144.11725108389746,144.18223856271084,144.99779140169832,145.6336838080673,146.39099189116482,146.6163808055502,146.92062142525893,146.7148524766967,146.98267460747158,146.82323427248167,146.59946929200476,146.28953622077424,146.39544688026982,146.02045663499848,145.90664932282502,145.92038924220367,145.84048493192597,146.04706737019194,145.9179730921078,145.71895574950238,145.40134494880024,145.0064900358861,145.01497109162614,144.74636627906978,144.4873316594385,144.4251143292683,144.15474558196223,144.35762627614423,143.97132439515363,143.9056868621723,143.65315879339784,143.881214522458,143.75692776824852,143.38402306262566,143.3013419013419,143.71438335358445,143.6734872067421,143.11938775510205,143.2867087889221,143.15863059250302,143.53006961086385,143.531611381619,143.39691034692174,143.33022955305563,143.0342010260308,143.0951046832999,143.28131776163121,143.2005629302803,143.30582690334106,143.2792379942433,143.63551579748764,143.3377264613164,143.43904946875358,143.1048595292331,142.785105173394,143.1224505327245,142.4698868153083,142.72164009111617,143.04484612744537,142.44641840337093,142.776004570558,143.10097421203437,142.66327928750857,142.62454365682993,142.4919918020343,142.6555652936021,142.2854603894876,142.24385168369278,142.16447517569713,142.30370735032378,142.3672395517868,142.3698137492429,142.66665399094953,142.4749365362028,142.65437963138893,142.51270172773874,142.51172067930548,142.07601940275882,141.87627966937134,141.86949912594056,141.5220190086713,141.75859454952052,141.91532824543418,141.80866562962402,141.65162584699246,142.07499619308663,142.18320407542578,142.01934382704343,142.40814851447485,142.58483383455786,142.26241835029623,142.4649683954002,142.30551546000152,142.47241405479244,142.20975813177648,142.11590357792602,142.00903455054055,142.22733998558257,141.95853510895884,142.1601531405178,141.86606163736056,142.2474969660194,142.25750502865384,142.12959945431808,141.92750936400438,142.1159359830097,141.92618363333838,142.18757353778417,142.13901311301447,141.99795485532496,142.29663817663817,142.2998329409978,142.58329844326875,142.30633976277994,142.25497630331753,142.66646353075603,142.34623557984213,142.47697568389057,142.14684232380807,142.32071819010022,142.4328958349139,142.13330055967327,142.35750901841655,142.67108975825516,141.92143289453776,142.28687652068126,142.26286170576827,142.2553628480146,142.16015818091944,142.32908066113185,142.1680404147833,142.33409558655384,141.9366613600182,142.19715253721117,142.46610396058512,141.8150210203386,142.59357962560526,142.47,142.19710717132986,142.281425535145,142.9084692669137,142.47004801463302,142.52649650909925,142.44719075409085,142.10972322411632,142.1173366738792,142.3240948718925,142.20560783267933,142.21313974315004,141.9252829901998,142.23491857175625,142.05991011578305,142.01306119340467,142.20507827415045,142.0322568345598,141.80092504833758,142.21509433962265,142.09832763207905,141.76208516441886,142.20221385370306,141.97173574440603,142.33752764432242,142.2335450017111,142.16311357256657,142.2942272588987,142.09432098765433,142.21838993041032,142.1486024608841,142.46118338229124,142.43838754008246,142.23318847209515,141.78201872417844,141.92873414837877,141.96662358397325,142.09117199391173,141.88826433725788,141.7354995444883,141.54161137440758,141.81142704883712,141.2917783904226,141.48729151627978,141.45385170279812,141.4091927825261,141.09178616019068,141.6154813149975,141.2279977268422,141.72646610814928,142.38515968636452,141.6127992109556,141.37833124834148,141.3982883974553,141.5560036524121,141.28453498939714,141.42017253828905,141.0625496350641,141.31597736508297,141.4081508515815,141.1637748143658,141.40296290654277,141.20413358155085,141.15264679038637,141.2127052919708,141.21434794136584,141.2673312360232,140.8738095238095,141.23801213960547,141.27926078028747,141.53755859598309,141.17777102484237,141.43451475509582,141.37635022059942,141.41978976234003,141.34875850792807,141.4131278538813,141.19543812963315,141.23384767406506,141.0773465978129,141.11844106463877,141.05520959902793,141.01678821027045,140.911785945042,141.06397742870215,140.96560906946664,141.05672813166717,140.8502127336271,141.0930223681197,140.89626350139307,140.89077521745764,140.84998286171307,140.95288098056437,141.09008422664624,140.78434663208483,140.96294036907122,140.69044721630667,141.1437898514757,140.87753468516541,140.86242198203684,141.08068021504556,141.08130670122742,140.92057871692367,141.24104271933854,141.17543658527265,140.88532389434422,141.08063472734884,140.81319349445204,140.92611343738105,140.82318024428295,141.09198643447777,141.20905763952425,140.86101295641933,141.03491423572814,141.1037934064255,141.43030094714328,141.26729271644527,141.1529931791335,141.17955064737242,140.88739183239716,141.20771049420378,141.02279299847794,141.0731632925388,140.90912901013488,140.70072215887495,140.92449523809523,140.8302825459517,140.5538619042202,140.7027324896439,140.7047206714519,140.96736854129384,140.8163226517657,140.66707141230933,140.82585741957539,140.9471228615863,141.06241921994982,141.02081272353703,141.12479530827525,141.0989395263978,141.21447598751809,140.96283246192317,141.48433927754917,141.323674992385,141.07411209977946,141.26485847257192,140.86800045556356,140.64570755970686,140.94044089699733,140.9504336579428,141.0505361624458,140.9295576966846,141.18977155714884,140.9589655828104,140.70385257090854,141.0988575780655,140.89992775940078,140.75052172263327,141.1976539813541,140.9000532440861,140.6856481657119,140.76579177270483,141.1955341439168,141.37467432950191,141.04011711917255,141.1632271600229,141.19362212824322,141.1816758325695,141.1217195605737,141.38483608125168,141.0709444021325,141.38241598407717,141.042071197411,141.3741392501913,140.88921882137961,141.02830691862238,140.78767253507738,141.11372399312845,141.0819090492904,141.10299066850237,141.17757508682212,140.62983110164333,141.0279176201373,141.39579992363497,141.50301710968532,141.1354214296601,141.4696639522881,141.1261556020544,141.25090507221523,141.22935255090368,141.31245464614443,141.14285714285714,140.9045413122722,140.9080027359781,141.0794401433965,140.5459230069718,140.79635673624287,141.06707270650932,141.0205687780397,141.2916873686222,140.8363035300376,141.02552266137647,141.18351803191285,141.11906120430598,140.86756653992396,141.14165364235885,141.42656405544068,140.9393732193732,141.0455098934551,141.16276051606994,141.09763347433406,141.18071000038213,140.68341174685082,140.8158815919641,140.73269098941276,140.5035862016622,140.84640909264274,140.59345244869314,140.75638536789617,140.99530462666056,140.66232678544236,140.64459890610757,140.9338086704541,140.8193472306756,140.62700011402075,140.88164711260094,140.94350906597592,141.00624833314285,141.26249235941322,141.0882386558464,141.15919018498118,141.52847944526994,141.38886776670975,141.0773470163436,141.17589774802192,141.05693963713819,141.1389407862127,140.42294585384323,140.4067243472981,140.7325510515087,140.5052591608126,140.92935755360068,140.44906161137442,140.59793971186377,140.90238884443937,140.885015034446,140.5348150391882,140.79394883880042,140.72894106918955,140.9479891945364,140.52424793513677,140.5793503392336,140.90707055331455,140.98089026204372,141.25245022970904,141.0887382412309,141.15503017340157,141.08251391112128,141.3148041805444,140.9501562380916,140.98990439770554,140.56778758368839,141.08009782940997,140.56786271450858,140.8592244148692,140.86674059345364,140.72127894997902,140.7255074347311,140.6630397434429,140.524049473202,140.98237345288732,140.30363802420277,140.31539719359623,140.8477413437285,140.39228161072802,140.6513263511964,140.37393154275728,140.92271859488355,140.88328882106066,140.70785360274496,140.92157761981196,140.79313111246944,140.747548739079,140.3684391211474,140.48513224277633,140.53553357865687,139.99760091393756,140.12380515408734,139.6557414362126,139.76816279954355,139.85717004834595,139.66042617960426,139.66482616808196,139.58060716592576,139.69275063875224,139.52686697894055,139.70372775189063,139.36163593595873,139.20079620853082,139.33574557227195,139.4232558139535,139.05720145852325,139.47183984747377,139.52819376528117,139.2310239817282,139.32073890687488,139.4650009536525,139.85030191852022,139.5421709674964,139.4935938866289,139.47859095050106,139.98445199984718,140.1967294540175,139.87026122666262,139.99525328472697,140.45024040296116,139.9776193005083,140.42591744869154,140.56088984022628,140.92281467861795,140.76536142279215,140.43827769347496,140.56635053110773,140.4734738925255,140.63134447702092,140.62028445390933,140.46968143676196,140.65735731159035,140.8318438741216,140.77835169880623,141.02629161882894,141.2635445362718,140.74874410108083,140.85169896418606,141.02136703044226,140.67051252760643,140.37272623704098,140.9261950286807,140.69319611206404,140.96265544289267,140.70737388780694,140.52444630171334,140.5360636394778,140.83055906325336,140.97438944906645,141.25041287398702,140.99992344204563,140.64651819083213,140.4614887715165,140.42562502378325,140.8771493126029,140.72768318347045,140.61869759963247,140.38987061562537,140.58658298572576,140.3025004771903,140.66845452455752,140.78776106773338,140.39091152712376,140.47404884023578,140.6231123035646,140.6214359722169,140.48543355253096,140.3909417795119,140.44278397798502,140.42567438301128,140.38964213420923,140.50277873596258,140.66751142341514,140.13705486779764,140.656050955414,140.45218490291447,140.4799265184278,140.13336131567902,140.52907959434543,140.2047412967715,140.21819016995866,140.37005519779208,140.3775169715798,140.59509249644245,140.17194795254497,140.31360539009265,139.86880989652934,140.16851008458036,139.6134703196347,140.05729903291157,139.9304102054847,140.33371625502585,139.70754465475872,140.11379376315287,140.07532229065453,140.25309612361488,140.02500191146112,140.2213743385229,139.8952831628759,140.0379441186616,139.69722806346778,139.75523994960486,139.74587155963303,140.06392536281962,139.38481775202075,139.8233604045357,139.7284834105086,139.8703795916804,139.73060912736298,139.96933501780177,139.65925389075375,140.0586678937076,139.96829286972505,139.9397278029812,140.07661429062966,139.90301576422206,140.18965517241378,140.0590813798361,139.6322188449848,139.65780958544292,139.84523764222382,139.6498192197907,139.46366571699906,139.66865033951325,139.93885511070323,140.0855348801593,139.37921732522796,139.87627254356198,139.69313501144165,139.4465724274206,139.52402145384002,140.01728159051805,139.81729853305393,139.5804794520548,139.52572078907434,139.59673615337798,139.68858631574943,139.99476959492995,139.85835143477763,139.9817273212787,139.4920749279539,139.71587235175537,139.56287220726017,