-0.00017848467703442317,0.003388162874584894,0.006146462352416147,0.007503109571545069,0.00724556087338539,0.005600684662476048,0.003160493162843,0.0006887125374880863,-0.0011314909304179863,-0.0019191735768032143,-0.0017000760422173347,-0.0008478068711919315,0.0001140964816282097,0.0007551494778441346,0.0009056481052889306,0.0006706919773165013,0.0003008453490033654,9.991117516303105e-06,-0.00014681553848085692,-0.0002684824519859179,-0.0004916691991335917,-0.0008486743889001298,-0.0012010386094931883,-0.0013019107254400395,-0.0009538620380139459,-0.00015937986110155407,0.0008412443838252707,0.001678466092058583,0.0020444421521388983,0.0018475280327493356,0.0012376128504377657,0.0004953307573924569,-0.00013741042758596417,-0.000579429184878269,-0.0009182396699447216,-0.0013131287786103162,-0.001863531625858192,-0.0025249842497249266,-0.0031184806997098255,-0.0034215556929610004,-0.0032845316030682154,-0.0027056085964811396,-0.0018264744781674204,-0.0008579964503112221,1.59357365339622e-05,0.0007021580367364468,0.0012024259759091274,0.00157014488948258,0.0018564426427659826,0.0020798689456821362,0.002231498863579815,0.0023024666972516357,0.002308687137242962,0.0022925588257974383,0.0022989723140122253,0.0023418073704348243,0.002385097023484237,0.0023541974964471856,0.0021721604114918374,0.001799293869303836,0.001251972054989957,0.0005908219026782091,-0.00011230705412825556,-0.0008075249728441581,-0.0014808505561375823,-0.0021417492320221663,-0.0027926213469997357,-0.0033996441943150036,-0.0038847744541245415,-0.004147106337718884,-0.004104158303021537,-0.0037309859100494065,-0.003075606467767591,-0.002242549718176074,-0.0013538062032028766,-0.0005075928098007586,0.0002454597552279151,0.0008999360190546909,0.0014721886876492803,0.001970998123759867,0.0023800376280267016,0.0026634021461469847,0.002791262345071175,0.002767512886606391,0.002636744545509645,0.0024612384561139462,0.0022825558820364555,0.0020971530969372456,0.001866432881717141,0.00155402385702841,0.0011597863199092609,0.0007217981395560267,0.0002838767096330789,-0.0001445856453004593,-0.0006014559635987287,-0.0011417441098081694,-0.001781569237358559,-0.0024556446432226734,-0.0030233878540644812,-0.0033286847916107346,-0.0032811817570372126,-0.002908423512642961,-0.002343422192648428,-0.0017530002108736382,-0.0012503774943096867,-0.0008441614125192451,-0.00045099326897206707,3.922904149352303e-05,0.0006829739719391055,0.0014285206307356434,0.0021147082424569524,0.0025292964574561783,0.0025086149983692173,0.002036145886296387,0.0012859393566360617,0.0005726026830007652,0.00021593931618254554,0.0003834516599049106,0.0009994951118248393,0.0017794047984807091,0.0023729592606304972,0.002533240226842235,0.0022134703654361236,0.0015447816590008886,0.0007245310389428039,-0.00010479916635838869,-0.0009109724060250654,-0.0017371724531130622,-0.0026127392375092243,-0.003476998117453335,-0.004169883126675758,-0.004496194753080599,-0.004322930221457259,-0.0036511462229342163,-0.002623121783648555,-0.0014651844590293228,-0.00039967397424834776,0.0004308606510874444,0.000996991767174784,0.001365972450981721,0.001649056055581524,0.0019385485511928206,0.002262699005143156,0.002577944325927413,0.0028003837358814626,0.0028581563312316733,0.002734523212809995,0.0024767849665888577,0.0021673930306751153,0.0018775554063214538,0.0016335505160662046,0.0014144250713696155,0.0011755859963280156,0.0008751301218839784,0.0004826158288579449,-2.9822222162793303e-05,-0.0006945716270239942,-0.0015332097988550657,-0.0025180081315560824,-0.003535691572979829,-0.004389248655070483,-0.004855694471664918,-0.004780073174943815,-0.004154755923552638,-0.0031335394813856356,-0.001966266160719556,-0.000888816009862161,-3.11168110220023e-05,0.0006074281111082162,0.0011100359587371785,0.0015613127481940172,0.0019870641537486767,0.0023486750860008372,0.0025857854838123276,0.0026700339459957653,0.002629809682519927,0.002530113753033424,0.002424314236566814,0.0023139496536662826,0.0021470770303293582,0.0018589306910706917,0.0014278427263398172,0.0009055121481265829,0.0003956808043818369,-8.820359988737015e-06,-0.0002890508877033374,-0.000518349802299008,-0.0008205322496457495,-0.0012923857755501177,-0.0019377679645412784,-0.0026520029420148755,-0.0032636552043843535,-0.00360805210174368,-0.003592434612488711,-0.003222058229073237,-0.0025813065195447534,-0.0017879881396655733,-0.0009490389585916671,-0.0001382731429069719,0.000601074671220914,0.00124181352856242,0.0017625111088767822,0.002148568087015284,0.0023990014978277872,0.002528184531319049,0.002558007038494893,0.002506079885545349,0.0023792134188127655,0.0021761229827028244,0.0018960964036195953,0.0015475405425577813,0.0011511750002027163,0.0007344081407581777,0.0003172222627078024,-0.00010313579965378783,-0.0005560293936328304,-0.0010809025247576676,-0.0016946490124443328,-0.0023610428709248516,-0.0029833863615907914,-0.003429753831254655,-0.0035808875149026254,-0.003376932874447424,-0.0028400218684135592,-0.0020640659908822156,-0.0011804956857364487,-0.00031773828606460703,0.0004301536187844815,0.0010183488173450591,0.0014490406558817068,0.001755824186833668,0.0019814008328372726,0.002157271683308752,0.002292618547804537,0.0023748438476388547,0.0023794474337866284,0.0022845368843635644,0.0020845894282736826,0.0017976684410414068,0.0014612824585953036,0.0011167941893267578,0.0007895260183399873,0.0004757764992870823,0.00014443898232886958,-0.00024774010157576113,-0.0007348892600903214,-0.0013229223351143393,-0.0019778234059361255,-0.002624522723991702,-0.0031590657355198577,-0.0034742087621849205,-0.0034923560261043503,-0.003193539459587055,-0.0026254559753748847,-0.0018892709507532788,-0.001105686637949318,-0.0003751385360605572,0.0002505994801176485,0.0007727878025983934,0.0012251412808448974,0.001640804514078735,0.0020263386249576966,0.0023568008945286673,0.002591184833464965,0.0026945616474160355,0.0026522986306434567,0.00247154742685278,0.0021752379191446753,0.0017958296053840641,0.0013711628740029206,0.000939499609339202,0.0005303374209220187,0.00015235119639253877,-0.0002141090904325784,-0.0006112574245119265,-0.0010827157861199364,-0.0016452957135327294,-0.002268183087692826,-0.002870840306725223,-0.003341130173969667,-0.0035659769797574885,-0.003463563291124401,-0.003007879617451646,-0.002239321705963459,-0.00125759110777454,-0.0001977897116850119,0.0008023306415360941,0.0016315158949765595,0.0022211495625225467,0.002547599052465417,0.002626768370582921,0.002506526272828275,0.002257093436459844,0.0019558255847912684,0.0016666481817751652,0.001422846948422366,0.0012249829322481098,0.0010567690450688058,0.0009068107916632927,0.0007774239339071623,0.0006712542950431748,0.0005653200621263729,0.0003951602392326058,6.849050774552254e-05,-0.0004905418996491254,-0.0012875099084879273,-0.0022266852475798455,-0.003126683195911491,-0.00378117048236789,-0.0040364027138591425,-0.003847275813818998,-0.00328613225237602,-0.002504033640971703,-0.001666221792435088,-0.000891651430172708,-0.00022085001002191437,0.00037735969422413246,0.0009662072970727195,0.001588994024771649,0.0022318864774215803,0.0028209426564144136,0.003253031583423003,0.0034410368153175016,0.0033488355780973153,0.003002662308856343,0.0024806239171625663,0.0018890613751961988,0.0013330162152427516,0.0008870150830732572,0.0005756642069465775,0.00037446218158666215,0.00023208394796320748,9.99318904085925e-05,-5.2631147381811865e-05,-0.0002479514245153306,-0.0005222900076170605,-0.0009329206636474504,-0.001530669225112012,-0.0023072416694023836,-0.0031545864591602845,-0.0038758890298192677,-0.0042573234408943735,-0.004165812876701501,-0.0036142975234985456,-0.0027529409029133037,-0.001791683422435656,-0.0009025298274555659,-0.0001587405394780372,0.0004608088526969912,0.0010170974922433106,0.0015488176734604474,0.0020420952791375337,0.0024449786313342926,0.0027096189090908204,0.0028299012362508714,0.0028485815798273096,0.0028294941700406084,0.0028132950455273015,0.0027860770824032115,0.002682815024337222,0.0024261442551621708,0.001978157834206095,0.0013729989724002244,0.0007079493180788569,9.518362259997384e-05,-0.000399138520019427,-0.0007922233701428512,-0.0011740938971015337,-0.0016519967472270736,-0.0022794890614554328,-0.003010207740099566,-0.003703268250220582,-0.004178345748864968,-0.004290999522698036,-0.003988983860375012,-0.003323652231848823,-0.0024181827614903743,-0.0014176259556957485,-0.00044911871568777345,0.0003956731461849987,0.0010634137058619427,0.0015405708081844146,0.0018565606144644688,0.002078445389784362,0.002286077404680967,0.0025311183320360967,0.0028016739477697617,0.0030188075979514536,0.0030741298535552335,0.002889709230808752,0.0024643298785513358,0.001877805490001999,0.0012520826619887913,0.0006940163513167008,0.0002521503860737689,-9.355806488848272e-05,-0.0004116224460629066,-0.0007847912961898006,-0.0012770590734681594,-0.00190784462545705,-0.0026335698892736535,-0.0033409566303354704,-0.003863135421644513,-0.004026214198760777,-0.0037165677869068154,-0.0029394524597526977,-0.001834807641982684,-0.0006337880712167248,0.00042873882924375376,0.0012036591896696148,0.0016728521018391763,0.0019277338575501002,0.0020969529387098434,0.00226746131819324,0.002443285408192996,0.0025597206843690464,0.0025366322383468544,0.0023345795144585086,0.0019810234978127022,0.0015551470295661065,0.0011444033292582775,0.0007998246517596224,0.0005140324437878741,0.00023011307158987828,-0.0001274404283302808,-0.0006165334883342383,-0.0012499786137851444,-0.001982888694335557,-0.002715848267529605,-0.0033140992543585226,-0.003642462062569784,-0.0036097966516503597,-0.003206717775607811,-0.0025155319835246073,-0.0016810903190317208,-0.0008529504583157147,-0.00012810478612492295,0.00047515319721431483,0.0009996738954967453,0.001501132346961577,0.0019989352469942296,0.0024553266486713595,0.002793693149836833,0.0029430106565841467,0.0028799726865649583,0.0026432230700221657,0.0023128847180287947,0.0019701811829093566,0.0016621857392539966,0.0013901493633306215,0.0011226457289737965,0.0008195876687074804,0.00045001875256442305,-4.035534659576267e-06,-0.0005520825774639296,-0.0011958955237501617,-0.001919183058030651,-0.002671133249716023,-0.0033586896959880083,-0.003861429679658964,-0.0040695600335820415,-0.003927907667265106,-0.0034603837416126233,-0.0027588755666212907,-0.0019425754582038264,-0.0011119482105726069,-0.00032246496690700326,0.00041209800735949123,0.001095835904525305,0.001725118492174556,0.0022766674128942106,0.0027133991927325266,0.003001149233907457,0.0031248526190045794,0.0030954062088419396,0.002944758549693019,0.002712516205239611,0.0024304447764596313,0.0021118142199039137,0.0017509055942152105,0.00133370937953732,0.0008543747867633069,0.00032676652636027506,-0.00021836167289124428,-0.0007508990368456222,-0.001262062448363274,-0.001771275711698086,-0.0023089209216363288,-0.0028805484003946377,-0.003433636639511903,-0.0038521553811678992,-0.003991603534961833,-0.0037429793699395534,-0.0030929897837007913,-0.0021450496949148774,-0.0010853433955279326,-0.00010887198315954756,0.0006570557092773969,0.0011931508328061953,0.0015734279516835658,0.0019062149912596196,0.0022648590870019076,0.0026457765510677672,0.002973644660343491,0.003145751342835806,0.0030873204364536026,0.002787916330896704,0.002303703028275467,0.0017300804899421183,0.0011623342329785905,0.0006631283886985666,0.0002475884711216794,-0.00011342085651544931,-0.0004770746707578315,-0.0009049164648971375,-0.0014356939273425437,-0.0020601615553798047,-0.0027079870992836727,-0.003258465676373875,-0.0035781980927634682,-0.0035718775277948653,-0.0032197373089715366,-0.002580541271903798,-0.0017611865272181017,-0.0008753309705054561,-1.585772052891505e-05,0.0007508953598052245,0.001380001668405413,0.0018464736070008046,0.0021503259502156195,0.002318445457901902,0.002393479024886041,0.002412095811189365,0.0023867945248923564,0.0023049927571132268,0.002146293301163023,0.0019046496817214827,0.001598539552024812,0.0012618085325472974,0.0009223619074923646,0.0005838663893020732,0.00022209339473698342,-0.00020278441733760844,-0.0007250691505406961,-0.0013527234756962637,-0.0020535767182113256,-0.0027527043854080526,-0.0033437860636629816,-0.003714614034518773,-0.0037807935874532798,-0.0035145735367348423,-0.002954171796475231,-0.002187143796961034,-0.0013158464423449815,-0.00042419561688526925,0.0004358689399798091,0.0012329572456395777,0.0019316591618730736,0.002476233594432713,0.002799305147151768,0.0028552918666021913,0.002658804392872239,0.002299692122709509,0.0019171488888421327,0.0016406999846944963,0.001529203683305861,0.0015433113789914616,0.0015684490159941574,0.0014762336210842413,0.001190356386870347,0.0007208778282863217,0.00014952592929908838,-0.0004227782684336161,-0.0009331973419170996,-0.0013842160261430011,-0.0018249567415148777,-0.0022991386714599485,-0.0027932969392473073,-0.003219465388048641,-0.003445616053736075,-0.0033576452376987737,-0.0029176706188357646,-0.002186755546737205,-0.001302067822724089,-0.00042319335978316017,0.00032478492501735584,0.0008866125769260442,0.0012787148250022955,0.0015613733837395458,0.0017976712483359519,0.0020203243488144977,0.0022212878108536283,0.002365006594669068,0.0024134768980072397,0.00234776012891962,0.0021762341121918313,0.0019285825920943196,0.0016409281514883683,0.001339954500397731,0.0010326202402157988,0.0007041980750284724,0.0003234673658008724,-0.00014706855559123793,-0.0007361219550081796,-0.0014433053784201975,-0.0022181484959142295,-0.0029514310498485914,-0.003494146074019387,-0.0037075116071226717,-0.0035252365270042434,-0.002993134112594667,-0.002257117722438542,-0.0014990637683437004,-0.0008532173222048244,-0.00035046280792556364,7.728777593579684e-05,0.0005360253674789051,0.0010892063550840964,0.001706730212641508,0.0022744270821996593,0.0026583640217654747,0.0027839034670148555,0.002679158537131944,0.002454584393462366,0.0022321316111267968,0.002071135003241455,0.001940094431664009,0.0017512236034101436,0.0014304147986648986,0.0009712929446594729,0.0004360228113060611,-9.379487785796299e-05,-0.0005766609524436766,-0.0010361541172133376,-0.0015333544346596711,-0.0021069699551839907,-0.002723622700104831,-0.003272789351077796,-0.0036103734258645537,-0.003624106878304261,-0.0032830472585167847,-0.0026466789695566827,-0.0018345880810605652,-0.000977993587252832,-0.00017916236172421223,0.0005047884934128848,0.001052553170944088,0.0014558425501235857,0.0017017034814637132,0.0017752170812470255,0.0016837998246917497,0.0014855143051640542,0.0012938491068900802,0.0012420002510339196,0.0014176721324493102,0.0018055017714173017,0.0022768498162334646,0.0026402397099800417,0.002727123958217166,0.0024647633272571862,0.0018973156729616381,0.001149435094459657,0.00035905139288578834,-0.0003822826546735226,-0.0010538339286531402,-0.0016887368790444342,-0.0023288487596941523,-0.002975412866781219,-0.003560516628968837,-0.003956096502732434,-0.004021275295282028,-0.0036693576281140155,-0.002921510598239143,-0.0019154622884855702,-0.0008585365456561837,5.445887292817308e-05,0.0007161249058820851,0.0011347965169534566,0.001403833449841407,0.001633196568363188,0.0018844860733040962,0.002145147436176148,0.0023512196488942915,0.0024380179051080716,0.0023835127832704515,0.0022181732947070165,0.001999847433420668,0.0017749819153745996,0.0015532508255425683,0.0013096970859580843,0.0010080827309680344,0.0006262576654915352,0.0001666437049170709,-0.00035151295308787675,-0.0009075775754650076,-0.001487552108456446,-0.0020768449975681405,-0.0026433492570151667,-0.003125922891706384,-0.0034413402491767567,-0.00350996823001664,-0.0032865237985362237,-0.0027785485701878124,-0.0020443682549379527,-0.0011756903516048727,-0.0002762886456295245,0.0005557872810313963,0.001242572819983349,0.0017395433459996236,0.002045839063339163,0.0022041766413425246,0.0022846895734432975,0.0023552135936743125,0.002449753941582235,0.002550573226250502,0.002594715626220277,0.0025044114636602467,0.0022279473449330436,0.0017704360439095208,0.0011976776807141884,0.0006098263099741931,9.717188701766273e-05,-0.00030087415700582785,-0.0006145037137363888,-0.0009311175034271427,-0.0013555709399528956,-0.001956783031805864,-0.002720159629357422,-0.0035269243440270498,-0.004176889655686806,-0.0044560574806139525,-0.004225873718200044,-0.0034907820910527933,-0.002404081572119427,-0.001204015724810422,-0.00011337177200075761,0.000742751623596217,0.0013597847240917798,0.0018135325976649497,0.0021896148814818275,0.0025280743604946376,0.0028129030116478323,0.0030035124372246747,0.0030773821843879086,0.003048783989655542,0.0029502698965664822,0.0027951998008181288,0.002556448177062216,0.0021843977719752613,0.0016546995468865453,0.0010086180582036205,0.0003491208690547218,-0.00021392006218519052,-0.0006371989062703169,-0.0009848345287420505,-0.0014011594704463962,-0.0020222059356104828,-0.002874624828627174,-0.003824601857447386,-0.004614073129219338,-0.004971166835849526,-0.004737085782536472,-0.003940654315951382,-0.0027815649987059134,-0.0015352247476842192,-0.0004337788076109535,0.00041472346875549946,0.0010347169177345136,0.0015271335156759292,0.001988797239239548,0.002453117014271973,0.0028796266530376952,0.003189789010782449,0.003321400588670583,0.003266745990108814,0.003072870462018592,0.0028069919326021322,0.0025114457326041503,0.00217870861379628,0.0017644270491886133,0.00123126292773764,0.000593307098575594,-7.367287573303724e-05,-0.0006698120485357785,-0.0011351499846349155,-0.0014948429488170906,-0.0018481500267445408,-0.0023009707354612304,-0.0028828749121893186,-0.003503952057052557,-0.003982513113760871,-0.0041289653547408635,-0.003836846874623759,-0.0031311261568527297,-0.0021526848425997367,-0.0010941527592421858,-0.00012404561280609123,0.0006649911784200319,0.001266213181409948,0.0017316891411666793,0.0021276460522087915,0.0024949253804565676,0.0028303931291260107,0.003093227653863194,0.003228429280761433,0.0031935640319594024,0.002976301301303827,0.002597823604563459,0.0021049069254666652,0.0015564380431038524,0.0010084488327337278,0.0004995625289695238,3.920659847263708e-05,-0.0003969731811674865,-0.0008595754369034991,-0.0014038109913417618,-0.0020578349555657495,-0.0027923308400540255,-0.0035073959000772115,-0.004050203394930704,-0.004264456682638179,-0.00405426845719173,-0.0034316060042086124,-0.002519335388654647,-0.0015035389913518173,-0.0005575517263277123,0.0002227374298950295,0.0008392642498975415,0.0013608723733575042,0.0018630322472272974,0.0023742169908830945,0.0028571796381583,0.003230784144708257,0.003415445535947791,0.0033747830068986814,0.0031312234787161906,0.002749507849069764,0.0023004871495008778,0.0018284799755134856,0.0013421312371496193,0.0008321111067460512,0.0002992725946571889,-0.0002315733253886262,-0.0007262066903561318,-0.0011739958177426316,-0.001610784374554401,-0.0021055440363161055,-0.0027090819665306935,-0.0033935765686418646,-0.004026021883674962,-0.004403581727081551,-0.004341063142345416,-0.0037646575044178476,-0.00275758206381863,-0.001529803119850052,-0.00032842261412037877,0.000661564164658527,0.0013745809204317744,0.0018561765294848275,0.00220368458398466,0.0024959713516115537,0.0027523618378077776,0.0029380450202173883,0.003003257005251989,0.0029249361421647556,0.0027227982570923554,0.0024428425220125744,0.002124682559843508,0.0017786360959802187,0.0013885686599764946,0.0009357481772575627,0.00042349478300873376,-0.00011688473631739664,-0.0006434947259120123,-0.0011318025760582524,-0.001592049295448004,-0.0020602721455711052,-0.002563070392526043,-0.0030751767859255857,-0.0034995966577734275,-0.003692233414085127,-0.00352654000317472,-0.002964587643124312,-0.0020911242062826843,-0.001086557832398057,-0.0001515115532960245,0.0005751395853801527,0.001060352412321242,0.0013636407301387344,0.0015817990344420853,0.0017889141685841525,0.0020052329025097553,0.0022043347173666453,0.00234234013295465,0.002383720220171648,0.0023094190225738686,0.0021120393669183603,0.0017928763939701483,0.0013693450649939138,0.0008860085754246868,0.0004128395057404887,2.0631330898727594e-05,-0.0002579248583685905,-0.0004568397273703238,-0.0006706199789814675,-0.001007393068695914,-0.0015217031193530575,-0.002164490157157826,-0.002783475897061002,-0.0031811305501179294,-0.0032033506523165937,-0.00281110935858186,-0.0020948956951108056,-0.0012252284866613855,-0.00037106913646965797,0.00036438783274567806,0.0009566506163840508,0.0014250744442477112,0.0017852812615021456,0.00202702291056737,0.002130052984193022,0.002097943728434393,0.0019759399877445167,0.0018336164481438345,0.001723111981282063,0.001644427605244231,0.0015446430152662892,0.0013524139269750304,0.0010228959756381536,0.0005611002205595127,8.812213789206793e-06,-0.0005911645320752325,-0.0012213440999491237,-0.0018814594289635886,-0.0025496404066021913,-0.0031454110743773175,-0.0035322102825738637,-0.003571396463936993,-0.0031997971716030203,-0.002479013511909163,-0.0015779591775084533,-0.0006939909073409435,3.9280927031979e-05,0.000600348362181196,0.0010582764148673474,0.001502091772800781,0.001970358940921492,0.0024234352176162235,0.002768841904291566,0.0029174155752916655,0.0028340636185117452,0.0025558721661689213,0.002172100263854354,0.0017809745442630858,0.001447203834798082,0.0011798446307119735,0.0009375798526813218,0.0006553017667872916,0.0002777732525918351,-0.00021513351013969714,-0.0008021930231443024,-0.001434552545092848,-0.002059410352084556,-0.002637331262373987,-0.0031412470173723217,-0.0035394869686827934,-0.0037793724873383125,-0.003789759624485892,-0.0035074912176093643,-0.002914075862129611,-0.002059500615495161,-0.0010565386270376211,-4.597311763704811e-05,0.0008504186953684314,0.0015656788363102604,0.0020951957377208057,0.002474714307250024,0.0027441067640632533,0.0029193697859845845,0.0029886203301517887,0.0029317038820962033,0.0027477228153466376,0.002469815015262639,0.0021550547898004343,0.0018544677732784348,0.0015830471587865837,0.0013116018302923925,0.0009879889334707894,0.0005734854936257666,6.753927309730001e-05,-0.0004972568303956852,-0.001083745947843539,-0.0016761270341770112,-0.0022789759942577945,-0.002888040009294374,-0.0034563838673533492,-0.00388582364860579,-0.004056135767675866,-0.0038771529237252777,-0.003332810610896941,-0.00249259420407273,-0.0014873412270737896,-0.0004654598329193683,0.0004493593287576665,0.0011849599030153042,0.0017277730923290725,0.00211170470486372,0.0023931807412578498,0.002619780042560497,0.0028040584561372303,0.002915467577818874,0.002897024819096085,0.0027004316957671597,0.002321319715949975,0.0018138967811310422,0.0012742791190754944,0.0007990813447068108,0.00044039054704301243,0.00018127075639044976,-5.462703762006203e-05,-0.00036402725453087544,-0.0008157628730015405,-0.001417197259884066,-0.0021092294308418247,-0.0027872446100489045,-0.00333370464183555,-0.0036475957360483295,-0.0036633846739072213,-0.003359418692827984,-0.0027583218224600733,-0.0019214169256340683,-0.0009387455532265241,8.346502330425405e-05,0.0010363929136593289,0.0018231792871965062,0.0023750272473593804,0.0026672511776062464,0.0027291591058870527,0.0026385391567493805,0.002494761097327141,0.0023760247716036907,0.0023006508026549087,0.0022174709976074056,0.002037397848742762,0.0016922014596397709,0.0011852900927875971,0.0005997366582170486,5.347987550555612e-05,-0.0003735718537312884,-0.0006936776333965153,-0.0010077307220932594,-0.001441310816896557,-0.0020582881591218573,-0.0028057493658883575,-0.0035236022685182214,-0.0040116262756925754,-0.004114850414569154,-0.003783452617345011,-0.0030831131179013416,-0.002159233970248053,-0.0011777251005619064,-0.0002698158457545907,0.0004988462264425945,0.0011275087104014397,0.0016539553895184786,0.0021180408801142548,0.002533561967432453,0.0028809368220355227,0.0031206699256952535,0.0032162761669117836,0.0031527229217938376,0.0029427212228951664,0.0026215613291519194,0.002235424274918472,0.0018279649529315785,0.0014287811253959242,0.0010468164041210588,0.0006707880559114197,0.0002764602276803033,-0.00016224950576944547,-0.0006630705919187,-0.0012300140015357142,-0.0018532891186343573,-0.0025109065794032184,-0.003167182203174873,-0.0037668961024919906,-0.0042302439487596506,-0.004458003924384335,-0.004353860094821613,-0.0038609689780893597,-0.002997655443383589,-0.0018710356776600787,-0.0006541025205887103,0.00046937327141755833,0.0013673125598140303,0.001996983412216349,0.002398839792806577,0.002653640911439702,0.002831003957038404,0.002959214503792369,0.003028491123252741,0.003016724387114331,0.002914566537345343,0.0027325621213446496,0.0024896556904980237,0.002196030294528147,0.0018450667216315553,0.0014207141224085696,0.0009151055630935434,0.0003438185427979747,-0.0002533205095336238,-0.000829391568456033,-0.0013566737768181323,-0.0018447794449745175,-0.00233490262529947,-0.0028667254105135915,-0.0034321071154418165,-0.003943116081032785,-0.004241295261030105,-0.004156046904828341,-0.003590200914687346,-0.00258816625852617,-0.0013437673352068278,-0.0001338620484904352,0.0007953296888238894,0.0013336369830343289,0.0015491265507426263,0.0016425422068318814,0.0018349511941793478,0.0022468146736137743,0.002834169206599065,0.0034176883426372223,0.00378734327356413,0.00381986632962158,0.0035371314588508993,0.003069118670663637,0.0025460334311510954,0.0019932000340587364,0.0013057909704022506,0.00033049121953328427,-0.0009939585647930932,-0.002534518821654512,-0.003980006381135308,-0.004977477821727876,-0.005305457366221527,-0.0049735312009984226,-0.004190570566699576,-0.003234451622788714,-0.00231487851128368,-0.0015093160451255532,-0.0007897698271952741,-9.8109197834753e-05,0.0005904619604623269,0.0012511376931363268,0.0018353336795212225,0.002307502295969611,0.0026628568543134454,0.002916570210396632,0.0030777924082920566,0.003131632093170703,0.0030444119855185373,0.0027890676007491263,0.0023720800939483998,0.0018417433164576746,0.0012704880427260967,0.0007216533830112983,0.00022093420831778695,-0.00025136490054992176,-0.0007446512216924603,-0.001308471299631303,-0.0019621625859489464,-0.0026738952520203884,-0.0033559752687346367,-0.0038809774190719367,-0.004117745523339543,-0.003976220424220295,-0.003442168640200495,-0.0025855569107060463,-0.0015394236543908473,-0.0004602089277875542,0.0005137641836715365,0.0012926359363558998,0.0018481565091796196,0.002208612448393126,0.0024378459830896224,0.0026049454867864614,0.0027553815110640265,0.0028943086706849715,0.0029871346883459902,0.002975276568866461,0.0028008121945216832,0.0024324983207530985,0.0018845531421453246,0.0012188352580633718,0.0005248140977322648,-0.00011772468987186052,-0.000676078822184098,-0.0011805718987222685,-0.0017061709107032523,-0.002324842213243744,-0.003050682049530645,-0.0038062705520944973,-0.004430957915003902,-0.004733224521898931,-0.004567532943838625,-0.0039005016825182284,-0.0028308743517903834,-0.0015476783625474895,-0.0002454345313224741,0.00095497787281029,0.00202943544595357,0.003001726131043051,0.003858293282286778,0.00449353822728636,0.004736411864350157,0.004451376700901108,0.0036477816723401134,0.0025173159628940596,0.0013648167876200894,0.0004716225345102688,-2.3418928927088772e-05,-0.00015687883512087653,-8.244710363006707e-05,2.512255787417159e-05,3.853675973609406e-05,-0.00010987978112316594,-0.00045184014108838643,-0.0009999287333864253,-0.0017334439928102954,-0.002567293180300666,-0.0033416397014912006,-0.003859517718992407,-0.003963491818232927,-0.0036087928380420437,-0.0028856208016079443,-0.001972992901167021,-0.001050713445405711,-0.00022311353068438534,0.0005016319084981786,0.0011717415048537344,0.0018256586490009846,0.0024455874592871117,0.0029574071083527105,0.0032701468531537783,0.0033245530880674896,0.0031202795208385226,0.0027111392817185257,0.0021804149245474424,0.0016160976663087444,0.001095825839826069,0.0006761861769658163,0.00037722536629891565,0.00016427248280093565,-5.650073961022757e-05,-0.00041109970000046607,-0.000998898713090537,-0.0018268914450216113,-0.0027761494559253703,-0.0036290715856367012,-0.004152989980880876,-0.004199699626090927,-0.003766549122555065,-0.002985205152122172,-0.002047260799740408,-0.0011125337244415716,-0.00025189552529240373,0.0005495327372185168,0.00134048127672305,0.002139418780615952,0.0028961434448781954,0.0034995551423405683,0.0038266436602838344,0.0038053394357058347,0.0034551076722633025,0.002880795186243639,0.0022229806339439605,0.0015950913201500088,0.0010448867454847027,0.0005597503802307915,0.0001048027347417905,-0.00033761083201376953,-0.0007552272177122064,-0.0011253421709869027,-0.0014467888319393473,-0.0017549900307557071,-0.0021029869115748463,-0.0025177098903471857,-0.002962455626144947,-0.0033361814145675362,-0.00351556478728966,-0.003414268285344189,-0.003020691440157981,-0.0023921417422018555,-0.0016160995624275305,-0.0007706552098690053,9.016048968088627e-05,0.000925784488296551,0.0016931005165646078,0.0023435481696985018,0.0028344754828403275,0.0031414047959554313,0.0032596996813938793,0.0031977027927818356,0.002972994651531912,0.0026186267382809596,0.002192066487589685,0.0017712698415032395,0.0014300564807213762,0.001203706008979741,0.0010684764937334858,0.0009520838741700826,0.0007696861316352354,0.00046066024153808543,2.819169836582123e-06,-0.0005984636729274104,-0.0013275507622731817,-0.002160965466264474,-0.0030509245573892745,-0.003906599232227331,-0.0045954267384738035,-0.004973377639883432,-0.004932358100897214,-0.004441001208350831,-0.0035590721394560855,-0.0024200616187803393,-0.0011904937648487292,-2.158981440435209e-05,0.0009902392983747008,0.0018202594997455543,0.0025019060187490096,0.0030865139034646585,0.0035948446694176166,0.003988790346985687,0.00418511933717026,0.004108132519538485,0.003749085273917308,0.0031902484043535573,0.0025721919516596345,0.002021662453670759,0.0015858738581760248,0.0012157325195625165,0.0008076346581127107,0.00027442624195954054,-0.00040171412694273926,-0.0011662292853612504,-0.001933827146849968,-0.002638844813451201,-0.0032562155414436822,-0.0037815720680027965,-0.004192253345400854,-0.004424742876194786,-0.004389611311094818,-0.004016100149079074,-0.0032975530455701643,-0.002309196691878795,-0.0011880061573218885,-8.657839378748366e-05,0.0008744049290375725,0.001632736192344794,0.0021815864511204146,0.0025450502430503863,0.0027514284899666955,0.002821423120446513,0.0027748813479333,0.00264445182217135,0.002479298581928304,0.002330734226186551,0.0022270965424498884,0.0021554022439894275,0.0020646241393740697,0.0018915418190502552,0.0015944612632094286,0.0011735852650259866,0.0006646771242060376,0.00011056675090623702,-0.00046902914756844155,-0.0010869071871000137,-0.0017688131113651755,-0.00251706173325329,-0.0032810850591020128,-0.003954329752030506,-0.004401527242339857,-0.004504443573528177,-0.004205691868172641,-0.003531653186513624,-0.0025854256617052433,-0.0015140040850868902,-0.0004639127215582912,0.00045780116838544955,0.0012040511091206904,0.0017836132851908454,0.0022352197033974285,0.0025920582659430614,0.0028551580892650173,0.0029915746684944077,0.0029599705050720494,0.0027483711202155826,0.002398723410488412,0.0019995607086772107,0.0016488958681311527,0.001409862011139983,0.0012862069203202556,0.0012302289420038472,0.0011736046728839495,0.001058211518585726,0.0008479878489090424,0.000519620018014018,4.672339835554173e-05,-0.0006025499392878313,-0.0014443939896317498,-0.0024431126332618907,-0.0034832509852498793,-0.004375214797139497,-0.004904964987295348,-0.004913696070472048,-0.004371351770025825,-0.003402809830497867,-0.002245038101450653,-0.001150014755612155,-0.0002806703214033439,0.0003457899985370136,0.0008374362736458584,0.0013430920879675121,0.0019526226554789348,0.0026381878052413703,0.0032670038426274093,0.003673976609222967,0.0037499232631417745,0.003496074796591063,0.003017892700175454,0.0024660647108554765,0.0019608888506300218,0.0015435537834265739,0.0011798017750447565,0.0008080538644791543,0.0003962887857623296,-3.142612734474584e-05,-0.000414926435184666,-0.0007082714603990659,-0.0009245852998351358,-0.0011438145746368218,-0.0014745334698541908,-0.001987823859743474,-0.0026587185747541037,-0.003350479668430634,-0.0038575305896041967,-0.0039915384497484566,-0.00366844700331665,-0.00294990338230265,-0.0020159619879013433,-0.0010837784134606863,-0.00031561755067512483,0.00023779858693997547,0.0006349355840840815,0.0009904832801929623,0.0014037556404158718,0.0019050495897999105,0.002443103621438599,0.0029143398691856464,0.0032146651433654534,0.003286210042894445,0.003137462956405014,0.0028314104222175096,0.0024527986099258624,0.0020732657365392123,0.001729301002636093,0.001417853967150667,0.0011055978040699238,0.0007445610671277569,0.0002882609231958074,-0.0002945961506382502,-0.0010097066245478797,-0.0018302795052833418,-0.0026943573714812413,-0.003508118564570046,-0.00415755291464414,-0.00452941765784216,-0.004538324950067955,-0.004152433902230902,-0.0034086675063989868,-0.0024105580665869423,-0.0013065259259928987,-0.00025273578336193784,0.0006281092696182934,0.0012759545003535881,0.0016975367585963601,0.0019446497050038976,0.0020802342897741502,0.0021521250611645053,0.0021868635292701397,0.0022006034073137762,0.0022124484374891574,0.002245850712054463,0.002314936916936514,0.0024060455506443616,0.002470481250128399,0.002438308221022178,0.002248906280348478,0.0018813534830002287,0.00136515936147355,0.0007620968926395727,0.00012779264833814256,-0.0005230080880948248,-0.0012215847523548724,-0.002010831236551648,-0.0028884937925100396,-0.003765855653473259,-0.004475908037469241,-0.00483497434696229,-0.004724874025330604,-0.004146807456625283,-0.0032164778683056792,-0.0021089698519214236,-0.0009915968609027397,1.7903709857111346e-05,0.0008567347814987878,0.001501685969632811,0.001955143069067735,0.0022408651261500924,0.0024016618796818628,0.0024880628755758454,0.0025379414613177897,0.0025595088366314853,0.002531535837359272,0.002423185113742306,0.0022209307433488402,0.0019440430543135963,0.0016380089502633832,0.0013508051621265826,0.0011080091226137953,0.0009013098106964428,0.000693534925704291,0.0004322954637101678,6.296850518538869e-05,-0.0004603897035027664,-0.0011602804126587718,-0.002014121904272594,-0.0029348987923985877,-0.003772616202977802,-0.0043493031582928065,-0.004519684670893812,-0.00422877679572397,-0.0035339992328607154,-0.0025781709929847407,-0.0015286835216003053,-0.0005169952388202361,0.0003908311500933784,0.0011833508282298852,0.0018678507797657716,0.002436944322382226,0.0028599497662778347,0.003102764032096694,0.0031597140424555817,0.0030719486567741218,0.00291571932847498,0.002764739670666607,0.0026489833250436384,0.0025352598337090586,0.0023419586321488154,0.0019810768695896564,0.0014059677506185796,0.0006393816736223635,-0.0002349178160506002,-0.0011144495066276975,-0.0019299771743695195,-0.002672415966860148,-0.003372100479388967,-0.004039750008654775,-0.004609792136444863,-0.004932431887119628,-0.004832275989461255,-0.004206029852941264,-0.0031017005650592743,-0.0017284818235607717,-0.0003852915433915369,0.0006589530536646627,0.0012752518163187602,0.0015221926898490482,0.001608405228840094,0.0017854278965539867,0.002219326987035834,0.0029025855115058013,0.003652163657043147,0.004197963817921031,0.004317458511204868,0.003945059615708241,0.003198043762849709,0.002309111222010191,0.0015092839711947743,0.0009290119046366481,0.0005655417532521726,0.00031807215461528604,5.410535832050373e-05,-0.0003349691435608371,-0.0009080087292211511,-0.0016701354639161114,-0.0025735351531057985,-0.003516353384979386,-0.00434865544555634,-0.004898652388276843,-0.005020503447088293,-0.004647322022692039,-0.0038244837182459883,-0.002705098091335698,-0.0015059204758599192,-0.00043837341808337124,0.0003604398537249377,0.0008699344420686722,0.001182160681742425,0.0014496596010514372,0.0018052723055880632,0.002291163077703361,0.0028339850034119654,0.00328135991810991,0.0034815505926626376,0.0033631554698431414,0.0029715341284004245,0.0024442958738559732,0.0019428384549925741,0.0015786140676783376,0.0013704893994954627,0.0012489222649058277,0.001098190300153323,0.0008120127764978061,0.00033620554988201407,-0.00031690762725964956,-0.0010812055076063944,-0.00186366234027684,-0.0025709587560004627,-0.003127687872343083,-0.003485031307607969,-0.0036216669174442624,-0.003538641439806735,-0.0032508557626553603,-0.00278035600950431,-0.002156819466617728,-0.0014250187074706022,-0.0006509079658552916,8.413741401231377e-05,0.0007031434389852334,0.0011575652615994506,0.0014413314141974477,0.0015879545361484242,0.0016547181721762042,0.0017027263931694613,0.0017788654103432868,0.0019018335366394045,0.002054311073965632,0.002185384067429773,0.0022264603298381793,0.002117909250077373,0.0018357287434129102,0.001404042131584583,0.0008846510875784057,0.0003475095533617967,-0.00016195486535367388,-0.000639627046965411,-0.0011130158964325395,-0.0016098094524877454,-0.0021226977121908738,-0.0025919031920407787,-0.0029178090014692357,-0.002999259823087267,-0.0027782000020062352,-0.0022672070794404094,-0.0015459602577252776,-0.000730385092553517,6.696991390597005e-05,0.0007647121596396052,0.001319318368069762,0.0017165779479483756,0.0019602452410588736,0.002065409140731282,0.0020550838613217536,0.0019555022216039323,0.0017904644607988898,0.0015801847927583356,0.0013472359684811868,0.0011227173637475484,0.0009401198304039016,0.0008115772066204332,0.0006988192369137789,0.0005050892705736518,0.00010912451252240635,-0.0005647872585973171,-0.0014788278619385178,-0.0024643115021269566,-0.0032780894455199,-0.003708564795263977,-0.003671679798834421,-0.003240064411244531,-0.00258921258246727,-0.001896215549260864,-0.0012544872146664134,-0.000653306040804827,-2.5266962420532183e-05,0.0006784210846564366,0.0014360697258652853,0.002155024760790944,0.0027146403454346435,0.003021697951110124,0.0030474297196198224,0.0028322331518713544,0.0024634264718175138,0.0020415530836557284,0.0016495871504736933,0.0013328145716978346,0.0010921913247880558,0.0008921202417169509,0.0006809998657085607,0.0004170488006190543,8.651567520131685e-05,-0.0002967195523757935,-0.0007098644633385665,-0.0011439141709965188,-0.0016104321607092005,-0.0021222271275523033,-0.0026580646822372024,-0.003137891302397307,-0.0034333066823338193,-0.003416486812002526,-0.003023430377422863,-0.0022944660136889825,-0.001366754718176958,-0.0004217869804120667,0.00038404779849230243,0.0009709864612534507,0.0013474917382304196,0.0015823512711597226,0.001756754855897135,0.0019221877756828481,0.0020822161989361406,0.002201164226897589,0.002230129515432513,0.0021361190145179725,0.0019217684186153894,0.0016275026410751963,0.0013144028704223335,0.0010349304167861276,0.000806401474528117,0.000601868114661695,0.0003628414708091701,2.5530840694678106e-05,-0.00045277520037276166,-0.001075611776849765,-0.001798649459426368,-0.0025301552690033826,-0.003144121804541616,-0.0035099221906066246,-0.0035336277671954284,-0.0031938664778460818,-0.002551723541085225,-0.001726290202201182,-0.000848022851763817,-1.573385616201885e-05,0.0007207846761718097,0.0013488298963278255,0.001866716424139435,0.0022645020852153385,0.002522963738756028,0.0026273487660968594,0.0025835630663352113,0.002425125131435857,0.0022056308031697253,0.00197931771119478,0.0017790178099224762,0.00160316736513628,0.0014187354016495788,0.0011772292293117956,0.0008340368783098986,0.00036266554064190367,-0.00023816921329444254,-0.0009425314591119142,-0.0016991332293188155,-0.002438053736900512,-0.0030827020233608407,-0.0035643202198677856,-0.0038338533894979455,-0.003866755712989504,-0.003660454330985943,-0.0032292013770312106,-0.002602628711758848,-0.0018297569061917018,-0.0009820980653097618,-0.0001453037060576641,0.0006051497044168113,0.0012342480521706034,0.0017619695540348518,0.0022445703663264384,0.0027277092410352066,0.0032018045560718474,0.003594537046562699,0.0038100853145892036,0.0037877750509842326,0.0035362754552203945,0.0031191314690405285,0.00260688422943306,0.002036257602050709,0.001407241753550093,0.000714678314197294,-1.7711747634217455e-05,-0.0007329123613914159,-0.0013710604723149251,-0.0019094421429414934,-0.0023772572657489656,-0.0028294134888319895,-0.0032957172967399565,-0.0037415711159733207,-0.004068952259470555,-0.004158846281025878,-0.00392941907102623,-0.003376164172159978,-0.0025739856831119433,-0.0016447459270143917,-0.0007111824708379692,0.00013934214601278583,0.0008678378971292227,0.0014742637103966596,0.001976636334841808,0.002391343563747735,0.0027221817819325614,0.0029592532814003837,0.003085662782979753,0.003089224081715668,0.002974674775884349,0.002768976950220093,0.0025128277429760293,0.0022393363830317406,0.0019520797224619592,0.0016192560902741533,0.0011918859764176286,0.0006368790390646047,-3.6570105833846065e-05,-0.0007759207484390256,-0.0015108565334435323,-0.0021870674395328246,-0.0027830832016966255,-0.003297709961699794,-0.0037187763760457354,-0.00399918363450697,-0.0040612584832342,-0.003829401383717802,-0.0032711174252841833,-0.0024223873559998275,-0.0013850474858634217,-0.00029952562319451675,0.0006946560545847063,0.0014967004896152868,0.0020684684625835734,0.0024358308654977238,0.0026660661155604817,0.0028302828816680185,0.0029676164298620957,0.003067694160594667,0.003079220580984791,0.0029399057240246263,0.002612667411593341,0.0021104463172198886,0.001498434606687902,0.0008736841764501034,0.00033079558554465404,-7.49492325964904e-05,-0.0003561022581929968,-0.000601163446005346,-0.000949443627843209,-0.0015284801719563526,-0.0023723738964551372,-0.0033637957695866615,-0.0042451879111109585,-0.004712998632261106,-0.0045573804912301214,-0.003773555567795163,-0.0025782943709991377,-0.0013152050415409975,-0.00029633853549769647,0.000334504239051754,0.0006439255960151386,0.0008394040920898781,0.0011344901833882618,0.0016275340897088555,0.002257659343123794,0.002852901290992944,0.0032338485339009817,0.003309932367501632,0.003116129887337032,0.0027762630068674694,0.002422017164522122,0.0021196535105809005,0.0018469407935275118,0.0015285216245150242,0.0011012676232326475,0.0005651099205700701,-1.2319916501644219e-05,-0.0005377989886367879,-0.0009531543959213477,-0.0012760183721099803,-0.0015942773276666807,-0.0020140647973176575,-0.002587909269717373,-0.0032631422713735683,-0.003882800810587757,-0.004244368152012954,-0.004189353467159725,-0.003677629347820734,-0.002807138519734908,-0.0017690720194273016,-0.0007634217367298915,8.053223743392443e-05,0.0007400212191194582,0.001278178292183436,0.0017846688214826513,0.0023129981524290426,0.002847098149961389,0.003310490888795494,0.0036077508858033723,0.003672640118983962,0.003497031407438366,0.003128352088691672,0.0026422469578378837,0.0021099891874624644,0.00157937114315263,0.0010750158701003036,0.0006090556408092639,0.00018709388464146798,-0.0001983586037682196,-0.0005803633779606867,-0.0010199010009668147,-0.0015858947992767438,-0.0023157262775418026,-0.003174702173517774,-0.004038668998047902,-0.004716010891433866,-0.005007320656514419,-0.004781193714085226,-0.004032443716695753,-0.002892746124689063,-0.001584781065723036,-0.0003396119442623004,0.0006838481221908199,0.0014406722849660658,0.001987294879544259,0.002425130429844091,0.0028308496902807296,0.0032093838559382488,0.003494091456445822,0.003592603032469895,0.0034496234260049437,0.003087343632872463,0.0025990018420281565,0.0021019271081247123,0.0016812363059790186,0.0013575741618896391,0.0010929867739139876,0.0008240462139529421,0.0004976182564738016,8.872189252232294e-05,-0.00040410268438944625,-0.0009748171374847052,-0.0016204493028360194,-0.0023352434865949287,-0.003090102350674017,-0.003811455381481057,-0.004378962422574121,-0.004654165748837295,-0.0045333230018977395,-0.003998341804326584,-0.0031350567124497795,-0.002103899323517608,-0.0010752000598800572,-0.00016290334484327508,0.0006071899168041859,0.0012780659465934023,0.0019053866192625345,0.002502011642647944,0.0030192424287600675,0.0033750874330274044,0.0035078909892932793,0.0034183123041106214,0.003172938724579013,0.0028689764490959684,0.0025832190792444572,0.002336430560376546,0.0020936218876169963,0.0017981931808376816,0.0014162918817507975,0.0009603923506390479,0.0004742951682483959,-1.1240580081046925e-05,-0.00051946245296791,-0.001129423744787333,-0.0019255027506528462,-0.002917950129061352,-0.003984687798327802,-0.004881215524122638,-0.005328655746264895,-0.005140099104806135,-0.004315798415518857,-0.003051236395784096,-0.0016522571959549355,-0.00040532430670518223,0.0005269348485627138,0.0011361722817506699,0.001522630386141196,0.0018115318797059595,0.002082153312248579,0.0023430451311187103,0.0025545581233985155,0.0026726043785826803,0.0026807224104606524,0.0025927370300980594,0.002432576810386552,0.0022129120191422174,0.0019306950618510083,0.0015810313811389655,0.0011753872255808274,0.0007468119298970623,0.0003345233797098937,-4.401143831357754e-05,-0.00041327414458320385,-0.0008324483277405326,-0.0013570917853461604,-0.001989497924283725,-0.002651057918213434,-0.0032003896968328125,-0.0034920792818780976,-0.00344269335800458,-0.003064539355818171,-0.0024486899271164743,-0.0017118295657484756,-0.0009429961916974073,-0.00018242086152012345,0.0005598493398065283,0.0012651729230901939,0.0018793093162425036,0.0023195236027994857,0.002513809924282162,0.0024473379819170728,0.0021846834396869277,0.0018504387632412855,0.0015761818202820067,0.0014419988250949662,0.001443348180809368,0.0014988938470509483,0.0014929049622579645,0.0013295901441415972,0.0009729365518035169,0.0004541433566168512,-0.00015437515176761432,-0.0007812212823168918,-0.001387669802179029,-0.0019687224412403125,-0.002524468472636323,-0.0030242165655883233,-0.0033924050982234084,-0.003531043649265894,-0.003367563205694925,-0.0028978325474141356,-0.0021958753979945188,-0.0013832186586601528,-0.0005762556991449152,0.00015770757978099257,0.0008124681505188163,0.001420098702899772,0.0020101308736528824,0.002575590018288422,0.0030641537018482588,0.0033972641589642785,0.003505069605082252,0.003358041918786139,0.002979562793079645,0.0024351432408112267,0.0018068021318597954,0.0011678197877251354,0.0005694652198959552,4.058579900576966e-05,-0.00040814942769312935,-0.0007839652798839532,-0.001116293802297857,-0.00145698882660055,-0.0018652316399960307,-0.002374138711837826,-0.002951773899131382,-0.003482175729503984,-0.003789872198300932,-0.0037095149395716077,-0.0031711933388597693,-0.002253423166162194,-0.00116677736210927,-0.0001685557834335971,0.000550163811278906,0.0009454498465323582,0.001125498108651174,0.001276524634853641,0.0015498666837430797,0.001972854546462251,0.0024336006474371,0.0027480089362260022,0.0027694854175842167,0.0024768947271814417,0.0019900087568091055,0.001505446153933456,0.0011921731232385497,0.0011060345753003845,0.0011678277278634058,0.001211705242641633,0.0010734595960854188,0.0006703764209589939,3.258745633591642e-05,-0.0007254878068499609,-0.0014711626573852205,-0.0021144821881577984,-0.002628358712280625,-0.003021959276465291,-0.003294534476468223,-0.0034090868963092824,-0.003307360803323858,-0.0029536158211131355,-0.002371525021915349,-0.00164428134004774,-0.0008768629552803831,-0.00014773718418750254,0.0005163598634747271,0.001127551627059492,0.0016989198285444719,0.002211483187631502,0.0026107922688499707,0.0028358719016251793,0.0028601586392275253,0.0027151983620592136,0.0024788744327966144,0.0022336699639856315,0.0020210344787627964,0.0018210597090129181,0.001569949604973446,0.001202683384858853,0.0006923115062588286,6.173973078195275e-05,-0.0006347597331876822,-0.0013411360833347607,-0.002015877922571277,-0.0026258497763266674,-0.003129900000402898,-0.003472860997422625,-0.003599102733643255,-0.003475425896536379,-0.0031044736530353246,-0.0025196578868375637,-0.0017704491612320207,-0.0009144715769445196,-2.2173039704905927e-05,0.0008180808032736033,0.0015122608827827784,0.0019933165980653674,0.0022548645342989823,0.0023584494057511227,0.0024027233658764193,0.002470273708101077,0.002583873263263373,0.0026965308376792076,0.0027172463014006193,0.0025553885509988225,0.0021621715485815414,0.001554394802451899,0.0008138347545326672,6.136820425609577e-05,-0.0005884891154560765,-0.0010768066014814138,-0.0014291048156639292,-0.0017433327503032785,-0.0021355824110205284,-0.002667460066415983,-0.0032935754609281537,-0.0038602956321089517,-0.004160960116926512,-0.004022954973497996,-0.003384840139501719,-0.0023262640407789824,-0.0010374956669929594,0.00025368310724589987,0.0013597297784549251,0.002179929463498904,0.0027019560441092763,0.0029705968199066957,0.003049099014511521,0.0029931746944940113,0.002841871692427984,0.0026177866120395553,0.002329443585175153,0.0019762472095324413,0.0015599020538726554,0.0011002112006561597,0.000644006114654907,0.00025486829098112694,-1.7344487621232267e-05,-0.0001718528846361444,-0.00027360137849981813,-0.0004348738248921292,-0.0007648956187149565,-0.001310295729756703,-0.0020175740288205326,-0.002739798815936195,-0.0032878138493636993,-0.003503124155355935,-0.003318217710016923,-0.0027766640584301434,-0.0020061228940390905,-0.001161009827166288,-0.00036526814668297477,0.00031779924329070584,0.0008796699094743609,0.0013366961621334504,0.0016993130847352536,0.0019594960612157875,0.0021007691357638933,0.0021194929977106625,0.0020393615054896505,0.0019069481278999076,0.001770531051731443,0.0016567531099932942,0.0015604971069945613,0.0014524110151486543,0.0012954497880118235,0.0010575867802855641,0.0007148656843821423,0.000249628598599504,-0.0003466777811404813,-0.001061696375929567,-0.0018467892676441913,-0.0026101896832361996,-0.00322899823786437,-0.0035808348021059452,-0.003584016503801921,-0.0032276922469625016,-0.002575832460306869,-0.0017417316404919226,-0.0008460297573394272,1.9423624554149358e-05,0.000804054961501529,0.0014852860219772275,0.0020438547593415526,0.002448585436354476,0.0026636998366270804,0.0026746169836582064,0.0025128391155887337,0.0022578055080690095,0.002006801332975987,0.0018258792820345768,0.0017111234947794099,0.0015878105350335394,0.001352968382020084,0.0009372038303715024,0.0003460615710797725,-0.00034608536618009166,-0.001042891415038902,-0.0016779403995905795,-0.002234605192064423,-0.002723302436455837,-0.0031383590995931925,-0.003430786635413961,-0.003519610247663493,-0.0033349843910773723,-0.002863493209404095,-0.002165512397574875,-0.0013544713450531695,-0.0005520645484069768,0.00015463333790015875,0.0007333622764276089,0.0011986056310392705,0.0015847061359623672,0.001917658810241479,0.0022014276329907095,0.002424105805328351,0.0025753277897066227,0.0026586195326486306,0.0026878033887300134,0.002671408355756679,0.002599989834814116,0.0024480367927564024,0.00218837777004488,0.0018063959391872951,0.0013032393535024034,0.0006881674387169479,-3.0339931521005184e-05,-0.0008442393433564681,-0.00173324701701957,-0.002646930071046872,-0.003495171257737099,-0.004158686491712284,-0.004520685890390496,-0.004506958981130993,-0.004113643648012838,-0.003406916437933976,-0.0024956150198109997,-0.0014946421530534573,-0.0004999236442969296,0.00041768489290067227,0.0012085666195601292,0.001843282796056133,0.002316462512003233,0.0026468472905340577,0.002865905399996843,0.002998760658627892,0.003049936388363249,0.00300386923906208,0.002839351554986923,0.0025476841704866592,0.0021428278184519893,0.0016575047840841162,0.0011274514918133461,0.0005727039540263887,-1.2751939609241135e-05,-0.0006546670406850745,-0.0013750452698957282,-0.0021607355959713808,-0.0029407874512870852,-0.0035894495605196097,-0.003961418944951928,-0.003947856212257979,-0.0035260063896734306,-0.0027743564354680587,-0.0018429444899819023,-0.0008942217398924632,-4.6053710577425027e-05,0.0006554075985425518,0.0012247514372588418,0.001701303793020239,0.0021117845701869543,0.002451195910605912,0.002687690938599744,0.0027835037213547954,0.0027180340764299885,0.0025015374589424833,0.0021743547850217146,0.001793169960359576,0.0014105281392056456,0.0010559076050290087,0.0007254541919118629,0.00038370236603328645,-2.358368684027875e-05,-0.0005487889554236286,-0.0012182335885040133,-0.002009836581263973,-0.002840808565398795,-0.003574960858960451,-0.004054789223292164,-0.004151834914736112,-0.0038157208259303782,-0.0030978555959546646,-0.002135913948830176,-0.0011049007572391085,-0.00015739508179025258,0.0006204982307787846,0.0012204576205588837,0.001689605320376907,0.0020884047948779316,0.002450531834774397,0.0027643122607035374,0.0029833342118514472,0.003057262160137971,0.0029624861250122556,0.002714304372702779,0.0023567851972798575,0.0019419507318349898,0.0015140366919133,0.0011049716676193588,0.0007340237026771741,0.00040127232793421135,7.513853298909247e-05,-0.0003117054491229758,-0.0008416749853201084,-0.0015660385303354128,-0.002454734395412921,-0.0033750165919624016,-0.004120815081359332,-0.004486692920698745,-0.004352460131691237,-0.003735154371970202,-0.002781358933878747,-0.0017052374849593713,-0.0007058544459650653,9.583289388546235e-05,0.0006761542051590291,0.001085575261261651,0.0014032662955350914,0.0016936738429743719,0.001982452668501841,0.002257229047182927,0.002486341690880708,0.0026403966011135306,0.0027023483266982095,0.0026627240298752524,0.0025098535503144774,0.0022292845827558555,0.0018175644101235723,0.0013005041996531023,0.0007379310902470694,0.00020390120102672113,-0.0002502050424749891,-0.0006260384959657722,-0.0009783796980485872,-0.0013797573843397164,-0.0018685184340971061,-0.002411390692515868,-0.0029036872449907823,-0.0032087339950970096,-0.003216485053081128,-0.002891487079648582,-0.0022870038199037028,-0.0015206332154109538,-0.0007259707272483138,-4.520229178946048e-06,0.0006008304250360638,0.0011011338264270481,0.0015308617079246678,0.0019099369029174638,0.002221400048643836,0.002418660234113629,0.002456232597248185,0.0023208417142836276,0.002040315358998899,0.001666083262724937,0.0012454837003679244,0.0008052463744250933,0.0003547233320424395,-0.00010032500031731363,-0.0005494110261511237,-0.0009815304683099004,-0.0013938500874182895,-0.0017905462862383222,-0.002166627951341863,-0.00248806234403364,-0.0026876610930469842,-0.002687079026680199,-0.0024352657125506663,-0.0019391830972557678,-0.00126593619059661,-0.0005145267423754723,0.0002244013784794656,0.0008961098113948014,0.0014828762353958985,0.001983798252910289,0.0023912913379449214,0.0026813684818109773,0.0028227164532404524,0.002795958156140132,0.0026085559249303157,0.002295445176836438,0.0019060318302080424,0.001486427733378028,0.0010663450942275604,0.0006543443127280498,0.00023936273793364379,-0.00020456012395453534,-0.0007105516425260294,-0.0013062739819411796,-0.0019966350568523784,-0.00274729534913987,-0.0034779785870255476,-0.004072329915049846,-0.004403465300065136,-0.004366799848738477,-0.0039095999810133154,-0.0030498092165852767,-0.001880108106537708,-0.0005541889146449701,0.00074562857561229,0.0018530635947232432,0.0026596280127223785,0.0031365624012407458,0.0033285966660951847,0.0033237313882503554,0.00321208500503497,0.0030500591312125564,0.0028446950400989332,0.002566030534375127,0.002181841501646753,0.0016950420845645068,0.0011595055165530995,0.0006607543828177757,0.0002688143626067086,-1.0697595575635084e-05,-0.00025583425640376706,-0.0005991741660339126,-0.0011576235493448899,-0.0019549820616941403,-0.0028815038718310107,-0.0037192905486691757,-0.004226937264463147,-0.004241952523811102,-0.003747802289618295,-0.002872608367011291,-0.001825671017367763,-0.0008103093985865046,4.258231602692554e-05,0.0006957301945926847,0.0011847067173380865,0.0015759249233947572,0.001925925676678748,0.0022566617911647887,0.002551299972130343,0.002766261806039759,0.00285046362540483,0.0027638837080776776,0.002492299492940858,0.002057384510485263,0.0015188812124638659,0.0009631229944289626,0.00047614361988065684,0.00010937310230702338,-0.00014632716008949399,-0.0003634960364102557,-0.0006520250218768295,-0.0011103313262154897,-0.0017704826858253799,-0.002560984246042952,-0.0033097828286675264,-0.003796008251863157,-0.0038348366663731163,-0.003358734873148665,-0.0024550275122302437,-0.0013385773564348945,-0.0002696078203320251,0.0005465806916098378,0.0010326531998562933,0.0012529680952903604,0.0013642233313928408,0.0015288582931440686,0.001833574692565827,0.0022507183018514393,0.0026573531517866127,0.002898277034806627,0.00285998019013808,0.0025210897598088814,0.0019590465966016885,0.0013134353590019163,0.0007242026009668433,0.0002723026061427576,-5.133833258487452e-05,-0.0003348457782878378,-0.0006969291079849648,-0.0012219043753076528,-0.0019069147077452248,-0.0026459099160573802,-0.003260140209872698,-0.0035647335119510467,-0.00344370636225357,-0.0028998842959454514,-0.002055980099094624,-0.0011054888233845005,-0.00023654632452048397,0.0004348805191473241,0.0008921071014798943,0.001196885874588516,0.0014376470005388394,0.0016775286207605497,0.0019277275126093171,0.00215297290394047,0.002297278331027993,0.002311324633545977,0.002169404714304185,0.001875251975994462,0.0014618561008264128,0.0009872570090249375,0.00052222513773438,0.00012575423034745612,-0.0001861458384520049,-0.00046033864767103933,-0.0007941512588726083,-0.0012841392637168128,-0.001955670395279543,-0.0027133431979023343,-0.00334980533030616,-0.003621862201634963,-0.0033624920636395705,-0.0025705257282351915,-0.001425786704252485,-0.00021611780361362857,0.0007878067214872792,0.0014437048727752684,0.0017768111380592156,0.0019307310008945969,0.0020640734183575422,0.002254826262388181,0.002464479509026669,0.002574896468066259,0.002468782599215469,0.002104134922162655,0.001542518106600064,0.0009199150389137194,0.00037872837550309265,-3.578690420320157e-06,-0.00025398566085660265,-0.0004910849869544425,-0.0008627314094828108,-0.0014608395162263132,-0.0022544521383645964,-0.0030781927931045343,-0.003688865913074256,-0.0038680252069772433,-0.003521186978048282,-0.0027219977378216574,-0.0016764774665755612,-0.0006254909581626291,0.000261574269491024,0.0009439665221628156,0.0014890927072259952,0.0019927564172110617,0.0024934056646331243,0.0029345851820563565,0.0031968207742025336,0.003175549044329992,0.002854007493689063,0.0023250680437205276,0.0017484428701808807,0.0012687941759447364,0.0009430814065236009,0.0007188888569998433,0.0004736729615663199,8.823026623510028e-05,-0.0004897582169605974,-0.0012243458253877475,-0.002014454083474995,-0.0027387792914763532,-0.003294824361912741,-0.0036173404982722266,-0.0036779563386616565,-0.0034758973699408518,-0.003028571817363863,-0.0023668212709644105,-0.0015366672436789458,-0.0006054968962331726,0.0003352313116987615,0.0011810794910279427,0.0018422502843145235,0.002275622256410795,0.0024998811188586528,0.002579975835485469,0.0025881622497276446,0.0025665667070359187,0.0025149148802357914,0.0024072882025923826,0.0022201896332944373,0.0019488153179063905,0.00160238784184839,0.001188728344428646,0.0007055118070130972,0.00014633862504188433,-0.00048497658812482014,-0.0011644108923882027,-0.0018481307919626176,-0.002479398564229931,-0.002995296844721272,-0.003332489148216323,-0.0034370150954181767,-0.0032800913056579887,-0.002872638113240409,-0.002267292113777902,-0.0015441713049451117,-0.0007882546400387104,-6.996468251845803e-05,0.0005656733179552475,0.0011030386160173304,0.0015549459574821806,0.0019540002828723614,0.0023327865623914527,0.002696553674471645,0.0030021594668119904,0.0031603873517483984,0.003069441096834673,0.0026687277530898436,0.0019849512201222503,0.0011396553408850646,0.00030487416622552,-0.0003753682590978201,-0.0008544174636968935,-0.001199413182717801,-0.0015398579463856104,-0.001975242916402469,-0.0024965156249686354,-0.0029710058291584976,-0.0032039809244164908,-0.00304398931033868,-0.0024717674052983397,-0.0016210153831221516,-0.0007190708068614293,1.800700347261608e-05,0.00047706062144249356,0.0006792981744581958,0.0007432120503157126,0.0008090009560309923,0.0009693464787164728,0.0012380239397738802,0.0015607482003271154,0.0018512906451112789,0.0020304111459683296,0.002052737348871385,0.0019176399140294835,0.0016662050021008187,0.0013662771270994986,0.0010863506240909662,0.0008627222451232813,0.0006727514573552068,0.00043259679101875163,3.120646501255384e-05,-0.0006072601791249564,-0.0014618796302900525,-0.002391090775601505,-0.0031684875488312116,-0.00356890351796029,-0.003465005522994347,-0.0028846640233286987,-0.0019984676618093247,-0.0010445203184309773,-0.00023051970389814484,0.0003386611716514081,0.0006783196017931452,0.0008876906469399593,0.0010860733065982003,0.0013539230846663385,0.0017017464350865233,0.0020728847418856953,0.0023721066043537378,0.0025049314182750753,0.0024126272514425765,0.0020924030375002443,0.0015983786059767138,0.001024071730436859,0.0004710598783711911,1.2451883599268968e-05,-0.00033606016928606065,-0.0006234866820701547,-0.0009407097632478258,-0.0013723867678727213,-0.0019437138515467135,-0.0025894308293336354,-0.0031646159618869195,-0.0034962177242626154,-0.0034522374369628153,-0.0029952606105361126,-0.002195272153746599,-0.0011988052856089677,-0.0001739288918010785,0.0007404324628802164,0.0014610024037770193,0.0019605014014649467,0.002253346010352499,0.002379801113390808,0.0023943790879559336,0.0023563364076690367,0.002317546990964588,0.0023067099208915133,0.0023156920802352744,0.00229834448425655,0.0021888481073087693,0.001934832003599014,0.0015277768574830824,0.0010108986397338493,0.00045700658150515445,-7.23718700024478e-05,-0.0005633349004648359,-0.0010601497217754357,-0.0016418676043965632,-0.002373368925683016,-0.0032520396553857894,-0.004175940157623422,-0.004953351880294309,-0.005357442623825961,-0.005208533711399893,-0.004449746954838215,-0.003180102009153033,-0.0016266436407307017,-6.660269853406742e-05,0.0012645950290984392,0.0022386578059753336,0.0028494867932994617,0.0031813383459241935,0.0033530354344529613,0.0034645183681425596,0.003563186306182153,0.003636425691821582,0.003629001628398504,0.00347780817858042,0.0031494251614027215,0.002661855526694507,0.002077648513020326,0.0014713497626344103,0.0008896879321262229,0.0003268821783340716,-0.0002716498147754204,-0.0009782457590413384,-0.001837071053061853,-0.0028217115188507048,-0.00381577743366691,-0.004631032963494169,-0.005064346469502502,-0.0049755730473375614,-0.00435251772298875,-0.003328081803248726,-0.0021341947310093935,-0.0010099407942898305,-0.00010861768939975786,0.0005484908227459833,0.0010493272799494036,0.0015157401686888704,0.0020199775389921895,0.0025382934115333634,0.0029628836449155285,0.003160502642084072,0.0030436437110287415,0.0026186912155882116,0.0019917257408889645,0.0013339099459279589,0.0008227939989687741,0.0005801672928766191,0.0006251844240500177,0.000857729919411451,0.0010814881989425298,0.001066310169275743,0.000634637704957437,-0.00025807199082654615,-0.0014844540809023023,-0.0027719578266880993,-0.003792202406140033,-0.004279388025055275,-0.00412689633757744,-0.003418723088101235,-0.002382875629638094,-0.0012916662838486418,-0.0003579431811865056,0.000326412448054175,0.0007896648230016779,0.0011299135051141412,0.0014487999161396188,0.0018022251108371012,0.0021841590915812475,0.002539503943749344,0.0027907519884918662,0.002864546559410603,0.002712552707020771,0.0023270062089689883,0.0017501142182875429,0.0010714755490095194,0.00040665234989871945,-0.00014230309043999911,-0.000530357637227514,-0.0007939925074991283,-0.0010378913900446645,-0.0013832155035125111,-0.0018991944964631114,-0.0025525221034961593,-0.0032036832354790847,-0.0036571857428671153,-0.003744217941368153,-0.0033969376670937817,-0.0026760694376103105,-0.0017384523567826925,-0.0007644193494037424,0.00011423049965429179,0.0008488780876551537,0.001459291278502426,0.0019861931364854113,0.002443872031088897,0.0028011580836785543,0.0029995110242998285,0.0029945585512875864,0.0027943304275770153,0.002469701296445667,0.002128228818333005,0.0018632652991267648,0.001705072071262804,0.0016014796590044867,0.0014410179285116033,0.0011081191923515464,0.0005408676143013377,-0.00024021899136791825,-0.0011453396079615682,-0.0020563835765126624,-0.0028663679881488525,-0.003495960260189946,-0.0038883317816571098,-0.0040002177363222,-0.003804915559124591,-0.0033080987425186566,-0.0025652208965904334,-0.0016874106285137895,-0.0008266587189755896,-0.00013621875828613968,0.00028813071501376623,0.0004633023108767634,0.0005341998739783087,0.0007213496692428174,0.0012103066753092915,0.002037149754205498,0.0030411665754456214,0.003923979673089673,0.004389529466591685,0.004285560383043152,0.0036643719252067615,0.0027322098217071513,0.0017263183437536654,0.0007983826060592705,-3.0303116828153784e-05,-0.0008277672058297647,-0.0016619764574072016,-0.002522687355292397,-0.0032997364604260265,-0.0038267910296144493,-0.003963219044231743,-0.0036674605005711887,-0.0030212071983532355,-0.002191773453720563,-0.001355284687494626,-0.0006247378052032895,-2.1218478902362847e-05,0.0005017202103974548,0.0010021078104471724,0.001499147894053004,0.001957561426390108,0.0023114955283912034,0.0025075111081783235,0.002535557777792322,0.0024275514450003473,0.002227630860647879,0.0019588152729315047,0.001612582928159416,0.0011695926306860426,0.0006348713873367217,5.785216098637744e-05,-0.000482978376900024,-0.0009250130436083768,-0.0012656980433763643,-0.0015708312963345905,-0.0019324783495675187,-0.002396432141396592,-0.002904740095949922,-0.0032960406293385466,-0.0033734784653526905,-0.003006588563824721,-0.0022087697967780482,-0.0011434678590386124,-5.342006147529457e-05,0.0008477407945607363,0.0014613136948715241,0.001821677401108699,0.0020426478061468275,0.0022296089119445,0.0024123026043908332,0.0025364305083804325,0.002513145176482847,0.0022896727302148577,0.001894235214133914,0.001428564121122489,0.0010158168669374464,0.0007371526202929293,0.0005924320104799928,0.0005023644838120568,0.00034556652550070177,9.462469609423192e-06,-0.0005653246836919232,-0.0013577368859478823,-0.002259787354445569,-0.0030943686133535144,-0.003660273745392495,-0.0037971379266224918,-0.003446828656665111,-0.002680711722203472,-0.0016750525443051782,-0.0006437577906486069,0.00023954998788342354,0.0008943092994921655,0.0013401256737044613,0.0016605785108327227,0.0019443430988508364,0.002231678401304856,0.002490291236541551,0.0026312566053737258,0.0025575815501964988,0.0022221268471388743,0.0016653491467503885,0.0010108018086893958,0.000415733097948603,-2.302726886879605e-06,-0.00022569418503460095,-0.0003486823395983888,-0.0005287960676147491,-0.000899675497315297,-0.0014918195992956467,-0.002205841606444982,-0.00285345049966018,-0.0032423224451937137,-0.0032568495080754476,-0.0028926408461680065,-0.0022343224246644403,-0.00140186383521371,-0.0005053865195918639,0.00036728431924050946,0.0011378066433841726,0.0017277068426049592,0.0020739964300017415,0.002165288826357732,0.0020698700537530182,0.0019258027802152417,0.0018856654953177173,0.0020394614319820285,0.0023580027932861795,0.0026928839858452627,0.002840065051751449,0.0026378109282745718,0.002047276889874688,0.0011702141184144997,0.00019234219583238597,-0.0007153686063667282,-0.001478705543842812,-0.0021357012031864232,-0.002776725082456694,-0.003448271165173127,-0.004084034739482616,-0.004511514272091658,-0.004535594114954786,-0.0040512655058406455,-0.0031174578597331017,-0.0019459806823740118,-0.0008092682899384696,8.31648643694915e-05,0.0006732214612692339,0.001061631416039889,0.0014323957561818274,0.0019366728879544439,0.002599763709120271,0.0033011437282137544,0.003835584191242468,0.004017661170180263,0.0037706678495023622,0.0031562854902563095,0.0023395943753579864,0.0015171293167227735,0.0008448444813617773,0.0003909665545442373,0.00012199501697688752,-7.949926802400427e-05,-0.0003697907653995181,-0.0008804041561171288,-0.001653699410724678,-0.0026035139426560023,-0.0035245372441534443,-0.004156933499552873,-0.004286372505449893,-0.0038374920079498466,-0.0029146241225976276,-0.001763932045332504,-0.0006696921582442626,0.00016533167492621464,0.0006935362335921849,0.0010127254068811797,0.001283365001218287,0.0016242873583367664,0.0020466366133170023,0.0024579768249349005,0.0027244069037443176,0.0027471285780013266,0.00250924515098008,0.002074296570893667,0.001548681568593958,0.001034959828553696,0.0005972948621991354,0.0002454861521554335,-6.477183863345189e-05,-0.0004158093904647681,-0.0008927792635990436,-0.0015327911534162202,-0.0022790582947748543,-0.002972353494070673,-0.0034003569556908253,-0.0033907475801404838,-0.002899394401009656,-0.0020397143720943343,-0.0010322916724576922,-0.00010369867679882699,0.0006061285196489821,0.0010787582673415458,0.001385495014825662,0.0016199546859801254,0.0018399337665762458,0.0020476470001318907,0.0022074482145831107,0.002278091716506679,0.0022353606297510413,0.0020763945924766156,0.0018133447080703965,0.0014676902309765229,0.0010680294941809213,0.000645303310528688,0.00022057781008043916,-0.00020983020385323707,-0.0006794099793512706,-0.0012364172430179125,-0.0019095487178016983,-0.0026683249077060086,-0.0034003493035186672,-0.003925571651806953,-0.004053189033762881,-0.0036635205094388526,-0.0027767058833331306,-0.0015676019956317436,-0.0003093098009008264,0.000733326303993967,0.0014081058089749428,0.0017245162801220156,0.001824724743609963,0.0018961902681786055,0.002073839698083937,0.002379773534846021,0.0027243592502807345,0.0029604406336871604,0.002959261935708764,0.0026715279400332166,0.0021480565557795896,0.0015137172768294688,0.000907994695134047,0.00041992382435753823,4.8860459180334994e-05,-0.00028847886068631453,-0.0007072242146532171,-0.0012856264222191015,-0.002014098328504613,-0.002787927971864084,-0.003445909248006304,-0.0038335695294792,-0.003859202456498203,-0.0035180795884458826,-0.002879532479424695,-0.0020512170991261298,-0.001143210696424597,-0.0002477480114718715,0.000564577599673115,0.0012421645608991425,0.0017531319380297877,0.0020910759915860923,0.0022792354283975662,0.002364121261819658,0.0023952155554530677,0.002398195250330737,0.002358027175055426,0.002226852896510624,0.0019575905145105127,0.0015454022416040293,0.0010491213189636722,0.0005728322628535118,0.00021161587958078154,-9.015084824535438e-06,-0.00016053044970352776,-0.0003812138896176207,-0.0007978709820455364,-0.0014415318491182798,-0.0022083207379352747,-0.002893143475849506,-0.0032806672666179683,-0.0032433263383697805,-0.002793228912792129,-0.0020645268924499075,-0.001243099821151391,-0.00048532704176609365,0.00013385837015836413,0.000624522916311122,0.0010435884312086266,0.0014403610775429896,0.0018165061113711296,0.0021215537303231288,0.0022840278662119833,0.0022571747996489658,0.0020504351067889694,0.001728258122207111,0.0013785454665557178,0.001069708784769832,0.0008188867963352464,0.0005854847478627908,0.0002916283573309352,-0.0001390725091560235,-0.0007392480722011632,-0.001469305050334297,-0.002217248950338542,-0.0028307365299156456,-0.0031695607061594504,-0.003154636068179516,-0.0027902885736547844,-0.0021515778401795765,-0.0013482456959941554,-0.0004881406406317555,0.00034179760981621404,0.0010750607952888028,0.001658315064587703,0.00205229151997799,0.002244725575809164,0.0022644381464203838,0.002179510080427808,0.0020711790978886918,0.001993476543198449,0.0019431017680732856,0.0018617879206756021,0.0016730553528446442,0.0013304914306631677,0.0008450814389859028,0.0002734348749253378,-0.00032317562195878686,-0.0009179678940173116,-0.0015260642071208694,-0.0021728155460668612,-0.002844432333819558,-0.003457076565164954,-0.0038700874354285495,-0.003940029895695779,-0.0035855449250773875,-0.0028271692362080865,-0.0017831804488712786,-0.0006277726613694199,0.0004651200909227356,0.0013673038674392448,0.0020164524722043084,0.0024108967024007288,0.002589918837382235,0.0026122021183298083,0.002538888216588491,0.002420577243914431,0.0022865291755035967,0.0021390600838898334,0.0019592736049909468,0.0017251847913719257,0.0014321451224616221,0.0010989813058217808,0.0007509312276626077,0.0003896010329580468,-2.4758272721108767e-05,-0.000557659732075276,-0.001253812762971967,-0.0020867873712661984,-0.002938984111547004,-0.003629576552902849,-0.003979954183541509,-0.0038844613156453797,-0.003351473606734766,-0.0024965224629942603,-0.0014945219215380915,-0.000517265993789144,0.00031477680268584,0.0009501285941778937,0.0013956258764546555,0.001691908663241594,0.0018901476270352501,0.0020368642785648654,0.00216465013204628,0.0022838694272950015,0.002375499442366222,0.0023923932964445773,0.002276771861526539,0.0019920855224609744,0.0015536272298103404,0.0010360849111960362,0.000545244739357574,0.00016227140039365583,-0.00011004430803358866,-0.000363368571666096,-0.0007424238011257913,-0.0013590117611347412,-0.002205900885091946,-0.003123709915557024,-0.00384936984549934,-0.004128277285363313,-0.003832454255711489,-0.003020704353337832,-0.0019092221653900301,-0.0007718745393678194,0.00017355334135395455,0.0008352619377305499,0.0012473187729411337,0.001515031350306817,0.0017458503602845851,0.002001640772326912,0.002285334468181319,0.0025536826207907767,0.002740746713172865,0.002781757473854768,0.002633837887626723,0.0022917642246621794,0.0017942427312550692,0.0012147151957635715,0.0006351122549922118,0.00011077744512550557,-0.00035607559394553844,-0.0008163374643554945,-0.0013407722250141714,-0.0019661519939908646,-0.002649465667746824,-0.003260347908177837,-0.0036241240742963332,-0.0035987330438242383,-0.003145748206840007,-0.0023551212498519967,-0.0014080119173874891,-0.0004975998114380923,0.00024857694740026536,0.0008042221383401973,0.0012239501920223955,0.001585773910053494,0.0019336307826202863,0.0022517744023176564,0.0024797707768860985,0.002552577482339905,0.002439244709571192,0.002159529808807452,0.0017730204130081565,0.0013497942463761758,0.0009383188250233084,0.00054470470358861,0.00013171537017523492,-0.00036025242437589806,-0.0009750575081506699,-0.0016996692809745115,-0.002441681439779673,-0.003044345047521311,-0.0033403229991535756,-0.0032212511991265933,-0.002686999697601259,-0.0018479729755344083,-0.0008804454994245657,3.9796954475156826e-05,0.0007924504719543621,0.001334765595862029,0.0016891200131092534,0.001909977134590691,0.00204874687822914,0.002130654019317322,0.0021497701296292315,0.002081037759170467,0.0019024931431407082,0.0016167125708012107,0.0012588628952070128,0.0008826839104747819,0.0005271619634550819,0.0001817643212758674,-0.00022319489143525321,-0.0007824754228616065,-0.0015454530586803275,-0.00244725568257912,-0.0032918817926381174,-0.003815249775753705,-0.0038061877327590504,-0.003218825564919261,-0.0022064849643774506,-0.0010527577234645824,-3.947358362471116e-05,0.0006719904848461937,0.0010839221828627698,0.0013184388763209653,0.0015246773327345948,0.0017941528710743579,0.002125113104758254,0.0024417944665116598,0.0026448113842459996,0.0026601570399895167,0.0024656543841261114,0.00209150923586751,0.0016025570972706671,0.0010713078983277215,0.0005494147545278757,4.639081854950519e-05,-0.0004732232650022486,-0.001065926470975544,-0.001762525581134514,-0.0025200572102644253,-0.003204142159035995,-0.0036242504245940508,-0.003614806252416565,-0.003122006980315079,-0.002244419115924173,-0.00119785529629556,-0.00021987233475236003,0.0005332378369136319,0.0010393321903760216,0.001386479092604546,0.0016917842295927693,0.0020152513601958254,0.002320671128296133,0.0025036036981571684,0.0024637997361490454,0.002173067835090317,0.0016953983020378898,0.001148568412361005,0.0006337542293386906,0.00017894462037208736,-0.0002673069357167117,-0.0007865777679749914,-0.0014152642449510857,-0.0020905619750287213,-0.002654537414774517,-0.002919258426949928,-0.002758553430445491,-0.002174569375554106,-0.0013016254130055155,-0.00034684225074100336,0.000497238677981992,0.001120280619080093,0.0015105367267046798,0.0017211607313712613,0.0018156935916264338,0.0018291589290675655,0.0017648516059834975,0.0016191686536976562,0.001406901416468475,0.0011610938507956349,0.0009039159520448049,0.0006120899669144228,0.00021129405739363726,-0.0003823867351343674,-0.001190666842901253,-0.0021162125879809223,-0.00294541983827379,-0.003422495686392903,-0.003361725065059715,-0.002738217834070675,-0.0017069708229326686,-0.0005395347951666356,0.00048803636931529207,0.001199375239319857,0.0015671002206397438,0.0016924262883741817,0.001734067599933319,0.0018239143878499328,0.0020062407877125014,0.0022229894736684186,0.0023478781727055502,0.002252841240424823,0.0018765520706712372,0.0012615806795049423,0.0005385597479903092,-0.00013836667854572144,-0.0006715640360239657,-0.0010683511943476549,-0.0014252093758696939,-0.001852808524307383,-0.002385282365969192,-0.002930673255168387,-0.0032976570324491934,-0.003288677210789802,-0.002808553947334072,-0.0019259065847014299,-0.0008504803670334204,0.00016209123304783922,0.0009247025719479123,0.0013892368085351458,0.0016377660820908477,0.0018066817595702937,0.0019935808942045975,0.0022022785296812036,0.002353568913951394,0.0023477804214768125,0.002136029481355525,0.0017562672847456274,0.0013147270351161432,0.0009260587451297831,0.0006474420220235222,0.00044344833137703057,0.00020147911987752985,-0.00020789151187849074,-0.0008539258237875523,-0.0016906436085072731,-0.002554577471617311,-0.0032215550569428286,-0.0034974480392775866,-0.003297873022677716,-0.0026772544585485867,-0.0017965830122340712,-0.0008526612529905508,-7.543312825097036e-06,0.0006521372240163568,0.0011183077677293233,0.0014366733794455421,0.0016690338599818816,0.0018571499232744137,0.002002083047434565,0.0020694269399277616,0.002018761807479646,0.0018391323775848742,0.0015651998742747945,0.001260371913369058,0.0009768617256911006,0.0007197230717600129,0.0004391041547714336,5.598521182430586e-05,-0.0004928447167405961,-0.0012125649001635266,-0.0020286020867668862,-0.002794194015910909,-0.003327557588112844,-0.0034704928332945093,-0.0031500817927315574,-0.002417062109400986,-0.0014373734134916906,-0.0004324281736450027,0.0004083621511424668,0.0009998152299200026,0.0013792038621860813,0.0016602789879449152,0.0019498335106104114,0.002276078614102786,0.0025711993059822566,0.0027170857786126797,0.002623658799287232,0.0022889337338486446,0.001802715982718025,0.0012930938194096802,0.0008513860842677629,0.00048292139153916153,0.0001120262856111326,-0.0003652044341311663,-0.0010136506670140898,-0.0018141357482258842,-0.002659588854409748,-0.003388129257531792,-0.0038349442691176226,-0.0038834625741554886,-0.0035009152305707047,-0.0027484645838183296,-0.0017625490492248663,-0.0007137642998445893,0.00024126474658719586,0.0009977042433865259,0.0015195974371744816,0.001835412776593522,0.002016980569274339,0.002148144048732143,0.0022906563966145696,0.0024577172630080176,0.0026066686846142723,0.0026572484656705044,0.0025303981851792488,0.002190504237617634,0.0016688700837548262,0.0010532085750514478,0.00044537817366770995,-9.12939098097707e-05,-0.0005646256511603862,-0.0010440589020853804,-0.001610356191299356,-0.002291207980852163,-0.0030203253622496503,-0.003645882474362778,-0.003986517150583164,-0.003906618045077897,-0.003373159013807175,-0.0024682619072339913,-0.001356098095804175,-0.00022452895549665924,0.0007703003140134195,0.001535939670179677,0.0020477217058201265,0.0023339652637834906,0.002454685585314647,0.0024804376027390738,0.0024714965136140325,0.0024580868592803127,0.0024283970495777097,0.00233402971624524,0.00211619821819652,0.0017430497342404072,0.0012377771767701615,0.0006771502777070724,0.00015416605653879474,-0.00027823334599767806,-0.0006470531740596238,-0.0010500774755612726,-0.001593018113286293,-0.0023061039988704424,-0.003093328162491499,-0.0037520716042660834,-0.004057512886170815,-0.0038649692270369814,-0.003173449174851504,-0.002120823808447851,-0.0009231677971585724,0.00020260153341130336,0.0010970115804870804,0.0016839776851757928,0.0019705365170557643,0.0020305696142434073,0.0019771612043127306,0.0019256819719457824,0.001954693793685985,0.0020780188747874383,0.0022405929603827287,0.00234160659108492,0.002276622892843999,0.0019824646009589273,0.0014670456188717275,0.0008101041005833,0.00013014389890228864,-0.00047142980097600264,-0.0009609897186002908,-0.0013848358269787741,-0.0018269155004549775,-0.002331605927798575,-0.0028412209195729666,-0.0031971216299859404,-0.0032154545341098054,-0.0027964004561616134,-0.0019972053963764795,-0.0010182163170363175,-0.00010696747697000214,0.0005611613260057235,0.0009538459127295965,0.0011669615630739629,0.0013426307183123497,0.0015769540169942894,0.0018715090186099213,0.0021471838952399035,0.0022994344116811054,0.0022561583286795925,0.0020082955661166898,0.0016055107296117168,0.0011272755514918134,0.000645446180529759,0.00019245797502515246,-0.0002529805088996659,-0.0007530082890731834,-0.0013690259528182044,-0.00210600629089361,-0.002872615171715693,-0.003487415011473054,-0.0037402442016619556,-0.0034846793216199044,-0.002713797079621377,-0.0015755857791531088,-0.0003165266413278165,0.0008176440318606954,0.0016718392232980953,0.002217850447097985,0.002525139753156542,0.002691385950692917,0.002777337710834733,0.0027817676409615166,0.002663143975749175,0.002385628897268148,0.0019565868542849225,0.0014342786185609936,0.0009057068147157248,0.0004496793530082864,0.00010237020583805278,-0.00016251959464301703,-0.00043123948109581616,-0.0008203573803369219,-0.0014230264595600536,-0.002248589174910646,-0.003185545315887079,-0.004015712938160242,-0.004485337369154111,-0.004406774144353674,-0.003742245535597972,-0.0026254820165778083,-0.0013079222520551632,-5.6228920698670154e-05,0.0009464379986030096,0.0016470215118843026,0.0021004738963551544,0.0024026866119812302,0.002625032204620366,0.0027876580755432107,0.0028756362998966574,0.0028720387801720463,0.002777258169619091,0.002603866275725366,0.0023602924662187888,0.0020438783449655217,0.0016510452131178303,0.001193418185672956,0.0007010772251577725,0.00020410492361195025,-0.00029666700211281234,-0.0008447961576856578,-0.0015082402445451251,-0.002325550230720438,-0.0032470442266746896,-0.004112365130946727,-0.004690724210869055,-0.004773311243843623,-0.004271931064521141,-0.0032686205104880744,-0.001986180133550987,-0.0006943895944694841,0.00039734244674221805,0.0012054545143146882,0.0017679853932896,0.002183230800628171,0.002532730168902385,0.0028327468873921985,0.0030365399780407404,0.003077597187732504,0.0029209321760385195,0.0025890079169643395,0.002149595471536309,0.001679432477948234,0.0012312104362865125,0.0008238284528853969,0.0004546649224051784,0.00011532230632275879,-0.0002071118381052838,-0.0005432356779388413,-0.000948994063207988,-0.0014852963594974783,-0.0021682735596627195,-0.0029195658073783645,-0.0035598546193158767,-0.0038684958588632535,-0.003686803875272958,-0.0030054224189027764,-0.0019790829246074037,-0.0008566129770192101,0.0001320923386946356,0.0008665159471503742,0.0013575442812145074,0.0017001416979867895,0.001994411048171395,0.002283830221034275,0.0025410352327811165,0.002698600714509373,0.0026967433462569005,0.002516580616702736,0.0021843560851286426,0.0017531149575366496,0.001278377904973613,0.0008001303835971529,0.00033344260040341794,-0.00013489578350123763,-0.0006428357206159116,-0.001236435610361618,-0.001936953013528704,-0.002702495511100405,-0.0034096684705398643,-0.0038791474056068705,-0.003944884342792396,-0.003533999151006143,-0.0027097703849013766,-0.001648992478856894,-0.0005659609012347903,0.00037171642830820554,0.0010894034421511701,0.0015973727414594677,0.001947856095440465,0.0021927130860345105,0.002365477341802699,0.002485967554176641,0.0025685147252353146,0.002618356288802996,0.0026186853728704914,0.002525596968131665,0.002285719194012671,0.0018724173543854267,0.0013164115164519701,0.0007036645182048009,0.00013340421358753394,-0.0003408055489016174,-0.000746949611698791,-0.0011783739748809834,-0.0017300375080117117,-0.0024248749658697497,-0.0031769799675732905,-0.003816335973336301,-0.004161831831609561,-0.004100848075499947,-0.0036324643381056903,-0.0028558550865682908,-0.0019179861106637256,-0.0009543830867886711,-5.332932827403189e-05,0.0007463709547016527,0.0014348298730076684,0.0020073525680440827,0.002452577647796777,0.0027561458645337347,0.0029130854028044627,0.002937373089950514,0.0028599736904000826,0.0027152970906545826,0.0025249007290689407,0.0022900616649901896,0.0019991237518696683,0.0016448399765080215,0.001238543610266899,0.000808321440829291,0.0003787428484574771,-5.559590359973635e-05,-0.0005416633380683695,-0.0011487408621259348,-0.001920473706450992,-0.0028215525760548724,-0.0037130784829735143,-0.004381479977943485,-0.004617805100552675,-0.004311590988135355,-0.0035081042842519056,-0.0023937873030985754,-0.0012153020209351936,-0.00017660889347176465,0.0006301887884562357,0.0012276091105678124,0.0016973212960283573,0.00210661314679103,0.0024621218762591116,0.0027142871374043523,0.002802493384923627,0.0027064361341873904,0.0024680292508152167,0.0021699661276792436,0.0018871671150739087,0.0016453970763097442,0.0014150171106925217,0.0011420247102750614,0.0007918717507724613,0.0003730297740495469,-7.686505431601215e-05,-0.0005301001380161362,-0.000999481836116654,-0.0015303666714537021,-0.0021527797492141313,-0.002826002207668535,-0.00342008147151145,-0.0037569647478728234,-0.00369246456776876,-0.0031899885181726102,-0.0023412098449689498,-0.0013240544756540557,-0.00032723227918651896,0.0005148208835666425,0.001148327993155535,0.0015879996093622014,0.0018851089175775514,0.0020952233954116195,0.002255635344660349,0.0023750617123230056,0.0024360896809696875,0.002409324760081421,0.0022734111196074966,0.002030407158663843,0.0017077994994405534,0.0013469480243388289,0.0009854096882935192,0.0006411351947587759,0.000302578616566687,-7.278488230473058e-05,-0.0005469438298920325,-0.0011728070756334304,-0.001953455754967611,-0.0028078501884043787,-0.003568661146477425,-0.004027356993243374,-0.004015154413750329,-0.0034822013723161604,-0.002531371029992898,-0.001384495918447591,-0.00029532351227468616,0.000547944236958845,0.0010837346235129295,0.0013761566992723682,0.0015586489561931123,0.0017544993209005432,0.0020142129931593335,0.002298290269310264,0.002510112045593922,0.0025581245547244337,0.0024114428430677937,0.0021173560351415146,0.001772321524632273,0.0014663036692003219,0.001234676372897236,0.0010429292626728877,0.0008061082495620109,0.0004266887775468556,-0.00016697531695713077,-0.0009901937221858009,-0.001982160335249114,-0.003002835743136105,-0.0038566178836204946,-0.004346395428416224,-0.004343577242654837,-0.0038426541426174795,-0.0029683908259688996,-0.0019253155793973326,-0.0009118332299453246,-4.3952799411488925e-05,0.000670117259341278,0.001292971395181408,0.0018849025067942547,0.002442741594617312,0.002889763778837508,0.003121673702693826,0.003076955081116827,0.002784621227557625,0.002357851981966698,0.0019371037452594931,0.0016179105793882953,0.001406801378683085,0.0012292889378426172,0.0009803694028912428,0.0005827898789935337,1.8053030363636164e-05,-0.0006811001897103924,-0.0014588588009347963,-0.0022558136572478904,-0.0030049592946664277,-0.0036162173664510966,-0.003976094008650664,-0.003977974251913324,-0.0035708996539972216,-0.0027946931281782514,-0.0017749775157866218,-0.0006785474090821381,0.0003447890120534711,0.001202858066170821,0.0018689749266590317,0.0023623473610146868,0.00271730404884818,0.0029564544432460673,0.003076253493449939,0.003047997669966325,0.002834274001990334,0.0024168627515558667,0.0018244176135613554,0.0011411431872048418,0.00048120439706205955,-6.688160554443098e-05,-0.0004955573455488373,-0.000891515905556019,-0.0013842590032438016,-0.002050080254917079,-0.002829570811292554,-0.0035189051609499683,-0.0038537762464704774,-0.0036445569395197846,-0.0028836420690864107,-0.0017593201222795315,-0.0005677181876802076,0.00042363571889253524,0.0010823966154814252,0.0014361764186917566,0.001617328167188888,0.0017716822557538323,0.0019826216116931757,0.002240860835312421,0.0024624226853210596,0.00253829973404783,0.0023916420877713182,0.0020185516216151096,0.001495127170097912,0.0009464469040580735,0.0004899300925199186,0.0001788120045582717,-2.6396029002761004e-05,-0.00024222832370158332,-0.0006066368971889607,-0.0012070622764854273,-0.0020246858980244014,-0.0029216091685307735,-0.003679868196745785,-0.004078473843254467,-0.003976722003871049,-0.0033677532543586086,-0.0023790756075075478,-0.001220956714019893,-0.00010712367590231218,0.0008166257518894078,0.001506239666530596,0.0020050164718725273,0.002392831200491324,0.002726656421409351,0.003002676799850302,0.0031585882009799397,0.0031135221501811068,0.002822465909115988,0.002313538679577581,0.0016861551074009522,0.0010708109480719182,0.0005725134210525628,0.00022672336152232409,-1.2617579108383846e-05,-0.0002500201065987169,-0.0006013724135219108,-0.0011410077560176759,-0.0018618419062807134,-0.0026634354743919836,-0.003374932629661645,-0.00380882404392831,-0.00382870003278639,-0.0034039174924847294,-0.002624407080854525,-0.0016652507510552849,-0.0007171924460943617,8.136375552136995e-05,0.000678012024720571,0.00109598962111037,0.0013962688083481722,0.0016392669147503403,0.001864219989366513,0.00208636917475313,0.0023007652605412064,0.0024835216365052346,0.0025914323719072943,0.002568248931189986,0.0023637395154582066,0.001961471175260193,0.0014007698691995002,0.000775877444077192,0.00020469926399261078,-0.000222983864915121,-0.0004925691377898988,-0.0006791879351360866,-0.0009160152468787705,-0.0013262842923455612,-0.0019496192893754605,-0.002699908586271909,-0.0033802528254259397,-0.0037546220497581316,-0.003647221903497873,-0.0030238963089224435,-0.002015480978186588,-0.0008696572986534564,0.00014773863098026653,0.0008565902380643009,0.0012240200356284769,0.0013570355094909314,0.0014336495172925475,0.0016092173590850694,0.0019439941743485153,0.0023829197941965673,0.0027898121963427914,0.0030127255397140095,0.002947478884556569,0.002573552540457014,0.001953147692830095,0.0012002740485656512,0.0004358037051683085,-0.0002540910021402501,-0.0008417753815309238,-0.0013554488391528887,-0.0018496616556714575,-0.002360530057042472,-0.0028674053749686884,-0.0032835713084418466,-0.0034855084453678862,-0.003368735884983715,-0.0029014216191627206,-0.002146485080802476,-0.001239851842395469,-0.0003364046984539376,0.00044828066738321934,0.0010716987199551567,0.001559105668607754,0.001965366279267256,0.0023274130188132873,0.002635659951483912,0.0028411453562770476,0.0028918388728211997,0.0027709283925853047,0.00250832071700541,0.002157795803537733,0.0017603244157535325,0.0013248182179073215,0.0008408594058652657,0.00030847891490157187,-0.0002455155304565992,-0.000782663464244149,-0.0012875956160127255,-0.001789220377362919,-0.002341673048282612,-0.002969833569524674,-0.0036167136053651457,-0.004136110574682166,-0.004345516793905317,-0.004111631608425272,-0.00341708973295882,-0.002369885820328642,-0.0011544037846648006,4.380947117579956e-05,0.0010985840371811246,0.001962997509941973,0.0026474143979113955,0.0031755941256907108,0.003547912313577195,0.0037341211654169618,0.00369786963213471,0.003433060450236555,0.0029841809625456754,0.0024356813034222993,0.001878534831594017,0.001376495529903327,0.0009506778707451217,0.0005852653232649932,0.00024339338942253993,-0.00011992597158840543,-0.0005521204961684639,-0.001097550588138665,-0.0017815407019556298,-0.0025823890980622793,-0.0034061883856280877,-0.004089052429308474,-0.004442038681768366,-0.004327220668003497,-0.0037270425928837515,-0.002764825549180073,-0.001658803301999264,-0.0006304798883087406,0.00018488526711961687,0.0007792391675688451,0.001245421532703175,0.0017015593615589699,0.002209576868936183,0.0027327176091754735,0.003154163678220219,0.0033437261930669626,0.0032320132544110198,0.0028484752588533403,0.002303463644274423,0.0017293353983034287,0.0012187138522341773,0.0007949249838575474,0.00042447239448435616,5.3460791394228544e-05,-0.0003608314329562516,-0.0008397581453265814,-0.001388324731328152,-0.0019963970527076243,-0.002625032700390495,-0.0031879943152655628,-0.003552881474073278,-0.0035786100154909664,-0.0031791592659311954,-0.002378189427062787,-0.0013173736645564263,-0.00020730962594625206,0.0007546678014723057,0.0014560597815914296,0.0018950654006099263,0.002153520003107085,0.0023372862092166757,0.0025165926955590607,0.0026930316890911065,0.002804093931290788,0.002759704572609268,0.0024930432417831997,0.00200155951720565,0.0013564567793868595,0.0006728472758285345,5.398575345371792e-05,-0.00046088706961856866,-0.0009154155687626147,-0.0014084925403175567,-0.0020311730480002655,-0.002799156222409841,-0.0036169759452044127,-0.004296169920635241,-0.004622840243618419,-0.00444442096543174,-0.003735289827959563,-0.002611508985736424,-0.0012900106667568334,-1.2752032468901905e-05,0.001031166721865952,0.0017561936843447786,0.0021885087888292437,0.002432526478956055,0.002611239461569507,0.002806935237186362,0.0030303663623564765,0.0032328112597242186,0.0033506111917355015,0.003351422060707172,0.0032513093263762008,0.0030930825010592766,0.002903319683005998,0.0026589236963422747,0.002285848326659363,0.0016908426408174565,0.000807602257306724,-0.0003666096015494222,-0.0017584944010510908,-0.0032302337448148945,-0.004605223251712076,-0.005698274694395589,-0.006346461817167589,-0.006440919602701601,-0.0059570231985854325,-0.0049724737895067836,-0.003658428196396202,-0.0022359804826940204,-0.0009084674122313537,0.00020166167331991188,0.0010785187678666174,0.0017850651838383432,0.0023970399719687443,0.0029392729055413348,0.0033660903987266164,0.0035992588508526498,0.0035965996805535382,0.003400729525921945,0.003129223175851777,0.002908184715544099,0.002791899244974671,0.0027222644682570805,0.002555385023928519,0.002138856812748701,0.001393076111854141,0.0003522905295609131,-0.0008496491279602785,-0.0020310809167955577,-0.00301953516808723,-0.003689974549165209,-0.003979123055084017,-0.003883800039243745,-0.003452117809902426,-0.0027708737740474885,-0.0019491853379280696,-0.0010998858449753307,-0.00032246123400500555,0.0003093380844249992,0.0007548142319704858,0.0010098907841578394,0.0011073465308607438,0.0011114824708429584,0.0011032482469710175,0.0011542458739416438,0.0012957207356314297,0.0014974635531873855,0.0016729033355057667,0.0017149413244474604,0.001547189942186783,0.0011616538794133892,0.0006194065957283209,1.4620682541585878e-05,-0.0005722902550984227,-0.00110006917260655,-0.0015566134421272255,-0.0019279177092654132,-0.002174796235666073,-0.0022364189620835903,-0.002057019014559485,-0.0016169040355728413,-0.0009503977809979045,-0.00014420467201057,0.0006816950777283589,0.0014049141391503112,0.0019342646908791091,0.0022327019566342294,0.002316941857679828,0.002232269361186766,0.0020176563641951064,0.0016849398886561967,0.001226963078892196,0.0006478095997143095,-9.877342554427248e-06,-0.0006648282322441849,-0.001228638680480738,-0.001648695810439933,-0.0019318866376339754,-0.0021297872772476872,-0.002292214076278697,-0.0024196930920940005,-0.0024492394160323242,-0.0022866941336619,-0.0018663770411034947,-0.0011991653125855107,-0.00037823133556945236,0.0004596642740352331,0.0011921807430745632,0.0017553029132750609,0.0021521317115828424,0.0024275450643625324,0.0026275135951789774,0.0027666976305429137,0.0028196105313734007,0.002736280616667733,0.0024718578281780574,0.0020154110131787124,0.0014050982337175289,0.0007220779552975064,6.281749566509057e-05,-0.0005011876291103572,-0.0009581710788104363,-0.0013644390196839234,-0.0018147788217146366,-0.002383611949868884,-0.0030656381925603,-0.003750421459423881,-0.004250144165560503,-0.004371035882594122,-0.003994258365740111,-0.0031269932799322577,-0.001901703617739585,-0.000528823812747556,0.0007716766810155254,0.001830741852117625,0.0025636458666566716,0.002971884492240286,0.003120463909291089,0.003102951659394401,0.0030065762672964232,0.0028862192837637766,0.0027523986745742906,0.00257604869310615,0.0023102456376277013,0.0019227841058412156,0.001424757523542295,0.0008764174332863777,0.00036016875169496876,-6.955027181071113e-05,-0.0004306167882015689,-0.0008193722932052189,-0.0013641761717916982,-0.0021432917608318214,-0.0031103874206726196,-0.004074604760720254,-0.004757050762661531,-0.004903205741566939,-0.004396003678390001,-0.003310652418483437,-0.0018840475582279723,-0.00041867905532654573,0.0008274441232241195,0.0017146753185167368,0.002236470373049202,0.0024833915600504944,0.002582822160474443,0.0026420842443768367,0.00271344766935527,0.0027874088056089224,0.0028101233641435602,0.0027142304884210915,0.0024505876541239748,0.002010972568427465,0.0014361310747578833,0.000807398349912438,0.00022315117854994587,-0.00023528488776608275,-0.0005389558175334004,-0.0007335371989580426,-0.0009330332841546469,-0.0012769110730367493,-0.0018597909288166565,-0.002662831273561994,-0.003525824647148921,-0.004187078875990564,-0.004384678276402354,-0.003974893879257935,-0.003006593698715647,-0.0017091769900062694,-0.00039706025391432226,0.0006612346422863992,0.0013437552378022526,0.0016987816217130182,0.0018871895391531185,0.002080620427010819,0.0023711177116188965,0.0027357618576688844,0.0030659976533258483,0.0032360974839087003,0.003168524054331532,0.0028632921731764917,0.002384399737431741,0.0018205833859377485,0.0012461567540935498,0.0006993950634449054,0.00018064143111860332,-0.0003378256571182973,-0.000897546326873909,-0.0015359268714238406,-0.00226240169279271,-0.0030330711667833493,-0.003738762533504336,-0.004223655296700177,-0.0043377117075217644,-0.0040026186195048895,-0.0032555996121893228,-0.002242950068830238,-0.0011631320968819106,-0.00018888848365911039,0.0005910090176589899,0.0011830486707868628,0.001653492961344416,0.0020710718501650714,0.002461529563978702,0.0027968372937232575,0.0030190979334201173,0.003079094844165124,0.002964302037191404,0.0027023130938309964,0.002343251663348322,0.0019362544422689778,0.0015145451454656894,0.001093869844983459,0.0006781334839436528,0.0002619820829616508,-0.00017367460490778214,-0.0006653648553069139,-0.0012561720041444056,-0.001964869200358954,-0.0027483086025967365,-0.0034839423688239573,-0.003994491704902954,-0.004113370177273156,-0.0037617970625169897,-0.0029956911411508236,-0.001993136753161581,-0.0009852442353611053,-0.00016445722843165251,0.00038478983285738193,0.0007023514852953619,0.0009127960342477498,0.0011528348896186022,0.0015014004431603428,0.0019443246265970456,0.0023874407166467656,0.002707484541198185,0.002812009990704473,0.00267794001930053,0.0023537376050851815,0.0019316891299446682,0.001509884946332772,0.0011612105741016722,0.0009150589479041015,0.0007490214825306673,0.0005892459228746577,0.00032492443231639875,-0.0001558984452928086,-0.0009117854534432168,-0.0018947617253717763,-0.002930944346580733,-0.0037602258230964593,-0.004130912635179402,-0.003908772519609292,-0.003142491263472766,-0.0020461148961080627,-0.00090523003497014,4.266941153206142e-05,0.0006910140785053576,0.0010731435696486942,0.0013043791991361295,0.0014981006532016107,0.00170326990366532,0.0018915883416382709,0.001992100477697811,0.0019463289993586963,0.0017493552657472705,0.0014540817945146193,0.0011395090764739044,0.0008647392157496621,0.0006362200562654854,0.0004049920190085628,9.303600610495672e-05,-0.00036512596485049377,-0.0009830716298171165,-0.0017000901181202191,-0.002385493964605529,-0.002872702534336996,-0.003015877520569965,-0.0027488817650211444,-0.0021181511159227015,-0.0012678865335940038,-0.000379851336845402,0.0004019299105337596,0.0010197497649946639,0.0014981383483448193,0.00189496440699766,0.0022437042503348813,0.002525480569458816,0.002685207050620865,0.0026738863509794667,0.0024834991699710573,0.0021521047960786632,0.0017421783723276761,0.0013123011440371955,0.0008994611426953302,0.0005141616213027432,0.00014011785118857791,-0.00026630775135069544,-0.0007705975412843018,-0.0014373379582898042,-0.0022890941806914884,-0.003264618487730021,-0.004205529098897096,-0.004891582458715908,-0.0051173779691128475,-0.004775276708462495,-0.003901067293278577,-0.002658122845063784,-0.0012702999331494175,5.937367006982953e-05,0.0012043147712328802,0.0021239986541658294,0.0028342575134587913,0.0033633643642479753,0.003721117657073998,0.003895640295466127,0.0038738201870385227,0.003667348762081666,0.003325132865919079,0.002923567438240517,0.002539632180547966,0.002218993644941541,0.0019511022213910972,0.0016608144890378064,0.0012243163146234593,0.0005126231699067274,-0.0005455620028490045,-0.0019050634163506781,-0.0033808751335204943,-0.004682594591133085,-0.005503839293037998,-0.005634484016862777,-0.005046502199765176,-0.003911025390327839,-0.0025342321088466465,-0.0012386942165636397,-0.0002443612261352761,0.00039598489786128255,0.0007798472759864617,0.0010720327723454152,0.001404090956029658,0.0018094651953521656,0.0022222168554010217,0.0025291419360206043,0.0026385449652073685,0.0025273626176944303,0.0022472894355877095,0.00189431574917949,0.0015608104913061342,0.001291562593215269,0.0010602742637852768,0.0007765078734682329,0.0003253148422975166,-0.00037009909449520163,-0.0012870895504658597,-0.0022768529577276066,-0.0030969844281476884,-0.0035000975894401098,-0.0033413338685264514,-0.0026500593141595506,-0.0016248252457062204,-0.0005503485473969689,0.00032253286664637917,0.0008737871010176075,0.001142246018471333,0.0012767421417386156,0.00144073626879545,0.0017203915898721333,0.002080098102430375,0.0023842988859310854,0.002472518062984812,0.002248610663257933,0.001736653701028623,0.0010711635947307935,0.00042441334448309787,-8.903326355818404e-05,-0.00047406244022730267,-0.000843874243327171,-0.0013391745144422141,-0.002022689281082537,-0.0028102456316300693,-0.003481608980815473,-0.003772243755656722,-0.003502843003181849,-0.0026795921326811067,-0.0015090208433183642,-0.000314305105880285,0.0006068895804077165,0.0011099042144794014,0.0012499429508200986,0.0012264185235761201,0.0012595257779029149,0.0014704300153803905,0.0018307178647347724,0.0022016150506130416,0.0024284181227960493,0.0024272648976096946,0.002216271576654544,0.0018856564506745327,0.0015384847765939095,0.0012415053132657202,0.0010065718603779663,0.0007984548382829119,0.0005535450702555048,0.0001989406311205679,-0.0003283185114367049,-0.0010585475247661363,-0.001965415747936026,-0.002950461426913023,-0.0038482874711463382,-0.0044594624517483,-0.004607153370143349,-0.0042002519097292185,-0.003276821304869653,-0.0020047499455804305,-0.0006333721799852773,0.0005873326297849125,0.0014871659945410768,0.002022244365284621,0.0022690428388698475,0.002370580996984638,0.002460435591007958,0.002599845893168159,0.0027565344677020734,0.0028333274026400993,0.002729899204772564,0.002404607345047397,0.0019037558417319513,0.0013424343858659245,0.0008462192357778516,0.0004842422204205739,0.00023008029467344138,-2.671814660254858e-05,-0.000422380982349468,-0.0010431219301773758,-0.0018705276295225863,-0.002775187994347729,-0.0035599813612855148,-0.004030300200630842,-0.004059256453000284,-0.0036237718022113863,-0.002804005928585444,-0.0017531213777679567,-0.0006515139219294607,0.00033983340093913627,0.0011149400015767628,0.001639250228874898,0.0019437226038682494,0.0020998315493164447,0.0021849953664697932,0.002251083280846497,0.0023071439176686917,0.002322226345608184,0.0022466967118063073,0.002042443010066279,0.0017070193698109398,0.0012783112033898356,0.0008159004368645501,0.0003684550507343775,-5.454088400399257e-05,-0.0004890202338030633,-0.000993113737994605,-0.001602465419835709,-0.0022858844941602108,-0.0029282419546025514,-0.0033584604573135522,-0.003417722351011907,-0.003036973174002436,-0.0022805734005391124,-0.0013267666757807402,-0.00039083030008796326,0.00036822722564066733,0.0009055960968525141,0.0012825573527739606,0.0016013330892613387,0.0019250384989109531,0.0022318670335502422,0.002430248006426763,0.0024237110338123343,0.0021831313843780316,0.0017787343320898915,0.0013487199624985413,0.0010213584415126543,0.0008378379025797353,0.0007238805001807799,0.0005282719376577385,0.00010598276541801593,-0.0006007608462905074,-0.0015245285784725136,-0.00249154015991925,-0.0032823536990625873,-0.003705061036822643,-0.0036533526229360377,-0.0031326164894457404,-0.002250283665922846,-0.0011779770465817799,-0.00010031607829829713,0.0008326598894586106,0.001535141137598209,0.0019892481052969585,0.002223842481920912,0.002280041600413332,0.0021829867269401223,0.00193810112477534,0.0015555418707468766,0.0010849229012432683,0.0006295355138451251,0.0003189146426955498,0.0002480174225393398,0.00041953610603250485,0.0007290486603601724,0.001005356952225546,0.0010811484352370104,0.0008521805853026249,0.00029850332113362586,-0.0005278558198259199,-0.0015253573795433817,-0.002557688656216018,-0.0034623100822558915,-0.004067341275261085,-0.004226605654384167,-0.0038658010687807366,-0.0030186241535449555,-0.0018308199629181866,-0.0005227369675896859,0.000679628308013946,0.0016177480446974584,0.0022444411673310243,0.002616746302930349,0.002842258855734718,0.0030094411961050704,0.0031406075205837594,0.0031905415707784613,0.0030852714260947043,0.002773790107843787,0.0022629721253704937,0.0016206018019352922,0.0009507863421293059,0.00035731655384291683,-9.045766915025284e-05,-0.00038196408028519455,-0.0005766095191709745,-0.0007955831247399174,-0.001185383336798432,-0.001852780320210968,-0.0027920144327792645,-0.00384413009633265,-0.004725213446978081,-0.005127904716750576,-0.004855270900564496,-0.003918485132686167,-0.0025419676091198882,-0.0010678236038795745,0.00019289867247691906,0.0010851781527497233,0.0016482098752662324,0.0020521522691451313,0.0024737156237825348,0.0029823861003605914,0.003500359369252782,0.003855012741349832,0.0038880194070198115,0.003552859894412456,0.002942843663785819,0.0022377430453038314,0.0016079253781789832,0.0011369866198208708,0.0008046173407852679,0.0005272430915266449,0.00021780498303112833,-0.000177428747195057,-0.0006794436184183778,-0.0012951335814613365,-0.0020226912173068458,-0.002830443539396441,-0.003626992383045818,-0.00425698567197816,-0.004543075759363581,-0.0043602271409153275,-0.0037004993563647245,-0.0026871984492288442,-0.0015271270643476813,-0.00042720509804400233,0.0004789437651019641,0.0011590812825355344,0.0016597544825133082,0.0020558031563597096,0.0024039448439731378,0.00272070122404461,0.0029849180756557014,0.003152877029699427,0.0031758104601709077,0.0030177262132099632,0.0026735799872790508,0.0021813965410661515,0.0016166517181577414,0.001063321543003496,0.0005719938940900306,0.00012887789309379153,-0.000341479720616945,-0.0009340210386583839,-0.0016994143439201903,-0.002592605591917214,-0.003465390620992939,-0.004113351973941157,-0.004357467667451396,-0.0041193881569706265,-0.003451051165588582,-0.002504613905493975,-0.0014623096534496275,-0.00046647666342012803,0.00041451234063850245,0.0011737366193249003,0.0018245548449592529,0.0023629990967997975,0.0027581237433306014,0.0029717843219553603,0.0029884094250069116,0.002830936694965699,0.0025523415081339295,0.002211014613748404,0.0018480731206921375,0.0014799623598784571,0.0011066362187139279,0.0007251119753316751,0.00033669807589321193,-5.7396524807922194e-05,-0.0004679586590579849,-0.0009254916437146486,-0.0014707370557899785,-0.0021235154184623337,-0.002842548380534093,-0.0035042227353255786,-0.003926488841826298,-0.003939234328746686,-0.0034683853747579257,-0.002584021877264751,-0.0014793975286471917,-0.0003886113903098388,0.000512210490772103,0.0011663720186917265,0.001630148456777842,0.0020076469543255007,0.0023688716719191317,0.0027004251011514485,0.002916915683061028,0.0029231229896113887,0.0026850000895851924,0.002262132352487774,0.0017798220311130873,0.0013594208928427096,0.0010536399004025044,0.0008291543463402246,0.000604023894505103,0.00030760946847363806,-8.307631364220906e-05,-0.0005529597484051672,-0.0010858256697069257,-0.0016870532956689546,-0.002365185855721909,-0.003084067325261169,-0.0037272713577406157,-0.004113276204334367,-0.004065479547755743,-0.0035011584106074784,-0.0024867281078056434,-0.0012244483405032052,2.4954340075715003e-05,0.0010442087929190948,0.0017353169539201913,0.0021345648231684312,0.0023640904865963822,0.0025489986261163747,0.0027450453759730493,0.0029141646988758516,0.002957393159976633,0.002782925916598942,0.002369525239150904,0.0017905830827895175,0.001186210020234265,0.0006972602693171271,0.00039434545491547675,0.0002383432824590462,9.433374464119749e-05,-0.00020518687387744837,-0.0007762995241241499,-0.0016179152381759203,-0.002595878102764731,-0.003486660331288424,-0.004062815776636298,-0.004181018726119384,-0.003830610541860663,-0.0031207683156032414,-0.002217870273410777,-0.0012709079478660779,-0.00036531584328155944,0.00047589182455991784,0.001254929559559772,0.0019570237816802674,0.002533131549134638,0.0029183136377850796,0.0030717126785724204,0.0030090194000852903,0.0028025014925973854,0.00254510875546593,0.002300266541389252,0.002070317426869992,0.0018050226261444558,0.0014440053299231,0.0009629155598385182,0.0003905869269859622,-0.00021381791174817505,-0.0008046578778140665,-0.0013798039366942532,-0.0019717731025500223,-0.0026032592933130337,-0.003237445941948144,-0.0037610121098688052,-0.004019056728925716,-0.003886739580648583,-0.0033357846103089896,-0.0024555402765572237,-0.001417443464175841,-0.00040608209174561153,0.0004448761129764849,0.0010839591385962085,0.0015348599334082697,0.0018631869462254057,0.002135311736590893,0.0023858643330038486,0.0026051300847280854,0.0027497307758406015,0.0027699667149461336,0.0026388734947521675,0.002367186034109455,0.0019971108669853853,0.001581019902628632,0.0011596230216883176,0.0007516673157922434,0.0003561821814395771,-4.136129866928723e-05,-0.0004667748403721488,-0.0009561144429703468,-0.0015445735861061482,-0.0022384937360833915,-0.0029807681109399768,-0.0036357217064260086,-0.0040175144336772415,-0.003961628245024214,-0.0034066139713222364,-0.002438077719507382,-0.0012639721884866028,-0.000130302245505988,0.0007779050833513551,0.0013978751776009795,0.0017840875669728703,0.0020471821527387407,0.0022762790662461856,0.0024884236047513497,0.0026286719085126657,0.002614063827410501,0.0023919310027611523,0.0019785271915690353,0.0014578746705097617,0.0009437350600493928,0.0005266385548191273,0.00023332808240093263,1.702731616627425e-05,-0.00021893052387812149,-0.0005751949720655103,-0.0011062128734248642,-0.0017846177731987906,-0.0024951350648941607,-0.003064029785275077,-0.003316877849731301,-0.0031441699707141107,-0.002547819804932603,-0.0016471210086162625,-0.000639248211273083,0.00027032949189880905,0.0009383504899422206,0.0013258975105546404,0.0014963641764334768,0.0015732016508466496,0.0016776904881454621,0.0018732913315726962,0.0021385985401982887,0.002378874532242911,0.002471077375812111,0.0023234770158464813,0.0019230269780390666,0.001346302250813971,0.0007247509716107926,0.00017787640487727563,-0.0002517760069214809,-0.000623156314733508,-0.0010601537945815302,-0.0016680384832387482,-0.0024485031970683567,-0.0032655365519566708,-0.0038884493611465298,-0.004093528549360674,-0.003769585495098176,-0.0029690975193235702,-0.0018791672283486622,-0.0007338976606725742,0.0002796585250145361,0.001074268568361427,0.0016575540076820383,0.0020863690099395932,0.0024137835939721172,0.0026570916469600032,0.002797655540692069,0.0028046047558735222,0.0026636052522711375,0.002392873760780392,0.0020388842906905046,0.0016570046471881573,0.0012900423180979659,0.0009561689626108566,0.0006490878180898411,0.0003449532816215224,9.085773270349793e-06,-0.00039883448321815867,-0.0009159313950395523,-0.001558443366664793,-0.00229827610339317,-0.0030475428168336167,-0.003667548774897623,-0.004007599450688107,-0.003959634306414919,-0.0035012535438912343,-0.0027037729604354284,-0.0017021184799197574,-0.0006455627135752373,0.0003433800785165474,0.0011851143427234684,0.0018370389942863681,0.002281375143033564,0.0025203747537958293,0.00257997066632329,0.002512230269663453,0.0023865643868436676,0.0022683091887062377,0.0021934548207768858,0.002152858723898251,0.002095713554352929,0.001952367563333771,0.0016658533182697605,0.001215865973638661,0.0006228253381299371,-6.815920245786045e-05,-0.0008107427005267014,-0.0015710816316869814,-0.0023221155582414175,-0.0030231057981149907,-0.0036011976749348584,-0.003953413270268142,-0.003976602578225163,-0.0036147267141957064,-0.00289812705735216,-0.001948795612514203,-0.0009421992660809495,-4.1364214285975146e-05,0.0006632125427722522,0.0011760690572915665,0.0015712278834015792,0.001935771553895401,0.002316132923042953,0.002695530477659688,0.0030089710713458425,0.003179854698677733,0.003154397489724128,0.0029186317962955335,0.0024972198453660503,0.0019420515010921766,0.0013178217106849383,0.0006862740970670924,8.82753968422205e-05,-0.00047281595067269304,-0.0010357221549456425,-0.0016616464578304213,-0.0023892960306844124,-0.0031830416473263056,-0.003907778345891056,-0.0043590622811703296,-0.004347713776262209,-0.0037994888998485275,-0.0028108281096750915,-0.0016205786839491372,-0.0005066709254393511,0.000336557877518779,0.0008725028647333954,0.0012099619066653145,0.00151754098387322,0.0019175364149654236,0.00241803177855207,0.0029150568692252435,0.003255721979519164,0.0033218851801257764,0.003087834714443404,0.0026253949018726335,0.0020618574279533453,0.0015201302617408314,0.0010734399295125867,0.000731166249177779,0.00045198992980355996,0.0001691951572305191,-0.00018537380235641434,-0.0006633773131283923,-0.0012856439409468167,-0.0020289309976550345,-0.002817147815203626,-0.0035261692923619077,-0.004010136891896448,-0.00414646574392739,-0.0038822890635101764,-0.003258234393448328,-0.0023943054630023814,-0.0014433321668864151,-0.0005358334971611667,0.00025644898279690115,0.0009236537724584209,0.0014917100903613096,0.001985326148678234,0.002401884235284561,0.0027104684288296425,0.002874768221482582,0.0028831595753527513,0.002763969303465827,0.0025735526551048027,0.0023636887224785376,0.002150192100022182,0.0019054174785979876,0.0015815593102251108,0.0011492126104141538,0.000623080663210836,5.490968021567717e-05,-0.0005020897223938879,-0.0010308881008194745,-0.0015607318167940596,-0.002138637963514122,-0.0027783894429711424,-0.003420090596714574,-0.003929051340691546,-0.004140402318211741,-0.003929358063149584,-0.0032718926500933327,-0.002264889623164043,-0.0010953244433100648,2.7024350120509032e-05,0.0009420937933634318,0.0015847327084709752,0.001984353329480231,0.002224277973286821,0.0023864548807293433,0.002512265453127835,0.002596527467007154,0.0026093584600856796,0.002525087694588886,0.0023384515130700626,0.0020626043207566305,0.0017182148942079482,0.0013261396051907708,0.000906872162712375,0.00047913803668832625,5.007252720408721e-05,-0.0003985465787508266,-0.0009117993984080699,-0.001537088962260299,-0.00227831548707735,-0.003055198499465406,-0.0037010127684499903,-0.004014587808849493,-0.003848624554603964,-0.0031882491241596767,-0.0021727122274145506,-0.001043174739211888,-4.215167563117073e-05,0.0006823794846960347,0.0011197633218925744,0.0013697179663385958,0.0015676247234859809,0.0018071698719479123,0.0021010095406476465,0.0023923154105655,0.002598039190355641,0.002650717220798359,0.0025176410590859732,0.0022005565443260406,0.0017324541331252205,0.0011797176810347727,0.0006395593660317711,0.00021577888393328986,-2.9559667745645635e-05,-0.00012552042429605495,-0.00020541867670153028,-0.0004588146042858784,-0.0010333793533184054,-0.0019348324234773418,-0.0029853064916154372,-0.0038753258857096413,-0.004293494427361844,-0.004070557912378415,-0.003260940984371412,-0.0021162498392078917,-0.0009644755812540434,-6.018862665739533e-05,0.0005157333574404187,0.000859267557142028,0.0011563950747095575,0.00156001396587781,0.0020991262739188657,0.0026664159204339887,0.0030848066635062663,0.0032102602274883957,0.003010670130084614,0.0025781883203182744,0.0020731012528210366,0.00163620441925467,0.0013207782274196594,0.001078671619345929,0.0008006013826137796,0.00038093348502343273,-0.00023060340146716356,-0.001011820583887664,-0.0018819277058933096,-0.0027277673228446445,-0.0034274981810044555,-0.0038699933667142436,-0.003975158742495794,-0.00371497489744443,-0.0031259466776630117,-0.0023029781758575622,-0.0013742565373149017,-0.000467146230331345,0.00032227693619341037,0.0009476709504633485,0.001415268420652126,0.0017702550920140896,0.0020691905040138704,0.0023470960858791973,0.0025938034074750216,0.002753947161530315,0.0027551015138489354,0.0025523377725941133,0.002164591214016587,0.001678620578077745,0.0012124404845017226,0.0008537209699379609,0.0006059273041477887,0.00037522363858656177,1.2632010475207233e-05,-0.0006036153203384135,-0.0014862378859563778,-0.002503689329667623,-0.003415878731638456,-0.003967100565742466,-0.003991293371893349,-0.003478789462012837,-0.0025744825587189013,-0.0015118360291810297,-0.0005173659357192045,0.00026839393819905405,0.0008197900220384331,0.0011995346198171403,0.0014994872203873417,0.0017838203711747656,0.0020615728987665666,0.0022944256171035437,0.0024254231801455707,0.0024074174027250927,0.0022185302161573813,0.0018662382020929649,0.0013876539335961123,0.0008465828611352093,0.0003189688430653573,-0.0001375500822279152,-0.000516670296343117,-0.0008723710593837039,-0.001285964501340384,-0.0018027087055868677,-0.0023769574356291116,-0.002866904112465256,-0.003091643833115149,-0.0029225126725783397,-0.002355334178405601,-0.0015186866384070913,-0.0006117430568747567,0.00019093178769404354,0.0008103568312159701,0.0012701835217857444,0.0016429279847423668,0.0019772790397532855,0.002257225621638042,0.0024177577411645234,0.002400376883369722,0.002204387759899581,0.00189557240011619,0.0015665148133596576,0.0012775396303531775,0.0010191851139751734,0.0007198671427051603,0.00029102271665727133,-0.00031983872598053396,-0.001096730375050448,-0.001953928804848231,-0.0027584032319736087,-0.003362682033753141,-0.0036393665337816766,-0.0035130686221980507,-0.002984180395260428,-0.002135272080663096,-0.0011128356402064796,-8.700748315316337e-05,0.0007962060959627369,0.0014508992370179858,0.0018624382420742319,0.0020736171719321424,0.0021557462597063494,0.002176717590526736,0.0021747813814268595,0.002144574985288883,0.0020421530700611245,0.0018119660583030734,0.0014262691096499952,0.0009136302560971319,0.0003532457158161792,-0.00016780140457469555,-0.0006088830722282479,-0.0010027979319413068,-0.001430791903483364,-0.0019553818914750877,-0.0025520077157869343,-0.0030869507400054005,-0.0033640716027433714,-0.003220318409713413,-0.0026163441568374667,-0.0016674156196197622,-0.0005942697745248788,0.0003780777889198293,0.0011155885493412958,0.0016137290351288358,0.0019650808753031504,0.0022820895143915174,0.002621379564141394,0.0029491085952533733,0.003161113715293809,0.0031428987802748333,0.0028363442257061744,0.00227850555228706,0.0015915974218983593,0.0009261275912376666,0.00038285150763566226,-4.5870690356957736e-05,-0.00047807574922696053,-0.001075744991329971,-0.0019368100692769208,-0.0030031677569993974,-0.004042712596418223,-0.004727661862732026,-0.004777428979179288,-0.004094427094240227,-0.002821069677445858,-0.0012871581196365039,0.00012488644111587315,0.001127235797784109,0.00161391359450608,0.0016535252424213097,0.0014085152348617936,0.0010410808474985672,0.000663333025668779,0.00034768469060964436,0.0001639397487157401,0.00019074886394415008,0.0004768356308348723,0.0009799470013733386,0.0015444413441826651,0.001959852142033572,0.0020813562042155944,0.0019349824402505435,0.0017241079463345063,0.0017110135100913296,0.0020324808055889173,0.0025637902138978246,0.0029301362416631126,0.002681700277864843,0.0015461560300543441,-0.00038493177839978455,-0.002650656842053137,-0.004609197953681851,-0.005720183805873226,-0.005768829473156639,-0.004919504877253275,-0.003588759300227475,-0.002225874863171784,-0.0011253923977353887,-0.00035771383303938157,0.00017556419509815162,0.0006223984428571222,0.001076718675589439,0.0015400556431972817,0.0019484010239749537,0.002228951349687476,0.0023458534438716323,0.002312257665725078,0.0021710742136909194,0.001963742500744877,0.0017080565515981705,0.0013951735493561914,0.0010020890867249545,0.0005089950056019724,-8.654070956716086e-05,-0.0007605071355958206,-0.0014576641737021818,-0.002092314188657549,-0.0025589507577483237,-0.0027560725018024976,-0.0026196114168514696,-0.0021533876514285006,-0.0014399669773210032,-0.0006214461414494814,0.00014589275972218697,0.0007447781015893135,0.0011341934920271605,0.0013534415011333487,0.0014909838719987453,0.0016325222808638502,0.0018131294921327726,0.001997173469369379,0.0020965285962893524,0.0020178559182733816,0.0017141961023188243,