178.09696724392148,178.20917378092895,186.6480058013053,186.8537960702244,186.88919570967647,190.57382511105916,190.65872225800786,190.72036652126818,192.9271813264346,193.0290405154912,193.1686051647478,194.29424458305004,194.4321184712246,194.27576946911796,194.54081512456565,194.66918268663758,194.4687343671836,195.09792738497723,195.072789275635,195.09759901135763,195.46960628997243,195.52226887055576,195.38764686923145,195.73210939330053,195.967923367607,196.03117765991738,196.49072828312373,196.29777530914726,196.19795989945635,196.19071984094498,196.2012620877034,196.14838935778744,196.27635917938542,196.1417566384593,196.24231723332846,196.31909679677926,196.2304285755907,196.28407435464135,196.4022530127496,196.40425841356642,196.1996807429981,196.48297915637082,196.38035579326782,196.3662262233193,196.42897421736475,196.25930438314043,196.3107233078777,196.4568130941652,196.38370843618412,196.47810802173217,196.4048304124161,196.36880813953488,196.45821325648416,196.42670962498548,196.64696122947956,196.5447774221705,196.6162130694222,196.75657069513724,196.72950604691826,196.63900777360467,196.82029086881758,196.54774585989114,196.799982526138,196.7410389836914,196.9877509455921,196.62493479394888,196.9377014899364,196.72903263200604,196.73548592794413,196.73712564444187,196.70367365859312,196.77015228426396,196.49197164762043,196.62138820460802,196.5521244485721,196.50622912734136,196.52386485779857,196.60840360569932,196.50151285930409,196.4587417468951,196.4115747206704,196.3520827264783,196.58805682779544,196.5122193059201,196.4509221221921,196.472261031552,196.49933123982322,196.56203297182566,196.54749236807675,196.46586753352295,196.578275039283,196.6752052162776,196.7644335749847,196.65592055448775,196.55929291164307,196.56056099836715,196.4815764925373,196.44024532710282,196.4459944549832,196.6488556312297,196.5454200146092,196.5977549111319,196.3815973843998,196.4813526626527,196.5433211411851,196.32496130370023,196.58650949191212,196.50637315090918,196.78994462255903,197.09765670426793,197.18287756821945,197.1516734883451,196.93842443262722,196.9340924274552,196.8156533364334,196.68534495279593,196.79784390073806,196.9291469125389,196.8519433704468,196.85263096725456,196.89231485252196,196.94521863090216,196.7437589002877,197.0112212183037,196.7814482798766,196.87869176826607,196.9946941869279,197.01338465576066,196.8717185859293,196.89767917092396,197.00268911493043,196.97393613916293,196.95723828136394,196.9783908314135,197.0460587686567,196.96776546091016,196.92092237815174,196.87669120428293,196.93157434402332,196.73301719372765,196.83994755244754,196.80483753460587,196.7154126036967,196.8845200967676,196.66353235713663,196.8960193778089,196.75251450395032,196.7568735041737,196.97259073110865,196.81839670820324,196.82320522540385,197.07360457984052,196.76082757813415,196.7900673893935,196.67548852766856,196.55693047532475,196.59768460024094,196.68883526572893,196.59666362646738,196.45670518361706,196.44924298103777,196.54122528248587,196.55838922226144,196.46081891987293,196.36674694548873,196.5056321872886,196.3930691905238,196.4873996530126,196.4819539148836,196.5191131498471,196.38108790048116,196.52351419669625,196.54460824621168,196.5235211101964,196.58392400223522,196.48109045994588,196.6509815498155,196.78047627489215,196.69054441260744,196.81734011713897,196.80701443103857,196.8612991928092,196.87991001391234,196.9423333234606,196.70889368368162,196.66545486788436,196.60730741965975,196.64667493503424,196.59197778827976,196.7437835922273,196.50787424796508,196.76857943649506,196.60106194690266,196.66805395672836,196.60727133337264,196.4685611531999,196.4897076986414,196.50947337452192,196.62362265040363,196.5534446702601,196.61500353857042,196.51893726937269,196.51123048316165,196.49046522611877,196.36933242868523,196.53564148769607,196.47609061641612,196.43888101146166,196.64413748225272,196.61947138126774,196.5766675524847,196.4043746494672,196.4278463082099,196.32735214260418,196.39468634686347,196.28023503011693,196.21956829440907,196.1964859526547,196.25663038026963,196.4704004728831,196.33703386577696,196.1348099212552,196.25353401209975,196.41437344986417,196.19016287029388,196.43085059237154,196.3571892722117,196.51529947916666,196.30384342897628,196.459837398374,196.26776649746193,196.37789408320768,196.31248338796846,196.2257104115081,196.39724976392824,196.36432234864117,196.1037435987992,196.344727251352,196.55402312342272,196.84298006049394,196.87730890083105,196.76694641704324,196.78496801080001,196.67153263232098,196.54718645263716,196.5094744894957,196.51028467024224,196.46319452636547,196.55939410045175,196.48718631628788,196.48193376700178,196.46083412098298,196.6242226828546,196.49702741873466,196.6070826306914,196.70462012016455,196.77939085091253,196.69286792787992,196.75204432329937,196.5064727788615,196.68009464655427,196.72512128742162,196.59699110336064,196.38722059822246,196.6869493229259,196.60850032511675,196.52663141413842,196.49434719721344,196.43686459407692,196.54017764924603,196.47668012138712,196.443298665331,196.53915041536558,196.46493965263468,196.50458040001178,196.55202354672554,196.47355393817958,196.35886716910034,196.42751531573987,196.58051948051948,196.55221458290302,196.5142713775495,196.39272963323597,196.499025916524,196.76472500517184,196.73156246306584,196.4911841018988,196.6585243531876,196.342557701366,196.33037185220053,196.56193842981293,196.44629825800376,196.59755308511265,196.44270389419543,196.42482373678027,196.51341739411575,196.42144975191567,196.24181935257272,196.12894736842105,196.3442983098509,196.31435186542012,196.21667202525356,196.23570068824134,196.2489247783727,196.20740523927998,196.2152972846442,196.45811088295687,196.29131250366376,196.4557333724857,196.49682931125594,196.2150316827036,196.4371878488748,196.19242606325292,196.24754564370073,196.29430389024068,196.34132245951653,196.3111573517775,196.49377751687703,196.40295222443947,196.17985485192554,196.69273250690324,196.74361383522228,196.80217844455535,196.92001410478682,196.67879411764707,196.45706900096937,196.7841303452738,196.80867647058824,196.8161989196806,196.92701352145798,196.8962754248481,197.04958168207838,196.93968803143142,197.1231771368211,197.06322834414536,197.0124571328077,197.03131964809384,196.86942134239195,197.1144431741565,197.0597264126073,196.90570901315212,197.43568744863214,197.09272823157156,197.14562282166185,197.10382497656983,197.1629616612483,197.30829356831288,197.37322129179597,197.32702378514378,197.41019346542754,197.58298245614034,197.63620689655173,197.65233027308344,197.70232177320312,197.68118232367573,197.83794477988158,197.8645329581758,197.78076056090634,197.82528903848967,197.79246111940955,197.89480922284645,198.06828026223366,198.05598642043958,198.06363237231085,198.0667545015371,197.79513267849288,197.89883884588318,197.80034600046915,197.96158699416029,198.00326096536327,197.9629912247234,197.9004516923799,197.98996684953207,197.9467183053135,197.9561164365491,198.2084985170176,198.12957258939835,198.02360383049756,198.13061045234957,197.90609574437013,198.1201578716562,198.14895607930288,197.91670070607458,197.765730598928,197.91349037649593,197.84705848106424,197.92863587415232,197.8996245743721,197.87165837623994,197.9075566677336,197.84946048919525,197.79666240260497,197.93576888423868,197.99173240953684,197.91554044235184,197.90424016972304,197.98015480416692,198.03621396782918,198.05243260534505,197.99988363297842,197.8064769096718,197.96573272103703,197.86857988509084,198.1074478591762,197.86828900426372,197.8011017686286,197.90307973643726,197.90648379052368,198.01287005026,197.87466256422164,197.89524307674426,198.0585344576912,198.02173280577213,197.93503473534284,197.88320404427787,198.0912000931207,198.21622881109104,198.21386542382754,198.1513255536478,198.2266111660942,198.11061728395063,198.20554909936084,198.2767014262062,198.0237253765933,197.97063418585813,198.0042528569362,197.90664739884394,197.93650793650792,197.93247346655485,198.00153179190752,197.9457819138175,197.93308474968205,198.0429708990879,198.06154024453843,198.0326975476839,197.83681208928002,197.92548780841378,197.84405083907745,197.8337889716147,197.65627451550105,198.02623677229397,197.91263945934924,197.7464735479743,197.79225085810694,197.81412066005063,197.83649703039478,197.81124112236583,197.89478590154383,197.81448279876594,197.74712610226712,197.76321303841675,197.68880499491797,197.68303026782084,197.90888488581555,197.51944702063528,197.66743085986243,197.72935300267162,197.63787153835,197.77778100072516,197.41138654002086,197.8589304378121,197.85549233627498,197.65476017758175,198.02620023844835,197.8794781648604,197.77590466501962,197.9085784028827,197.94205428047823,197.74069983724715,197.8626367232953,197.81995989421372,197.85704305300848,197.8885813350427,197.8292483898231,197.8336052677583,197.88092529389456,197.89801459854016,197.84364963503648,198.0024554223911,197.83957531209893,197.87172377561146,197.83675315956918,197.81384283045307,197.63351014222428,197.64824267172233,197.694758029229,197.59444185504543,197.76340380796637,197.69704929515805,197.76070698217939,197.71691273205673,197.84133715489003,197.53218833975933,197.52883492878823,197.46565353090452,197.47575677963627,197.41854695116612,197.48576855639976,197.62415458937198,197.52117874509344,197.49917979963678,197.3756961134885,197.4556374636553,197.67609186636554,197.71605155759124,197.71713849406788,197.79683276530733,197.61939180255618,197.6472937652345,197.57990318321842,197.6225062435728,197.32901903367497,197.53616684266103,197.60182576024422,197.43912228276793,197.45321525965457,197.40541967270806,197.4924497874212,197.44718877267002,197.54637392272966,197.35846180901578,197.63144458464157,197.59975958014485,197.61967492078395,197.51098289597002,197.6369267805766,197.6364329715459,197.44914583760658,197.7362779360371,197.64429372559383,197.73095238095237,197.831251653099,197.64314682026566,197.72773267443227,197.80167088309702,197.62910342393224,197.7446301418231,197.667185481029,197.62597234860715,197.53684364916398,197.60721830985915,197.6089190300041,197.60270674925872,197.5839227540868,197.61041782893383,197.31386005044286,197.54648978633483,197.549593209387,197.5850298169854,197.65332941349405,197.52157460913438,197.6389630977894,197.7142479978879,197.6736422521176,197.6898815804901,197.87277898317012,197.5488218441209,197.77430860083027,197.57807386629267,197.98838162130525,197.60092251999765,197.8635433116921,197.5743184073793,197.8222878358231,197.74323337907677,197.60469655915858,197.71145945630954,197.78092212636977,197.57534724240134,197.69827460793158,197.84048686739268,197.55212152959666,197.6965081399074,197.64533022985162,197.80193546506544,197.65658476944574,197.63228529839884,197.47063445867286,197.69785807955705,197.73478552474265,197.3687656404586,197.6672215894156,197.6342893823126,197.41921359138277,197.64058801180698,197.7458316269818,197.65344333274822,197.50749978070817,197.52478722470826,197.5521789997075,197.62761849034524,197.71096355233135,197.41965432675465,197.4510640785781,197.356698683327,197.60858253675934,197.72890720926154,197.74991219854834,197.50848001868232,197.68242749919688,197.6157550639192,197.64875054800527,197.66810785545266,197.55367413073307,197.61339288320636,197.6503490375909,197.57773882559158,197.5541704376259,197.676213578046,197.46578063385425,197.35858526905568,197.53628820195172,197.36328352982375,197.33479033715068,197.24049122602798,197.51658464136986,197.33039480957785,197.22245111124008,197.37188498402557,197.35495573937018,197.25036942601338,197.30408068629725,197.39419676502985,197.4925230394714,197.2289783067102,197.37813304038622,197.37203791469193,197.2627646685513,197.4780561093294,197.4816077672147,197.35100274130718,197.42920264533456,197.3128227318621,197.2319944598338,197.14201762977473,197.01446977776496,197.10232155731796,197.35324869305452,197.31290934160634,197.28256438230312,197.22028594395957,197.28405663899818,197.28511518354685,196.95405490510404,197.0768481654398,196.97053855183668,197.0048125125326,196.86747332589604,196.95855989926164,196.85663215695246,196.86638263803505,196.83040384120724,196.95494851258582,197.06434907010015,197.16794680729106,197.05448662887247,197.17181815577644,197.15019593261061,197.23509213688908,197.09178219236816,197.20673695037286,197.15718815161816,197.03431330533414,197.14808038649554,197.11241572391728,197.13965379341866,197.1456149870063,197.26031900297278,197.2166238217652,197.06636246969913,197.19230439870978,197.32777285840783,197.2403481238408,197.38147271119226,197.3128066172276,197.5218694683949,197.36104533394197,197.44284245988695,197.42326683220594,197.39368595324407,197.43851335921443,197.57710660913793,197.48854285714285,197.32209769869107,197.53505187048097,197.43356863193392,197.64725567028,197.48982391950605,197.41685720818566,197.53239774773488,197.41998857795545,197.25883932141429,197.39508571428573,197.3490371978744,197.50483188472094,197.45125053594398,197.4889498813506,197.45341064899452,197.2752746468826,197.4624457390907,197.60342857142857,197.48809999429255,197.41169930727787,197.51797082417426,197.34566529961268,197.47639693088794,197.62644925466904,197.46368332429577,197.49790269653303,197.7429258104203,197.75726152964768,197.93788926839068,197.7344331786676,197.66582669950174,197.79789582318034,197.83003295601088,197.83815642297876,197.75495226901356,197.79685260562977,197.81815578465063,197.86993407853254,197.83451258987654,197.76600074522057,197.77167746002635,197.91447349539362,197.9502611790368,197.79175866716372,197.85913836622305,198.04889182361046,197.91390690466625,197.83993915564102,197.90476600879083,197.86069009071076,197.8366303942117,197.8247760165403,197.8622402112757,197.80681166073683,197.9732158236206,197.89564917919873,197.9469272941244,197.91578614907544,197.9816787755219,197.88826719462855,197.77834489877847,197.91577194694838,197.90264547228279,197.87824815006024,197.84126620025233,197.97356107363285,197.80633782621163,197.72556498795458,197.81811143291372,198.00714921473485,198.17332144295494,197.87160805461534,197.93317258008958,197.96264928801102,197.9621275250711,197.87872346537213,197.9645740554518,198.00284482758622,197.81170154738322,197.87511844938982,197.9080413555428,197.50934633027524,197.566942243656,197.5725658121623,197.44067212408444,197.10744558991982,197.23861649998568,197.02636098231153,197.24257879656162,197.20751418581992,196.9840947449724,197.067506802234,197.17669969643163,197.1360762209951,197.24551103983504,197.19426067531575,197.2722351121423,197.37158093927405,197.22011678497825,197.3585793384399,197.44170564435134,197.35965138614145,197.28908377038374,197.3209883620937,197.09829683698297,197.3796811378104,197.25468561930418,197.19655963302753,197.27663658501646,197.32958812233082,197.16058039036116,197.20767863287074,197.21828181844222,197.2285763401427,197.13054426829967,197.2180791608151,197.15273403950758,197.0543394282771,197.30062193688917,197.2078524585469,197.1463107241063,197.354047776089,197.42123366200414,197.2950194864741,197.16763038873304,197.20426165654715,197.32228276455405,197.54442116140885,197.4343083503172,197.46576403430768,197.56888531556882,197.2557772808074,197.31132914479159,197.27642509309652,197.0917599770313,196.91911195249978,197.12805631374803,196.94905774029775,197.01695547394996,197.02972655017072,196.9632730296167,197.03519591532327,197.01400206587857,197.06569887537296,197.0999426111908,197.00593463302752,196.761711376766,197.03617222684375,197.03868876907194,197.0914702420258,197.1129092422025,196.98910425507512,196.9866360768569,196.84160912294777,197.05577883676867,196.9430608038475,196.95460277427492,196.93280224661146,197.19998852454313,197.09391044947367,196.91548649733386,196.9877465716167,197.02985416726355,196.94770455651974,196.9864156134468,196.86947308132875,196.93261355174982,197.07300484977185,196.91936453413481,196.91419737181138,197.0222623345367,197.13131776719638,196.96034838413937,197.03632093036578,196.8538224026531,196.9695790287039,197.03091748644852,196.79319739596775,196.725445723637,197.0348575712144,197.06744071859745,196.85580751254977,197.13429769998552,197.00419426687108,196.74849123617568,197.007347198519,196.78275682855,196.71437241698217,196.90019977416833,196.88489812456586,196.85548129502646,196.82176186761436,196.94457288174777,196.66556941556942,196.84085325317224,196.70723684210526,196.7259190858198,196.84431224189217,196.95441036442855,196.83480842967106,197.04894822006472,197.17419187104602,196.9671308710319,197.05393855393856,196.95183466405328,197.0657142035818,197.2889233152595,197.67398677780972,197.3233453877504,197.46884614278733,197.330198446937,197.4325810351776,197.32232473915667,197.07613239420488,197.0512424138326,197.25991972477064,196.97158635687308,197.160010306622,197.06448472353463,196.9445857506216,197.06280939708702,196.9226198977406,196.95024861404812,197.06311276261255,196.8292571559031,196.92951592174782,196.9116085193856,196.77745425480288,197.00317233495284,196.85021271735715,196.98648880255942,197.00923596019672,196.77895819054146,197.14652654487142,197.02245873029497,197.01206541628545,197.10577500643575,197.06547721164293,196.9633095577746,196.96403699052402,196.98378856637268,196.88215852755144,197.02168330955777,196.891034600793,196.94054239028145,197.00188297052867,196.74983614965947,196.83574989317762,197.00964116606767,196.90483654914925,196.96534709942387,196.92353310144267,196.962329742976,197.0503322211766,196.97975766215254,196.92798265879466,196.87709194583036,196.86236491688288,196.85803102897557,196.82246934702025,197.03843519945215,197.07095963920762,197.07710313722131,196.97438311225218,196.9320241691843,197.05224860175778,197.00302399224032,196.9779007100288,197.08823025526812,196.89738178084536,196.90815017531855,196.69781470521283,196.6420543462797,196.9374198512439,196.93464816028728,196.98788828726134,196.87195902688862,196.84293149048716,196.97563752276866,196.87967572180344,196.92571396030866,197.07763532763533,197.10376282782212,196.92304188138826,197.06226135521743,197.00390446876426,197.124600456621,196.9138191456012,196.98218104062724,197.19583333333333,196.9766758860597,197.04629523918254,197.06251069411965,196.80930682918495,197.01789632669346,196.9362950306137,196.98650922677618,196.90683424532602,196.94711798729236,196.9458842984632,197.05350263946355,197.02029357275188,196.99928709934983,197.1199977197583,196.93208697882528,196.93986890852094,197.02513408650006,197.13999828713352,196.9903983132942,197.19136436230892,197.32855633903338,197.14088602542904,197.3590915583488,197.04240141528277,197.07136332496003,197.15839830919944,197.07358355929784,196.97514553133203,197.02464557720285,197.08293114772826,197.044754805358,197.1034413879694,197.07431834403997,197.08685593510796,197.00322451774912,197.12350119904076,197.04721262809352,196.94871282607454,197.08391847919165,197.00422290067624,197.00673669787622,196.95642745042088,197.02593807961193,197.0331647956123,197.014104613979,197.11200320009144,196.9945439483532,197.14190465289303,197.22671091783016,197.147301895965,197.09761394484926,197.05284355451457,197.10211197164986,197.06785031256243,197.11114288165155,197.10239190695282,196.98988802559415,197.01531166085815,197.11953727506426,197.01667904266864,196.86153275507874,196.7990758172172,197.0984482610808,197.05788691326967,197.03102059470422,196.92591112760067,197.12199931412894,197.11086993773918,196.94784121371129,197.0789406016971,196.9691837550694,196.93200559249007,197.17494569566708,197.109900791949,197.0950992999,197.06523416292825,197.15047308692795,196.7838354444825,197.1264657095464,197.05007569914588,197.0737248178311,196.98021865098622,197.08359990860276,197.01552600034248,197.07543343520607,197.14569877107746,196.9542069673885,196.9816069699903,197.08345667767279,197.19280542728464,197.3376993978826,197.21651423198563,197.19419496478773,197.29121866354848,197.23163116927552,197.42988708941607,197.2487240169941,197.40838713363422,197.35972249978587,197.35975766581888,197.43410298908384,197.2971028971029,197.4191512451451,197.43522561863173,197.4752656232149,197.28322726105196,197.30199462765046,197.36974717897442,197.28870280929382,197.34818288393905,197.4750200297585,197.5200618609846,197.29597643627213,197.69530351805014,197.60431861253088,197.75475978519944,197.7849443821678,197.72536687631026,197.64389459785292,197.70631458094144,197.83147584305163,197.76411817059517,197.833916886695,197.91158396508155,197.84390775585132,197.71549376522862,197.80483954302773,197.64850534521796,197.7445795571871,197.82913591591765,197.8322323069853,197.8605031880062,197.74834874504623,197.8172450414765,197.9036369377386,197.78948425219437,197.74222578888538,197.72229222750443,197.88390017478008,197.88089642918553,197.8549025229358,197.73453253895508,197.78170347003154,197.78734627182294,197.79736932599724,197.8140715043436,197.76136396225874,197.77468506987287,197.83450532418703,197.68275268817203,197.80078618156776,197.7127385250129,197.68401146131805,197.78758066829198,197.571301758204,197.6955512239867,197.6722161728466,197.7466108738643,197.7341946202985,197.72567563694724,197.77169800504473,197.87856303893201,197.71234171775626,197.74682673848886,197.66860365260206,197.8503609901444,197.7969009566363,197.89271162123387,197.87843069775445,197.9422387845779,197.97961820008612,197.80108328079325,197.71902578796562,197.91334995272072,197.83175185620502,197.89074859566662,197.80790701669005,197.79231936767948,197.75036496350364,197.57262051032944,197.6826559816829,197.44834380354084,197.5540471018635,197.5316600440239,197.61685528120714,197.74300589278562,197.65567116396068,197.80131066849816,197.78109893881754,197.66770488055778,197.7065049487957,197.5029643142173,197.61431343453944,197.4644526795895,197.42262600907094,197.48386084972913,197.46698597331508,197.64309975738547,197.486021260224,197.48273699215966,197.32159230046415,197.42963300401448,197.44118651787747,197.4532505270355,197.3586876102669,197.3994023053935,197.23769162945476,197.31719803191035,197.47830793334282,197.2790638152656,197.37509953361393,197.3485197508745,197.23765133860059,197.42506121519276,197.44515614769267,197.45770379854886,197.23521218839716,197.27615931721195,197.39602550962306,197.30274054469393,197.4213375886929,197.41900173883297,197.52537347474058,197.38412011053816,197.36032134921086,197.2342411565497,197.34401161797368,197.16408272409183,197.36234073482885,197.25249850516784,197.40079817559862,197.30434534996297,197.15310187820148,197.3432831565743,197.39870492925604,197.30928363822875,197.30302339497905,197.36928738517716,197.42631834127144,197.36828294352537,197.4975896397296,197.40116312218484,197.25644968392277,197.36442151469373,197.45937384057765,197.40604227883492,197.54966906310625,197.35868945868947,197.3823881447706,197.33626680337207,197.3791718874587,197.2503484964866,197.32096517186432,197.51109844707224,197.47472014128238,197.39083304882212,197.4245449374289,197.5829989470389,197.3724610096304,197.2127412031782,197.4883542359867,197.4651862789641,197.50106512909363,197.47782985371396,197.4368077250781,197.46202369789447,197.47500071061083,197.68431986340352,197.43232495384177,197.47466393838633,197.51347816196542,197.487839527219,197.34498821257137,197.46778321201091,197.3376483279396,197.6050162088381,197.45609499730122,197.2436024598294,197.3898011855129,197.54769816250604,197.36153148557503,197.38078907091435,197.4519743560649,197.5,197.5064271728952,197.2855806039983,197.6525534576888,197.4684812533704,197.4354009936125,197.62096521912238,197.56714509023732,197.36415479770753,197.76932714485037,197.45458934454163,197.34339247693399,197.52516697456304,197.46053154636834,197.25606988881324,197.3628057431474,197.44899466091104,197.3931735574739,197.3403633267102,197.43760295370635,197.41889204545456,197.50207468879668,197.2039460610362,197.3983744458338,197.60310830776226,197.5305304451646,197.40251036519567,197.34478545041205,197.25227298556655,197.24349975846096,197.25815356594,197.327781099627,197.29297875975172,197.32372297085553,197.4047707258685,197.42251153780413,197.35856800820886,197.1922737243953,197.27928107553834,196.98134826988144,197.1374384656973,197.17740051841514,197.08638110146578,197.01655996585575,197.21406806208174,197.0766976757418,196.93598862019914,196.99092125110283,197.12227695987698,197.0531708983263,197.05434194412007,197.10406517961428,197.26856947335406,197.01835201729926,197.09785950130936,197.12744204590763,197.2354752266378,197.2308613122043,197.1219505243958,197.30297238703787,197.21661298138594,197.14636718638656,197.33380868176374,197.11565537093512,197.12777302537782,197.12313305210353,197.08149478364973,197.12914813547724,197.2746020879685,197.22070852452475,197.21792899071067,197.14208039171032,197.28757871940272,197.26682425312563,197.27785372522214,197.3037091861425,197.01681436037265,197.4533128240187,197.3642907952767,197.48817731183408,197.44330807361405,197.55906836193626,197.47708695280681,197.55642677919707,197.44668300467342,197.31168868139375,197.40567355666428,197.35407352564286,197.22178246013667,197.18133432003188,197.39284797673025,197.16455228126065,197.2604187437687,197.40812776272637,197.37973708973738,197.2688824333561,197.16111300979722,197.26100960579197,197.2652171435085,197.16866406672548,197.2088995242572,197.36058007350636,197.22504909075386,197.30219435736677,197.20886814469077,197.41270973633146,197.38600740951838,197.19909373307874,197.15463888177186,197.3884752531736,197.36735508900045,197.3355674072384,197.14486646546325,197.39202259693573,197.24899506799326,197.16953736654804,197.2234409276089,197.2730121648956,196.99177902941344,197.12938933469923,197.0632983414412,197.318109248489,197.25033471015524,197.35167968972794,197.29966934610343,197.12629871054054,197.4005587069924,197.36655545099381,197.27978447415686,197.19399709260895,197.29102308349957,197.21099871776607,197.28140144820117,197.17334092851038,197.17455343152616,197.32179191245618,197.08092798178194,197.1103897952792,197.15132778664236,197.0385436533918,197.0359257572307,197.0466585109107,197.28222678530688,197.10215819144696,197.04873188921465,197.2657091561939,196.7799806851105,197.0008246836343,197.03356468312663,197.0495235386147,197.09599294211395,196.99735502403232,197.31615825002137,197.10104975676367,197.2037590773174,197.17730678289604,197.16540946742194,197.16685183602542,197.11584186575655,197.10143524319398,196.99837773224044,197.1331585994701,197.0376875124534,197.17791201276498,197.1102698394626,197.0270431836944,197.0723148727873,197.04751202025662,197.14271883364657,197.0571607325674,197.08590684183585,196.96288296481555,197.07276501364876,197.2098105047516,197.1399732734355,197.2271860683493,197.20906012577186,197.20388211555405,197.36894088179204,197.34709802358034,197.399703796531,197.2505547652916,197.16454904636026,197.24470929571055,197.29434853095935,197.5021506907848,197.46496924128502,197.26061243638225,197.5037891737892,197.4228753702438,197.37207250789675,197.50151083238313,197.334006427576,197.33463178845608,197.3079198066259,197.44910793045557,197.45267173399378,197.39732536633946,197.50851415228658,197.39177544578106,197.48571916735483,197.4801605374018,197.43936721106243,197.3695670736914,197.3181818181818,197.62756439480282,197.2120023868383,197.4542814848554,197.24019217648396,197.4260001706048,197.49863279024723,197.5108321234378,197.47114181735472,197.49668704677947,197.45182110261294,197.5176042318412,197.33857954545454,197.44861699405863,197.51358270516286,197.57199385105898,197.47779928274605,197.5338328727314,197.51144972942183,197.61045218680505,197.58002966174206,197.60568525600777,197.74676065985503,197.43618173526394,197.8639005812788,197.8411517215719,197.94115624820947,197.75020739765998,197.93267661292631,197.86339423792887,197.82523744135486,197.82532688621214,197.82793638079983,197.84701844701846,197.76153736248037,197.98872384877365,197.99087189172175,197.8712472122148,197.74478853907524,197.9215181178087,197.87881215311552,197.89492204262623,197.87803970933226,198.0083677212288,197.90849224073756,198.0024335079733,197.88719739025925,197.89199015229588,197.86570537579036,197.93086080586082,197.88870460394625,197.89228305016874,197.91653552319093,197.70248710862938,197.76597685422723,197.81069841631538,197.82071815332003,197.85199543899657,197.8208746721405,197.8404958677686,197.81496051768863,197.7055974932346,197.68623487544485,198.04887861667524,197.73954616811758,197.87004713612342,197.8309818929571,197.820914696814,197.67912363781593,197.9182028637572,197.89694994711718,197.76153912025805,197.6200599229562,197.83804083964014,197.9486475667639,197.9816949346452,197.74876439162358,197.77807608819833,197.73127338150042,197.78731609770034,197.6701775418165,197.81093745535586,198.0339444285305,197.92419691638776,197.7452434606498,197.84253047474948,197.78436573123432,197.82180873833508,197.824253678046,197.62045649072752,197.6998971957279,197.61058816817845,197.6967257571865,197.77662916214518,197.79354157149382,197.66170886979359,197.7202284082798,197.71205803392928,197.63698141221482,197.53791766449993,197.73033868296304,197.59201596806386,197.47954299390278,197.41219046533496,197.6976637916262,197.7577029612496,197.57993435136294,197.63278061588517,197.6696362286563,197.5661460266697,197.45040061589347,197.59133462724054,197.6722811633161,197.46845741036768,197.6782978966621,197.73795154878013,198.01501191193776,197.61338895397012,197.53841762758304,197.5559808065806,197.56810915734187,197.6395057510534,197.84541434888033,197.83604641217892,197.77764789736278,197.76067012365377,197.75501893669733,197.7784202580682,197.68277059727836,197.7177969959035,197.74030853304492,197.7868488471392,197.90857273141816,197.98128281214335,197.88228086173487,197.78489996009804,197.8400205321242,197.91221265187383,197.92220573971588,197.76078151739875,197.8424522647487,197.77590285893453,197.78442054821872,197.85155692553587,197.65109123026954,197.79539102161885,197.6517513609029,197.6226022516745,197.552140598741,197.65797581013237,197.5879067646891,197.61327557214923,197.73183114660583,197.65813622114564,197.7796140891705,197.78952323889413,197.76685120712287,197.7000884526493,197.59448055650589,197.59380079272293,197.57111085766422,197.63363766048502,197.7225060653632,197.4922073111662,197.78793329906915,197.5950818736806,197.62450039968024,197.4394440013672,197.60744969316397,197.4353966175047,197.51252567906872,197.5141936954911,197.46533075259023,197.53333713243674,197.69520713939497,197.46318546779796,197.48977499287952,197.67627785058977,197.6817442888515,197.60140736731148,197.50331597073975,197.68746972158104,197.59635327635328,197.54478101045794,197.83365184403434,197.61679872313744,197.74850248160192,197.3746053417527,197.55989865057222,197.44932403586168,197.64959945263277,197.34825544994024,197.31383039271486,197.57673464737383,197.37705151178997,197.24428847465333,197.33307740431098,197.44647735033007,197.47156762295083,197.3643964168918,197.44096639253294,197.53649448173854,197.52195691151778,197.4368653107666,197.56916287015946,197.29765354241238,197.39511265361858,197.52039857651246,197.4453774336787,197.60315651529828,197.59778398085908,197.39634389037357,197.56551331339884,197.60970956719817,197.42018192154634,197.36638727091918,197.52712230624894,197.361973990573,197.38710959681998,197.48438787396654,197.46983359408335,197.5595085743537,197.43767407491615,197.42639204545455,197.39036658141518,197.5226620442727,197.5567910362871,197.46412434997583,197.4697908377856,197.52496230762665,197.52356825685985,197.51200227531285,197.55447404371586,197.533048676345,197.54978231795806,197.61253309797,197.69129828356722,197.57481435115372,197.5808047774776,197.42209712271125,197.4545299436956,197.4531574308379,197.4543904518329,197.44096570551102,197.55851578049473,197.4727226231744,197.4969316438434,197.54432719929463,197.40753366286006,197.58365814105665,197.57650405347746,197.60828496642768,197.54127214308056,197.68252929798612,197.6802128688921,197.62595636963508,197.97136099395874,197.60661283902883,197.65681818181818,197.8994337099115,197.78169555195083,197.66357664856258,197.66231772831927,197.72613801142987,197.8307779832172,197.83854181476954,197.7494745810849,197.72125,197.65649223430535,197.84962064164134,197.72087013318944,197.69600908961795,197.75193842483455,197.90275922821175,197.77621563281073,197.84574740071588,197.84487124768816,197.8579351535836,197.98411025998803,197.89963872215742,197.9395000569411,198.06801344882606,197.95524726526892,197.79465605457645,197.81919827022105,197.85276038702332,197.76208347549186,198.0414410306105,197.70430581213586,197.82801877400087,197.78632989162898,197.75572106774314,197.87678332431585,197.7383924255779,197.83905756480664,197.6391881520225,197.73883884168347,197.70845646737894,197.76655577355058,197.90169578330392,197.6659942608745,197.85835040983608,197.85674445076836,197.87261092150172,198.09151480637814,198.12517797141066,197.86952938501761,197.92238313369563,197.73271182104995,197.9250142126208,198.02460881934567,197.8451108584423,197.97422621756942,197.96678987773672,197.7557360290777,197.85423295454547,197.80550979835274,197.8806585532302,197.9381894688957,197.8342995169082,197.67277167277166,197.92165728260252,197.7729636048527,197.85487908961593,197.7984194217813,197.89801611020977,198.02003419777714,197.9150862805399,198.16558256304918,197.9423022156405,198.0324198051393,197.90959294050668,197.9802341146649,197.92471311825508,197.9536778531138,197.854796937701,197.78852771379007,197.95070663323455,197.9148663284501,197.8961767301506,197.86408126102543,197.82292703740578,198.0741986996692,197.87048681253023,197.7400022754423,197.91996584602248,197.89784242286234,197.85002562204636,197.9164054931905,197.89590093936806,198.02995496779343,197.99786409978927,197.95698128258454,197.89011895953098,197.86727428083168,197.8129785114558,197.9192229912558,197.9057184374733,197.7968758891481,197.82949046399088,197.90967098703888,197.76699498975177,197.8310039566195,197.7402172676601,197.86776130445918,198.0325464848088,197.91139204464565,197.8608668431088,197.91182330506064,197.95235382906617,197.9080705352819,197.85126861633967,197.82591485120318,198.0305907172996,197.59706032865185,197.75580601092895,197.6159952202117,197.757831599295,197.63938015353995,197.67417455848476,197.7798838797814,197.74827223344045,197.71577359779175,197.94429730884238,197.58684165672406,197.75987262957383,197.7523259453154,197.72392428806913,197.5684353973256,197.71435882854706,197.81612958323845,197.70308147137416,197.5888317664101,197.5337747591577,197.87254874057209,197.74132734303913,197.72290321663206,197.8012295081967,197.6974414434926,197.728849708517,197.6451933733057,197.74426080277644,197.634089487748,197.42646181807856,197.66956843333048,197.46232069308337,197.5183490150374,197.64283277420822,197.60377840909092,197.46694871940485,197.54922250334025,197.5819380880639,197.57334015170886,197.63278474176403,197.57538452790493,197.60758665794637,197.6372456964006,197.55985555050046,197.5598406147716,197.64325754773355,197.78663055872292,197.5249964433063,197.54768004554512,197.50530991088462,197.43786965423112,197.37415043366985,197.42143141605507,197.23755289840665,197.110378538138,197.36993758372046,197.10821956769055,197.03616615962014,197.12887257830502,197.00855551134103,197.14115772098583,196.96533992442968,197.12490035303497,197.17624630093331,197.07003326793483,197.0908315322489,197.1595242160378,197.1033531469526,197.13402941762212,197.13155348095862,197.1488520299297,196.9910168576058,197.19877614913904,197.1558515482696,196.99752566764312,196.9167305671523,197.00125117297466,197.06591969059266,197.02003523928613,196.99596384514808,196.92962310272299,197.147499928854,197.1185022903804,197.1419461367648,197.1330772513871,196.96939094814098,196.9184694544731,196.9049690147251,197.0524068433488,196.6876191017947,196.7137562366358,196.51807640807954,196.58711149130312,196.67186028593443,196.64139566782876,196.67374020477035,196.62018322359003,196.53435114503816,196.36443873179093,196.45937902418086,196.29445730783524,196.60999856754046,196.39517259130037,196.59809283812032,196.48430929427582,196.56345570127712,196.4775918775919,196.58722421754746,196.98283603296392,197.30046921655054,197.20991021707013,197.0875081604269,197.27231342646598,197.23107365543945,197.01208588084742,196.97031223340727,196.92867709815079,196.95938638433515,196.91165504482709,196.75825300690948,196.73383544123917,196.47303517645054,196.47604288111012,196.52213371266004,196.17749680352324,196.08705782071317,196.10642107956,196.09422535611725,196.2469062046599,196.3386536929555,196.39998862375927,196.56329852317674,196.74171695320504,196.78816935070847,196.94448242465674,197.08312428734322,197.010395010395,197.06952283222165,197.15358507786206,196.92614202362316,197.05461334549497,197.11260940217235,197.04158353759334,197.13975402835507,197.16899405591423,197.27664960182025,197.30502446796405,197.26211660365558,197.23760800363803,197.19775472502488,197.2965058425497,197.41397665812696,197.38212954797598,197.41990443142384,197.34771970753079,197.62254790145985,197.61686479090054,197.6056691476317,197.5390969947301,197.6785123966942,197.54143284432416,197.62010202046108,197.7246335481663,197.6845287323542,197.66257913648548,197.47835621119782,197.53648948897623,197.48359441754485,197.56945829652636,197.4183676374299,197.4523368744838,197.48089407744874,197.38471826977803,197.38332859174963,197.58909184167783,197.4292581636136,197.44364112490038,197.48029724958715,197.4953316253914,197.45280710241016,197.34238975817922,197.3220638037508,197.49062624650978,197.41013523131673,197.36471759852043,197.31903813318155,197.31236658602532,197.23442254642663,197.15895263546938,197.4110892668889,197.16190530389255,197.30068596476247,197.18118972433217,197.3545788379971,197.29771122751083,197.25649489229718,197.4105439949899,197.31185794371248,197.46440870926426,197.3592696868868,197.31340739267551,197.51115289291513,197.64693801876837,197.56565368607104,197.57498219119532,197.56509726850666,197.6780313837375,197.45984278879016,197.49814941350644,197.4932748204719,197.5378302128751,197.38925697386756,197.48906979392007,197.52509817312617,197.40648279783906,197.45581077619332,197.3177814400182,197.36546276036486,197.41707441966318,197.35951670220328,197.43597691017146,197.5530510018215,197.35128372807142,197.48090865152247,197.3676219720232,197.30077347437867,197.3530900713859,197.40923970282657,197.41916934726294,197.2588737201365,197.42246263345197,197.27553024911032,197.44128620660192,197.4095465937571,197.35225461170577,197.45738862937222,197.24763231989988,197.3285132788705,197.3699367629465,197.40951566951566,197.40212062478622,197.30391682096567,197.36861012116893,197.23660599846193,197.32532042153233,197.47080468950566,197.21793629992592,197.25921911986995,197.33031132398222,197.1651898914499,197.23729441609896,197.5899013016736,197.6298905883027,197.58648787740165,197.27445845549514,197.14963856793216,197.12063374672886,197.21115220483642,197.10124601729632,197.1024831470262,197.1252239697392,197.1784068278805,196.95693277310923,197.37243777974172,197.27036424784814,197.37754898325872,197.60584838783444,197.5968708959059,197.43032119914346,197.53933836133012,197.4710569152126,197.5858294272322,197.42802511415525,197.52085833476198,197.3785296216988,197.52256294475723,197.5680180695334,197.46500471172791,197.1565229762413,197.14173833798486,197.04712473693192,197.2437954124519,197.16557045642207,197.1285409252669,197.26434028965676,197.0833926284332,197.0361308677098,197.12849130199584,197.26516834729105,197.1571054578567,197.0471692745377,197.19924309250774,197.0962693150451,197.28120018219084,197.25277073420895,197.213779157529,197.19383598712508,197.27730781281153,197.28137824897402,197.1646760354608,197.23555568223927,197.1192049208338,197.0720038705638,197.14238966508267,197.23810880902846,197.04062820075112,197.0493711228729,197.1956936572584,197.14732257238023,197.18274270738377,197.23621710901014,197.1512892025727,196.9354957820888,197.14755636425667,197.2418176131032,197.21390572103212,197.37341609954726,197.43153846153845,197.15033682953867,197.11206872031175,197.29400546510303,197.33231785439742,197.2921265217886,197.40534305488308,197.28190476190477,197.32955030292686,197.31985890251187,197.35367067724778,197.34044186641646,197.2856046174405,197.3908925422379,197.3652599249232,197.46448912176785,197.428945049322,197.2723603808441,197.47335931499444,197.52471612737983,197.47959125583515,197.54993596129216,197.5838030173641,197.51088410209715,197.67087561281497,197.52986413740066,197.6777255237281,197.75972265814477,197.70914380240717,197.76427429484983,197.5179085339792,197.70480483907784,197.58437892095358,197.6797728764231,197.7823267241872,197.54058830236005,197.71380893972673,197.6651649510992,197.96255034707343,197.56036251709986,197.72872021686402,197.89534750800183,197.74955062911923,197.70881346263548,197.68210219977746,197.6497744532633,197.66875999086548,197.71614211458274,197.58744829553558,197.60002855103497,197.7049583000114,197.6461134423796,197.4582336182336,197.60672331204378,197.47984043311013,197.44616962479702,197.4116743034408,197.5707241998461,197.41115002420204,197.4800170915824,197.36887534184137,197.48758870301234,197.4209776663628,197.48917280824062,197.5057248647109,197.4501251849323,197.67175920647588,197.39145532690063,197.4492638054282,197.56441088474142,197.5513448826077,197.6405978152363,197.67384176764077,197.76969402899874,197.8180495320703,197.518038668527,197.51928335422127,197.54792764563453,197.55065652681648,197.4810270716502,197.54742717202495,197.72955186461925,197.51355893579446,197.50513469689642,197.53196152094716,197.38795920106827,197.4775372008991,197.45455321085262,197.41109057301293,197.52226397904568,197.42594751357652,197.3915912840644,197.4649719604885,197.52358571184413,197.49171270718233,197.50948231676063,197.4071639922613,197.3741359201206,197.5273789173789,197.448403543251,197.44156583629893,197.45527598096487,197.27554012126043,197.39828072073098,197.45950794464378,197.38292183411082,197.5973611467328,197.5414342629482,197.46914914801013,197.4981506771367,197.37953879837357,197.5549860470414,197.58110263127918,197.6533914480244,197.60765154968095,197.68479717209726,197.62766169721502,197.55931431174895,197.83690472793677,197.61871794871794,197.6965527065527,197.50727319308834,197.6267615658363,197.61371266002845,197.60802803259074,197.57088776933367,197.55368726527826,197.404499175246,197.48220939162093,197.61964814393076,197.54767934890867,197.80939218647595,197.5203506574828,197.71373654536134,197.7244953161926,197.7479778992937,197.75410396716828,197.72428135950543,197.63590809441106,197.60877237924458,197.9952045214512,197.59134369130953,197.69966376018692,197.77684066560292,197.62021461304187,197.55503986332573,197.50166538560083,197.454659375712,197.48706638968727,197.44649162774803,197.3443849963003,197.3686712012978,197.2811948790896,197.29865991407516,197.41223502631954,197.3644439382723,197.46559881434192,197.52199572344975,197.3208326214477,197.4343166595411,197.64104100676312,197.83135697345486,197.57018094640105,197.34685326644623,197.56549165120595,197.58648548345656,197.38525104006382,197.56921319434528,197.51006902846711,197.36679294727548,197.48176556128996,197.46347513686132,197.4370190937589,197.42076627261073,197.474135964412,197.49921632327377,197.4927453607366,197.6068790462881,197.59283536150932,197.65608601414556,197.49918796478332,197.58841306951018,197.6745180791605,197.6682931004965,197.5361497265269,197.6094934184284,197.75891864145777,197.7179640718563,197.66350346242626,197.47415608811977,197.73194230659598,197.56794097538742,197.7420697124291,197.63917055941667,197.7362950306137,197.5498291571754,197.53567670562808,197.93991171863877,197.7187206556071,197.52382982351438,197.51773271522424,197.570303392192,197.54690476867518,197.78475783475784,197.88571917125026,197.58356803504878,197.6116010468821,197.6868666742571,197.60310143690427,197.61318124928889,197.53282182438193,197.35488909715713,197.46185549428685,197.70392603129446,197.5871797059409,197.66052983524457,197.45296256319946,197.46342641252167,197.5193269668031,197.56957671205618,197.58897799010407,197.48665169306003,197.5908935685828,197.5298084858143,197.49546165884195,197.47870736494752,197.52626783222757,197.4589557547304,197.45928329490792,197.3779287989081,197.52781017952145,197.50162282200205,197.3881814564266,197.43563117016132,197.46640304961312,197.4712745070142,197.51528247704076,197.62880618656357,197.41747131659662,197.4757794309728,197.47250937180507,197.38687352866097,197.6415882670608,197.62301553491807,197.6788464270493,197.541555492478,197.9184917267109,197.60609593130704,197.76548130854425,197.67853993001222,197.7745580826051,197.8422925801492,197.65319989764876,197.83959656970285,197.8635651405943,197.67389263463343,197.60880320737013,197.6219089307032,197.76169740437157,197.63967450065442,197.749992885398,197.5826630666477,197.66513135448653,197.72972358093506,197.78952459529432,197.87713456284152,197.82458186369325,197.78199618635625,197.93596831186596,197.95137523158044,197.8690699925964,197.92731936725096,198.11352277595316,197.97286357676302,197.97019263649835,198.01425679336205,197.9322849898869,197.93184991025385,197.97796528035119,197.9716653377378,198.01798540645308,198.0800638231188,197.87002048713862,197.8947593156651,197.89574740435216,197.93614296690475,198.0830058659377,197.88964752069643,197.9289634579838,197.97161870094413,198.01374228241386,197.96079658605976,198.10296002962878,198.0796321603462,198.03808493680975,198.2136713187126,198.18139614365867,198.10352190872078,197.99564722617353,198.13949120710262,198.14565539232433,197.97504831192452,197.77959601125033,197.95981584631124,198.1060028449502,198.00901695300945,197.95686887341952,198.07616581785075,198.00679556440147,198.1214482778236,198.19055073288743,198.17286409286183,198.17760892455675,198.16724064323324,198.1903704336437,198.0021357785625,198.07588739290085,198.20858388668813,198.1007626202265,198.13121334623926,198.0455399328286,197.97590327169274,198.14716100005694,197.97107919806626,198.02139402560456,198.0908418447182,198.31729507729165,198.17062124362664,198.02334120861917,198.02762981741532,198.1263634551306,198.06727019102115,198.00705828779599,198.05077602164317,198.22005586910666,198.04791577749324,198.14859666619176,198.1486062817078,198.16200958029196,198.300416571559,198.0069460259622,198.3119027924356,198.34942476233977,198.30241245580015,198.2090424470481,198.06444450769976,198.11373800096848,198.0339253187614,198.3197581565138,198.1446671601845,198.11325801770013,198.13091374893253,198.19823487544485,198.28032483259724,198.29569877148475,198.24141175129003,198.26618930792492,198.17564642897824,198.22711854744463,198.0866235873495,198.25204690040795,198.25853950860372,198.15860889395668,198.23531595328518,198.11198904641014,198.2346041892586,198.03820167061036,198.22169568940907,198.13911975551937,198.31341236966148,198.10385756676558,198.22464533439899,198.01151784696088,198.15931729314724,198.1230303722311,198.1423961159503,198.19558197353757,198.20485098106516,197.9092569862701,197.90179565502868,198.1787041802482,197.94483802776668,198.20254722381225,198.04059578604304,198.21828326180258,198.23291472380353,198.09496727729987,197.995004995005,198.22158343344202,198.0578521840985,198.04970576472604,198.11737800520282,198.0759631036354,198.10209970004286,198.06418272662384,198.08676659528908,198.02351463957535,198.15668123767892,198.21905632877025,198.24356922373386,198.25800274379787,197.88916101839723,197.98766416911198,198.11242012779553,197.94209011371086,197.9753040704133,198.1509154166429,198.09333903865354,198.07437214611872,197.95107765993842,198.0135532285217,197.94508662271312,198.06215205412968,198.0061890365638,198.14384050726915,198.0797304243532,198.0772524837273,197.999115977985,197.96723321736155,198.01704966641958,197.91783984041038,198.10740286065035,198.16771925813734,197.98413558935144,197.9167403267657,197.94590818363272,198.00450553210905,198.10905514055995,197.82001140250856,197.97333675535404,197.9481612507489,198.07928082191782,198.0895398921756,198.13570837258428,197.81227354426406,198.18371195885126,198.18477018065403,198.15769318701416,197.99249322106465,198.06188217816126,198.02185089974293,197.86528482636712,198.18075934912932,197.90067771513185,197.8807739435215,197.87169843576373,197.92166253313948,197.9209326188576,197.9610726397082,198.0133671549906,197.88172318555849,197.87754927651818,198.01880931346005,197.90425471321979,197.86119730137494,198.15377153942714,198.03858988619834,198.0878339803608,198.11412003313623,198.03206281227693,198.17819460726847,198.12513934543375,198.12257271141362,197.82190022533445,198.1676626161544,198.0883017357239,198.05516156705747,198.08062671546202,198.1686836609161,198.10555539654828,197.9905625303858,198.08505220998427,198.0233515305685,198.263267936417,198.03767377996454,198.00812542916,198.00649183515887,198.04474240951455,198.06171320668346,198.0142081189251,198.3016732565469,198.16495170397548,198.23344418324638,198.1378698563498,198.13526196812316,198.23570016899149,198.09780496170114,198.23797939324555,198.10130018574083,198.13955283623056,198.03942969799138,198.12652186338954,198.11880141681903,198.19813073427272,198.1833185802804,198.08675042832667,198.069948630137,198.07942857142856,198.04764079582108,198.14500285551114,198.27693011029203,198.13973674442508,197.96350364963504,198.0424195712369,197.95689532128685,198.04531049250537,198.10333399994286,198.11340853919748,198.12578167385283,197.9873374401095,198.02779599167545,197.94088978824067,198.01725613234456,197.92313171315422,197.806396491328,198.08010608566704,197.8309189743006,198.01017673888256,198.06216493669442,198.01690614665299,197.9158721575547,197.9127042879107,198.0741278655845,197.9440868178193,198.01068376068375,197.94173927900223,197.95117509816194,198.23272934798118,197.92796718790055,198.00028520905823,198.07001339832948,197.93085484926982,197.99481274582453,198.0280738756199,197.78939281852843,198.0724303061399,197.8947533147442,197.79400972779248,198.06309642501068,197.9313053128824,197.93221447873702,197.92115592468286,197.86803560763346,197.90571347356453,197.81028701335606,197.75772727272727,197.9744625184848,197.95060569868622,197.82580278488206,197.88421172388294,197.96804003525833,198.0286104705782,198.03830162888713,197.8795848734717,197.9795993854208,197.9339118065434,197.99635701275045,197.82109661464995,197.70583224487478,197.8137689814025,197.89863520045495,197.72779434739383,197.7812633315321,197.963965502519,197.8949704142012,197.6802342106759,197.68679180984296,197.90934957036362,197.88630160354828,197.7110347178817,197.6059530233747,197.57760113555713,197.64299309678702,197.44294349689247,197.62182748330255,197.74545454545455,197.85764749451613,197.63155799471096,197.70021620391444,197.7210560792914,197.69103793721717,197.51051554595577,197.62503907915305,197.70387010549663,197.77128718502928,197.61028931603306,197.7420849201387,197.82529383306297,197.79071091126417,197.78136282229866,197.65967961826857,197.98045463597828,197.79285348797544,197.78469457399612,197.83084973268114,197.64425754389953,197.754688032731,198.01386397927521,198.0080337302718,197.97812900469884,197.87218494085533,197.70467852879312,197.82763427401002,197.75725533668742,197.9031789851154,197.74471896056633,197.74085651766177,197.745652915104,197.78466655295924,197.85863442389757,197.70710631040365,197.8909344411564,197.7077412754348,197.75108015918136,197.7463386890374,197.71474450065367,197.8496244879381,197.80430205428783,197.58030970308283,197.72194428652642,197.80228126066675,197.76942754817804,197.80728514513376,197.66479097393923,198.04316587785823,197.86416448342635,197.77177844226114,197.87522093619933,197.8019759694778,197.6863609223508,197.6507376979276,197.69642399931723,197.78379300540234,197.71637335456174,197.84558948984815,197.7447975892654,197.89591987708417,197.78034435731334,197.58472289293528,197.67411196362602,197.91672834937083,197.7663269373114,197.91310914790537,197.77146924829157,197.7886706518645,197.81512916180114,197.8362874729283,197.87952906297215,197.9504205274412,197.73245014245015,197.86252101798286,197.88921207973308,197.66896374975084,197.7489030714001,197.84210376201477,197.89789104192232,197.8505530847303,197.7491594004673,197.76278340225295,197.76548029521558,197.74307218611017,197.82004731096987,197.83830987520656,197.93976488044285,197.8889174081679,197.88406417722965,197.9898664078557,197.95383474092674,197.98576858228788,198.16822590335593,198.21597963211946,198.13735587789316,197.9921410608139,197.93442014503512,198.11963295409066,198.16413816748093,198.31502030543956,198.21589544128582,198.19182857142857,198.0993006993007,198.29210624124426,198.09155251141553,198.1533912347866,198.33130534133105,198.29734594177643,198.25703350375596,198.31300894311266,198.25100045735192,198.14876410915846,198.2364841696194,198.16051112000457,198.20355601292056,198.19416947988785,198.32356727990614,198.1148370497427,198.2910370879121,198.4977748428034,198.2488559661366,198.16246746932822,198.08077604434538,198.05576994540206,198.01211913336763,198.12293956043956,198.25985919523782,198.03932343092643,198.1571718790237,197.85947815152468,197.7722647764948,197.63735949432257,197.57947341367296,197.60467244288125,197.45669899579434,197.5448244257318,197.64324355268053,197.64843280377843,197.7469217112422,197.7950561411549,197.82121672350058,197.81741918859336,197.85121930251884,198.1012215404026,197.97941336697536,197.96593903976165,197.88034261487337,197.94351902290776,197.86011282609317,197.9541181865077,197.68074338813437,197.7894480844611,197.73737807145514,197.6220531013962,197.71435523114354,197.57244988418313,197.84386542591267,197.6426016539331,197.69503464864556,197.7637254059627,197.72744463226655,197.68235193034712,197.70780560490573,197.76303711777868,197.74144998996647,197.76304771736636,197.9017024086355,197.74067913272916,197.6578178694158,197.79769067675204,197.82548778042002,197.50481442326924,197.7295797213401,197.62195784596906,197.51987653968163,197.74467233044425,197.7032451751251,197.6406848453667,197.59528846703643,197.58891936682096,197.61143347148777,197.68361775719634,197.78989285509655,197.66374946374947,197.56870032591914,197.6394182690934,197.8775288293702,197.66474021515222,197.80817331082048,197.8805713794979,197.74364770516195,197.73559312353646,197.89767787691605,197.63529915750394,197.68299860012,197.7249792626069,197.70524753040598,197.81537450722735,197.8437473215051,197.694033045116,197.72664004563606,197.7884093570592,197.80479383649595,197.72120433789954,197.8875274897895,197.90080520815488,197.68687818923001,197.78340369694203,197.86680755061826,197.64609112162856,197.85973328764385,197.82848579991438,197.89016912414797,197.8053274013233,197.82356633380886,198.03199085975436,197.8263694921051,197.64206116225384,197.63972095671983,197.76066573570066,197.5415622864951,197.79220482992616,197.74049695104577,197.7536252528418,197.66037413513283,197.90685407994525,197.8208614840788,197.8830587698797,197.95289958373723,197.98422973820794,197.84674591636022,197.81377463825908,197.9759913214765,197.80921690526435,198.00556475087038,197.88402451189967,197.92067835257234,197.8231459074733,198.06225414742602,197.95944637466536,198.00896439853153,197.93134549179163,197.82616854315933,197.82031161150917,197.83634244121578,197.89742860393673,197.81949540632021,197.83579204684347,197.8311876545315,197.9150836082357,197.78679582966393,197.88776119402985,197.98904600677156,198.19659751510315,198.02293486611842,197.91537870378278,198.01960616925615,198.0156267790049,197.89371444823664,197.9975533428165,197.83369796846142,197.90284218612194,198.02602759209216,197.93103252055653,197.83772865636823,197.9266702724245,198.00686257759554,197.8436709040753,198.01509799453055,197.94393853158795,197.97000056924915,197.9995158901925,197.93005579594626,197.84147069696022,197.77405691218695,198.11962962962963,198.00028472182677,197.89726807057485,198.06679014104574,198.1688000684209,197.9979775536945,198.12007066332345,198.0188136847498,198.06326879271072,198.14119255861655,197.96345486604858,198.1652708938643,198.06671412300685,198.20019951546246,198.0485478359909,197.9569534539661,198.05893736304392,198.01168975226827,198.1311489410157,198.23659467775943,198.0572428908941,198.0314323947271,198.38035113720574,198.2813159245111,198.3297875374305,198.08558661125974,198.1848643720082,198.11491895279605,198.14162442330695,198.08931419457736,198.30735004706085,198.20513697653868,198.27465853032592,198.09577224199288,198.12712781098776,198.35509168163802,198.2033270665983,198.17855108782322,198.16771584014583,198.12504272530478,198.1404008198588,198.15574167450075,198.11422143752137,198.17970997977267,198.1994702062208,198.37796914653967,198.33722123994752,198.46873749785678,198.2041229470803,198.06493876388492,198.22801163586584,198.30383901812473,198.35344655344656,198.23325727324587,198.22331508723914,198.37041160015985,198.266043009526,198.20285640981783,198.20305913182182,198.2599857448325,198.23530753006898,198.19908277787272,198.35457758522404,198.22811814634423,198.23871629125495,198.3253952428429,198.23009202541382,198.25562389657725,198.46436919217834,198.27721587509615,198.40284752339647,198.3013339413978,198.32685124461807,198.30476326297776,198.196910536666,198.34382842801733,198.41563633248623,198.4508784459363,198.19888226740042,198.10725677830942,198.35757074395252,198.34019971469328,198.21710714081854,198.24111754801518,198.45360205831903,198.27789834380354,198.37248628884825,198.21520107315123,198.27488287052907,198.32270779777207,198.269057271741,198.2484921247463,198.35341353985083,198.41077662679564,198.40424802035392,198.26163471702426,198.30662778063706,198.38095374235235,198.4611622719213,198.55511980076145,198.26649144359055,198.48895185757627,198.354599788384,198.37386357138772,198.38043913316943,198.3181675287931,198.12776349614396,198.24496336996336,198.30439751978741,198.35413746746374,198.22322602778888,198.2744268480933,198.2149388501543,198.32767732167852,198.49918443267993,198.41844843356964,198.21310258167694,198.41094362289408,198.39956531686113,198.23835232953408,198.33670697887183,198.46310126763385,198.31071653228113,198.4823013918323,198.42643398655414,198.09513748108387,198.38000743430646,198.34398399542727,198.19850315651155,198.24948542024015,198.45678235243628,198.2901049260943,198.22765319240108,198.3434346322079,198.28761643522486,198.32818576984673,198.3049408131755,198.34731275014295,198.15919929181302,198.3709063867517,198.40463039807688,198.39257013755827,198.60674060699853,198.5033239727205,198.41373875164786,198.32764104180396,198.32232920678587,198.27490769627065,198.22910827661156,198.29091377681053,198.27998625272082,198.15190344078025,198.15917608353598,198.24460658082975,198.20530482750735,198.23776824034334,198.22156150833356,198.2708231995193,198.27449691287447,198.26080988332188,198.2117650423244,198.24857641571523,198.28834215419826,198.4669188228889,198.37602453143808,198.39059052749204,198.27901114325817,198.39236041409768,198.46747361174852,198.4022112740605,198.3518401923187,198.43972139417565,198.2583664939452,198.37660178310352,198.3461230099645,198.25619882036304,198.41533161068045,198.35082587749483,198.3866884794214,198.23744514870793,198.26928153334097,198.23288496285886,198.45922265950418,198.20673725287654,198.17363141301232,198.36310122038765,198.27622518076438,198.35340719903553,198.4078751004477,198.52032963877562,198.33760426519908,198.4428751865886,198.30611131842582,198.3095497875273,198.43251710064953,198.47979056989155,198.34589316484778,198.25552747946935,198.17724533715926,198.2371358875018,198.0489301898698,198.19296935581147,198.15024969863958,198.15192672141504,198.27205882352942,198.3241052177663,198.29582123033563,198.15683064817208,198.15930372838514,198.34020648204066,198.24916657087022,198.21554993678888,198.20852262924836,198.3004109313486,198.34195013945998,198.31937699359176,198.3441967496045,198.45387888895277,198.29168102953005,198.2904763271986,198.2988561903667,198.03828848193046,198.63255130274382,198.6447319139128,198.32405463695184,198.50410012947776,198.3367044964804,198.50067620061577,198.52991772625282,198.74113311837863,198.6684513529073,198.57019183755645,198.6203351762267,198.77653131849118,198.63824274527866,198.65536983227366,198.64516779490134,198.5385479041916,198.76787412466498,198.61759622032727,198.61555517161943,198.720888735394,198.60396950956422,198.42949086311918,198.57948924421947,198.50590127214772,198.56944963356804,198.35338151037917,198.3231335557345,198.3048640257575,198.32438022464163,198.2361166944237,198.40195965749095,198.24476206876759,198.46256000459917,198.50357933473248,198.47839710236582,198.60943255064456,198.4700434319901,198.4691066961847,198.46383272455347,198.47528199815838,198.45091045076663,198.56489560835132,198.60459352756405,198.51654581031306,198.43596597114444,198.38957645369706,198.46541819852942,198.36261054324106,198.46388585864386,198.4395566530753,198.4189259046525,198.27637009860123,198.2603631773717,198.46280778281582,198.45621537843346,198.5033880785575,198.42170956357063,198.29045203084243,198.33536060588673,198.57040655078293,198.52617071980245,198.5481655988738,198.64482351925898,198.59901630856848,198.66483516483515,198.36614501076812,198.5905186036489,198.41558999627583,198.13582046883934,198.15060740317278,198.18814484552288,198.11886873303814,198.1350277317171,198.2826540826541,198.1549412538235,198.10668075747623,198.03040260593764,197.98391191488147,198.00599109893872,198.21797913391453,198.0016276413478,198.28564887680642,198.0802936387786,198.20492577018794,198.19295585247917,198.1152317502073,198.4517082126158,198.39476854241954,198.29972783268872,198.4068710389722,198.3387577355031,198.19825782973723,198.13351077530695,198.35393741403027,198.33260720018345,198.16444279005842,198.07357572287432,198.09053427246178,198.29606904263554,198.34579734266939,198.30817808651722,198.38726912360326,198.29115450890293,198.27084887792,198.2172902559394,198.20808469130137,198.3972472846388,198.25469045843136,198.44081386326408,198.29932558473237,198.3302019592634,198.20958805798765,198.3915945114058,198.21344827586208,198.30529702401472,198.31537379017203,198.40582914572863,198.33622223497676,198.32693521547026,198.30190194784703,198.33017839729249,198.2174598172077,198.47957044821547,198.26116858182652,198.44708243727598,198.13130706047338,198.29972494412928,198.14794575417716,198.38488455471102,198.29485085532536,198.39438153934356,198.26915802143634,198.32756000344105,198.3172591743119,198.21219071647695,198.26104521230874,198.3848954898644,198.21809286756502,198.30443005329818,198.1218339486563,198.36174785100286,198.22560975609755,198.3662549081425,198.1228481555619,198.37747623955113,198.31758266949396,198.40145567081208,198.1515932319849,198.2247458112559,198.2783041822918,198.29291076852542,198.2302073785518,198.11494976672296,198.30447495914916,198.32527806444216,198.2284960119355,198.1497307824493,198.31031910009182,198.33674757560107,198.14193529884133,198.16657586098128,198.05923824262746,198.25324116567234,198.2103799283154,198.16376096805644,198.24817769614876,198.13757023277148,197.96909637691536,197.96779088410443,198.2213199426112,197.86541820576699,198.04321288362897,198.00957020057308,198.2468519633996,198.14046813148988,198.33631063499814,198.09909135207957,198.27144906743186,198.1738344570363,198.17266414141415,198.28506644470596,198.27262027787347,198.2354106266326,198.23193021721042,198.0206362854686,198.0613632451661,198.3917745796441,198.3644512335716,198.38711352099676,198.56543095726545,198.4375288683603,198.31337428975223,198.36587054344065,198.3602237342867,198.49299719887955,198.0126062485642,198.00809925900396,198.14828329263037,198.0805176132279,198.18708157342758,198.18510320243777,198.10369114011385,198.21350254683588,198.33984724023634,198.10581873615786,198.07909360513662,198.0454021995739,198.1978785345747,198.05730171991587,198.2114636465808,197.96735845254886,197.89419284254168,198.16706526437113,197.96381692573402,197.82086246080377,198.17262350838763,197.95746150525255,197.92517339626443,198.1209946980175,197.94452445417363,198.1136213007521,197.92831623833123,198.08043258832012,198.18958357365324,198.02373536367307,197.92474078341013,198.15207439610745,198.1544624074234,198.21407362564503,198.0091500258963,198.21353881607374,198.09655707998965,198.25662289794977,198.20380990806652,197.99148519978138,197.99389822703202,198.0107805834198,197.9019466682025,197.73088315647198,197.78054116292458,197.78888824851595,197.93252170902693,197.88187431473253,197.75565741301278,197.68804059508707,197.9475432565932,197.89939103581634,197.88933468032906,197.74710986825036,197.74722582504683,197.79568000922828,197.79051463168517,197.62271431451032,198.0436576638966,197.85690400691843,197.7183666417094,197.83867154841872,197.74107245709018,197.9464115935348,197.81159086326585,197.71873381294964,197.8724874733629,197.85498402463946,198.05014425851124,197.69922583244596,197.96869951534734,197.78531935725394,197.9606801582032,197.79658232954873,197.8042343303816,197.8631527349269,197.83532123307404,197.66551465929382,197.80086380650735,197.75748339419732,197.59606491454832,197.78189454304865,197.75150260259397,197.72610384006904,197.67835602274687,197.54760537498564,197.68917947981032,197.71845022689413,197.7977757342376,197.79145735855556,197.83942966979373,197.80510201153547,197.97757937647125,197.74562410329986,197.93700968418634,197.90391356818574,197.96693239704146,197.7277742658468,197.87470897645943,197.80473219676279,197.86764875129475,197.86635984467136,197.71336188313742,197.92778817095984,197.68420750272878,197.94687491011592,197.95045058013991,197.95820509132747,197.75478255874074,197.67085665088248,197.76276397069387,197.88216697801408,197.93368387782664,197.97109992810928,197.7606050169336,197.96722725312634,197.91039714926146,197.89572315474823,197.86173948080355,197.97438111686816,197.96759605968086,197.79989072923857,198.03026634382567,197.93264830325532,197.96741883490674,197.85671985051027,198.01484977552664,197.80230320783434,197.95061266754877,198.09361604188842,198.21292272269392,198.04996408561988,197.8474532522657,198.0323052646679,198.1068559954102,198.14110658325203,198.16989204088665,198.19462470567967,198.23717322608445,198.28288774660425,198.35230243313896,198.4381582733813,198.29084215370455,198.22382443340132,198.22963813900057,198.32290139954594,198.27078671027715,198.44771617351336,198.35334289813485,198.264116314416,198.31269740998104,198.26042831340845,198.31098295747978,198.32645102087633,198.28212698867708,198.2626085959228,198.36109277699657,198.19287434074752,198.32296479095527,198.22372686845503,198.3306349753129,198.30725070325508,198.3681429145844,198.32334778987277,198.324577537648,198.18477917754757,198.35361927212097,198.28583735354928,198.16843706936152,198.4479654924515,198.325286333496,198.2321597658604,198.30705406103758,198.3498074823286,198.18635946287156,198.30919428013553,198.1848240658427,198.22721014284895,198.26300702307583,198.30648076426542,198.1338756337181,198.1116300392539,198.24905313898773,198.1706547311643,198.2405328586604,198.0702363198348,198.16934905470924,198.10269789844892,198.22827053860942,198.29446935724962,198.2549656500618,198.311220970338,198.2294785232007,198.30070030423053,198.32420641754206,198.36923032789235,198.39970713219248,198.1902511670533,198.34184214295945,198.33590191641125,198.35712239284896,198.45724683362943,198.37671684587815,198.52602150537635,198.41316815783438,198.3414843906774,198.31717733383016,198.40063670519402,198.32075417633743,198.3795813019788,198.27248768190674,198.21265307293012,198.38385317938997,198.3739165375122,198.31697376729235,198.494426248348,198.4270540276741,198.43816416795912,198.4422005170928,198.38722182340274,198.49896516040013,198.21778683349595,198.32745295216205,198.28591520996585,198.44219055281002,198.51743684180238,198.23116227000028,198.2935079105292,198.28048815506102,198.2402239448751,198.44907580417973,198.5438228102977,198.53692626251006,198.53459789304011,198.50315207691642,198.3602082494391,198.64060653233014,198.58529835687517,198.48840959483974,198.5465648854962,198.5376891650843,198.39941925653338,198.49604532773446,198.45190677357243,198.439571486013,198.3850947731189,198.67716875269744,198.38109729838362,198.40180340579502,198.3478523027449,198.4019405212998,198.23423345946566,198.52732915684808,198.15619085851924,198.55336400230019,198.25132001836548,198.460465383841,198.53296339955722,198.47929725688653,198.5450411558165,198.3895323772023,198.32045944005742,198.35055573106638,198.353213116637,198.35222869607645,198.4575131469295,198.273755851018,198.54564022899226,198.16744586261294,198.3456577321957,198.3289220611454,198.2346004877349,198.29150623527383,198.27580960036747,198.24216597796143,198.22806665328247,198.29928474994972,198.46640600293247,198.4146005113914,198.54447385075656,198.44981883016047,198.4397181478286,198.44509036491309,198.36983150267412,198.54288016576493,198.45769927796795,198.02677522002122,198.35580900942313,198.2486225895317,198.21345767575323,198.13010672481064,198.25104109825097,198.32100077557234,198.38431248562887,198.20623528736292,198.44116632160112,198.41886998505575,198.33290244743193,198.24761768082664,198.16965592446982,198.40231602540157,198.46456194830213,198.3338124119693,198.43156199677938,198.320962831045,198.4048406105378,198.3461306359378,198.4077641984184,198.32728108480808,198.43208138164889,198.22652235077948,198.4689700767484,198.53721552493022,198.39617164372143,198.38993277021203,198.35681034482758,198.3721478245876,198.46691969291814,198.4916453366311,198.43332183709836,198.34440263135215,198.47021123724673,198.3747594565873,198.32375423874936,198.48051985393485,198.36582911683533,198.42293875908842,198.30495658674027,198.47804681426885,198.37681951556297,198.48708646454176,198.47315668202765,198.27138829756632,198.55361617558108,198.51329013678907,198.45697004608294,198.34373920055293,198.39554493913144,198.24453709028177,198.40237827877112,198.2878966598579,198.350227233504,198.29726775956283,198.20591783970124,198.39856884214157,198.3426862925483,198.44520587388425,198.5243529886449,198.41268882175225,198.46564973377465,198.43395031520768,198.38578212692474,198.5281083417375,198.57167973253402,198.41869298725217,198.49730803558575,198.3811798561151,198.45182265442932,198.3647576332586,198.41080163434424,198.4187980091487,198.34307241042157,198.45195350710628,198.28266681999827,198.60024759601544,198.4182936998591,198.41560981221062,198.27526362669886,198.54379299427222,198.37758799171843,198.48497928176795,198.52688264938806,198.45042867828988,198.41602855662387,198.39609287337802,198.4399068189008,198.39001582506114,198.28982924164893,198.29368660018966,198.3979847416151,198.28466335239517,198.41938822447102,198.3922871193167,198.37536294379763,198.3974624546867,198.3191483248089,198.30394384834452,198.3005376498663,198.19218053758803,198.32049142594084,198.15521701638403,198.16416410668657,198.42705005324814,198.244642344154,198.4011460492974,198.30697968812936,198.33296905556193,198.51414333448554,198.50844234426324,198.50534720820963,198.53403850587964,198.3700198486897,198.3967034863652,198.44337557603686,198.2990049465087,198.45445387825586,198.2716301255711,198.30759504583466,198.4593661931328,198.31083991385498,198.1229207296088,198.23993919054584,198.33848629389115,198.33058681672026,198.43335823897925,198.42733568985832,198.43123061013443,198.53583136826364,198.2998275862069,198.34383081432102,198.44846916774472,198.37506471095773,198.50978473581213,198.57167555107333,198.39577578268876,198.38444284687276,198.4404110772065,198.40206779368143,198.60586506884832,198.37077617691887,198.48048246876618,198.15880494110888,198.16080098830696,198.4878428209265,198.38204833141543,198.5279937791602,198.39116919002936,198.30486788004256,198.36057609383084,198.3786832412523,198.36366773052706,198.5129076869886,198.51015352709047,198.57664359861593,198.75411113034448,198.4406442690025,198.48877295131584,198.52191464821223,198.6337544709819,198.6013782365492,198.66465909745835,198.51693963904322,198.58204574881313,198.31111876470925,198.59562417342303,198.59882616951492,198.5035650623886,198.626264949402,198.55301246338522,198.55922318940503,198.53912419239052,198.48966467615986,198.6162406187998,198.63064177430027,198.64845031511697,198.6986332901741,198.68898805239672,198.60142799562388,198.69221470715212,198.55211000201365,198.61769616026712,198.48203300178233,198.49303621169918,198.56359510541736,198.46995319991962,198.55222123309306,198.48569624974894,198.52098474620092,198.45954711132796,198.52364137455862,198.43088521958492,198.57187993680884,198.33655334518144,198.76171594402783,198.52328083311818,198.44639119089265,198.40458868010998,198.63392908453537,198.61585698298373,198.49833486449242,198.76124467962728,198.62662645411461,198.55635987590486,198.70934246102513,198.50317373696757,198.54552240948635,198.72058865798627,198.47385039324874,198.38823124767117,198.34729663906478,198.6280024105375,198.5325382718881,198.42345799209667,198.36884893939828,198.48926595775174,198.55915088927136,198.53904123327317,198.5862207434603,198.4190877313621,198.47721018231854,198.45539422058025,198.5107614707821,198.49267719469205,198.48672667851613,198.71561108717506,198.6071069778122,198.7708435049829,198.48566431561443,198.7497843712265,198.53058354143346,198.6792420327304,198.5359610147628,198.61023463943548,198.5359383504741,198.58499168434938,198.72175684204487,198.51433239695007,198.48894679571617,198.64312544802868,198.51091477582398,198.4967453330657,198.58983342906376,198.4865392342575,198.57464165685232,198.495203079221,198.60527451036785,198.54627818683846,198.50342091646064,198.50870378362825,198.54657419930362,198.5534538764481,198.5718396592904,198.64923546519998,198.51824166978122,198.51308448841087,198.49177404509894,198.5061852704258,198.57681451612902,198.37795547373872,198.57035544682688,198.46868524061708,198.4590253590858,198.56126094974644,198.63445632438976,198.58942913895845,198.45346597280124,198.60230871092176,198.52873927316708,198.63571942964137,198.33594109526,198.4331386147161,198.54603860558916,198.5651384606518,198.52520742106475,198.61579038395018,198.71966442759535,198.75985125825142,198.5413057865508,198.64569650881438,198.63040036841954,198.5230202578269,198.648732718894,198.7068593304741,198.49009003825907,198.7272884382741,198.5230946218004,198.621085324821,198.70431931903147,198.4823177913758,198.55841692294428,198.49383461239975,198.50660805608229,198.58195825906975,198.50007181225405,198.49633462699438,198.5157776755949,198.48210133486435,198.68701104463875,198.46165107066994,198.45663976100883,198.4831638223295,198.29617304492513,198.60084480331025,198.57178971559895,198.38842975206612,198.50455289690632,198.6294274798196,198.35357942476605,198.34607438016528,198.57124802527647,198.28879199059065,198.42924053906498,198.7091568136705,198.57532553393315,198.44180167758245,198.4633732793057,198.39681400688863,198.46062415664207,198.50923824028044,198.45760229720028,198.64436710863126,198.4653641718144,198.48496337785437,198.53450605041533,198.3647011540449,198.45783236247811,198.20648738723207,198.20189655172413,198.31161921196434,198.23588078061678,198.2766814337495,198.14408119842435,198.42785094671316,198.37457490345264,198.4561489465948,198.27295256757535,198.25257182376163,198.38467532467533,198.2420159824597,198.33647798742138,198.13672899080984,198.26369636012566,198.42743819770965,198.18517985197133,198.28248962177122,198.257835906891,198.48665013551698,198.20033990091025,198.37569888754396,198.31020972574325,198.3150144092219,198.24258923169995,198.19219470046082,198.2330690500216,198.10796419422618,198.26019658144295,198.39191604682003,198.3723029883466,198.3001529184339,198.18496826312753,198.41491942470975,198.5164898690638,198.4242616887245,198.3508184416409,198.36293558910992,198.24735216876857,198.3227780503998,198.09987321346242,198.29924078404204,198.31245666743703,198.36494809588527,198.0845692192279,198.31571960405182,198.31682024321904,198.23613435678422,198.27569081511854,198.1902893575282,198.2184522090673,198.43578843873803,198.22654534950897,198.4225543478261,198.26046215692512,198.41999073698835,198.39028412707597,198.35999421463697,198.30749877093032,198.35012579889528,198.31687230907042,198.24853353367817,198.22032870223276,198.19482768573573,198.3229031232845,198.23686109267223,198.09052346049518,198.20901426344054,198.42489307594496,198.24540178442527,198.3108260379648,198.32902834359018,198.18357864357864,198.28251198798313,198.38793427094464,198.29325326943618,198.44091277186487,198.21100996965757,198.31306911802966,198.49732109241506,198.25117167158479,198.21917808219177,198.30893580104106,198.3047263681592,198.00920475530933,198.32395058871177,198.21388302639568,198.28086312622932,198.26657414635557,198.28078290786087,198.27897094955918,198.24476534296028,198.33515340613624,198.29538692625437,198.3188933171605,198.20104506481135,198.3123880510776,198.32975863564099,198.2809212807768,198.35046445003906,198.21299565846599,198.617008933751,198.3484054108855,198.41871050037687,198.43223018244046,198.44866887071515,198.36320986939273,198.36586991163261,198.1950196668209,198.41424267006605,198.3971329278888,198.35209310404724,198.3428265152393,198.5254139000841,198.21920704335486,198.51394364564007,198.32341200971885,198.2933109593797,198.32195643999654,198.24577937095282,198.2116379185808,198.31057211413375,198.27200485464948,198.26639877424765,198.24087147734505,198.36770833333333,198.31105316529045,198.51152140517667,198.26279507603186,198.23394707891842,198.25411281695435,198.2959103933316,198.2326562454853,198.38411899181062,198.09894615273566,198.14880402126184,198.3084444701594,198.37981715079275,198.36867853524387,198.34608705718915,198.22895155459148,198.3173900462963,198.30977521913965,198.1699751143006,198.330804424625,198.22796757382744,198.40431329352427,198.40075471698114,198.22149224357491,198.2271015584265,198.3074513443745,198.25771103896105,198.20208846990573,198.2737180787849,198.15662720351983,198.2330400555684,198.4027334455342,198.43106796116504,198.37363496799236,198.28089269690565,198.34868421052633,198.20807408479237,198.3941183281232,198.30635871610085,198.40046879069362,198.26423716558207,198.45956732993983,198.30312319259687,198.37725537820958,198.2605226641998,198.31352696135153,198.4319339895773,198.09281748785565,198.2197188801481,198.46828801669662,198.2903011386625,198.2606975804123,198.2807898839425,198.2308980169154,198.32374992790818,198.22721641167487,198.2463187620667,198.30542340627974,198.2564405509769,198.3906448263929,198.19967752152255,198.22423281947846,198.37690355329948,198.13747336903322,198.23673516442344,198.22884066741594,198.22090877638104,198.3450901225667,198.3578828893827,198.43055515459454,198.39704101055545,198.4284436493739,198.38111857855722,198.3504507358659,198.41205972214215,198.23058992805755,198.34870258906201,198.345943298375,198.24463704684845,198.34371485422614,198.24092570737744,198.4911116241487,198.39415342923863,198.27037922197587,198.44313759405,198.29470017560527,198.35681549592138,198.36530982628986,198.18290367130854,198.25219544499151,198.38008593096686,198.0808851034443,198.3264506839453,198.30867185249207,198.44547711135485,198.46170268009115,198.38076978520974,198.27124841644593,198.25608666839543,198.27756489671268,197.98188562063314,198.11900236161512,198.29121037463977,198.2047609441194,198.11345046082948,198.41683193929464,198.46339149682353,198.35928883272058,198.2888167533251,198.5219979296066,198.38646093727553,198.38439879327683,198.4621976821097,198.46496906919867,198.41049542551355,198.3174799436409,198.44737751165871,198.52673427056925,198.5254740360786,198.34185524270168,198.5487920757868,198.39962606069324,198.4813375924487,198.67637997062974,198.52524816573154,198.63583465360796,198.51776255181943,198.38334484346225,198.43482515469853,198.4381906077348,198.34189018072982,198.59166378415773,198.51657402874176,198.4940105966367,198.55824543201336,198.72467824782132,198.58968590464653,198.58832516575382,198.68084983545984,198.5161718074373,198.79728441427127,198.38246644778528,198.6180958149462,198.54872710517222,198.5378277153558,198.49559661543776,198.55183137525916,198.4360465116279,198.4777589036363,198.51008778241473,198.58910306278273,198.57749560911003,198.5915273775216,198.37796068725356,198.39076985086658,198.3290356001957,198.40886969042478,198.4717149605392,198.4755567078616,198.69375216337832,198.3941105284389,198.38199562413635,198.58991373589913,198.63182486804533,198.55563888087684,198.55195459914154,198.58957504468663,198.47599447354787,198.3989983305509,198.4676677022207,198.7062824207493,198.59466705102335,198.47053401693645,198.54106572242853,198.48610671196982,198.34328057553958,198.44420755423664,198.5228490750879,198.5078825258668,198.59952148972357,198.59723462480196,198.6835796813323,198.58469866682023,198.5453943771402,198.57344267011942,198.75391356992534,198.75183680525544,198.73852312654802,198.49577075781116,198.41962667893813,198.38227935467174,198.39244144273601,198.6475874981996,198.55087941506665,198.60840147414487,198.42780318062864,198.3707439013878,198.476320635286,198.6748236648913,198.27790701013757,198.52608570606844,198.54019948834403,198.54678513917645,198.55164082947454,198.44192927522909,198.52133900839758,198.5349131485103,198.4878560547268,198.67814603832213,198.46073132869546,198.46272087343772,198.73572683039185,198.4364362925483,198.59560199176812,198.57535547752,198.47676692161713,198.44787056727398,198.51059608361848,198.48640101201772,198.50020123038004,198.572415381073,198.47863296955774,198.39421888917622,198.37414555689585,198.5783926977454,198.50202930255318,198.49342654123873,198.62709083057436,198.36801862657737,198.4612929199977,198.48156032449225,198.59143285129917,198.6866910726125,198.5016133679055,198.48845644539122,198.5485803144618,198.5299470168164,198.497382349557,198.4521729133134,198.5005898771329,198.4727659452157,198.40669773865008,198.56114279131387,198.42091491992295,198.66129729418205,198.25066099551674,198.35878191856452,198.40461945579014,198.49007155378027,198.4758563170458,198.52640515727975,198.69050363028697,198.38943304908966,198.3029220217855,198.3035822357993,198.3024912058128,198.31601257245018,198.17414856220827,198.2852368330068,198.30846588289535,198.1424951772192,198.22378951004663,198.17701050208603,198.46064467766118,198.32497264297643,197.976139202343,198.21249496866196,198.1174677136365,198.19676045802404,198.15681818181818,198.08452890946205,198.3290515826157,198.3417415342087,198.13955093005202,198.45206623470122,198.04986070023264,198.28789709944752,198.36503093970356,198.46008469937485,198.24583465224023,198.25258977900552,198.20658519051042,198.1099614876128,198.29037454691905,198.21785796500922,198.26452467323085,198.34705458735417,198.21306711930723,198.1749223334484,198.2185101060924,198.1350947731189,198.2173788109537,198.2087366093225,198.3245379552183,198.3743207888911,198.27135057471264,198.3959117959923,198.23835403726707,198.19361977295588,198.17566052381912,198.2074272235646,198.18430662181203,198.34888876093967,198.2941362733527,198.30348144095373,198.23270928594025,198.3946490218642,198.39119431743018,198.17897155989658,198.22162534830943,198.15589004107662,198.26171661733858,198.40200080492153,198.25667327529237,198.25476005858533,198.31131479140328,198.2427335192479,198.45704497034606,198.4444924033149,198.33611342785656,198.1286223551058,198.2116485856522,198.16035211875376,198.29383640552996,198.34620375443353,198.30939003659205,198.22625360230546,198.180150341292,198.27321979193684,198.28321285603204,198.16464152029945,198.31080069124425,198.19699062086426,198.19395038277787,198.23250122369066,198.42781350018743,198.27366480382554,198.30180569978077,197.99792608808366,198.2247670695474,198.2321088749207,198.20200767300315,198.30448071045498,198.41372639602702,198.35040267875183,198.37658136445035,198.31542015593416,198.5536065194775,198.40143565498155,198.4252919971161,198.2696318488218,198.44663609885515,198.2066871924726,198.10572053406997,197.9872846005581,198.33606179386672,198.2496687978803,198.39199193432233,198.2483737263255,198.24590163934425,198.40146300722864,198.2250676181159,198.41701011614836,198.4943029393948,198.43813422509226,198.2544359949303,198.4929902498125,198.32016721925905,198.42340548340547,198.34382035444207,198.3920516813751,198.45582080073896,198.29026773105852,198.572359881155,198.40361897078316,198.44399619629428,198.39895731320928,198.0855877871374,198.29154552520222,198.3121242629081,198.29892429820524,198.4630253795408,198.32241726618705,198.4291846730049,198.27601081267613,198.44062428011978,198.43329493087558,198.22807219551513,198.49805335255948,198.5684765692547,198.39500691881918,198.27633323724416,198.3682829797048,198.54663548973758,198.37771566876046,198.4798558038933,198.4126504289745,198.3148292037181,198.36026112964453,198.40311662874097,198.35002015084345,198.23465454754646,198.38692513445886,198.36233717686977,198.5515036294504,198.35714491045505,198.42229894979138,198.3671949150105,198.52078176270797,198.6350844818638,198.49794072751362,198.18079599700926,198.44210283871712,198.26406726948107,198.37581454356726,198.54989323021874,198.46693022450512,198.18148820326678,198.22470808706933,198.1587132448233,198.33724450082164,198.19766371274025,198.28077853276517,198.09028877436444,198.2776625770405,198.2287096216963,198.2375251798561,198.3541966703151,198.23320089825532,198.2755293100965,198.45850508777494,198.45327223999308,198.25525421776933,198.38880723898447,198.29255793867856,198.42856731129493,198.42747915404368,198.22431334121106,198.3809001731102,198.40922855082914,198.2510449396097,198.44498932671783,198.48483536778923,198.5307470435535,198.44447645110182,198.68432136160393,198.4568399216319,198.56731185277064,198.46500705909472,198.6467397576457,198.48354182279357,198.4549044475831,198.5291302718441,198.4378817563674,198.42463897616233,198.32835777886638,198.32886583081137,198.26784478782287,198.2317941914458,198.24873067159012,198.22911556773914,198.1993006993007,198.2534571544292,198.00375668256032,198.07834514682483,198.0462009945646,198.25814855554913,197.89811604253353,198.0950907829305,198.06812462032457,198.0276452387149,197.9483930689346,198.05955586438517,197.88600017351573,198.07058448705322,197.82703421174295,197.86278255332698,197.93805719578558,197.89643704089306,197.91343594491377,197.90854381853427,197.77356145776133,197.95915594739125,197.97578265146694,198.0918210547679,197.8534205726528,197.93767549573022,198.07299756578186,197.99088040299932,197.8563746747615,198.1485051083905,197.83043654001617,197.96690921690922,198.01362075433585,198.17601502673025,197.95838143615794,197.89475201845445,197.8801430095436,197.93904937808432,197.91378464911017,197.81689978370585,197.96586026931172,198.139418081053,197.82746701998963,197.8988757567022,197.79541263254956,197.98690963612248,197.88383095341123,198.13364361702128,197.7716170286307,197.9375036083367,197.9888644646266,197.92705167173253,198.10669340541168,198.01565637458896,198.10075420051834,197.95862530166022,197.99464618249533,198.15678904428904,198.035246140402,198.09676761793827,197.8297296510782,197.93633743777835,198.20968493390018,198.10715320011585,198.21723788864787,198.27083393595788,198.52161692263113,198.33976085005355,198.4732179049163,197.98564593301435,198.12691952430436,198.35316726390013,198.14335603786654,198.23486052897817,198.27427430324428,198.1567873760874,198.20295267042988,198.10668863452423,197.85166358595194,198.1606315179606,198.14162903786035,198.23333526379798,198.0169535657457,198.13726738633403,198.1016463643992,198.15958741380308,198.02157565941692,197.87509386010512,198.1793011762666,198.0198331360605,198.10530574500058,198.20621566926857,198.19028480555153,198.14282409415574,198.2128601180146,198.25241650749552,198.34579195738397,198.21685562239705,198.13647929678464,198.1301710191819,198.17301857898235,198.15070548518338,197.97093006488825,198.02816779587718,198.1429354410662,198.31664356664356,198.16897347174165,197.79875154618415,198.1036827848539,198.1540655794387,198.10842678813387,198.05211754537598,198.06906395985928,198.01101372390727,198.3309464687879,197.9621722846442,198.16566733929085,198.08992328545884,198.15613554434032,198.10627504107458,198.07741025419583,198.0800587270058,198.0882200610002,198.11560144969224,197.9722868384021,197.93577560219344,198.1105459770115,198.19376366356,198.18849206349208,198.17729089393023,198.15939823720248,198.3725123662717,197.98525657573933,198.23373750143662,198.27135750639792,198.16363845116106,198.0561742924393,198.29711228716062,198.0857643778921,198.21088181191078,198.0943710990307,198.0519865358612,198.08321109097707,198.00275981026306,198.03711696158825,197.98806785508913,197.97885865500777,198.07374080036797,198.04597337626865,198.1637221614778,198.117086786372,197.93560911077878,198.0326290067558,198.02618342770097,198.0614804798757,198.14173908039362,198.01501639721536,198.32141312184572,197.92761471325286,198.02034455891265,197.85131506770216,197.64078370267774,197.69356515711644,197.84885403403172,197.71491696750903,197.75861570486873,197.87414995514658,197.9035186630815,197.79205776173285,197.77029251248882,197.65658722372902,197.6254543356603,197.9550315010693,197.8730731482016,197.89803570913497,197.9008658008658,197.99676944821022,197.9281119284581,198.09347575057737,197.82189292818634,198.0869703267521,197.85990770118258,197.94738817822181,198.00387574477932,198.05231009726725,197.99803309036216,197.99806128649556,198.0904668133905,197.87389002979202,197.8995691275556,197.88465430992105,197.91976363583697,197.80884223918576,198.02761055799954,197.75716309596092,197.79658272861315,197.76959750353953,198.0230270770655,197.9323678493845,197.91850264902578,197.74102363799437,197.8725529943241,197.9617403915881,197.9439821392328,197.85919290311358,197.95143122568658,197.99724254034598,197.98303706285583,198.0399464275316,197.9789626616301,197.89241407362212,197.84071053319013,197.82793857229947,197.845486966859,197.92476334281898,197.80592687099488,197.99584411055247,197.71091188673225,197.98488635703075,197.78205500116036,197.7522831714269,197.66317682201793,197.81252904275092,198.0033153991566,197.80369702958785,197.63715197215777,197.95396397180403,198.0094372495499,197.98736860444856,197.9414707935769,197.7970005824112,197.63477273389046,197.82463471654003,197.9270839426733,197.88741915659477,197.7882304791417,197.687465278793,197.80231606035792,197.86039844367082,197.7811438941576,197.8801580333626,197.90817580616843,197.7702919942712,197.79079351161772,197.74410173951176,197.7898999941517,197.74591672753834,197.81634977657058,197.73380075956763,198.0047382275519,197.7515504329511,197.7758019627948,197.7722946258603,197.690804698714,197.83804657445745,197.91190217231548,197.73559809736332,197.61414224467023,197.8508011171542,197.62124724871606,197.81743933251073,197.94155634484986,197.5370516761821,197.74611414159187,197.82890492110974,197.79736147757257,197.7576556776557,197.8166197513488,197.73738380787614,197.75068943261164,197.9324542597868,197.9297869843319,197.82032694508848,197.80171326312083,197.8917434963885,198.04787531245404,198.01361764705882,197.9622591557582,197.83990010283532,197.9184219029993,197.74917065437572,197.78968219033365,197.96630202070563,198.08970021476273,198.05256372692645,198.25408034693936,198.04562182370466,198.1098962140038,198.03803824259234,197.94108730505758,198.03262295559895,198.09590639862282,197.94072195008164,198.04789126757277,198.0442674136975,197.9601412272767,197.84824709794086,197.92546457014498,198.01926782273603,197.94825170743098,197.92376445846477,197.99877340030957,198.05021923414208,197.9581664571579,197.91563485574116,197.94848794740687,197.95243514546675,197.86557386595237,197.88574670507114,197.87312954876273,197.85231430396655,197.61107729762628,197.72850336974204,197.8341068978603,197.7174052665382,197.7894967177243,197.79530201342283,197.74607115732897,197.842642116031,197.76742488393143,197.73635460495558,198.0610368381108,197.98014461484635,198.06842688115637,198.11623573258794,198.00973306912226,197.8042774566474,198.08555578028836,198.2633219791005,198.39792707220602,198.33505422242732,198.30436036451724,198.42491561120568,198.30751931726445,197.9468535090496,198.0845553282821,198.0310160119802,197.90882115694862,198.04254032258063,197.98758104019595,197.82381869949094,198.0086928988803,197.77039335689452,198.02342896567583,198.1228633704256,198.19624103299856,198.3216779198391,198.28521704110693,198.20106306565148,198.3045379989065,198.26220495106506,198.25365179060185,198.29816818116257,198.29617016364108,198.25847298739507,198.22983068447317,198.2299596309112,198.23055203411317,198.255761032377,198.12918274491736,198.19254479460736,198.1504246437311,198.31892405610114,198.18660796500922,198.12294681126485,198.3188727042432,198.08785492585355,198.08956339283148,198.11373903035533,198.1176064441887,198.1202648244099,198.19623555184043,198.241741135774,197.88873519495115,198.05037507212924,197.7584209768045,198.02526565026565,198.0,197.71582318656587,197.79852424050267,197.63283229670583,197.72502734757327,197.5199793168826,197.37161464310304,197.39977638896852,197.31263794536648,197.6309048617293,197.591185934268,197.45203592642542,197.47848660432564,197.4521294914476,197.36400126150406,197.3152354729536,197.29267104244892,197.5318873886814,197.52235463029433,197.53224508564202,197.43411253917594,197.5771214522403,197.68772334293948,197.45967904578063,197.57800917245956,197.7230387918612,197.92495022650547,197.83148367011617,197.93657987414122,197.95679778361375,197.8384710946754,197.5887923318994,197.7384152863296,197.6256465081337,197.78485998088675,197.63327938966594,197.61916469022964,197.7272017353579,197.66417155573538,197.732532909012,197.57369988147892,197.7059367860964,197.91409621455674,197.8040708784527,197.73202292728115,197.81519507186857,197.8644778709864,197.98920811272168,198.09231170034158,198.2337357769478,198.23364107313404,198.39681849791376,198.48872507763298,198.79793772392298,198.43966293767252,198.49169087739685,198.42901979018336,198.4966839257665,198.39394203910615,198.64375892935243,198.39900372873456,198.3621555347968,198.27317329595235,197.93830079094067,198.04118524585368,197.9191380976081,197.99777374187124,198.24920127795528,198.27460456942003,198.2769826372595,198.36140052240776,198.36543651724946,198.61666813548368,198.59055302919174,198.6603740399836,198.53146300792793,198.4552767052767,198.3944301276795,198.18252971583775,198.23648885257384,198.2013399359161,198.4430221029918,198.21902822228688,198.5082869709592,198.29792670886812,198.43599779652664,198.73254701944532,198.85207391959216,199.09078535850804,199.28252680382496,199.37206474216057,199.0649002421866,199.35792814889626,199.3435722740264,199.1070811246831,199.27930188951393,199.2401683773498,199.2044890658358,199.25799376659356,199.32635258095266,199.05281375292049,199.12732784755306,199.05510675129833,198.96656754337846,198.83474172987627,198.88482716867992,198.656518861681,198.5671911790042,198.5547514430947,198.55990346491984,198.59705814887027,198.74706810035843,198.69354838709677,198.93283582089552,198.64779009481254,198.59729388831556,198.36080318524247,198.42595726373153,197.90900498367418,197.7701146131805,197.5792508031207,197.39106594321476,197.1148831064392,197.07630303204152,197.24576052337093,197.16871200825784,197.36083096284804,197.4947286777168,197.56545777472212,197.87541933079106,197.95121462702795,197.98687408847837,198.15911494811468,198.10808187501783,198.06868006394154,198.27859145260027,197.92936165346902,198.24427568419546,198.13888490344056,197.72472921608414,197.45452729503754,197.2945847138124,196.9695325661746,196.8363698669256,196.57003935436035,196.52651558397076,196.7277347876988,196.7568847921007,196.90326636755924,196.62969614047088,196.7134589617128,196.63525922546057,196.75735440979255,196.67964379495376,196.88370431751292,196.7190051967335,196.81068405399222,196.71685868664056,196.63795766590388,196.52023237179486,196.81670520396221,196.84849091689316,196.93945809848074,196.6568174032203,196.76181620508126,196.52059764598332,196.49452904036798,196.36814285714286,196.4273624017155,196.4238024465531,196.42045227136282,196.58029500214806,196.49198672085168,196.76098302362928,196.6921577619812,196.53610816694834,196.59342927584427,196.7665241224923,196.66683879851968,196.582790203566,196.75797681042667,196.88836727052794,196.79888895285245,196.62172263109477,196.99335347432023,197.0451850572728,196.95757279599874,197.1754997407685,197.09003919760204,197.001268815964,197.0942976757615,197.14293142295915,197.04984837545126,196.9008092485549,196.99016914847476,197.0926788348616,197.15270293759778,197.24521239554318,197.0380230337404,197.13889291197174,196.90532253398902,197.14343159660947,197.18373136488637,197.22715283614968,197.36260902320998,197.20763840630067,197.03335939536095,197.12969085319878,197.31359036985344,197.10834591706353,197.23517614230903,197.06547134720446,197.11091088763587,197.17878655608905,197.2243835775762,197.1226574321965,196.94592080013956,197.1218723602575,197.16922001514533,197.17143023628472,197.4878732160056,197.2688450999825,197.29153037383176,197.0898598035501,197.09575057602007,197.0936196283222,197.09892416688533,197.18494090179485,197.06347864120133,197.23699134705333,197.11929363689433,197.0715786402101,197.26108806170748,197.1444833625219,197.1844521108642,197.1435202755963,197.13752375383717,197.13137896767404,197.0182169069271,197.09064284668327,196.9968385000439,197.06560210958102,197.03917719108037,197.11867732770992,197.10367050414507,197.10271363263394,197.2117154076071,197.33989308582505,197.26440359429142,197.49869290644736,197.517017208413,197.25392447404712,197.38096078085493,197.39795348290158,197.32944220647477,197.535521860739,197.39207553829863,197.3168902223791,197.47296819787985,197.42603131542475,197.40472891299862,197.5080390595038,197.40307864374853,197.32210575903898,197.23550532697627,197.48776753908206,197.15226071638284,197.2952101087276,196.9155593279869,196.94402154819065,197.0303989681353,196.89382708815515,196.8061514149425,196.9898969192925,196.9681554762044,197.0509830349556,196.97369576030664,196.81650812234744,197.10981438583116,197.05503591848702,197.02767516857227,196.90361516376635,197.19060375025757,197.20659793814434,197.08512078147527,197.3120471281296,197.37804806219813,197.25654803852478,197.44441177335412,197.50148446456393,197.51778215030396,197.36534966879654,197.40418046964322,197.39764899012107,197.31312598840273,197.18839434641384,197.03933862125277,197.28207599521014,197.20220255309204,197.1352613301427,196.88691847746827,196.88663578358535,197.0274691628029,197.06553695385873,196.9251998366299,196.97276173811608,197.00175295080052,197.11747851002866,197.09008008417607,196.92076055844385,197.0063915479804,197.02081632653062,197.10073116024353,197.05141410614524,197.0164635387882,197.0385152026045,197.18359204356815,197.18469111350595,197.0472379067466,197.21458290901685,197.28404193360512,197.22087569551664,197.1739294856877,197.16885045422782,197.16349201733212,197.2980939909792,197.2490473835772,197.13486382681563,197.33661348550135,197.22822096614416,197.11791409614713,197.32566949325408,197.24928050234018,197.18670389111847,197.50214266973734,197.48586088274737,197.51834381551362,197.16097447930247,197.25410311430724,197.1940488964937,197.30348229831688,197.2794411756181,197.10054166787359,197.31690079652427,197.16649760904218,197.48093994778068,197.26310442909386,197.33685432385374,197.25019582813542,197.350780932474,197.36259997091756,197.39645538676444,197.31221271891545,197.4943348964553,197.19949443588925,197.45438157818225,197.1520812182741,197.30715841440394,197.24974631063176,197.21548850824567,197.39656073897635,197.3451738348134,197.51889505330118,197.29602531719073,197.36277300185873,197.0997621947683,197.29296863645612,197.3498692240628,197.2835204467454,197.40920336467096,197.62595687489042,197.6201706704074,197.56460239062454,197.45840889148874,197.68351648351648,197.57956875842268,197.72810208272222,197.5029535618201,197.56409806330817,197.526769284692,197.6638888888889,197.7558496187889,197.60395086224506,197.67634273711235,197.58047385620915,197.62162871388168,197.58902474526928,197.5461189075875,197.56821226772297,197.5044088118034,197.63023303174003,197.7696136939245,197.68796926837786,197.5808870545835,197.67811008960783,197.79007311176488,197.56606466647247,197.61699895068205,197.66444988916112,197.56354042156207,197.51020110754882,197.61474286047664,197.76899722668225,197.62516760916458,197.60583389129866,197.64950794852385,197.82010674599704,197.6308095515434,197.69847372713502,197.57105454545456,197.97451374916164,197.60384548257608,197.74901720974927,197.86103264509742,197.80212220149255,197.75537430818525,197.81957275668114,197.74021808851828,197.87350556948738,198.02539005434465,198.03992989630495,197.92167040914526,198.13283712784587,198.12126599248097,197.6739773716275,197.87262495286166,197.87619572149111,197.73896408799746,197.70411594202898,197.63396193621273,197.7445765661253,197.81946620249494,197.73667402160027,197.7714236000348,197.8560401613418,197.7114660019709,197.72169975618252,197.85769878608352,197.5620615687866,197.83664921465967,197.76854461458,197.84312641805806,197.6826928666938,197.9414079580236,197.82113299918404,197.79954037700722,197.6208642514186,197.59891788114146,197.6265351260113,197.52291551628934,197.63047713197452,197.73574299528164,197.71596237295046,197.56541226461772,197.75439872037225,197.7229322542141,197.7149757048503,197.74407638120744,197.67841846100055,197.5810968155091,197.78837690536562,197.66883135793123,197.67639945216658,197.75580581164664,197.4874045133827,197.65299804316714,197.60934852468594,197.70559176872936,197.81575796513155,197.56156515147097,197.7161563137941,197.70455473260628,197.81764105554745,197.80216770584465,197.65981243082658,197.68812918242654,197.53643501017737,197.6263173216885,197.59264650228522,197.74635084345775,197.82321922796794,197.67577885932445,197.74211140274133,197.71860675600712,197.58803453707486,197.61965338157205,197.68915324584222,197.63798193563474,197.67652397962172,197.5589844092784,197.72441843452816,197.71582681089322,197.77561190092334,197.5680722363461,197.68538504284754,197.62062103075888,197.5226973780363,197.5822758902988,197.61804946500615,197.58127833845253,197.70332660405512,197.39107695903698,197.5596252378861,197.38564156573636,197.40998916766694,197.59956037514655,197.47448934736101,197.69548706173276,197.85325237996994,197.95527796600183,197.92517408237933,197.87015858043978,197.75466094218666,197.9790599045768,197.92841808075758,197.61288712755027,197.74961096920052,197.65078481902307,197.7321077784619,197.90188767871297,197.81182748409418,197.46698788144255,197.60627524439502,197.4265260205125,197.4072083649746,197.5643208143208,197.4226056441,197.61380520620065,197.52537714887148,197.4840475354174,197.5552987301773,197.3624286759327,197.61842220984434,197.37285112852297,197.54664009612284,197.4776281112738,197.50501916942258,197.62182978972646,197.36264443469358,197.5539100913135,197.5561378341189,197.4547661528562,197.38990879326474,197.48080016377622,197.19218754561643,197.35863338788872,197.40659854014598,197.22770835153952,197.42516838207425,197.56935370975268,197.52281468531467,197.6385373534729,197.53026288974934,197.47812782327398,197.59568756747294,197.47697694776772,197.37823077597034,197.52017543859648,197.36211731713018,197.21340449733134,197.2865810968495,197.2274608077394,197.03144983141496,197.05866271122358,197.16783969288042,197.1468716398826,197.00731473687267,197.14615854190285,197.22067461471357,197.06726522547652,197.04337594421847,196.92034730086826,196.97616071168997,196.91762997386002,197.03610213410195,196.96186761366945,197.21426275964825,197.0020114272388,197.18671302112244,197.26508242721852,196.986835576053,196.88856150996236,197.02702860478692,196.93525158882863,196.98917515245236,196.85701774871555,196.75548873058509,196.84869900417604,196.82841948397277,197.19508502212904,197.03092783505156,197.15791927728398,197.08557457212714,197.12333275088824,196.96662499636597,197.09495272727273,197.11034923586496,197.08726373945913,197.11694885669402,197.1299377508872,197.2287844370668,197.21559152305542,197.0948847765363,197.22099013358945,196.97991045470403,196.9722545031958,197.1622838878396,197.12241163999653,197.1329284946393,197.0519378719698,197.1526526817363,197.24435860947347,197.30984687799634,197.26574340214268,197.3076454197144,197.098295059151,197.29287706251452,197.2860873349775,197.204610783659,197.5117922470701,197.20717790876623,197.17492601404282,197.37700628053037,197.1879649000465,197.21800906555092,197.2875765757919,196.95420179021465,197.1540222557088,197.2106301497041,197.34219461938068,197.35340329313544,197.32073064656421,197.2808493357313,197.29910196987254,197.24292166058711,197.31459111844964,197.28700512612588,197.2130801076981,197.44828586344914,197.18264668441154,197.5504467393827,197.28782875680685,197.28613269922283,197.47389499956466,197.40325812352992,197.21337819806232,197.50935883276173,197.37231385759088,197.35044001045569,197.33442575406033,197.47992917888138,197.51772967326332,197.55005076142132,197.23725773792304,197.3887037412699,197.20423289614638,197.32892600324752,197.40104845483245,197.38979319932804,197.26142315594524,197.23245791635333,197.19586346543247,197.17849704963555,197.23200741126743,197.2328937474695,197.21574698341965,197.39612364921632,197.29376012965963,197.35597637248088,197.47804665990435,197.43214275368615,197.67279624695934,197.87523541853795,197.85672108370963,197.67018324758658,197.46310800265888,197.35254835072706,197.4742584285921,197.55040848253086,197.38853503184714,197.38289135024147,197.38413451798687,197.4611305884739,197.44507213627674,197.37044334975369,197.12855902777778,197.43323562701337,197.5443688981869,197.311930862479,197.3688396122366,197.36553926549573,197.41242362525458,197.43132516087704,197.43988474635466,197.42726875455207,197.27490479927908,197.2152307289698,197.308501977204,197.52431252728067,197.32053664769427,197.2268917311987,197.25428795310097,197.24011602610588,197.129945469312,197.47624174353305,197.29774497268394,197.11183943384188,197.18347826086958,197.29707476879366,197.3104347826087,197.19669474110734,197.35999536312525,197.42179792234924,197.5247311827957,197.28081834010447,197.46330408507177,197.3832071256564,197.4099075527647,197.4010989010989,197.27067057764353,197.28733163028332,197.18761965539247,197.24119830636275,197.14999275257284,197.52282495063307,197.3826175275682,197.40222086921227,197.41352251339222,197.3652080739046,197.1999479678557,197.2773213769164,197.20173310225303,197.33402741627626,197.52687362446426,197.3191913933715,197.56180752943905,197.23961226851853,197.22721486025114,197.23853104726598,197.32179609821145,197.41893068617208,197.18117033603707,197.3044839280021,197.2603901366057,197.3207339661959,197.1358945451392,197.2412766326501,197.35933929242964,197.11640807835659,197.0049699491447,197.25849062057404,197.24801988784182,197.04430836775367,197.17402492265882,197.28449946490036,197.38232399258916,197.236569410675,197.12540862672492,197.3029451796936,197.1613426395204,197.18228427425194,197.26837819825562,197.27626887735877,197.10794533240676,197.31981093777185,197.239095174651,197.15855000289537,197.23564333497438,197.2089751013318,197.08849480718604,197.2110805728338,197.06780837769034,197.07447485677912,197.10879884225758,197.08482517280274,197.0866734191868,197.00315548736359,197.19323811455226,197.05321488512067,197.10782553290085,197.1569944137312,197.2121616138195,196.96431568894164,197.23530606913766,197.08527356548464,197.26415807060874,197.20814440181374,197.35138828318068,197.23564304614578,197.09748947903063,197.27082365241637,197.188033195984,197.25297118673546,197.06571014492755,197.06683670511853,197.11436941640562,197.2967434840657,197.23821397506524,197.38783269961976,197.24241634072143,197.20826570832367,197.3770187596045,197.26161107250405,197.373159846992,197.41350810544327,197.45015648545265,197.44879561726427,197.41342110605225,197.2939216595202,197.50027572195617,197.43031742354032,197.46289926289927,197.7259085783676,198.00092611350678,197.7801369269434,197.90306535569692,197.61369870924895,197.6859296482412,197.60519555491413,197.5491514661741,197.72691586087458,197.5763167013167,197.62777617536776,197.67957634700298,197.79902272595848,197.820191918608,197.69634142820016,197.68967809050454,197.65974348604772,197.87445699391833,197.7011813759555,197.70038516115955,197.79997678198282,197.89082677965118,197.57804489500361,197.65015210777923,197.88654828226555,197.79305149082901,197.66794003588586,197.54700829983517,197.7708073994731,197.85027388922703,197.7886303711645,197.62789485873088,197.54167028262316,197.65032396158742,197.81850039097571,197.6277298267972,197.61050195284247,197.57365709655014,197.72306755934267,197.52803724804073,197.7357008262067,197.45996755692022,197.38881317597935,197.30563867181826,197.40269099997093,197.21002552796472,197.32928706258167,197.46980528916012,197.4740923613128,197.31993037423848,197.33471613820313,197.43802804633742,197.2908385003187,197.4577383025659,197.34412250935353,197.38891788448157,197.35410921125208,197.5159219013307,197.47560197272992,197.36412428558995,197.49132075471698,197.46166579543475,197.5910240386013,197.2513268176677,197.72920369453104,197.72155400879518,197.44230881070078,197.5922700530087,197.50112013034243,197.55503506066515,197.5680397685979,197.57194788576746,197.65466138706108,197.4790824781231,197.53536294312823,197.56347335021687,197.5996391572576,197.5798615151868,197.50796099548828,197.67332789559543,197.6742810524169,197.5424522811918,197.6197490611627,197.58244673098784,197.5974294707391,197.6282997403961,197.7520810818705,197.75232469735073,197.65134961439588,197.62706867867254,197.6676398458484,197.41675410982862,197.58372703412073,197.54754346623176,197.69229648197265,197.67448372418622,197.5497945265367,197.39987782884404,197.44366565844578,197.63588743706893,197.7937684161391,197.61553465894204,197.58343515447723,197.49682696786212,197.45200291332847,197.37833585829156,197.52155637934558,197.4222306525038,197.2619805507695,197.12207450693938,197.19295679897044,197.0545927462957,197.09884775106744,197.28644027965456,197.28925207593673,197.36839321914388,197.39958877955647,197.33761273832957,197.41488424021625,197.20808282253572,197.3372793232089,197.18508408910805,197.3490976427018,197.4903552105387,197.44444770771534,197.27528534960828,197.42690556616242,197.4718039043006,197.36842259721203,197.47070926780518,197.46721720986275,197.53255376660007,197.53829862336747,197.49908834254794,197.49284536568132,197.66972774098602,197.56666372540369,197.67493372606774,197.67177932171455,197.413272203609,197.51918722615932,197.54880560131795,197.47774672745993,197.68266682372342,197.50616811423524,197.5176172519444,197.6551907248429,197.5304096839749,197.8823719644852,197.763866039953,197.99688106867535,198.06781907061665,197.96113760819642,197.75529536361498,197.88325186973677,197.9267165233777,198.0341978696409,198.02136752136752,197.83233109303148,198.10304712412898,197.9832910196611,197.8690255049388,197.84560772992398,197.75294325406168,198.02012315488642,197.79236564836071,197.96015090780477,197.95389099902835,197.87655849323548,197.890026779671,197.94024972024266,198.0045354145192,197.99398496240602,198.03078055964653,198.06093390719886,198.00580453165975,197.92125265142587,197.8854654071393,198.01115011356598,198.10441458733206,197.96216455322914,198.04203095463137,198.01487866800497,198.12145175568014,197.8316983355428,197.82869934024504,197.80589897562697,198.15565384048355,197.93477876627585,198.00940060116696,197.97471115302994,198.01508811221782,197.93458989839493,198.0729292512597,198.00615919606284,198.05148357470858,197.9520878732552,198.10652090638536,197.89259117534513,198.06181100041266,198.04356534802204,198.05330270636392,197.89501235148805,198.08381681637462,198.07403370256893,197.9756851432104,198.13226063124392,198.29700810611644,198.22232703475518,198.03082624937494,198.22869004504904,198.10789929790548,198.13049353701527,197.99926641039937,198.05804671909848,198.08339695777295,197.97631903280708,198.04098937855758,198.02901949289168,198.03505275498242,197.95636481014145,198.15435158839577,198.10815649672742,197.96970674486803,198.0914720037563,198.06428529532525,198.33235363272985,197.96996715157204,198.0817765244977,197.85956572769953,197.94966797907975,198.04490023801827,197.9245925708413,197.98467410452145,197.9967428621732,198.0083942355669,197.8672882946282,198.0569844854386,198.17150063051702,197.86914274007083,197.83898354704607,197.92701949860725,197.9114932763015,197.88155117833276,198.0457412786433,198.09994129732902,198.04746658833895,197.9023360787877,198.02620535845293,198.11123836372713,197.92252880978214,198.0632209210179,197.96110605571374,198.02711665443874,198.07522747285,197.94497298567066,197.93452153742257,197.859666109204,197.73965208718354,197.84398661736222,197.89595426561127,197.87775985925816,197.9457796014068,197.90426715055023,197.68112722170252,197.79705099324187,197.7236380640636,197.69285233622986,197.9430353795689,197.84929062454293,198.0284927009439,197.88807956706157,197.89772328221937,197.8596727453678,197.75958106605816,197.8078386605784,197.90321447391534,197.92655847199438,197.85323652545597,197.92338579677013,197.87006709049894,197.82050004396635,197.97168842599385,197.89071711394632,197.80764159512438,197.8547772567409,197.90263466042154,197.88342552755583,197.89118473425427,197.91780661413634,197.95261246485472,197.84799086891627,197.8348095530416,197.86310585895222,197.81781743709772,197.95285229003161,197.70755599742674,198.03063168694123,197.792026714315,197.84290659469607,197.8611322745121,197.81881553511803,197.791382953745,197.899098728826,197.82690388115788,197.8251657961148,197.80580873948594,197.86874523376548,197.93640177183255,197.7106010481014,197.91756954612006,197.87897510980966,197.6682755594559,197.9079517507905,197.9110272389479,197.76704080439612,197.88441402708315,198.01415343140127,197.84389530633135,197.82902282036278,197.8330795807226,197.9391434350541,197.85557506584723,198.07186876393942,197.8505231689088,197.91511150234743,197.92428466617756,198.0005287275291,197.9057822130907,197.94687279981224,198.0524263304501,198.02375443015728,198.03356647449593,198.13386472863672,198.0294901455472,197.99144598078274,197.7698517153637,198.12379779498005,198.14771828013716,198.09967770290066,198.11544438905668,197.9863812089972,198.07415545984588,197.96317545811135,198.07383571261408,197.9057780119424,198.12129474887854,198.05013208100968,198.0962069167988,198.32997058823528,198.19887098671057,198.1854739071601,198.25730581525255,197.94819687536707,198.17914045505321,198.18031100267498,197.99498018494054,198.07526408450704,198.11125146886016,198.1786217835742,198.03545433200281,197.99850295006897,198.13320599471055,198.15559476547566,198.034009002383,197.97747893237806,198.18188233218663,198.01798518866815,198.02865792722355,198.1675732894234,198.1864386827158,198.04953551269992,198.0680020000588,198.07385176685204,198.14535396928147,198.12240150756728,198.0526610314258,197.99431232133912,198.27004842329043,198.31071259749467,198.22528477837454,198.14836786494303,198.04878695088917,198.3102511880516,198.06256627783668,197.97602991843104,198.11388078611625,198.18466076696166,198.1533407966062,198.13532238568354,198.02956347451882,198.01019055753542,197.9500309178175,198.08659349737417,198.15426379462968,198.2156862745098,198.21493920434423,198.18224796123388,198.10179268725594,197.94854592741459,198.0303891949529,198.04740305940948,198.00593225366316,198.04401769018432,197.8230555061904,197.9265024163183,197.9481066334549,197.95889353871723,197.95329042972804,197.87846418610172,197.92681406736904,197.8587508538505,197.84921341644406,197.82607921144825,197.92749271657055,197.94557782668173,197.77648701645967,197.99491237987564,197.97099509147702,197.8759410801964,197.8217492122005,197.9698178354566,197.88667678481087,197.90140049359223,197.90725758477097,197.8245238095238,198.0410502187956,197.77099349936182,198.03700618752976,198.17179830432843,197.8373653121197,198.17446492271105,197.9460711528182,197.94870120231556,197.98023421709667,198.06790949365208,198.06593373941465,197.90560218274564,197.92628985335153,198.03714480833753,198.114001484781,198.01701609550395,197.95393975367264,198.01726135654653,197.94256285434415,198.08212215782433,197.96101428189672,197.99777441467106,197.91548710644233,198.15903893558254,198.0647362487391,197.91581473908792,198.07097309962333,197.8478389579633,197.96240735250518,198.08531269460013,198.0284580532441,198.09026480443615,198.1659545427571,197.95504885993486,197.91125118371212,198.06073546856464,197.94596676244927,198.03866895816049,198.21151736203777,197.96827982466533,198.02036883301707,198.2335946315102,197.91121910744977,198.08827978997954,197.96287847366239,197.99389213389867,197.97421305353015,198.08106503606518,197.96243408188658,197.982439515532,197.85550689471503,197.91078518518518,197.7759931375159,198.03281550525224,197.94965051534177,197.81657853534608,198.19225875181252,198.03016680468474,197.87087051592695,197.89147080561716,197.8919078733406,197.88433784822854,198.00281189877165,197.9224622669429,197.9547756552643,198.00053350721717,197.95173149905122,198.17824692677712,197.95671136957037,197.99261565836298,197.92109705891065,198.0203803542864,197.86703101920236,197.77994864681403,197.8964468204507,197.8461788233905,197.89727098392092,198.05331365313654,198.03836150845254,198.01567073711598,197.97748626130118,197.99872871333963,197.95909978115574,198.00257160592355,197.78646971935007,197.84626300851465,197.83832884575554,198.04753302138246,198.09064795072257,197.93136238409812,198.1254706632275,198.1106531858748,197.98268359825948,197.94435385846847,198.12946481547408,198.0780671347732,197.97670219064534,197.99180303613176,198.14582347373403,197.8751809079363,197.9706925076814,198.00428778425052,197.94745552337608,197.66661747343565,198.05360416297086,197.9432617822719,198.02346362103145,198.04518250770326,198.1237403675163,198.07706454674894,197.94362774155306,197.97539574316713,198.1445045473459,197.92832764505118,197.85889825477858,198.0828402366864,197.97502378686966,197.9601865882283,198.15130227712459,198.0641356979473,198.0962714480793,198.15026737967915,197.95891629120229,198.14712691440104,197.93928708998786,198.22941333570728,198.0485342019544,197.99146793067695,198.1631806600699,198.06331586892816,198.12363539540252,198.06846479164818,198.11943745373796,198.1302377920578,198.1506674954859,198.2729321079158,198.30293333333333,198.1667999881492,198.33301707779887,198.22202797202797,198.18417474580278,198.13643218309235,198.33150871379115,198.13058632402894,198.2813201749202,198.3449346501863,198.20918141266137,198.20267596065807,198.25033985460132,198.3084650613089,198.21386378403923,198.1934779400915,198.27247191011236,198.1708569405099,198.3269185290292,198.29762256786327,198.2690921977438,198.20237497415295,198.27692353184693,198.27403177608804,198.32771790620558,198.33304708320995,198.26783601514435,198.37735402808573,198.1691235118608,198.20292806753446,198.25811496694996,198.24252982166055,198.3518031721653,198.26993683961985,198.33635718929142,198.19336641266466,198.270058766205,198.26121496707125,198.3147092697044,198.08758112094395,198.46662324975577,198.22555079106905,198.30857514715888,198.3139882272902,198.20374312577613,198.25716991742385,198.42692102612713,