0.0003489108487566008,-0.011053216042625269,-0.018816241137369405,-0.020738689431639673,-0.016855963871186805,-0.009251072182429737,-0.00101873744581725,0.005078112185608788,0.007617891357831294,0.00679561742322448,0.003976954833475006,0.0008759630192994596,-0.0012047057307593128,-0.001765899462988385,-0.0010696792611613742,0.0001980814604660673,0.0013326877566397222,0.0018932277788006185,0.0017831910525873788,0.0011609530270045125,0.00027513178090905754,-0.0006766728833009286,-0.0016064069159855698,-0.002506128134134509,-0.003369144981998331,-0.004118085930799683,-0.004585334023821462,-0.004560241001789351,-0.003882058722574115,-0.002533925319930367,-0.0006912045970677277,0.0013042472531120796,0.0030423774123339306,0.004182360888806996,0.004572818158437818,0.004299002030585892,0.0036330241438589485,0.0029128814285814698,0.002411568244915711,0.00225441205660914,0.0024065941877527393,0.002714087746132773,0.002966831217183462,0.002963440149674139,0.0025710586924646874,0.0017736912804266593,0.0006904260345511355,-0.00045834127395897803,-0.0014375208658793858,-0.0021010919928158996,-0.0024554326677442445,-0.0026409540640485504,-0.002838088303637873,-0.0031497755027944272,-0.003527981030825295,-0.003789039141189907,-0.0037147070349996367,-0.0031859056235321185,-0.0022708445480902313,-0.0012091444647044712,-0.0002952702538412178,0.00026898034710010434,0.00046161098050125863,0.0004188540995750099,0.0003319881007914789,0.00033893723578893654,0.00047585619050382884,0.0006992140523358222,0.000939291813653341,0.0011378008309976923,0.0012525938563778976,0.0012481820458762822,0.0011002741298845316,0.0008209054529250714,0.00048103415971854045,0.00019937422169805964,8.98183324402526e-05,0.00019635463353105003,0.0004618302314577462,0.0007576666740347301,0.0009586786178332153,0.001013762742401607,0.0009654264503332484,0.0009071762616729538,0.0009107894986741244,0.0009745691948469647,0.0010263171646789455,0.0009748482696548296,0.0007708982096245783,0.0004354032625712484,4.000898711447134e-05,-0.0003410319392274726,-0.000671906068465579,-0.0009636257975431358,-0.0012494734410665401,-0.0015481409626686956,-0.0018390628903941371,-0.0020630205559470515,-0.002145647725096759,-0.0020313821251349553,-0.0017123850983027451,-0.0012388507666040217,-0.0007036287117131477,-0.00020574085967044425,0.00018982593585065675,0.000473867701999312,0.0006836569864924478,0.0008693375337017583,0.0010581137430285322,0.001238319865567103,0.0013707029062343251,0.0014158466667169478,0.0013570630587158015,0.0012030637125960925,0.0009706586831731745,0.0006638107889853636,0.0002698148717525101,-0.00021875248750850845,-0.0007694085758959262,-0.0012907317790177937,-0.00165152691314986,-0.0017350797384068522,-0.0014980829895463342,-0.000997060741880237,-0.00036516214708631886,0.00024635840454559257,0.0007279102093145043,0.0010420450412920203,0.0012145716243932125,0.0012985502012306236,0.001335591007410885,0.00133629496596392,0.0012867795314632433,0.0011703805950824923,0.0009850380047152318,0.0007432241885575958,0.0004563947998040103,0.00011793053941429581,-0.0002999097075820138,-0.0008276958270787558,-0.0014648827494142024,-0.0021480745847279204,-0.0027443568890628102,-0.003084461917465798,-0.0030290642280876023,-0.002537191208764256,-0.0016964939708649417,-0.0006926251770319754,0.0002684852454026552,0.00104124091892972,0.001578845003933092,0.0019145464071227073,0.002108214676834155,0.0021985007788263176,0.002188991734589204,0.002068319756175546,0.0018411095159325222,0.001543128466729423,0.0012288874862325938,0.0009404866859255327,0.0006787969842438122,0.00039627805922062137,1.861545161572028e-05,-0.0005124207130765891,-0.0011939140704462373,-0.001937817561173752,-0.002585461895677585,-0.0029613814386648053,-0.0029455495604878406,-0.0025285488632852977,-0.001818878936377611,-0.0009964307016543388,-0.0002365904057222278,0.00035496156281348765,0.0007657939704771813,0.001053307567669214,0.0012935752619296116,0.001531976056786323,0.001759269502239486,0.0019208720498696367,0.0019501901516294632,0.001806343094444881,0.0014958176251505914,0.0010661568613497597,0.0005751894020818335,5.596364875108895e-05,-0.0004950113652453299,-0.00109074607541244,-0.0017020054045520845,-0.002221264837335759,-0.0024812704562740904,-0.0023320874487191283,-0.0017354169867925201,-0.0008144909595491186,0.00017999082190054067,0.0009758705829184314,0.0013993870598659947,0.0014415463659400716,0.0012372697740228827,0.000976802950486075,0.0008061307964696878,0.0007713139657516553,0.0008259107454373781,0.0008795497179625703,0.0008483426656613719,0.0006811475571174541,0.0003621074213960721,-9.438733871912458e-05,-0.0006445416129599603,-0.0012145941697626734,-0.0017094341651514224,-0.0020345801421084624,-0.002122984194311154,-0.0019527496538318664,-0.0015489679351758043,-0.0009744574314451945,-0.0003181858559820488,0.0003164340244479188,0.0008292043329968398,0.0011508199421907382,0.001272336082349666,0.0012567502684045057,0.0012154110517955717,0.0012509138472586827,0.0013928691466783827,0.001565896988243862,0.0016177328021534472,0.001401446857335271,0.0008683690508784937,0.000113681202957888,-0.0006598806276948072,-0.0012438045894633408,-0.0015297891966337999,-0.0015534717269759855,-0.0014504732505135403,-0.0013581515862966238,-0.0013302857643468038,-0.0013174503176877962,-0.0012169167561477123,-0.0009503942679641115,-0.0005166218202739937,9.318571094473383e-06,0.000520368380504133,0.000931931789760559,0.0012136177034575161,0.0013846536241612709,0.0014824177404925438,0.001528036457574177,0.0015122864271580293,0.0014097865636364135,0.0012085768950621174,0.0009298257511126582,0.0006188894142957289,0.00031139805789679484,2.9402812754919343e-07,-0.0003662932791747113,-0.0008463195128031249,-0.0014451419715195185,-0.002076989437074584,-0.0025783978479141426,-0.0027735452866551255,-0.002557600022058448,-0.001951630587653381,-0.0010987571482095168,-0.00020383147179983078,0.0005522760405873885,0.0010814433393554809,0.0014064478755080852,0.0016190702519691838,0.0018004555817907643,0.0019512182047922762,0.001979317629896108,0.00176112870985423,0.0012409464012273913,0.0005015406479966789,-0.0002486416954140761,-0.0007723563582828167,-0.0009278406835975181,-0.0007435091653288217,-0.00039695686564588,-0.00011252964887042494,-4.0974312170315684e-05,-0.00019152048302681877,-0.00044929042262034473,-0.0006564850923875924,-0.0007011500893817964,-0.0005629121330038914,-0.0003013910680073426,-1.0077411574596282e-05,0.0002290824501237432,0.0003692024848745861,0.0004008750687633524,0.0003450369554604361,0.0002436141114911978,0.00014664239816310827,9.302285676180766e-05,8.944094980412412e-05,0.00010028628295247937,6.061348818334981e-05,-8.882235463580045e-05,-0.000362468813474846,-0.0007115199284377376,-0.0010392709954858714,-0.0012412992178214054,-0.0012462317866291706,-0.0010361980098599073,-0.0006434012922137897,-0.0001344810038141392,0.0004050200938561651,0.0008848490486039472,0.0012294729269204,0.0014030009532834758,0.0014256116152675496,0.0013632617526519299,0.001288428259601907,0.0012349053309733985,0.0011800865005846747,0.0010697422383674033,0.000865775986368071,0.000577253346446992,0.00024895859265559287,-8.12148477206321e-05,-0.00041719099788350424,-0.0007991428228629588,-0.0012586504414116052,-0.0017691305770944454,-0.002231949677900906,-0.002513010016054282,-0.00250779646494094,-0.002193087259765904,-0.0016347528284301389,-0.0009523380156775804,-0.00026707688184700047,0.00033659562276526164,0.0008217089722538135,0.001186196934461213,0.001441435221072795,0.0015952228738682888,0.0016461856606529086,0.0015899557487658316,0.0014322422738211383,0.001199791851316201,0.0009388548282378247,0.000696091495858538,0.0004897582672851797,0.00029170464928401723,4.01319876703974e-05,-0.0003162987965403957,-0.0007688198936984293,-0.0012300934605083361,-0.0015659554764690118,-0.0016610069444890176,-0.0014764058230499497,-0.0010636341782772787,-0.0005295654227467418,1.924143109698648e-05,0.0005154799265847424,0.0009336773920467221,0.001265977418369227,0.0014979639792027269,0.0016051385014302468,0.001568872006896217,0.001393134354711386,0.0011048331704691852,0.0007384857932914693,0.00032234628874601516,-0.00011873390545285738,-0.0005474163575427134,-0.0009057005759967854,-0.0011321473354730352,-0.001200410010484049,-0.0011533233265545266,-0.0011029249551986792,-0.0011839301946657784,-0.001476782743846109,-0.0019410421794425069,-0.0024042226378671134,-0.0026260285861541013,-0.002412591585542573,-0.001718754626209628,-0.0006776902947567389,0.0004605653339365246,0.0014447968766406025,0.002125194147610707,0.002488940144757957,0.002620426535050902,0.0026233099774874294,0.002557904056163428,0.002427106417120449,0.0022055910200006,0.0018796996382039466,0.0014670343486150213,0.0010083931702072595,0.0005471757796080652,0.00011488018983997397,-0.00027162787908750156,-0.0006077757596088232,-0.0009003161015030932,-0.0011655447912227528,-0.001420596082401053,-0.0016681727745835343,-0.001884283128393256,-0.0020195441710516454,-0.002016057387086916,-0.0018323856076230237,-0.001465855614330074,-0.0009629679859078199,-0.00041154137850435706,8.621592375880919e-05,0.0004503195794064872,0.0006511053507998532,0.000713178094626641,0.0006944040655031442,0.0006545148494399705,0.0006316126609736681,0.0006361143063892038,0.000659417671612804,0.0006874465076360178,0.0007093918897210601,0.0007168957187075724,0.0006955005760913077,0.0006159160050410214,0.00043478760619462353,0.00011090530402215663,-0.0003663583781302643,-0.0009497302926809159,-0.0015257667618619269,-0.001937797056016616,-0.00203719155961458,-0.0017434172365184016,-0.001085099205278689,-0.00020014536206949628,0.0007092289076511506,0.0014493620470689083,0.0019040314392387253,0.0020675610822438227,0.0020267401889128953,0.0019017191299223605,0.0017774164560268044,0.0016620391482840694,0.001494554216263773,0.001195430966110663,0.0007292888496945209,0.0001395828161855551,-0.0004686200657992769,-0.0009887261142413968,-0.0013765777851440983,-0.001673512790649255,-0.001968751945730092,-0.00232240898861093,-0.002700006052159864,-0.0029660619431719484,-0.002948162494894025,-0.0025367282205173798,-0.001760299860329864,-0.0007889229447817577,0.00013925901292910058,0.0008281675264439385,0.001210337490374949,0.0013638858431758896,0.0014529069293038985,0.0016257810389992149,0.0019283539554637427,0.0022806558154365025,0.0025296364217150835,0.00254486257613042,0.0022968879225747215,0.0018689416593392265,0.001396748985867038,0.0009789227337183102,0.0006182759290517914,0.0002314222917168118,-0.0002819808670462342,-0.0009564888120502646,-0.0017170259304754372,-0.0024004345755097474,-0.0028292268270813476,-0.0028951904556765527,-0.0026072899634836067,-0.002080362891450184,-0.0014744194809975723,-0.0009202595375284517,-0.0004717880059084048,-0.0001068954751246456,0.00023118539240162824,0.0005825620962542764,0.0009412705361290699,0.0012613822656598098,0.0014887295816417637,0.0015948272248481688,0.0015917028826059822,0.0015196891911547698,0.0014164314718672574,0.0012866230982789947,0.0010924604125769684,0.0007733636635360297,0.0002863075436849679,-0.0003544924940839007,-0.0010607131671322273,-0.0016875849087061093,-0.002081555001664859,-0.00213869016464489,-0.001847945738764373,-0.001298663427163577,-0.0006471554855797905,-5.608821659681181e-05,0.0003663871318507206,0.0005999306039756514,0.0007026897343570136,0.0007655207089749447,0.0008553184283804806,0.0009794136475413356,0.001090563053204855,0.0011264170332696867,0.0010551142003012526,0.0008963327253268648,0.0007065447531515428,0.0005424442961619018,0.0004279297871779379,0.000341955829226884,0.00022818926274788953,1.7301665806312836e-05,-0.00034685482493083594,-0.000881773916586132,-0.0015458679380485492,-0.002231204086048255,-0.0027789377667396453,-0.0030207165942680555,-0.002836553769608399,-0.002207385059942252,-0.0012368104320561863,-0.00012567363430112766,0.000896583996622254,0.0016564325715291623,0.002095672293241153,0.002273119778701329,0.0023067642493700136,0.002291431057517472,0.0022443305284396003,0.0021130977420905127,0.0018371479749339046,0.00141411579698012,0.0009191220395984264,0.00046056012340919643,0.00010538272584521076,-0.0001686707479194386,-0.00045592632783068117,-0.0008508890809136593,-0.001371865169250558,-0.0019329605854394344,-0.0023822958509192764,-0.0025790818499083394,-0.0024597777465288928,-0.0020572426188115527,-0.001472169476100071,-0.0008247460803293699,-0.00021727095924612577,0.00028067246441995457,0.000633114841762609,0.0008373104232874417,0.0009237848255223187,0.0009484828577762544,0.0009717501549107423,0.00103151960184878,0.0011261369226096558,0.0012170362971539806,0.0012482652791005974,0.0011706004834647278,0.0009586310602227358,0.0006163051507429974,0.00017336804393072893,-0.000322051739190425,-0.0008106936253815438,-0.0012283532165352992,-0.0015127993743420767,-0.0016138514657116924,-0.0015066741169893242,-0.0012036101085708105,-0.0007562665627160871,-0.00024183931908478332,0.0002631489016346822,0.0007083239588213982,0.0010786300614050173,0.001381274037288534,0.0016198593065092411,0.0017749269578605977,0.0018066338040784648,0.001680013570364443,0.0013961260548454994,0.0010054602751374871,0.0005893854795395552,0.0002166077032396041,-9.909988234047635e-05,-0.00041016376001768665,-0.0008025118036006085,-0.00133373455038891,-0.0019782337287421983,-0.002615539846682639,-0.0030746768908247353,-0.0032137727745837653,-0.0029908339789018403,-0.002484377216082968,-0.001851316640943671,-0.001246800016589585,-0.0007524535625540946,-0.000351848010567396,3.832694249957403e-05,0.000504754277994555,0.0010797311951171668,0.0017198137036956752,0.0023292221869656684,0.0028117260490271223,0.003119991276866901,0.0032739031944199973,0.003337468617802564,0.00336725455863013,0.003361423723369091,0.003239505414967564,0.002868765621123667,0.002129780729744653,0.0009922695691726192,-0.0004367726742127622,-0.0019213581376913646,-0.003165302407439483,-0.003916453417707025,-0.004061702790729158,-0.0036688718454240795,-0.002954245538589643,-0.002189766569072032,-0.0015941726978028568,-0.0012600869555090283,-0.0011479603327716383,-0.0011396346876694167,-0.0011129880576850612,-0.0009939525577119098,-0.0007643057516044235,-0.00043601655178954375,-2.279177175766936e-05,0.00046589524345490557,0.0010071659448337479,0.0015445759935544998,0.001988620318234772,0.002242850878277133,0.00223938078290601,0.001962054828755072,0.0014484760059126321,0.0007788544909497954,6.381881446876521e-05,-0.0005669592547685896,-0.000984276981068611,-0.001092933258960893,-0.000869357329761028,-0.00038085902388012693,0.00023104892878299753,0.0008003341499679236,0.0011957859147759939,0.0013611206296540103,0.0013191627638635573,0.0011439900339585809,0.0009201249467171513,0.0007093936727611177,0.0005362847544031855,0.0003906316007881794,0.0002397215562394354,4.2191642615706975e-05,-0.00023937901939566944,-0.0006260444489477668,-0.0011093011844764307,-0.0016409201066005714,-0.0021338376642630447,-0.002480296101992509,-0.00258492360120646,-0.002400473641512785,-0.0019492658381042181,-0.0013179847726620367,-0.0006262452440806178,1.6443615393277452e-05,0.0005440987518945037,0.0009429115812863179,0.0012347976631863242,0.001448989630247121,0.0015986335280902756,0.0016729893127189507,0.0016454536874322815,0.0014901498244355763,0.0011981241568578883,0.0007867707609655087,0.00030002117160566363,-0.00019982064749594002,-0.0006454283554437305,-0.0009785204923836296,-0.0011601299337794316,-0.0011743562946717233,-0.0010263010589826767,-0.0007378564662151449,-0.0003449701476020547,0.00010326074360939496,0.0005470054595469063,0.0009236647833915945,0.0011817214439499655,0.001294837825857667,0.0012676250162439286,0.0011288596698659729,0.000917085445486441,0.0006689092931058501,0.00041582980891905483,0.0001849020351016406,-6.99945900978498e-06,-0.0001682809607182964,-0.00034465233119580947,-0.0006079531554867264,-0.0010143131072916714,-0.0015510405171275175,-0.0021095919543692096,-0.0025119206040357263,-0.002583905368685087,-0.002237576713084753,-0.0015170671939588034,-0.0005847812580800367,0.00034246977608918725,0.0010739373914959592,0.0015057983349707382,0.001641414517861361,0.0015710589027687276,0.0014257950966332553,0.0013238875600494623,0.0013255106966922345,0.0014090549619143072,0.0014796879048074116,0.0014119486508063165,0.00111140504326974,0.0005653435858558395,-0.00014649635242608742,-0.0008881719686646887,-0.001527715079648244,-0.0019825250761667072,-0.0022237650951781427,-0.002246016124400681,-0.0020357175364368063,-0.0015718395417577465,-0.0008638810760413661,2.624906608642984e-06,0.0008565446331155482,0.0014907834812139232,0.001753227350348174,0.0016278703295196499,0.0012538146600081916,0.0008630567024469633,0.0006653524978537714,0.0007407588967354797,0.0009980889955675041,0.0012221551283911323,0.0011851385084195524,0.0007644705297141347,8.21209880817915e-06,-0.0008823372250569657,-0.0016411109074562346,-0.002051673253835684,-0.002032884610364891,-0.0016584952460837886,-0.0011074511797419641,-0.0005753116925767514,-0.0001940044056401237,1.3018025136037406e-06,4.945801212861284e-05,1.0701110494712126e-05,-7.343106660546555e-05,-0.0001799671051441957,-0.00027268231033970966,-0.000276482665003019,-9.342236567843405e-05,0.0003383690297652899,0.0009803456555845611,0.0016726436230398857,0.0021797024022565084,0.002282967392666458,0.0018736566775011188,0.001002091749215464,-0.0001343264055773428,-0.0012551279606493322,-0.0020869670444181535,-0.0024486957112413213,-0.0023024220325428375,-0.0017528071760056615,-0.0009968744440714313,-0.0002476658404111734,0.0003354415492581378,0.0006850103622945162,0.0008262688087046495,0.0008496227279628323,0.0008686177271196542,0.0009740623551616027,0.0011943766932918268,0.001476599301397277,0.0017027320271166878,0.0017419365284043493,0.0015150858673191095,0.0010344799382222866,0.0003942647102052699,-0.000280584910024274,-0.0008921076302555358,-0.0013984473080384816,-0.0018019892263934135,-0.0021129519418004268,-0.0023186074688107566,-0.0023799226909504566,-0.0022552780065209902,-0.0019318227310890087,-0.0014421518689750595,-0.0008573724606548099,-0.00026447271154970183,0.00025782549169505245,0.0006570065710916801,0.0009191404720035376,0.001075742054373756,0.0011975768636800636,0.0013663961741384582,0.001628740437312876,0.0019556180179488973,0.0022388414360997454,0.0023372143059036425,0.002152018223670516,0.001685765544759353,0.0010432947039480066,0.0003711917784063278,-0.00022463953146839425,-0.0007265066723196804,-0.0011855576326705946,-0.0016519900143703572,-0.002107224534090657,-0.0024481855158408395,-0.002536875954458989,-0.0022840102765218206,-0.0017132252596579402,-0.0009646468080195548,-0.00023356304435112244,0.00032111347400871535,0.000645594558896076,0.0007977525460835793,0.0008904335631742802,0.0010102203534434555,0.0011649270490531624,0.0012919287762520682,0.0013165068002080431,0.0012148516276686446,0.0010347581234882216,0.0008589187038789111,0.000737491338091477,0.000638757487141283,0.0004550142191213953,6.484356291570036e-05,-0.0005830509527329338,-0.001413292183213814,-0.0022293285818548733,-0.0027835961333973454,-0.0028818413001435823,-0.0024720943744473943,-0.0016729785329784037,-0.0007239482784317528,0.00011999416887558052,0.0006962177354826125,0.0009903737238219437,0.0011145365469334761,0.0012244063827614663,0.0014242475247424604,0.0017119795756555623,0.001991230049778998,0.002137310080332563,0.0020734521719054425,0.001810854320658513,0.0014326075504462533,0.0010388506449828805,0.0006919732655524192,0.0003930469249299434,9.469678041276172e-05,-0.0002655275979364929,-0.0007305669426408125,-0.0012991008869229163,-0.001915495490958699,-0.0024793508486008384,-0.0028776398892301097,-0.003030894035741123,-0.0029294007425959816,-0.002632402109597659,-0.0022233256307508005,-0.0017473335340411212,-0.001177654355894417,-0.00044295099180183565,0.0004958108665794351,0.0015723598217120983,0.002604249429491484,0.003361766595402875,0.003676765045101063,0.0035219803086391486,0.0030126178772414405,0.0023354635923728924,0.0016545168442154378,0.0010477445441347403,0.0005014479998351653,-4.7213354681160035e-05,-0.0006502320504850624,-0.00130292691346039,-0.0019317724022920113,-0.0024190768054568393,-0.002652348045455443,-0.0025750897954884213,-0.0022135353128083417,-0.0016644655364903699,-0.0010502957350877846,-0.00046735329446100354,4.264070025907429e-05,0.00048408094914229147,0.0008735585909087968,0.0012078143134835386,0.001456110926081628,0.001579976968010386,0.0015643229597018249,0.0014374468012563555,0.0012648490896971691,0.0011172337297129476,0.001028607531340425,0.0009682296115019185,0.0008451929472841656,0.0005482078512568293,4.417289609574544e-06,-0.00077001643750589,-0.0016530924137121439,-0.0024460909019307533,-0.0029409607327717923,-0.002999569710787683,-0.002609598450575789,-0.001889420150222973,-0.0010373042409017011,-0.0002482472222975848,0.0003609197019278223,0.0007818695262012275,0.0010888474773557547,0.0013753726335783097,0.0016911170212264674,0.0020126039516507955,0.002258591121292013,0.002334801616567643,0.002179556074020343,0.0017877038829768436,0.0012071834663635046,0.0005172825533269965,-0.00019728741025243097,-0.0008654050183017933,-0.0014364070101324333,-0.00187571826271546,-0.0021561524768245657,-0.002254817210861514,-0.002160963015548272,-0.0018888807223980178,-0.0014819377932722495,-0.000998821004014616,-0.0004885304413517912,2.7477807701382646e-05,0.0005510232975881969,0.0010822710991414965,0.001591881389230538,0.002011768194938528,0.0022545832986724367,0.002253085228658057,0.0019965097186240904,0.0015411887586793114,0.000987289564473682,0.00043392327056487195,-6.15304460524934e-05,-0.0004962039497460227,-0.000900528310633184,-0.0012990522755369537,-0.0016805162045361384,-0.00199615152608901,-0.0021840240850610486,-0.0021998686251418677,-0.0020335425045181887,-0.0017034611390276855,-0.001237785895138201,-0.0006595739721379257,1.106489130312015e-05,0.000738640187438383,0.0014531590953428173,0.002049963476625079,0.0024176242019689417,0.0024835371821087357,0.0022521610618368515,0.0018116857020910716,0.0013014960729413163,0.0008547192828130491,0.0005438971443299712,0.00035578521326460916,0.00020581570013575144,-1.6552671796437137e-05,-0.00039326277096732483,-0.000936820462225436,-0.0015778439021119554,-0.002183941401139377,-0.002602589809217172,-0.002713257335167088,-0.002470222272919132,-0.0019197223817468008,-0.001184310327063571,-0.00042012332514046696,0.00023681869021994052,0.0007149986927651027,0.001024689632951552,0.0012392166649326122,0.0014460037975598476,0.001689776092437813,0.0019391725066262848,0.002099732253130019,0.002070713705466859,0.0018139044310113324,0.0013896214325509306,0.0009311961887611824,0.0005678444802397818,0.00034233336672658476,0.00017799207220058023,-7.868034452177494e-05,-0.0005610164140814255,-0.0012877157537797765,-0.002128418473221817,-0.0028517665477685583,-0.0032300591438050603,-0.0031430683031327647,-0.0026268092315236474,-0.0018462986348737815,-0.001012738061433624,-0.00029175774451192446,0.00025147564347365904,0.0006488483307774487,0.0009791005017821873,0.001305475837178208,0.0016370090076429048,0.0019298974908746754,0.002119736576888877,0.002160150453052691,0.0020457812292436093,0.0018115908957098978,0.001513936666111835,0.0012046722383083333,0.0009087843336452152,0.0006134010240942414,0.0002734224965642676,-0.00016502341567040677,-0.0007293155277306189,-0.0013878402831202425,-0.0020389962917331424,-0.002534451613614627,-0.002733090289002319,-0.0025632234172084495,-0.002061318409017295,-0.001364026521335974,-0.0006539933777840953,-8.515375493375931e-05,0.00027569350520065565,0.00046356502146606806,0.0005819579620896264,0.0007409452000852893,0.000998561302224984,0.0013331539174114262,0.001656770307713151,0.0018589730394842126,0.0018579123781645368,0.0016355782967906697,0.0012435574197677897,0.000778347669450953,0.0003373523222329516,-2.455933435438094e-05,-0.00031636270707598906,-0.0005973882001581764,-0.0009340246070723875,-0.0013490904191655003,-0.001792613366302176,-0.002152696514941912,-0.0023034416241557135,-0.002165499462015829,-0.001746434580617524,-0.0011387276176085723,-0.000477337613770532,0.00011853606750702149,0.0005879061251105348,0.0009354792271760246,0.0012070207149319848,0.001451778415662282,0.0016926877889281032,0.0019151431946322164,0.0020739074461980107,0.002111935288584386,0.0019838918042332167,0.0016775012606262127,0.0012259297908877183,0.0007048190216231312,0.00021012610111363714,-0.0001804087078131557,-0.00044864576798328516,-0.0006573058416015961,-0.0009294657226023354,-0.0013830493492870024,-0.0020466491189076244,-0.002805036594852622,-0.0034173706582096923,-0.0036142403939278317,-0.003230444121306991,-0.002301121317172139,-0.0010624977861722654,0.00014967631017272416,0.0010521377536976248,0.0015353117794340914,0.0016896641654998387,0.0017262506784375131,0.0018394200867377032,0.002091651967566354,0.0023866322935911614,0.0025430987195053786,0.00242005638805112,0.002012749561521948,0.0014585602956630288,0.000949626390130765,0.0006077292060646854,0.00040137365272199517,0.00016075719734768673,-0.00031309054044186593,-0.0011087987347790512,-0.0021213858061014225,-0.003080109630663711,-0.003674504818667555,-0.0037058557842431982,-0.0031781284271040645,-0.00228180707422386,-0.001288074909825392,-0.0004189162334998377,0.00023547801365234695,0.000715811229251229,0.0011241727173149122,0.0015364021232682618,0.0019488248804383742,0.002284311317628445,0.00244546975350804,0.0023777582741658617,0.0021041964725106665,0.0017138831221212036,0.001314979575655955,0.0009819734068414678,0.0007262761592812659,0.0005013101763731451,0.00023234014418627375,-0.00014807534677107833,-0.0006729209001926253,-0.0013254790968864453,-0.0020351775961837395,-0.002686232992083833,-0.003142677383365532,-0.0032880525546061944,-0.003067340370900932,-0.002511182986436815,-0.0017264840619829521,-0.0008541495040942345,-1.5093309117726519e-05,0.0007249277411062994,0.0013521235392894675,0.0018698519006172922,0.0022617213157694383,0.0024834425058412584,0.0024917558679312017,0.0022889825304478776,0.0019472576590682596,0.0015885790374800999,0.0013271408246908838,0.0012073140362798438,0.0011749438573976576,0.0010993232136638637,0.0008341589210787842,0.00028738732407489827,-0.0005307358781405738,-0.0014998620792130654,-0.002424810908615874,-0.0031011828806171227,-0.0033861945978146454,-0.0032452043379743167,-0.002753472747744453,-0.0020537720763031202,-0.0012926223991210084,-0.0005677914701247224,8.869089398395348e-05,0.0006888735456729023,0.0012467988404273585,0.0017441872090248008,0.0021255494935863983,0.002324813757367039,0.0023044584833098714,0.002079534581591484,0.0017093696926031535,0.0012622349373813424,0.000777353247066333,0.00025161940867246286,-0.0003370360723824439,-0.0009828685686817111,-0.0016147192886067111,-0.0020993912353808736,-0.0022937252606447626,-0.002119232248286311,-0.001613016379718152,-0.000919284623613843,-0.00022262456825582346,0.0003375422242580117,0.0007199701873354671,0.000973615638368222,0.0011807967195809734,0.0013927029601583179,0.0015974435548529679,0.0017339015063493743,0.0017333286210194962,0.0015566031170721976,0.0012052389545396318,0.0007075502707771688,9.903215565204565e-05,-0.0005839831492087336,-0.0012935150622579068,-0.0019551853871741594,-0.0024683652224724868,-0.002730071538700508,-0.0026733880143892004,-0.0022984677957986026,-0.0016764471578395146,-0.0009226569195719468,-0.00015434036205030173,0.0005433221318192845,0.0011266908580942242,0.0015805855297208267,0.0018993034035469935,0.002078326034833009,0.0021196933253897514,0.0020398653142652797,0.0018668027729600797,0.001623866820421087,0.0013116392212746812,0.0009035361358225796,0.0003635329154513397,-0.00032038113583133935,-0.001105664907132128,-0.001887677256915135,-0.0025236628213360732,-0.002878915107764504,-0.002873006099607189,-0.0025044480640843726,-0.001844805386016524,-0.0010095412178054118,-0.00012300945128489947,0.000706220726715407,0.0013941948339829292,0.0018811925050845953,0.0021331570290058005,0.0021492213810404416,0.001968113893661278,0.0016612005781759813,0.0013072948670549544,0.000959096291134735,0.0006212563700437893,0.0002563982981418653,-0.00018098681514500245,-0.0007010025806681625,-0.001250846519422226,-0.0017209363946530582,-0.001983764172564731,-0.0019464583693055424,-0.0015907380673019704,-0.0009819058544984652,-0.0002461319433219232,0.00047010865082281004,0.001041391711452045,0.0013932931952148784,0.0015132758332904613,0.0014379355960478532,0.0012197530950618092,0.0008900228336153749,0.00044328327815949944,-0.00014077781177752207,-0.0008485820124272697,-0.0015925285013989716,-0.002215299412116933,-0.002545796997523531,-0.002476570822558309,-0.002015384458675618,-0.0012793797345697956,-0.00043678345161365386,0.00036730972506446367,0.0010575568801273118,0.0016242850962424654,0.0020797385764043585,0.002411570670104669,0.0025705118971898586,0.002502221149312561,0.0021981378404116654,0.0017233598096584024,0.0011952362470338833,0.0007231923473056444,0.00034970086793489576,3.2086492703558255e-05,-0.00032299368609641096,-0.0007941079083638122,-0.0013874041698848636,-0.002018423123379807,-0.0025415246178959222,-0.0028099878503111777,-0.002736069532851769,-0.002323374564532628,-0.0016604393344297327,-0.0008841683695328522,-0.00013346175472675795,0.00048768323203327415,0.0009279540179104872,0.0011880275816737716,0.0013075277230564196,0.0013457357727173042,0.0013596476502116632,0.0013822408805115906,0.0014064643819608703,0.001383242540656729,0.0012394433627025115,0.0009127324815791257,0.0003892924875075111,-0.00027455375726629847,-0.0009600232479150653,-0.0015221433107520796,-0.0018396652101605134,-0.0018567173720858963,-0.0015979543242456997,-0.0011516965661180908,-0.0006314573785512174,-0.00013633120007472036,0.00027210002869009273,0.0005724085634192945,0.0007745093088887548,0.0009096430446692736,0.0010205512022709903,0.0011466470027765943,0.0013033987860577429,0.00146558987546408,0.0015680674439762005,0.0015290728580326213,0.0012865018197830726,0.0008280348724225912,0.000198985157083156,-0.00051504400395187,-0.001218938989025893,-0.0018342399579641768,-0.002308324480069021,-0.0026068664416685015,-0.0027003682783558903,-0.002558147273786778,-0.002157575194830304,-0.0015060497335003043,-0.0006629667440618174,0.0002555887189981572,0.0011008018302968458,0.0017387667611649719,0.0020988704483231656,0.002194650872865197,0.002103815287826996,0.0019206120919227222,0.0017114968492054634,0.0014994679370389677,0.001278406584205559,0.0010366550369542875,0.0007667922041283493,0.0004562287165616604,7.441328665854776e-05,-0.0004211054703733609,-0.0010516320147872836,-0.0017738772633690025,-0.0024593424708992347,-0.0029232381607705816,-0.002999952135341674,-0.002627587800929451,-0.0018904972278654044,-0.000989233097101473,-0.00015068095756406096,0.0004713179061525653,0.0008485275449704589,0.0010580125024940584,0.001209315921132731,0.0013703310735945723,0.001537902484460918,0.0016636728763326754,0.001706762155605728,0.0016699704431799522,0.0015934795735754793,0.0015140264279869912,0.001422467995102929,0.0012522975144190302,0.0009096624903189429,0.00032899025081965447,-0.0004765053354700067,-0.0013974295406949616,-0.0022550424624827124,-0.0028612373501392917,-0.0030840098954291084,-0.0028886834401409423,-0.0023389321164226087,-0.0015631343744425363,-0.0007075963208040138,0.00010057407797154131,0.0007702915992483319,0.001247318830235979,0.0015103510954723543,0.0015697624074176978,0.0014674900195895768,0.001270912897839278,0.0010559669971811018,0.0008831418180490395,0.0007769091693127267,0.0007179896799221523,0.000650359825288879,0.0004992992025782579,0.00019719238549607235,-0.0002851787938758802,-0.0009091713627790884,-0.0015563492568368708,-0.002050677347776638,-0.002217585352504355,-0.0019593774494716747,-0.0013097056915435802,-0.00043440068590652227,0.0004275363323599362,0.0010567948963549944,0.0013373032675215379,0.0012938675869242256,0.0010702888158142883,0.0008598313770580359,0.0008179105995439739,0.0009931586079917718,0.0013060312620161577,0.0015846408281561103,0.0016418967131384458,0.00135822714960255,0.0007314171969686972,-0.00012772581713985112,-0.001046736633783724,-0.0018590957128113844,-0.002452482124270376,-0.0027788624255382114,-0.002834294040451668,-0.0026338254168443162,-0.002202897752349905,-0.001586421717474239,-0.0008586777164347741,-0.00011629887018006931,0.0005482454304764204,0.0010779341642157298,0.001466790910160727,0.001748820286977303,0.001966561658624804,0.0021385107861151115,0.002245234557504281,0.002242437433821019,0.0020926407138311736,0.0017950309763675525,0.0013928543951821704,0.000950826059053837,0.0005148011557712402,8.047436423199751e-05,-0.0004037068132169393,-0.0009941965401209767,-0.0016931104345370897,-0.002411048534341749,-0.0029821340317107196,-0.003230924220041555,-0.0030577025614354127,-0.0024937377092360737,-0.0016916368986771232,-0.0008525265390107596,-0.00013138359898307852,0.00042196121090414766,0.0008510357920790924,0.0012239846877222238,0.00156159104109205,0.0018150221352283826,0.001905671472375755,0.001792446611672248,0.001514492476208503,0.0011787100133598025,0.0009013899949526851,0.0007430614508200509,0.0006777220548279158,0.0006132331482622473,0.0004465291643317117,0.00011847777948434293,-0.00035993062060210676,-0.0009154649510650127,-0.0014412737602660184,-0.0018297511538556699,-0.002000373273520655,-0.0019191227471794551,-0.0016061965693129096,-0.0011279800288737296,-0.0005735258360799133,-2.3859645611481583e-05,0.0004720631959912211,0.0009028482292426683,0.0012786856333610783,0.0016027233404581822,0.0018472276914543548,0.0019520412800286629,0.001852006435992047,0.0015218662548886844,0.0010115371860057597,0.0004434183760485223,-3.7714846681307854e-05,-0.00034046072189484414,-0.0004830951899257455,-0.0005897018501946783,-0.0008196555885015978,-0.0012673082935816956,-0.0018910800143442479,-0.0025160431287784895,-0.002910946214353636,-0.0028975673283877096,-0.0024339093347542787,-0.0016305498158254023,-0.0006971323188464168,0.00014996853227684402,0.0007735917423764583,0.0011576992720846975,0.001389581730731615,0.0015941004020807157,0.0018550454328908875,0.0021664107490100707,0.0024402479755312153,0.002563271528118277,0.0024629314400130523,0.0021387977942662227,0.0016425413351824128,0.0010297975841396328,0.00032842664471608005,-0.00044761219789139545,-0.0012502417421420525,-0.0019604064177916707,-0.0024060891679634397,-0.0024399335237476104,-0.002032554521611865,-0.0013167797010323863,-0.0005434200218630012,3.478949774885138e-05,0.00028613111044772433,0.00025750062862776955,0.00013302427435844767,0.00011896695447432279,0.00032245428195105843,0.000692782733124832,0.0010553901060633005,0.0012137183285875152,0.0010561048001567028,0.0006061853858725719,-6.320885117290422e-06,-0.0006279458977509192,-0.0011605494545920722,-0.0015875057015455564,-0.0019354863734408014,-0.002205864138212246,-0.002332264698768948,-0.0022026306733583475,-0.0017359528732954575,-0.0009601305907762218,-3.1461750517593375e-05,0.0008262425273498108,0.0014302940729916133,0.0017292362328510686,0.0018181087108817939,0.0018691754150477365,0.0020210566920591255,0.002293800447853562,0.002578983016015948,0.0027062728012282426,0.002542920997775246,0.002067537994845148,0.0013796737925088009,0.0006456439618073882,1.4272887973232774e-05,-0.0004524889468414605,-0.0008007394412580982,-0.0011489876377234233,-0.0016132786739999664,-0.0022292925323081254,-0.0029116925087230064,-0.0034758374552926303,-0.003715730204998822,-0.0034999517535563946,-0.0028349722466556246,-0.001862893982569661,-0.0007979847104350543,0.00016100933766917023,0.0008976405383102988,0.0013962715375601758,0.0017135662587491214,0.0019258789894311555,0.0020816788523351612,0.002180693717960772,0.0021864721715977135,0.002062439694115425,0.0018089091899098518,0.0014763999440211835,0.0011432192941186452,0.0008679645914219814,0.0006463013492539986,0.0004022632573977606,2.5393652051491434e-05,-0.0005622459645820816,-0.0013444161880251443,-0.0021897009593404232,-0.0028871796728975278,-0.0032260483820128905,-0.0030831942575081516,-0.0024771835057598906,-0.0015625846693537364,-0.0005672844268395296,0.0002974201575412198,0.0009123782991677791,0.0012786860296504128,0.0014886162352270604,0.0016568151780027023,0.0018482167045133506,0.0020408137315850675,0.002143126763114801,0.002055518301493079,0.0017382033319641025,0.0012439927521250384,0.0006953233809987437,0.00021971747025697954,-0.00011734758277882808,-0.00034325680907014997,-0.0005561995232192356,-0.0008629484886736112,-0.0013098736673783616,-0.0018442281507582278,-0.0023279484961214276,-0.0025983978633340402,-0.0025435051524069765,-0.002150367761179655,-0.0015041432914332082,-0.0007453273447451658,-1.4705753536741525e-05,0.000586807143375724,0.0010137998127251594,0.0012728169664440923,0.0014076964971339238,0.0014776256037358421,0.0015310577005255644,0.00158374405432749,0.0016124384170466723,0.0015698677846678493,0.0014133296839445339,0.001129090186780905,0.0007368895636467466,0.0002733107545508319,-0.00023059908948347744,-0.000756805700017507,-0.00128460296783842,-0.0017651258776059547,-0.0021118057743616564,-0.0022230681436296073,-0.002028557576594773,-0.0015304673982005814,-0.0008136789296800995,-1.9509510822338007e-05,0.0007002826972060146,0.0012258942235088097,0.0014943127189855946,0.0015063761895526874,0.0013216978842215915,0.0010430843481342652,0.0007871547515777931,0.0006419228699670886,0.0006247253823463508,0.0006637295084434199,0.0006215726465542689,0.0003593420212914971,-0.0001856690964845458,-0.0009483159384100715,-0.0017417826248890946,-0.0023258237794998382,-0.0025081749286011775,-0.002229668388790203,-0.0015887554322362497,-0.0007918214140475873,-5.5838110312584266e-05,0.00048443774967736695,0.000817450020035491,0.0010286193975273061,0.0012294808150674233,0.0014859828417005665,0.0017842672962968802,0.002046522545531466,0.0021797981220251055,0.0021237101191815917,0.0018681946964771864,0.0014363947139918978,0.0008538392480127088,0.0001337661960898063,-0.0007069572417537774,-0.001613678939613564,-0.0024711298700590928,-0.0031169998526148113,-0.003394673261260139,-0.003221637879585161,-0.0026354980349535036,-0.0017870822990232109,-0.0008786506407325043,-7.889538361776022e-05,0.0005373038448134538,0.0009909547609636819,0.00134716161453262,0.0016489872435728108,0.001883294973015902,0.001998036271555764,0.0019511994136663818,0.0017507878750884264,0.0014569626820921083,0.0011486848230628137,0.0008811845945355776,0.0006611383114336193,0.00044919675386447726,0.00018252119725073197,-0.00019511451930506133,-0.0007047503932576943,-0.001312238383108867,-0.0019252737434744408,-0.002413844943032042,-0.002650249678534932,-0.0025525567507668273,-0.0021123000614351947,-0.0013966068000664613,-0.0005282016813578283,0.0003468047798880548,0.0010945569822781854,0.001625260400997432,0.0019123440641965316,0.001990434928308669,0.001930976353163361,0.0018061140371153869,0.0016586506680154735,0.0014917996980173599,0.0012795372504138514,0.0009866763591686559,0.0005863607812867832,7.062928260057722e-05,-0.0005425943760165284,-0.0012032013615173429,-0.001827286414073563,-0.0023087791099510764,-0.00254824510399865,-0.002490280672431012,-0.002149903475772476,-0.0016096918337445395,-0.0009855925868953981,-0.00037960877576156526,0.00015388989513691288,0.0006112493190496063,0.0010146717157791683,0.0013774006687528196,0.0016801297429472318,0.0018720412195018495,0.0018960123314651926,0.0017232042845876873,0.0013748643563328716,0.0009155909168959242,0.0004214946007609682,-5.410967828152897e-05,-0.0004919697429216052,-0.0008877670618203739,-0.0012206581249483979,-0.0014387478465408094,-0.0014776284067315015,-0.0013011426030618057,-0.0009346437106055068,-0.0004650483123448087,-5.067727859067164e-06,0.0003568131822629199,0.0005907132085655925,0.0007256156132501117,0.0008186757381761899,0.0009141415521897911,0.00101575674820336,0.0010855816277048635,0.0010657122835983487,0.0009083415880908204,0.0005989795326819875,0.0001641930774758571,-0.00033699735009502427,-0.0008327040594589814,-0.0012590910055477853,-0.0015723670802744749,-0.0017471160061013598,-0.0017662837400007078,-0.0016155008956322383,-0.0012915511202328655,-0.0008217537030988905,-0.0002775000172970054,0.000236516292649043,0.0006213133411993583,0.0008325783613109007,0.0009077969454403533,0.0009478295235279199,0.0010570228562724324,0.001275703900073352,0.001547986617948495,0.0017467860954828952,0.0017404698181641366,0.0014592094839717944,0.0009228284399703161,0.00022102700234013183,-0.0005318405174755348,-0.0012340237198172868,-0.001806355808663591,-0.0021815624305488238,-0.0022963552740330384,-0.0021049961909183424,-0.0016113279534292794,-0.0008953579163539576,-0.00010737643966295975,0.0005787791788936557,0.0010333511117341337,0.0012213949193242211,0.001206171872513198,0.0011040166158215652,0.0010196645789694822,0.000999529055552725,0.0010229280812920642,0.0010247760251364195,0.0009290025703608783,0.0006765092445218369,0.00024424509398567485,-0.0003416547781015149,-0.0010001991843637307,-0.0016055627513687767,-0.002018499977221054,-0.0021317224544345247,-0.0019089158604749547,-0.001397015604876035,-0.0007061901043846329,2.9319055224694482e-05,0.0006882708065476536,0.0011835653386557403,0.0014677384902360253,0.0015311322770498817,0.0013984868521574848,0.0011227052299052774,0.0007717560157505995,0.00040884595865942134,7.303230996331419e-05,-0.00022906557353460347,-0.0005136468810386914,-0.0007952352337128573,-0.0010604316619414298,-0.0012565136443470205,-0.0013048795207779651,-0.0011358586354649222,-0.0007290906298295314,-0.00013910444929036677,0.000509662771637656,0.0010620285737559878,0.0013923955778528446,0.0014587020808703394,0.0013200343088525988,0.0011036226001038623,0.0009345505655528998,0.000864607125746911,0.0008402601022623373,0.0007304255341041067,0.0004023032110679552,-0.0001945744506197495,-0.0009830076618322725,-0.0017782193802439276,-0.002363326968088134,-0.002579475044576889,-0.0023842612143997613,-0.0018534904188381438,-0.00113441285771781,-0.00038220499946041604,0.0002872844641907948,0.0008134411618514172,0.0011820803660907223,0.0014085273358764132,0.0015235394222660728,0.001561399223118857,0.0015448403302979797,0.0014679002803039912,0.0012879593429041675,0.0009407620542384524,0.0003814910154301545,-0.00036427202237537847,-0.0011708698631554492,-0.0018329330860992197,-0.0021401401574797007,-0.00197510460482328,-0.0013799951525703684,-0.000547847335294327,0.0002630450905362833,0.0008459725627927973,0.0011291164323248702,0.001182428921023734,0.0011515367542135014,0.0011617869844060223,0.0012461121069034602,0.001330802353661158,0.0012795254044912854,0.0009678303614698298,0.00035040410064621056,-0.0005076141291463275,-0.0014443954981808254,-0.0022506104531860834,-0.0027338369856136926,-0.002776677464151416,-0.002371635975033121,-0.0016226768462995929,-0.0007118623422098726,0.00015951957678905716,0.000834580840858017,0.0012438564796971325,0.001410627955608678,0.0014198729612100972,0.0013694343417568068,0.001327475106866973,0.0013126239425459907,0.0012995325217236213,0.001241051018128529,0.001093248569857434,0.0008318594517425148,0.0004565281909232992,-1.2495123176509311e-05,-0.0005378324250584594,-0.001065915121220488,-0.0015295797673680195,-0.0018581476695427852,-0.001995025102879785,-0.0019151803176229634,-0.0016327109984533305,-0.0011941908174926755,-0.0006620982824897101,-9.809535918155259e-05,0.0004452690102174526,0.0009229851419518892,0.0012930059623834837,0.0015183633393123157,0.001579593674192616,0.0014901119074655193,0.0013004583712208787,0.0010816648172643827,0.000891833635491664,0.0007440123332772441,0.0005965055234451034,0.00037463717330351296,1.3174662978707218e-05,-0.000504134302910076,-0.0011277689951699674,-0.0017526669143590368,-0.0022460076928335054,-0.002480474697895509,-0.002366604732590033,-0.0018819607651157646,-0.0010916267042918246,-0.00014791038079162023,0.0007426888868335059,0.0013836720620693044,0.001660961555741671,0.0015874958478733435,0.001292792109850388,0.0009593279218781803,0.0007387141102758992,0.000692130685233946,0.0007826924029341977,0.0009141093793120081,0.000984178812161081,0.0009207934249783371,0.0006895867454957704,0.0002862452821098692,-0.00026659895033258416,-0.0009110626072102504,-0.0015461731748409604,-0.0020391542855908457,-0.0022630995907114712,-0.0021473535547944945,-0.0017125271424378963,-0.0010665067187352448,-0.0003602460274019126,0.00027251145983179126,0.0007580119472963922,0.0010877596027893946,0.0012917086467084033,0.0014028254562203691,0.0014359081812621737,0.0013887994942944604,0.0012581438326188608,0.0010544122680703003,0.000803816592143889,0.0005346507995332417,0.00025737320526675843,-4.522812151276287e-05,-0.00040544543662467087,-0.0008387655471794934,-0.0013130552036699178,-0.001743123730327929,-0.0020190185903000823,-0.002051984274652555,-0.0018099136393034427,-0.001324249007492073,-0.0006721726376356807,4.7939702242592245e-05,0.0007334630582500514,0.0012871285185671022,0.0016295664773815582,0.0017207117931981064,0.0015817730265353352,0.0012996164939913634,0.001000766207630112,0.0008005268067466376,0.0007505627147259803,0.0008121879370588399,0.0008700084751855127,0.0007805749254927799,0.00043548296231339445,-0.00018607012885256017,-0.000995471101606531,-0.00181393836998458,-0.0024299885541803345,-0.0026763939306694105,-0.0024945610605353967,-0.001954435063676743,-0.0012182528535047582,-0.00046751865120255455,0.0001668776355567025,0.000636797857482993,0.000963184175213363,0.0011959091587699943,0.0013761554485731337,0.0015195367215903137,0.0016193725222101564,0.0016579547145560908,0.0016150433782341138,0.001471441451710341,0.0012119044483035544,0.0008314581988640136,0.0003444828019516545,-0.00020902897671880132,-0.0007670864641878754,-0.0012617052833008313,-0.0016406411923631918,-0.001881465946139561,-0.001987934988197504,-0.001971327770132163,-0.0018315614615336832,-0.0015540772267354952,-0.0011271279097219264,-0.0005679603728090499,6.282729641772836e-05,0.0006736505328837803,0.0011772405891217028,0.001526806572445638,0.0017280163540618035,0.0018179790693697922,0.0018267180750557014,0.001750915183292871,0.0015617252226490437,0.0012416465852588946,0.0008193468435537451,0.00036880883868720127,-3.3576973265669885e-05,-0.00036310619081316993,-0.0006659172913106974,-0.0010199555162196496,-0.001459860232482424,-0.0019202722553851965,-0.002244779896699394,-0.0022640217734812514,-0.0018972573561426608,-0.0012126114388257758,-0.0004059224074144797,0.0002910852319941207,0.0007202645141478144,0.0008630685784177293,0.0008299919250100889,0.000784791414369893,0.0008495534148230846,0.0010430263289069723,0.0012811617791571419,0.0014314367823504233,0.0013845912356280402,0.0011042879475947913,0.0006347510858695025,7.273578071767344e-05,-0.0004736308498864579,-0.0009173078194491368,-0.0012065854691304244,-0.0013244419028577434,-0.0012815809054858196,-0.0011088882925552107,-0.0008493750940450919,-0.0005471047700670911,-0.00023372718904401838,8.05058067824073e-05,0.0004018368274972539,0.0007320303443877358,0.0010438756655703925,0.0012752693018190065,0.0013551295045222303,0.001248875297828344,0.000989483048188131,0.0006644608941535434,0.00036066889774801056,0.0001038444531503642,-0.00016093848921999547,-0.0005272097418866387,-0.0010461577737494712,-0.0016605063283935554,-0.002202914759491003,-0.002469330204482122,-0.00232707977382175,-0.0017903365716542628,-0.0010138533627091506,-0.0002093355702320666,0.0004605270537765181,0.0009442609088604493,0.0012882673025204014,0.0015682319186224888,0.001818379206102263,0.002005962776692298,0.002062299105411386,0.0019415576401340309,0.001661051034501483,0.0012925410237717158,0.0009112611022282506,0.0005413040603071784,0.00013956899653991143,-0.00036699319200736566,-0.0010142765847775891,-0.0017487631806998843,-0.0024253358833948423,-0.002859172111201679,-0.002904808014090434,-0.0025222779749719806,-0.0017983978963926502,-0.0009135412350093315,-6.959270131975677e-05,0.0005873426587489529,0.0010132433528065186,0.0012605371726884564,0.001427135759973378,0.0015917619117626234,0.0017729483172724619,0.0019305952289924524,0.0019997528216395086,0.0019282759095776332,0.0016949013854714204,0.0013045766929893105,0.0007751367419777525,0.0001311235665677603,-0.0005908252247277749,-0.0013326823227221265,-0.002012781776246024,-0.002536342351194976,-0.0028169394832591507,-0.0028017790640685455,-0.0024913646137684708,-0.0019448510023584902,-0.0012665048409182863,-0.0005757654824408041,2.9207782827079046e-05,0.0005004891326249798,0.0008493836077092054,0.0011305173455139852,0.0014073080435041657,0.0017149783969124571,0.002039385617697082,0.00232138509611469,0.0024818017749244766,0.002451250846738149,0.0021896471522470724,0.0016910469432279015,0.0009809666932008145,0.00011566045326746031,-0.0008152376144428286,-0.0016910764711331986,-0.0023773235625881147,-0.0027585350810542366,-0.0027764028989075936,-0.002455253010272635,-0.0018994183871089525,-0.0012580827907752762,-0.0006700130708545064,-0.00021447479184566324,0.00010513015422939894,0.0003360852062411243,0.0005278584065878003,0.0006957569610016763,0.0008234103542562085,0.0008987779469722093,0.0009482704785382973,0.0010328350582359787,0.0012016520729537965,0.0014368470766353328,0.0016338897712897711,0.0016383794190120257,0.0013214824973049348,0.0006524380675719439,-0.00026993752290433923,-0.0012420624709213544,-0.0020256488557295832,-0.002432812799890863,-0.002389719340618875,-0.0019518268791395327,-0.0012671575738002472,-0.0005100032373893781,0.00017949292219806515,0.0007227203554817483,0.001093320093526568,0.001290141384122279,0.0013180767765346075,0.0011900503082783495,0.0009423351514414216,0.0006422214515537403,0.00037216233697529694,0.00019369103893925716,0.00011254921065282026,6.979583473934372e-05,-3.035832425741722e-05,-0.0002672914516477676,-0.0006528525727764914,-0.0011109296916747425,-0.0015013406601758186,-0.0016786593068989291,-0.0015575938837853196,-0.0011521085868864088,-0.0005686889687409756,4.181872715383042e-05,0.0005479798844611051,0.0008848912082397853,0.0010639967927481351,0.0011464705229065095,0.00119915971060603,0.0012576162219094847,0.0013132091531037435,0.00132683588021301,0.0012581470092261455,0.0010924559285325416,0.0008501137781378881,0.0005734147206433473,0.0002987809126386279,3.0639877463196344e-05,-0.0002664646343697618,-0.000649922250478132,-0.0011615254159159931,-0.0017881064303379,-0.0024408978960156246,-0.002967127720715552,-0.0031943262911924,-0.0029938587658081737,-0.002339381063405534,-0.0013329112873694264,-0.0001809551883873411,0.000874863854286048,0.0016441659396280745,0.0020514202375073692,0.0021471075816975375,0.0020635820879968034,0.0019412489771742278,0.0018641774272774698,0.001835236648562481,0.0017961461774530026,0.001673882168987537,0.0014253112630432127,0.0010583945011848023,0.0006227583644295571,0.00017678960448353018,-0.00025044501719103697,-0.0006785651331471209,-0.0011582243314604784,-0.0017186170342751645,-0.0023099065759453912,-0.002784948382730661,-0.002948358721541469,-0.0026571905931931997,-0.001915377826553299,-0.0008981589369626503,0.00011723818099218683,0.0008784675363734592,0.0012692346591517795,0.001342667849639662,0.0012643026623985962,0.0012053601601940897,0.001250856273441213,0.0013703708865665692,0.0014569518924368733,0.0014005138931438585,0.0011491861828245042,0.0007282754436803546,0.00021608092204376925,-0.00030133977457532507,-0.0007684027701478363,-0.0011717540483079955,-0.0015217197628945008,-0.001816125850091993,-0.002010680711285267,-0.002019530554460478,-0.001753465788807545,-0.001178616713134217,-0.0003611047153477857,0.0005338377119126736,0.0012963415279544513,0.0017575450867757165,0.001863873429608854,0.0016994932398882523,0.0014414523204677263,0.0012680906332386893,0.0012681885643385559,0.0013985549097805896,0.0015099865105432171,0.0014234598688283736,0.001014421748067656,0.0002660049214057133,-0.0007249579793974625,-0.0017806836623387755,-0.0026938981367477864,-0.00328036119101227,-0.0034224216016976905,-0.003097878644583038,-0.002387924933010842,-0.001457518422459969,-0.0005072082548289459,0.000291634873159036,0.0008528664036485449,0.001195070419261898,0.0014117109549486042,0.0016060395679272166,0.0018270889653698606,0.0020440414825166507,0.0021726474252852382,0.002133918986080571,0.0019053284097383042,0.0015322952848382282,0.0010965314105551808,0.000666245432612219,0.0002615980132071483,-0.00014588691014501276,-0.0006048996263567119,-0.0011467719486009385,-0.0017579658818028534,-0.002371836558123691,-0.0028794629986288478,-0.003155024615173507,-0.0030901036928031064,-0.002629924226671562,-0.0018018807273544,-0.0007245655525036537,0.0004128256158903804,0.0014019194147165662,0.0020825930357377823,0.0023967339985750333,0.002398807796408673,0.0022151404422956628,0.001974872623307098,0.0017531801358844621,0.001556978350966892,0.001352424814799988,0.0011059026287070011,0.0008062579665279622,0.00045684624883467076,5.3278808348209035e-05,-0.00042537514060314493,-0.000996660252107557,-0.0016372089792835824,-0.002257883970068482,-0.0027180924482925225,-0.002880552322777808,-0.0026783613812737944,-0.0021535324241400066,-0.0014404938052114467,-0.0007015541951899671,-5.2271249103811365e-05,0.00047837475917615103,0.0009309631773562312,0.0013574705235016287,0.0017643639003297215,0.0020964032927760063,0.0022702893728720154,0.002231677161246538,0.0019939422407567325,0.0016322852603714594,0.001239102348440645,0.0008715014488055932,0.0005234910053368459,0.00013701249871932202,-0.0003564824413780549,-0.0009854457596395541,-0.0017017421140508233,-0.0023757526814021193,-0.00283066470591045,-0.0029085161460682607,-0.0025424787269893406,-0.001799032041941062,-0.0008624097891325763,3.7527414630555484e-05,0.0007201849285235984,0.0011229771705504026,0.0013080204760909124,0.001405161978277741,0.0015257930526096522,0.0016981910087317535,0.0018605027054303842,0.0019101061371829815,0.0017724082630493478,0.0014424426647389335,0.000975178534420614,0.0004385661071441532,-0.00013073273052250208,-0.0007338470373344538,-0.0013745476900685581,-0.0020120681289364367,-0.002542267739385268,-0.0028280392364465196,-0.0027647462317326424,-0.002340576136471746,-0.0016524591048472405,-0.0008648510687583233,-0.00013397116165832397,0.0004581885525082644,0.0009213193759417543,0.0013170731111796059,0.0016901652180686022,0.0020179900293033986,0.0022149158912430863,0.0021907591149776034,0.0019249270950456787,0.0015039595997011065,0.0010907237152680271,0.0008364449710961523,0.000785597725193604,0.000833286638029119,0.0007672909269185787,0.000378154274203118,-0.0004196090525186739,-0.0015202138046061988,-0.0026511528680737287,-0.0034812759333619865,-0.003761552405189008,-0.003429270961285633,-0.0026236375079239007,-0.001607811339676621,-0.0006433152226151861,0.00011457332117608614,0.0006509126074640548,0.0010501988170334487,0.0014160907796595115,0.001800285781059933,0.0021740880783884644,0.0024485718915825566,0.0025258813887680796,0.00235359945281478,0.0019559889158710752,0.001426779243289723,0.0008849772875692548,0.0004139409568866189,1.679061875146541e-05,-0.0003820780655812285,-0.0008830483275077144,-0.00153146759683639,-0.0022593282352201937,-0.0028881879432125553,-0.003199487112737119,-0.0030386281894777627,-0.0023970856825050865,-0.0014263657948933267,-0.0003745933181495526,0.0005204677010429183,0.001125236728950931,0.0014448679063660459,0.0015879528955596313,0.001688112749281265,0.0018274590287994477,0.0019994625794929285,0.0021237251347306658,0.0020979133680855033,0.0018562506625682065,0.0014048313085378247,0.0008183153401237475,0.00020246795846773575,-0.0003560619503805455,-0.0008251024844990232,-0.001228268489164561,-0.0016123227015433922,-0.002000059000447912,-0.002356697324328811,-0.0025909065524816113,-0.002592769817061698,-0.00228991129068942,-0.0016915089853735276,-0.0008957163977443177,-5.634637507826107e-05,0.0006733673416204997,0.0011923491302191108,0.0014774311988266459,0.0015771624697896607,0.0015807143172693046,0.0015753515990545501,0.0016074284783170294,0.0016612426818405819,0.0016663247425833404,0.001533402425466548,0.001203539807383952,0.0006837689187239244,4.763625027468833e-05,-0.000599232620722711,-0.0011651257392685521,-0.0015996543912431644,-0.0018879064305676275,-0.0020223695164011237,-0.001979845202617521,-0.0017253980244627005,-0.0012435325533059509,-0.0005746458620666953,0.00017228813217362105,0.0008471117875347685,0.0013171530935966035,0.001526123696166101,0.0015176847337477974,0.0014065138885888703,0.0013113348902937336,0.0012889957010301925,0.0013086392986984322,0.0012789160921278827,0.0011068983404769364,0.0007493470940689714,0.0002270938583718296,-0.0003981469036264673,-0.0010603031448012893,-0.0017102969850518075,-0.0023108350249351865,-0.0028171437300884743,-0.0031673210727273292,-0.0032951587346671603,-0.003155698276014479,-0.002741107330438978,-0.002074059649141394,-0.0011882355810619834,-0.00011897028416724825,0.0010819131057769257,0.0023173464137091412,0.0034309916262982455,0.004231911461096522,0.004555821488536879,0.004333074636905739,0.0036254962311999678,0.0026111630587196616,0.0015244970129843947,0.0005792874051786536,-9.500869210997344e-05,-0.0004838439533693175,-0.0006787848362886848,-0.0008335952303088097,-0.0010976403961736872,-0.0015474091097059418,-0.0021430084044655796,-0.0027328924995915515,-0.003112161804205914,-0.00311290110812186,-0.0026841841560080655,-0.001919770847863338,-0.001016826773490831,-0.00018637809318499537,0.0004365798141665418,0.0008355359615411718,0.0010877813604980358,0.0012922721518283044,0.0014966640125830257,0.0016684483243785471,0.0017259184629997949,0.001605754854807161,0.0013195153881655416,0.000957614947289263,0.0006341360754320324,0.0004076085010234512,0.00023365780425549425,-1.1125821831331577e-05,-0.0004408951416340996,-0.0010613327471737522,-0.0017273986688116879,-0.0021943513646220927,-0.0022392065839515335,-0.001782855312326435,-0.0009406929781490682,2.7216998885840407e-05,0.0008364545872020289,0.00130181406152221,0.0014013657938638912,0.0012565787623091199,0.001049962474794998,0.0009292101036671186,0.0009450729890180791,0.0010455469494870407,0.0011178363596333072,0.0010486901079623681,0.0007720149591388357,0.00028741086957815567,-0.0003475462293423524,-0.0010375483562375283,-0.001670392779878069,-0.0021349893878467776,-0.002338920107898817,-0.002226936592547666,-0.0017970731794907649,-0.0011080121335946339,-0.0002727058016828267,0.0005621762250988004,0.001246982093591073,0.0016638116437468126,0.0017581646153446858,0.0015589125364043365,0.0011765587531843633,0.0007721760990246501,0.0004994320725322247,0.0004383998418137925,0.0005530199078565049,0.000700827726424651,0.0006986912578823628,0.0004142316961409381,-0.0001663571813745702,-0.0009307054514860282,-0.0016924937433744226,-0.002268544940818371,-0.002537715225479832,-0.0024590366168858683,-0.0020566614883248254,-0.0013959646833340052,-0.0005693816471439295,0.0003085567157724425,0.0011113131247229026,0.0017258650699966541,0.0020863285361853775,0.0021943508125299156,0.002109298195351266,0.0019118851879374064,0.0016641982859878573,0.0013904945167095555,0.0010861655421788622,0.0007416450235037742,0.0003600571766913733,-4.345101118264028e-05,-0.00045563436747654665,-0.0008760578353231646,-0.001311391360708468,-0.0017536808440864358,-0.0021585525393209965,-0.0024439236228831042,-0.0025180098793815644,-0.002323762730467655,-0.0018717018484405833,-0.0012381824189876757,-0.0005294180517274748,0.0001646732871264126,0.0007969704338680382,0.0013558965767654842,0.001834569584275379,0.00220198593924007,0.002399652841900234,0.002369906031637036,0.0021000278182824986,0.0016516950759882924,0.0011488816219627405,0.0007210436699469267,0.00042997045927707395,0.00022659052057265327,-2.7290044738725533e-05,-0.0004746419301989471,-0.001160139660306087,-0.0019709174254274766,-0.0026642927053490547,-0.0029761908925554003,-0.0027537573232107944,-0.002037513152834949,-0.0010461379834097169,-7.35149684622887e-05,0.0006433060648220678,0.0010147756548601703,0.0011070825720624752,0.0010760795665214755,0.001072872074817604,0.0011728701272209418,0.0013561805013845517,0.0015344283984970032,0.0015988470809153192,0.001463885348581467,0.001092714315724487,0.0005044626684478182,-0.00023022276781030582,-0.0010002468996159215,-0.0016721544182806839,-0.002117840942501813,-0.0022495323447019526,-0.002050574857094978,-0.0015855347983050648,-0.0009789755056849815,-0.0003682208037837627,0.00014813763997577594,0.0005393794721762348,0.0008346940133471488,0.0010851906686211508,0.001320544758295359,0.0015267961589802712,0.0016568661381240702,0.0016634690713466034,0.0015297262282341015,0.0012756405163465935,0.0009368768569243269,0.0005334125472749101,5.456057594194121e-05,-0.0005233446492035896,-0.0011937706801646393,-0.0018801902073334346,-0.0024332921482250053,-0.0026803577228437458,-0.0025084156993189894,-0.0019348694485338133,-0.0011183141296498807,-0.00029381561592635853,0.00033662295182712424,0.0006969067367193591,0.0008584799490411911,0.0009783173536683407,0.001191771504276113,0.0015257105887062027,0.0018829425788507942,0.002102979985469657,0.0020572256141333295,0.0017187538663593076,0.0011675345447964701,0.0005350864281918602,-7.083922069706853e-05,-0.0006127865531381845,-0.0011149523012904884,-0.001609677513132838,-0.002077768315142197,-0.002425383270730733,-0.002517931866328886,-0.0022553860363448298,-0.0016446932313132312,-0.000821970984900483,-3.9667397617970624e-06,0.0006096787569283429,0.0009301052055291754,0.00101478681431775,0.0010230814307616483,0.0011165770841339794,0.0013619733856722787,0.0016925892238731704,0.0019488250806421557,0.0019705121484810788,0.0016850004482967292,0.0011413388357933297,0.00047664641156823707,-0.00015851256171855966,-0.0006686183083686602,-0.0010388025454170706,-0.001311768635274894,-0.0015394853728142644,-0.0017425461370964334,-0.0018975359801626883,-0.0019511441668693139,-0.0018454976258509364,-0.0015399170794819159,-0.0010247917607751442,-0.0003313495460230824,0.000461184637096241,0.0012283717113212766,0.0018240034334197676,0.0021252119333214255,0.002082798828231726,0.0017495274045397358,0.0012656951097555985,0.0008030353333190123,0.0004912261356451066,0.0003616559424490869,0.00033573176479755355,0.00026518074066704067,8.474851123975186e-06,-0.0004906805300261656,-0.001161518476717512,-0.0018251642649119819,-0.002268339972502108,-0.002335991104634884,-0.0019966988121888117,-0.00135100814185252,-0.0005840464299580087,0.00011047590003898417,0.0006003556516588943,0.0008532353507574273,0.0009323614362146512,0.0009540025226641531,0.0010249351976489177,0.001188742680245515,0.001407998603014431,0.0015907950927051473,0.0016432663796911223,0.001514087409830571,0.0012056629470786045,0.0007535503026134219,0.0001987633703897972,-0.00042160173631677553,-0.0010607583694237108,-0.0016445315077674722,-0.002074587980646055,-0.0022611139815333706,-0.002167470361642795,-0.001834938027909841,-0.0013657526937233592,-0.000871239698931075,-0.00041751578538068803,-3.7393540239503455e-06,0.0004147817254078895,0.0008763700387945279,0.0013687643556965418,0.0018167646209533228,0.002107293123252672,0.002138614695026975,0.001870454208983973,0.0013512475487734079,0.000707643914131314,9.80898482045144e-05,-0.00035003688223510113,-0.0005913046992474004,-0.0006771828447326077,-0.0007264878888138703,-0.0008623595638955622,-0.0011433907580985947,-0.001522753211886512,-0.0018595158016531553,-0.001981791743641679,-0.001772589476561187,-0.00123329725951641,-0.0004890725508168614,0.0002678952755089223,0.0008660487492017028,0.0012251963518270302,0.001374040542694832,0.001409701754084977,0.0014266930972319234,0.0014579594232000614,0.0014613093916626672,0.0013570159937139749,0.0010920596966611422,0.0006898460656477117,0.0002509580825705054,-0.00010096022842338203,-0.00029806556478469376,-0.0003806593616853377,-0.00048258847008140907,-0.0007493686353034421,-0.0012339117951947385,-0.0018349744641359632,-0.0023231955352726627,-0.002448753872169016,-0.002073581413868136,-0.0012525010504518545,-0.00021521980038201587,0.0007415370962450335,0.001391216817862536,0.0016690729002483303,0.0016724408400403013,0.001577479372882036,0.0015269361529931433,0.0015563765063173224,0.0015977433131945436,0.0015473534309836774,0.001345035471271687,0.0010090875341894827,0.000607260007225914,0.00019010377672312013,-0.0002617029325673848,-0.000834395481985206,-0.0016172588249937225,-0.002612324226894255,-0.0036722123339668284,-0.004510013635514242,-0.004789203209073188,-0.004259565861959579,-0.002879031314897203,-0.0008642701906938863,0.0013573974924624057,0.0032805862865614675,0.004489359606689197,0.004794490441206541,0.004285288634039737,0.0032744962202612047,0.002160837041314246,0.0012717064939640334,0.0007564154364042945,0.0005709804548228517,0.0005455907911772204,0.0004870886879794244,0.00026301435900474845,-0.00016253918380465353,-0.0007397866628577401,-0.0013704609337232135,-0.0019489756043919802,-0.0023924638375925934,-0.0026532715803692184,-0.0027148571070188436,-0.002578139806252356,-0.0022488478165402846,-0.0017350453591345474,-0.001057137300218414,-0.0002631988786556646,0.0005634814740588927,0.0013150771106656889,0.0018878701368319215,0.00221669292783397,0.0022976652492207655,0.002186600062528791,0.001972584669475251,0.0017381425494610307,0.0015226290249492308,0.0013034678329903176,0.0010039131520522006,0.000528240904357818,-0.00018484797562935874,-0.0011108251643071139,-0.002115916092053735,-0.0029812204319433805,-0.00347394489693437,-0.003439353511084737,-0.0028696297986340762,-0.0019111528676911183,-0.0008023085466966381,0.0002261594798803647,0.0010340268697148056,0.0015958223268284434,0.001963082026512007,0.0021984687706107114,0.002326839570956694,0.002329626498431525,0.0021766832785303216,0.001866535145709782,0.0014445455742027494,0.0009861324771155574,0.0005558223383967641,0.00016870148175468296,-0.0002193192647688253,-0.0006815875303737667,-0.001263391461421055,-0.0019283291561729141,-0.002542973755664621,-0.002917598150338198,-0.002889583074240385,-0.002407825474082448,-0.0015701563227782443,-0.0005888666117768224,0.0003002888639343145,0.0009378372985961548,0.00129679683677217,0.00146791047482717,0.0015852628583158093,0.001735549306802675,0.001903132825662972,0.001983148491145785,0.0018547228924907103,0.0014676834571656168,0.0008843133920489032,0.0002448917612296829,-0.0003217867611278336,-0.0007793856185973557,-0.001194433397131032,-0.0016634676970608828,-0.0022075618979666136,-0.0027134486226731043,-0.002970113114007423,-0.0027824580716470006,-0.0020898654289020634,-0.0010149519498405463,0.00018569406989703643,0.0012367324976254124,0.0019582005067409047,0.002319237761160233,0.0024120718832162597,0.0023721563961187813,0.0022951674743023364,0.002195323050351217,0.0020202233824129783,0.0017044968201202102,0.001225701755086241,0.00062833243866804,1.8639112989407472e-06,-0.000573391232138426,-0.0010767047279334676,-0.0015553184935659572,-0.002076612369079231,-0.002650146405768653,-0.003174713528679831,-0.0034572905020313384,-0.003304827284879919,-0.0026372021961775603,-0.0015500983435898302,-0.0002859117146039974,0.0008715394438876555,0.0017168094232103718,0.002190737807854296,0.002366614522607379,0.0023757200619306095,0.0023250953528528464,0.0022549611485631438,0.0021491653482024684,0.0019759194028089997,0.001722013505163508,0.0013971895459795594,0.0010125439018216504,0.0005570342780872877,-3.584498256765218e-06,-0.0006989603783172821,-0.0015134005319474752,-0.0023593984243445373,-0.0030861376599508814,-0.003524713569443388,-0.0035518803458885885,-0.003143039739563273,-0.002387903241852425,-0.001458555660365406,-0.0005430497000285683,0.0002239432022157373,0.0008000719069507256,0.001227309394561898,0.001585697164082076,0.0019358536652799782,0.002279722691630918,0.0025571646273896634,0.002677738122775621,0.002570646345624903,0.002227379457736323,0.0017144857649835778,0.001147729028335525,0.0006382378525465386,0.00023714982748645336,-9.080753502133283e-05,-0.0004461292914178371,-0.0009310917028512698,-0.0015749847432881255,-0.002291285014944563,-0.002897748861446567,-0.0031954667217183735,-0.00306502152802126,-0.0025242277026165405,-0.0017153985400919867,-0.0008350110934565073,-5.148005774684828e-05,0.0005449635389983993,0.0009453617112831179,0.0011929050897799308,0.0013468208682931733,0.001456352750166134,0.0015487272191899888,0.0016273157362052095,0.0016753017918840472,0.0016624257579101896,0.0015545860302968552,0.0013262506929795173,0.0009728795908445179,0.0005169476826105046,1.8468884533766328e-06,-0.0005243652196160339,-0.001024052199547331,-0.0014715974511980885,-0.0018401648062760512,-0.0020865398479268786,-0.0021510142341038692,-0.001978403603611161,-0.0015495734775646526,-0.0009041426419994876,-0.00014026853347704957,0.0006090831136185832,0.0012126628596199698,0.0015765406746635043,0.0016687223006017081,0.0015272071386962073,0.001248210984207094,0.0009541370198388971,0.000748317698298808,0.0006735312831649685,0.0006950927561559595,0.0007199569587859042,0.0006441021794287907,0.00040384840597120983,4.162617210132658e-06,-0.0004894763377784155,-0.0009875500590764618,-0.0014170947065958747,-0.001742287876439453,-0.0019570263083341054,-0.0020611234869099045,-0.0020401550323878737,-0.0018623928462303025,-0.001493479532921001,-0.0009206057896814353,-0.00017503614655101204,0.0006581555025248554,0.0014516379370522366,0.0020693387377866434,0.0024107877662079813,0.0024464384330258214,0.002225715216339777,0.0018523407471507129,0.0014387893253981468,0.0010627446132525872,0.0007455212256490055,0.00045782670690492136,0.0001434592623933078,-0.0002528655340687108,-0.0007613031379671647,-0.0013670665438933732,-0.00199689356667903,-0.002521363549102127,-0.0027853820967715472,-0.002667076137431338,-0.002142577565764468,-0.0013186921438065572,-0.00040439180330844844,0.00037470387996784045,0.0008775007359090501,0.0011080023939218284,0.00119869835922821,0.0013235790815748904,0.0015887172081835033,0.001962924296002675,0.0022897755487326322,0.0023756741697728324,0.002102544318415457,0.0014971262667848523,0.0007151649048033673,-4.6952526009414364e-05,-0.0006548643058132647,-0.0010894013036392117,-0.0014230588980815567,-0.0017435821241479543,-0.002079039095641638,-0.0023717057149379873,-0.0025122784027180687,-0.0024068714170317044,-0.002031676003297768,-0.0014432339817655316,-0.0007446232082794765,-3.563897555129822e-05,0.0006203993122647064,0.001198627246129574,0.0016919984264034808,0.002087857016048317,0.002357521590126346,0.0024633635363627065,0.0023775384941479216,0.002100645968194337,0.001668191178372994,0.0011386602569576384,0.0005680812025699176,-1.3477732801638184e-05,-0.0006059558058181022,-0.0012171003927048964,-0.0018259041821841568,-0.0023573694279935397,-0.0026912204715514917,-0.0027068259986885793,-0.002342560511085646,-0.0016372278274373927,-0.0007303778721410491,0.00018045414895950598,0.0009074715217682458,0.0013368640408892756,0.0014629875294454807,0.001378636349381531,0.0012266240378685078,0.0011347812375443825,0.0011625504575548317,0.0012798863764118041,0.001383450449318146,0.0013401669662347674,0.00104061183294466,0.0004450645675288141,-0.00039068340227976095,-0.001318374579391933,-0.002132687619598978,-0.002632831582082136,-0.002690613257634041,-0.00229649058186128,-0.0015608777852977253,-0.0006684147758854008,0.00019331987657251185,0.0008964060249766058,0.0013977867239437797,0.0017190946305933312,0.0018981614982616184,0.001945152407327031,0.0018326775982362945,0.001525846085235984,0.0010286434614011815,0.0004087530470097843,-0.00022279795810174389,-0.0007664419809229713,-0.0011841846761714164,-0.0015065435165100176,-0.0017884147874342908,-0.002043829889262278,-0.002206478149827065,-0.002146890351387609,-0.0017404462844500482,-0.0009482675897299444,0.00013486904702699474,0.001293316792381501,0.002260630867143673,0.0028161814400846216,0.0028656447790950897,0.002470320565203495,0.0018138404908586538,0.0011233314231602165,0.0005808529513456194,0.00026107048331795886,0.00011581624484361384,6.440110432338756e-06,-0.00023038586511035818,-0.0007062766900893672,-0.0014203327125199095,-0.0022383636255690212,-0.002926934546671706,-0.0032370240263753253,-0.003006561309616443,-0.0022348637459181885,-0.0010904139605628954,0.0001533218938252564,0.0012212456958409143,0.001928840774192597,0.0022253346056063405,0.0021795472220053724,0.0019265608947803617,0.0016048100090711047,0.0013099017015741569,0.0010787439072221516,0.0009015454836160267,0.0007470037618901599,0.000583490681640397,0.00038681129848175063,0.00013704139899962058,-0.00018524159509288745,-0.0005938897127259569,-0.0010817987800576254,-0.001603330190986076,-0.002068326646851278,-0.0023594475585198152,-0.0023734402064126726,-0.0020702546735407823,-0.0015019953429217198,-0.0007989335310036149,-0.00011411796678505268,0.00044373317428558496,0.0008494623187073545,0.0011507756556930816,0.0014180538617841216,0.001688928059200071,0.0019414685731192758,0.002108179802833063,0.002117020342045984,0.0019323550692251369,0.0015734092629499903,0.0011031946341817805,0.0005961544518221889,0.00010196230043862714,-0.00037500319233263354,-0.0008667858890724254,-0.0014044457856645471,-0.001971911100112131,-0.002481953094104451,-0.002796396202236842,-0.002785466428911249,-0.0023937209566992196,-0.0016737875766997283,-0.0007695097478434636,0.0001391719804747827,0.0008987677435525802,0.00142419985564114,0.0017079253870143755,0.0017996763123576105,0.0017699751029573818,0.0016744033055883021,0.0015337053714200985,0.0013368140875948988,0.00106214285255809,0.0007026543167199448,0.0002782846590633686,-0.00017210785542214703,-0.0006118478513848593,-0.0010216554089539423,-0.0013930154712051533,-0.0017022587973977376,-0.0018884447858333892,-0.0018617204248873925,-0.0015484358063237108,-0.0009488373839487985,-0.00016718600822653756,0.0006129142237856323,0.0012011117826321886,0.0014824801281935508,0.0014637584662356268,0.0012595650216322522,0.0010291450442622208,0.0008993682276227319,0.000911715975668544,0.0010132456721460026,0.0010883114188135188,0.0010119340383907605,0.0007012599036151752,0.00014634344990558333,-0.0005878379846941031,-0.001383490594375825,-0.002102668824659955,-0.0026172464246966166,-0.002831268662462842,-0.002698242530681281,-0.002234486363498707,-0.0015216557105336528,-0.0006884912883315363,0.0001283142763718859,0.0008275551266258821,0.0013670381158206644,0.0017540873403544346,0.0020125115439994937,0.0021513411418344446,0.0021571592586786654,0.002012859471529722,0.0017265155600548238,0.0013479804770946693,0.00095960438872211,0.0006429668269212949,0.00043639442621746074,0.0003040972454745059,0.00013668715320914364,-0.00020654507325394678,-0.0008222279379485559,-0.0016863921831655473,-0.0026220631722958052,-0.0033439144603004695,-0.0035737049633865754,-0.003174097742450382,-0.0022273176240970452,-0.0010090040260388507,0.00013406961226056357,0.0009378169001712814,0.0013245314687935017,0.0014061773187665834,0.0013947955946918824,0.0014758143659814795,0.001713033851681636,0.002029522937749991,0.0022647511597374548,0.00226965221120869,0.0019857026919390727,0.0014665839480845354,0.000834518227937239,0.00020142064837016258,-0.0003930365003761583,-0.000983482117229503,-0.0016168677119182237,-0.002268948731338446,-0.002803814308912021,-0.003017924065431152,-0.0027524298103340566,-0.002004544211249715,-0.0009606144202788502,7.976998982007653e-05,0.0008479721012598037,0.0012315072736718265,0.0013040311805330826,0.0012458374343372405,0.0012116894202889874,0.0012352175956637994,0.0012311110854530177,0.0010871637268087023,0.0007752329032201751,0.00039666817846426244,0.00012386088774792004,7.495037393800367e-05,0.00021155649686484344,0.0003401630941687638,0.00022826782198356464,-0.00023673914508455626,-0.0009537635972216791,-0.0016464093163124644,-0.002011781351486761,-0.0018851916342859988,-0.001320473131604331,-0.0005460029051609816,0.0001641147096185843,0.0006207347187876522,0.0007838585441734189,0.0007435691004141892,0.0006483482852930973,0.0006273281952129714,0.0007396440650215166,0.0009613004518331131,0.0012040434659453167,0.001354078029909913,0.001315754974028392,0.0010442768478624242,0.0005556005722822553,-8.655700817762927e-05,-0.0007934615357800928,-0.0014674316757332434,-0.002006273770349439,-0.0023075417270975868,-0.0022885035254202224,-0.001922932550693454,-0.0012737340149821977,-0.0004921966705446323,0.0002289565519353004,0.0007309528417935179,0.0009532276982651518,0.000950771609376018,0.0008558595609299332,0.0008070813859036578,0.0008842107130210507,0.0010794344125739756,0.0013123231373599641,0.0014734003044728666,0.0014709260036441059,0.0012600807226475393,0.0008478034882869116,0.00028077628112731495,-0.00037002959101577323,-0.0010196240603135044,-0.001575420811953459,-0.0019472222020200985,-0.002065394780813168,-0.0019030600526397591,-0.0014909943457126124,-0.000914525505911796,-0.0002899822425175215,0.0002710776096727651,0.0006947528765642348,0.0009603544203727472,0.0010924904783179517,0.0011356055887914325,0.0011259267191734905,0.0010756988824600008,0.0009749018620631291,0.0008034864995633221,0.0005427625008132232,0.0001813928447277616,-0.00027861516804916704,-0.0008094382058144425,-0.0013423376925797762,-0.001765200081788502,-0.0019473045632957485,-0.0017900186265814464,-0.0012813105807320262,-0.0005219562929284431,0.0002986468097906696,0.0009731810415721867,0.0013626266350767109,0.0014545753563833148,0.0013605201977807224,0.0012487144250596977,0.001244620475582295,0.0013526762829876764,0.0014458094160467673,0.0013333495033655068,0.0008730162216146097,6.535892499249108e-05,-0.0009235119594310785,-0.001826142657369895,-0.00239163303429376,-0.0024939714688096523,-0.00217399724658217,-0.0015972343166254324,-0.0009579483314614788,-0.0003879394126401367,7.98384713373918e-05,0.00048126436384943714,0.0008556506460617542,0.0011944692003334452,0.0014377523034782673,0.0015150163656533185,0.0013966159458406009,0.001116665316550804,0.0007515448588178544,0.0003713012951952455,1.2355891118893004e-06,-0.0003764053916580799,-0.000780549781133067,-0.0011807372488451772,-0.0014795258554156786,-0.001548744276943262,-0.0013019295829947491,-0.0007572912573616162,-4.9403098436676725e-05,0.0006201348430615467,0.001066875848473453,0.0011994299165891907,0.0010516713002139456,0.0007590181681948889,0.0004922356819175391,0.000379774937164643,0.00045266977428244366,0.0006341926158918698,0.0007762373340684079,0.0007253051081616903,0.00039046006461636925,-0.00021365643762489108,-0.0009651098242683822,-0.001674137945883097,-0.0021473509945492426,-0.0022511994062925367,-0.001951888148892779,-0.0013208788160432986,-0.000508754316736347,0.00030113456086452284,0.0009451067664915479,0.001323632186199737,0.001425044412616065,0.0013200647633037324,0.0011280660411712826,0.0009673377734516988,0.0009085961692956778,0.0009494471845862174,0.0010184434650442522,0.0010054258651342428,0.0008054549838699513,0.0003605520638220649,-0.0003132738664740721,-0.001120094567147627,-0.001900462294587315,-0.0024682616645057684,-0.0026627538667880375,-0.0024040396960641752,-0.001731757672721989,-0.0008042836434988518,0.00015188555411988126,0.0009262790025177014,0.0014014010592233155,0.0015810422999761149,0.001557620952348651,0.0014454168870465661,0.00132484303204704,0.0012263428184112078,0.001147599069061627,0.0010752857852397927,0.0009890312055021674,0.0008501012489850801,0.000596102791865618,0.00016015495242885293,-0.0004871213228271414,-0.0012949885802410362,-0.002118292771956791,-0.002749472903631552,-0.002991535730297036,-0.002742275273712299,-0.0020483972757412796,-0.0010984037370028767,-0.00015201502875081827,0.0005636334688455869,0.0009429632252558181,0.001034532922831654,0.0010024291452873193,0.001035025785468368,0.0012446356164039682,0.001607393119413544,0.0019752688295426655,0.0021566398894328417,0.0020241377316284888,0.0015896345366114663,0.0010006549274492783,0.00045654712905224097,9.240953783544263e-05,-9.819121112385307e-05,-0.00025258994437011174,-0.0005463353485553053,-0.0010758256165266148,-0.001787107043248858,-0.0024903980411551054,-0.002948097682927926,-0.0029854796317529703,-0.0025670116548237483,-0.0018044224852597174,-0.000899252205046146,-5.411273873154841e-05,0.0006014615440530734,0.0010379243807160394,0.001301983427933953,0.0014656566122275036,0.0015807283589282818,0.0016606241681039163,0.001691348051265461,0.001656173392946969,0.0015537233702304625,0.0013967303870751594,0.0011934347766237073,0.0009267244708336226,0.0005503899010461163,1.3777554885675955e-05,-0.0006921059784935779,-0.0014930215745278296,-0.002226549947881868,-0.002690020472407873,-0.0027251967183002162,-0.0022951878257128117,-0.0015072118447124116,-0.000565276705229122,0.0003197927160496337,0.0010102051560336985,0.0014684447113963363,0.001726360517358825,0.0018274473724082454,0.0017863924064753947,0.0015922384599892814,0.0012470056353860136,0.0008042329608132955,0.0003703100414328527,5.7234542929638504e-05,-8.775827890441482e-05,-0.000126921643918097,-0.00021090264798069689,-0.0004916500163304736,-0.0010170721420303553,-0.0016765921601662496,-0.002240943035457247,-0.002479262306476745,-0.002283037602554293,-0.001719605857607237,-0.000984311054154158,-0.0002868361911561886,0.00025378336514479,0.0006442178138283668,0.0009716801194897089,0.0013185847427965385,0.00169532809181382,0.002030003376659905,0.0022142712050595894,0.002170822138923008,0.0018986528934976437,0.001470354712627185,0.0009872955784881376,0.0005234668616316409,9.26220776017014e-05,-0.00034353768963673665,-0.0008335264004720907,-0.0013863912019262065,-0.0019429787373911184,-0.0023851869041970207,-0.0025808696519447607,-0.0024437049607722574,-0.0019777967456200024,-0.001282230970847063,-0.0005114850954084128,0.00018720114689312214,0.0007257184617445165,0.001091497519840721,0.001326869566824044,0.0014900199848732372,0.0016212076843068147,0.0017281972448797392,0.001790416689841642,0.0017728852402532904,0.0016415859565755504,0.0013764196827912981,0.0009796733477606253,0.0004767601721192731,-9.294301824142796e-05,-0.0006910299265788147,-0.0012897527518696324,-0.0018664616520062917,-0.002384463913193505,-0.0027762414464118246,-0.002948564886726519,-0.002815742454444772,-0.0023454451344939622,-0.0015886311416575987,-0.000672310042831394,0.00024370228419405142,0.0010235541021911233,0.0015966808169152944,0.0019652942872727588,0.0021791723070409366,0.002295407550064984,0.0023454612224822692,0.002323712489791654,0.0021975698593868316,0.0019284295491805363,0.0014907401018065267,0.0008824040600964316,0.00012835098152295607,-0.0007165549218873093,-0.001563071410798382,-0.002288467188798738,-0.0027543372408328644,-0.002845698186376035,-0.0025191976866869776,-0.0018351204465038339,-0.0009504031116172793,-6.895277306010047e-05,0.0006306635133301221,0.001056702638549289,0.0012260405608831772,0.0012369583346767753,0.0012079052004344607,0.0012140681848543328,0.0012538719364181981,0.001260295506171391,0.001146264375216706,0.0008547824077159823,0.00038521678492075824,-0.00021335484688203555,-0.0008674696252289009,-0.0014998745399814873,-0.002033116188068885,-0.002384140883202013,-0.0024689745072383413,-0.002228448831759282,-0.001665352859762939,-0.0008675585623824401,5.79987947645804e-06,0.0007772679491661731,0.0013195602045028118,0.001602728121575898,0.0016926360591209986,0.0017010039168847387,0.0017155683074477229,0.001750165744728356,0.0017428474882531777,0.001602755352029105,0.001277626330227434,0.0007989656445687601,0.0002724303142342728,-0.00018485104264020767,-0.0005200668523193486,-0.0007792935666764831,-0.0010706227240077615,-0.0014747795702582996,-0.001962273841031268,-0.002377155387316666,-0.0025062439329584327,-0.0021963666755747766,-0.0014492823740660666,-0.0004368378415389085,0.0005724713579559851,0.0013330736465967928,0.0017226828049356569,0.001773470825906873,0.0016250608586299532,0.001432762422973668,0.0012854785803221701,0.0011766645614087674,0.0010364072946491781,0.0007958356512522628,0.000439668393996371,1.6076373576298815e-05,-0.00039687273427275137,-0.0007424021749207321,-0.0010193766569561147,-0.0012768348155684018,-0.0015702370718850484,-0.0019059046828687654,-0.0022112148305890016,-0.0023560901072444142,-0.0022200963329588497,-0.0017673399117168836,-0.0010806618740496524,-0.00032805530948942395,0.0003229095876903852,0.000790579834783743,0.0011099622052675774,0.0013898782066859878,0.0017275066073019231,0.0021387004690495625,0.0025481347570959646,0.002840035394747223,0.0029307405768813173,0.002814670014105719,0.002557368006721568,0.0022445016524507413,0.0019210849735493145,0.0015579667103086435,0.0010647757877006421,0.0003424378397076013,-0.0006517734834125587,-0.001859206655999271,-0.0031175304602096116,-0.004204189348501038,-0.004908067574415069,-0.005099417962606738,-0.004769244066089418,-0.004023080184884096,-0.0030341687575781836,-0.0019784324396457578,-0.000980040432831044,-8.84869770868449e-05,0.0007088362362577511,0.0014500625232118352,0.002156893583621498,0.0028055357900847577,0.003323895561705491,0.003618592067899307,0.003620624453211019,0.003325377569019461,0.002801754430565061,0.0021614623743929436,0.0015048054309945017,0.0008765661086091593,0.0002609114373752148,-0.00038121194500064014,-0.001058170287690679,-0.001715421807959501,-0.002248641772254943,-0.002554447455355857,-0.0025849404501021647,-0.0023699232600513666,-0.001993346125630535,-0.0015419830236086398,-0.001062211214601056,-0.0005528429826844492,5.063054132726326e-06,0.0006061916342594538,0.0011976049247869036,0.00168901191156492,0.0019881438787461014,0.002039117137337924,0.0018446685983989622,0.0014658026186583338,0.0010033441710620159,0.0005695097348954003,0.0002559804782175279,0.00010351674673261064,8.05436992694932e-05,8.266974426452182e-05,-3.5531120573494435e-05,-0.00039771365398060064,-0.0010346567507054322,-0.0018430767566155071,-0.0026058710068467108,-0.003074243906771653,-0.003074261133884628,-0.002581801344976282,-0.0017257743404262222,-0.0007212891693766545,0.00022534330877129708,0.0009862797396388982,0.0015262945768633905,0.001870381267680652,0.002059663767683586,0.002126935515842089,0.0020982326811992804,0.0020035326084436667,0.0018759451427491575,0.0017346999722066927,0.001567134766006726,0.0013305144093316167,0.0009796517242388666,0.0005026900994712996,-6.378802231658647e-05,-0.0006554382783056823,-0.0012219206163263554,-0.0017539824589193611,-0.0022680208085117523,-0.002754508363826816,-0.0031312540447009565,-0.0032477426926457945,-0.0029539225975958395,-0.002197482159164617,-0.001085269965212356,0.00013884448502770328,0.0011948209920817953,0.0018893096150397713,0.002189355171530228,0.0022079370893541787,0.002117290092223698,0.0020464711668965385,0.0020221369603002593,0.0019791802558692126,0.0018241078375476885,0.0015054314794762764,0.0010467916969142763,0.0005265809390192185,2.3571039737669544e-05,-0.0004314554348690394,-0.0008650850675984386,-0.0013267570625259005,-0.0018348362408445132,-0.002339844736750229,-0.0027302385627314837,-0.00287978824757349,-0.002709996369811672,-0.002231168191302939,-0.0015382742306691702,-0.0007655519441000455,-2.8798556134018304e-05,0.0006107499252158075,0.0011449736637814834,0.001590078264961724,0.001955413368198582,0.0022297737653080327,0.0023883402577579223,0.0024098188717835466,0.00229078489052678,0.0020497929325757323,0.0017201354069772937,0.0013337773079561107,0.0009021271765523283,0.00040403730656271325,-0.00020595885159322376,-0.000962983671076254,-0.0018422132033685046,-0.0027239143109487325,-0.0034050316281043678,-0.003667768351882143,-0.0033796307894458154,-0.0025718933487360288,-0.0014462427424409888,-0.00029648281273720136,0.0006169397246380075,0.0011710420657542347,0.0014065668294733265,0.0014679660781466868,0.001500404032532771,0.0015686581107786654,0.001642424378295493,0.001646474107076493,0.0015335036648207454,0.0013271912965838084,0.001106811171622005,0.0009454588745223794,0.0008451302845333198,0.0007146689358719573,0.0004106063631733681,-0.00017719836055565819,-0.0010415556792568582,-0.0020253363563138655,-0.002865695956281747,-0.003299654049580697,-0.003179479483789014,-0.0025372145398126385,-0.0015639598287291888,-0.0005172805577923073,0.0003902185102278674,0.0010613039745702355,0.0015123987729236043,0.0018130350676154737,0.0020125075325333626,0.0021025841754841465,0.00203748074950591,0.0017913273712749998,0.0014057763175886477,0.0009864091151998025,0.0006439194247286047,0.0004186560810003243,0.0002435007162873027,-2.2717562763892567e-05,-0.0005056045738282683,-0.001222169294756399,-0.0020422576033997603,-0.0027315230544329573,-0.0030556556605629316,-0.002889527205102737,-0.002271364508733108,-0.00137447771400358,-0.0004185348190077233,0.000423716326748277,0.0010734058997138923,0.001533203713597247,0.0018420864270950975,0.002035456136613634,0.0021308804369952563,0.0021338136882508092,0.002046225037180155,0.0018680487577004742,0.0015941204037207574,0.0012144978155350257,0.0007218304691704778,0.00012270758512163864,-0.0005531900714544419,-0.0012510097884430318,-0.0018969632613323086,-0.002410594207672717,-0.0027194893242463115,-0.002773944765643038,-0.002559985714705644,-0.002107630409890483,-0.001489176179495144,-0.0008035351793951915,-0.00014862581977835674,0.00040842584496706606,0.0008491680018605947,0.0011990034045398657,0.0015001738279628494,0.0017766527907117587,0.0020116442079394356,0.0021519059868278217,0.0021367181467820758,0.0019339878122628246,0.0015620009686863616,0.001084385756875023,0.000581135807562678,0.00011113549422839286,-0.0003139048033914093,-0.0007287601276215307,-0.0011837829312414875,-0.0016963430334461127,-0.0022111855914347064,-0.002598326255003353,-0.002699941822046129,-0.0024072227510667705,-0.0017245078847521855,-0.0007810336252129402,0.00021866210939968473,0.0010772517164461507,0.0016740935760977452,0.001988747007226316,0.0020768945634030526,0.0020232121840244076,0.0019007870685941665,0.001751956462863751,0.0015859577782723385,0.0013809167281383496,0.001086214555241483,0.0006347403131715043,-2.4657065493057407e-05,-0.0008814633274372163,-0.0018320467980661006,-0.0026920654041346047,-0.0032586741510988206,-0.0033941833711215,-0.0030838174412612554,-0.002433013557154906,-0.0016076623842193683,-0.0007570544984520295,3.3123896064325524e-05,0.0007366207828423739,0.0013480849892750356,0.001846798920429305,0.0021892056066829388,0.002330407477796119,0.0022552848393006843,0.0019983844755680834,0.0016418825242355472,0.0012909922828259128,0.0010329043576284675,0.0008931714576176656,0.0008121757696720792,0.0006635708634989345,0.0003171826908627362,-0.00028177197869743125,-0.0010638580839568436,-0.0018510733065103635,-0.002432207744057992,-0.0026555682012183806,-0.002487589208294893,-0.0020098608469584713,-0.001365208649219753,-0.0006899287077211561,-6.983427008299629e-05,0.0004636440405702231,0.0009078234294720886,0.0012590280513747277,0.0015001738427715106,0.0016102460618618389,0.0015838030198739926,0.0014433204918815642,0.0012341777999160027,0.0010041091735766526,0.0007777687516046014,0.0005397606088643912,0.00023737449707706077,-0.0001922272377028367,-0.0007774214761976389,-0.0014710558844538654,-0.002139942121508991,-0.0026010997666786125,-0.0026952009798861965,-0.0023623044143095684,-0.0016779398937737352,-0.0008259952447153421,-1.92983289121981e-05,0.0005910494178586687,0.0009694384905129979,0.00118552429758587,0.0013497665868128057,0.0015351911655265755,0.0017324097557954207,0.001863453871406831,0.0018425853472406573,0.0016415096909205933,0.0013130048143438118,0.0009551796441869512,0.0006404845042813156,0.0003600522810007382,2.5796061589229832e-05,-0.000465120088855422,-0.0011413067884092026,-0.0019011158197123944,-0.002530716051243534,-0.0027942610646176968,-0.0025496534385880077,-0.0018252476451003717,-0.0008135140238972903,0.0002146063345150674,0.0010259656820530787,0.0015092190106292774,0.0016875990892577623,0.0016661515302697925,0.0015554381578116987,0.001419725954532376,0.0012723075532222652,0.0011041796662820216,0.000912064123044262,0.0007009970435394816,0.0004646027265223238,0.00016786005209412994,-0.0002445851712192912,-0.0008129086939429324,-0.0015200383386819337,-0.0022707553314362645,-0.0029090763383323617,-0.0032705984964093455,-0.0032466344768337764,-0.0028274188213523086,-0.002099807677741307,-0.0011999326618669882,-0.00024968168871452884,0.000682650724385836,0.0015740435370349172,0.002402331615176419,0.0031041290831864037,0.0035711622959783383,0.0036920685536971417,0.003413748650159165,0.0027823957731791227,0.0019367239342502755,0.0010550519606686891,0.0002853684958790265,-0.00030336714240383576,-0.0007251503080909434,-0.0010409217784695085,-0.001309652294861975,-0.0015552161572852088,-0.0017615346238674609,-0.0018897867229972242,-0.0019031956019745378,-0.001787406958929444,-0.0015599574417148728,-0.0012656492796924818,-0.0009580116674955536,-0.0006739584267236058,-0.0004158968825810905,-0.00015434132824787778,0.00014842143261261515,0.0005082726872431696,0.0009026222460847282,0.0012776170385691771,0.0015732666168682104,0.0017494027933131467,0.0017964140089705392,0.001725951443127809,0.0015503561894155264,0.0012667757873104323,0.0008582693807696103,0.00031206844710812633,-0.00035693430628756307,-0.001092729416945155,-0.0018029210865863159,-0.0023790030488807885,-0.002723234153351923,-0.002773056800586114,-0.0025160370947951843,-0.0019902049504783056,-0.0012689956066435615,-0.00043808973308848706,0.0004224146381726348,0.0012409643707207362,0.0019464570275918218,0.0024639285420541943,0.002726076735917924,0.002697856426363981,0.002398556815188928,0.0019063620665054275,0.0013415053712284015,0.0008338262316671397,0.00048289826783661643,0.0003191793932223897,0.00027908664449577533,0.00021194297358842094,-6.83930027056143e-05,-0.0006952058930202019,-0.0016596820777248433,-0.002771712630998236,-0.0037074208069075238,-0.0041365832012749786,-0.003872634119436586,-0.0029642018390209253,-0.0016725697667448478,-0.0003445087803311919,0.0007465593838687813,0.0015005980139369867,0.001982584446025796,0.002325590939615103,0.0026158143118181014,0.0028319833400107506,0.002869494247891814,0.0026242602358171807,0.0020771653236390662,0.001325065298190304,0.0005411849775264752,-0.00010888898434238074,-0.0005455834214817049,-0.0008045072877859599,-0.0010020132523368944,-0.0012572685926832824,-0.0016139975136722222,-0.0020058452494462306,-0.0022862042320439245,-0.0023069013905846563,-0.0020009079861733883,-0.0014211209787087888,-0.000713670869609749,-4.391494580640101e-05,0.0004792915241021414,0.0008377338100557008,0.0010823556515332912,0.001277718580717908,0.0014520854257662162,0.0015832896659186738,0.0016229629681443895,0.0015366189084300417,0.0013302262899586724,0.001046369684198001,0.0007343165037202196,0.0004153497695941258,6.871781373329587e-05,-0.0003481330341953819,-0.0008536751238743638,-0.0013996575747711663,-0.0018643858124101232,-0.0020959671511248707,-0.0019876576673155373,-0.0015425359825377816,-0.0008852056341464093,-0.00020732789387513026,0.00032486066798206187,0.0006466382787110442,0.0008087778410689892,0.0009234524621456225,0.0010797848119683245,0.0012836528635991932,0.0014558400095224717,0.001481785965427502,0.0012755630997519137,0.0008201835775294218,0.00017083109417654653,-0.0005665152493640258,-0.0012616518573898125,-0.0017841275599700087,-0.0020293802816931166,-0.0019498482724611805,-0.00157965144982337,-0.0010318107517176681,-0.00045658303758939296,2.440864457186904e-05,0.0003710367158679086,0.000629389067229948,0.0008827515176236648,0.0011802363026096466,0.001491114727253486,0.0017162031670811362,0.0017493758639593729,0.0015490082544361882,0.0011722224211101967,0.0007475088416833366,0.0003996305124433548,0.0001721599609306331,-2.1724492824653358e-06,-0.0002602977688065265,-0.000717816027955303,-0.0013819825836099472,-0.002121918799490817,-0.002715660874194492,-0.002948953931767634,-0.0027126567802017625,-0.0020493201070510333,-0.0011295408665136673,-0.00017541127294389783,0.0006283913603526052,0.001194879670823497,0.0015436830641892788,0.001761361222976895,0.0019370967295621359,0.0021073285165149674,0.002237246086164462,0.0022475791974902472,0.002069911173234016,0.0016960819475862975,0.0011888668332727895,0.0006441734054569316,0.0001277789826495723,-0.0003692401786201155,-0.000920026661874646,-0.0015952779848975862,-0.0023799834196095815,-0.0031312609419719773,-0.0036155541988210664,-0.003615330732102141,-0.00304776364851597,-0.002023296642923329,-0.0008042173891052225,0.00031580121661445624,0.0011411404580657868,0.0016389098095804639,0.0019085542725424994,0.0020858784428620025,0.002247158167305818,0.0023706716119449686,0.0023704200553005205,0.0021708603585624117,0.0017704581523330975,0.0012543670810941023,0.000750311623156548,0.0003554163909875224,7.800567239429456e-05,-0.00016935113482376238,-0.0005169644587190868,-0.0010513127768778548,-0.0017433897067304952,-0.00243688716683664,-0.0029090126061387892,-0.002974383828917005,-0.0025759074781856973,-0.0018132902576463005,-0.0008958633601119938,-4.845844477756019e-05,0.0005787467607079454,0.000953801978660787,0.001146748953471674,0.001271291350772153,0.0014186092411409134,0.0016146201318342466,0.0018150158817503053,0.0019324073616186653,0.0018772858396399598,0.0015937048252443152,0.0010784416843803244,0.0003819287551375081,-0.0004045093805183806,-0.001168421499315452,-0.001797176340051037,-0.0021970796930523054,-0.0023104618557900124,-0.0021302649908573213,-0.0017073033758983796,-0.0011414210541563084,-0.0005515463762290502,-3.2746272433962326e-05,0.0003781928893000823,0.0007065600399171131,0.0010075660202225455,0.0013167238679073563,0.0016144711604554546,0.0018289581761028058,0.0018770286637253583,0.0017189983208190326,0.0013926768390710813,0.0010019777919891308,0.0006607986997214697,0.00042106453980277043,0.00022891768834776825,-5.689408471258844e-05,-0.0005841139182803452,-0.001403041810744944,-0.0023995677847047417,-0.0033106355397738477,-0.0038239501641093793,-0.003715807424842533,-0.002957139196340705,-0.0017327782106925625,-0.00036415660023158506,0.0008247660918277422,0.0016317404698967673,0.0020328391655381663,0.0021514177347846833,0.0021649149245084698,0.002203689918628837,0.00229352567678428,0.002363754609579081,0.002305567236361679,0.0020413344258479035,0.001566344996220163,0.000945003740385658,0.00027044237644489985,-0.00038454943554739576,-0.000994724332932543,-0.0015715942678727578,-0.0021229054360725978,-0.002611028806969032,-0.00294157128682466,-0.0029951158515385563,-0.0026872043980943738,-0.0020228949358763364,-0.0011138608556925922,-0.00014580382377888063,0.0006899183773161866,0.0012676644623560284,0.0015669657942558688,0.0016613963275632663,0.0016648305724497863,0.0016656000667225328,0.0016844645130425894,0.0016770568771409854,0.0015742607727333912,0.001331469050601545,0.000954445640360267,0.00048781401309358333,-2.064826409531881e-05,-0.0005496754845302999,-0.0011028107092449471,-0.0016737673877159033,-0.002204134022280892,-0.002569986657354343,-0.0026197823708928444,-0.0022523621377427217,-0.0014915885172455978,-0.0005065668708731703,0.00044649366756647243,0.0011366478516887614,0.0014629045770932561,0.001489452237148909,0.0013903434873531622,0.0013380936022333114,0.0014043561448925167,0.0015306402435302162,0.0015805290154084657,0.0014338937051083939,0.0010616210636983192,0.000538013752290116,-9.118999005835104e-06,-0.00047337707906325733,-0.0008221343363401779,-0.0010972508858022793,-0.0013679027947658805,-0.0016673357067113672,-0.001953805852835783,-0.002120744796434667,-0.0020513350750655723,-0.0016860530752545353,-0.0010639219250455243,-0.0003130744934504552,0.00040510425650319357,0.000967376361375037,0.0013354537210040697,0.0015527404526743593,0.001696080888004544,0.001814450281565078,0.0018924495691683954,0.0018591598553320623,0.0016349722619103874,0.0011872852970020481,0.0005617362323079995,-0.00012948314461971687,-0.0007551464603266445,-0.001220292063421321,-0.0014980450097980696,-0.0016228908634566247,-0.0016543250700627407,-0.0016356830978057515,-0.0015718098207238686,-0.0014342125818038785,-0.0011851819080218433,-0.0008042547024572749,-0.0003039818851347299,0.00026883451891489724,0.0008431785784768913,0.00133994641038834,0.0016902157107630989,0.001852574595491497,0.001825251943542272,0.0016472412873380121,0.0013841147086363853,0.0011004599661889659,0.0008294742031973448,0.000555720711554376,0.000224034560227193,-0.00022509513334619433,-0.0008097342413010051,-0.0014757600441952837,-0.00210104067411759,-0.0025356036931484457,-0.002658226778699354,-0.0024211563127929723,-0.0018636221973110947,-0.0010938230708256247,-0.0002532911585092791,0.0005210636639611192,0.0011283142942207366,0.0015238197924513828,0.0017239464381193098,0.0017912374190550068,0.0018018497511097919,0.0018066847442419882,0.001804713312929386,0.0017445054590487946,0.0015556755838966791,0.0011927967053026204,0.0006642059281561695,2.7293799944141483e-05,-0.0006438133871429808,-0.0012911126309059096,-0.0018795294154476906,-0.0023747522652173385,-0.002716754764456439,-0.0028203541307397356,-0.002612311059341868,-0.002081950298970136,-0.0013072680252185901,-0.0004342211020026119,0.000379912795493249,0.0010245451605293437,0.001463311306190891,0.001722709378933868,0.0018573710915481992,0.0019155779621032097,0.0019201905007032137,0.0018668965588832997,0.0017344002549253095,0.0015004995546456213,0.0011580725831184745,0.0007235675794671641,0.00023202372794104374,-0.00027946873495701663,-0.0007879387238934447,-0.001285822132208644,-0.0017628644438939778,-0.0021808535504862134,-0.00246322599083686,-0.002514479408266189,-0.002263625527237966,-0.0017071531245554062,-0.0009250609840475263,-5.979326687878691e-05,0.0007304827130732245,0.0013209512977826476,0.0016514285139616121,0.0017318726771001173,0.0016257033755689273,0.0014202319155556256,0.0011946424805666738,0.0009958726677356748,0.0008313411843804174,0.0006813129273368483,0.0005225822102486457,0.0003465670872871739,0.00015823743955297234,-4.20407073631374e-05,-0.0002753652304950294,-0.0005790442598300827,-0.0009743173432445085,-0.0014260877884488714,-0.0018271577739522264,-0.002029072383466638,-0.0019111813363062145,-0.001449949569291088,-0.0007449643424356511,1.7652082479234542e-05,0.0006460895320388284,0.0010239146424783222,0.0011489556199990576,0.0011135638885376592,0.0010430422398819887,0.0010297664205149268,0.001097501177516819,0.0012074927320023803,0.0012917375764696874,0.001286832137797754,0.0011494774919578266,0.0008532711433131401,0.00038161014619626587,-0.0002664643630770684,-0.0010530312224730676,-0.0018755089538330418,-0.0025655352627141355,-0.002932113567896986,-0.002840451079603051,-0.002286570202876804,-0.001418559906036321,-0.00048067369831589245,0.00029678192808905654,0.0008016520256430199,0.0010770888160296368,0.0012688714054226232,0.001515033096923607,0.0018467192003380393,0.0021631381665194052,0.002296733089694019,0.0021264328613840606,0.001664839087734236,0.0010608954315382362,0.000513511528581629,0.0001493937483686458,-5.690139771825605e-05,-0.00026673127534007396,-0.0006694248981120308,-0.001344874301839126,-0.002181050860754627,-0.002902488765591156,-0.003201551958884855,-0.002901664182605654,-0.002059426875819845,-0.0009459419236536258,8.282626192738487e-05,0.0007537898107828605,0.0009913059268119393,0.0009225753997939951,0.0007823102473973407,0.0007784551803393031,0.0009934123234434334,0.001365035743886389,0.001741941342001929,0.0019699689114000543,0.001960051301824637,0.0017090183564083992,0.0012753993507544352,0.0007339550256501117,0.00013792293568278403,-0.0004910683532719222,-0.0011427254854564951,-0.001783210481354457,-0.002332388782626694,-0.0026750754774635638,-0.0027066724130483137,-0.0023879311291591624,-0.0017730905594100733,-0.0009906396818235518,-0.0001871177918875398,0.0005311525146305257,0.0011238202735663098,0.0015992507038565826,0.001973037688514947,0.002234740925786257,0.0023456053505678536,0.0022658189895822817,0.0019886904366612393,0.0015551830549300244,0.0010375843023418835,0.0005042133127754619,-9.293771742629499e-06,-0.00050236688549045,-0.000985653509739837,-0.0014494596952434847,-0.0018474449186773893,-0.0021075988343438336,-0.0021643631573482853,-0.0019920341602531573,-0.0016191912028224386,-0.0011171352581099243,-0.0005723157585780523,-6.055182847364282e-05,0.00036529934195384233,0.0006755162742115321,0.0008607755204555504,0.0009329391789954077,0.0009264116384305235,0.0008908748025727676,0.0008701268395436875,0.0008739640472287559,0.000860786757898339,0.0007478157902272317,0.00045130983031443266,-6.076612573038386e-05,-0.0007327115981426513,-0.0014243114471796533,-0.001954424503723057,-0.0021640268369150315,-0.001969590066317515,-0.0013862743509495028,-0.0005172836004402421,0.00048024027600657593,0.0014371521674819802,0.002209224338871597,0.0027022477136787303,0.002883105131642483,0.002776741259257643,0.002450824172122224,0.0019927283092899383,0.0014854132302790095,0.0009878456887353992,0.0005230271665517625,7.54122957336038e-05,-0.00040009726313108146,-0.0009565277869420605,-0.001624498592536508,-0.0023834916181757924,-0.0031479949859314184,-0.003778680159308289,-0.004119903968470752,-0.0040523764598255985,-0.003539158529330239,-0.0026425075858938617,-0.0015028740326577727,-0.0002925116407815724,0.0008310626580381869,0.0017524580094960736,0.0024053843530167708,0.002770409582306766,0.0028716267509786677,0.002769674450373545,0.0025450863963967407,0.002273620448837967,0.002004289597325361,0.0017509155270243716,0.0014992172367231773,0.0012222892406340002,0.0008952318993536296,0.0005044392958870039,5.246335397953708e-05,-0.0004397431030340099,-0.0009343299495246714,-0.0013845415057613607,-0.0017487003580248157,-0.0020037746489222747,-0.0021493848574609506,-0.002197342710121544,-0.0021514523921128217,-0.0019914929752324452,-0.0016768883294099141,-0.001175185301770029,-0.0005017689682676531,0.0002568416629756985,0.0009595826100789486,0.0014667748432088956,0.0017059733117705798,0.001706320916215814,0.0015767197141371573,0.0014393803185477822,0.0013604654000298174,0.0013208770408466523,0.0012416893550233118,0.001042055717896305,0.0006892930843707241,0.00021192497024093062,-0.00032476385588574535,-0.0008566623780473981,-0.0013436081838000373,-0.001763705890810271,-0.0020888828875919602,-0.0022659904438278138,-0.002224117443613943,-0.0019093961652804064,-0.0013269677535842498,-0.0005613040293837008,0.0002427841205805653,0.0009322258886917084,0.0014034924226502448,0.001634509189695901,0.0016750352655861675,0.0016055403227070518,0.0014923214471862572,0.0013645242604302388,0.0012200008864433412,0.0010466580501946035,0.0008387556042308255,0.0005967943403327635,0.00031616110438985356,-1.976997823867902e-05,-0.00042969444398076827,-0.0009096126734342326,-0.0014097795891658662,-0.00183332758264041,-0.002065355261881178,-0.002021965578348348,-0.0016935679956817415,-0.0011565176328615615,-0.0005437405123592615,1.147073553057164e-05,0.0004290962204337222,0.0007062171081795571,0.0009003655955332323,0.0010826084605967358,0.0012860240620722937,0.0014786875775886568,0.0015784932965300126,0.0015031900011280514,0.0012253891361955103,0.0007958498802672605,0.00031704997637813873,-0.00011721469118704969,-0.0004750763208195431,-0.0007944111534851285,-0.0011383065075369469,-0.0015293966945727296,-0.0019106722416898268,-0.002162041256970691,-0.0021624786274174815,-0.0018565454707013033,-0.0012833211185866624,-0.0005535626997650129,0.0002046521437872415,0.0008945413192346791,0.0014663699873484252,0.001900629022102206,0.002182146786984524,0.0022905127942117864,0.0022131430540575257,0.001964902226893545,0.0015921035464293177,0.0011535208428437769,0.0006924514417173027,0.00022222032135576228,-0.0002640537777464007,-0.0007688079390817497,-0.0012707380108079578,-0.0017243825027616834,-0.002075612325586711,-0.0022790905386201343,-0.0023066646276374615,-0.0021468820937145835,-0.0018032008036033412,-0.0012960473118988946,-0.0006664763623820821,2.4705829569806676e-05,0.0007056382040297952,0.0013070863709573528,0.0017743257268334302,0.0020718482160240474,0.0021816821940113537,0.0021020784367905155,0.001852114698042283,0.0014779921352213914,0.001047689045986722,0.0006248364779889287,0.0002314475754572685,-0.0001727326064759441,-0.0006681588166774566,-0.0013108409334956206,-0.0020599312404604203,-0.002749182250195663,-0.0031357476162894417,-0.0030130004210173907,-0.002327786861182402,-0.0012304331030756485,-2.071842127810211e-05,0.0009852429885960226,0.0015941696583655,0.0018049809747202844,0.001775328971759266,0.0017114544186977907,0.001747059511846547,0.001877205334388663,0.0019786040940252547,0.0018986244276648421,0.0015573017195587065,0.0010000965844057274,0.0003695942517048697,-0.00018449211737559264,-0.0005976686769676074,-0.0009240003446557214,-0.0012869627958220246,-0.0017777417827200496,-0.0023661301028943442,-0.002884057336371861,-0.003098381699418087,-0.002833653349633321,-0.00207268094117277,-0.0009754249172059198,0.00019280284466742037,0.0011787063254702019,0.0018364521000813923,0.0021545835719203425,0.0022138785460098158,0.0021152780186069037,0.0019266835262605102,0.0016746559971760984,0.0013702018853715304,0.0010340576678585774,0.0006936237060159115,0.0003547365939188143,-1.9925651908657546e-05,-0.0004938644225534518,-0.001100092811503959,-0.0017810390898661036,-0.002373911572282655,-0.0026658101705643086,-0.0024967790938856334,-0.0018530991741925512,-0.0008927322286674368,0.0001177351682606515,0.0009225977624208001,0.0013866164722240763,0.0015349243119169439,0.0015064475994573676,0.0014548520023554472,0.001458015542520643,0.001486327075674078,0.001441577278326422,0.00123588881644298,0.0008577521344792648,0.0003822432498648973,-8.011098804975301e-05,-0.0004591351243968917,-0.0007706388950649943,-0.0010974584453924364,-0.001516797414070764,-0.0020224497692368187,-0.002494791509237873,-0.0027414964597538465,-0.0025888033982699884,-0.001973404299944321,-0.0009850152867771256,0.00016238237663634812,0.001214559393790666,0.0019737389541503694,0.0023625631863567714,0.0024287267006814703,0.0022934784082388813,0.002074802117749402,0.0018286097585857642,0.0015402046242557936,0.0011668223402044892,0.0006981036072412174,0.00018818850822795944,-0.0002675801376985659,-0.0005975535171743068,-0.0008124550378236092,-0.0010090449527242996,-0.0013062447326050892,-0.0017512100918362548,-0.0022602340028857375,-0.0026412528494837396,-0.002690823614848155,-0.0023066019268180647,-0.0015448316564447315,-0.000589582636547433,0.00034157632769280514,0.0010937138626222246,0.0016178073979514845,0.0019476424400447017,0.002139841240904503,0.0022227816901966456,0.002184313243723432,0.0019973211468497024,0.001658872715499969,0.00121438724491644,0.000750157463721588,0.0003561871671256926,7.824169962783907e-05,-0.000113183014729186,-0.0003140357318360567,-0.0006348228096481952,-0.0011292034758010416,-0.00174402690449298,-0.0023253877520324207,-0.0026847274427786033,-0.0026912284572698014,-0.0023365934874730668,-0.0017320793225364087,-0.0010397951309736035,-0.00038353993625537,0.00020244621809071737,0.000756392686154118,0.001322081976654801,0.001884350066049821,0.00235397353867556,0.002611038314216674,0.0025749302401786313,0.002253537683812701,0.0017413120577248159,0.0011699924101693396,0.0006435365014128113,0.00019485614676259034,-0.00021388368710942838,-0.000651606755586722,-0.0011639184063911585,-0.0017330602588783476,-0.002270693378336855,-0.002645337161316536,-0.0027323463423672627,-0.0024660562458935623,-0.0018716011602554175,-0.0010601599862118994,-0.00018740191424061173,0.0006051054494436935,0.0012345285067774478,0.001684176724897329,0.001974616488857901,0.0021238795274235063,0.002128070208226491,0.001975318780236331,0.0016774790743137563,0.001288535276474648,0.0008889563007849278,0.0005424312762459022,0.00025389622451618785,-4.049626642383219e-05,-0.00043933040095677276,-0.001011590744802765,-0.0017348996424190104,-0.002472463728428939,-0.0030096659020236154,-0.003141821387929566,-0.002773503066572703,-0.0019753449704619165,-0.0009606228801794158,1.1966395950939638e-05,0.0007563872781464985,0.0012295535226928452,0.0015149033863390779,0.0017366301117745597,0.001965033074233391,0.0021736409749780515,0.002268889683730679,0.0021643681013619135,0.0018472614968949022,0.0013955877049464781,0.0009374488191607785,0.0005762107586016132,0.00032382648876812475,8.277997664507959e-05,-0.00030499519820660555,-0.0009596994701473414,-0.0018660946645007875,-0.0028360202906255096,-0.003564186769710092,-0.00375976773388271,-0.0032896034819270745,-0.0022554572549058627,-0.0009587628021463098,0.00023344296349485632,0.0010518832989852814,0.0014305187709698773,0.001500406268429416,0.001483948051484197,0.001558297554317604,0.0017680701964666585,0.0020283590893136463,0.002199157511289139,0.0021732328026591143,0.0019236531937307142,0.0014940877550084874,0.0009540420246978325,0.0003567323059845111,-0.0002746915434088663,-0.000931307956547812,-0.0015899806926766694,-0.002193051599047229,-0.002649417554060355,-0.002858653850058587,-0.0027488396197017516,-0.002311151461201815,-0.0016135891990686894,-0.0007847480599049464,2.673084907466131e-05,0.0006990430006088449,0.0011698590980064813,0.001441848849491923,0.0015614874962394166,0.001584707573809356,0.0015498379873042168,0.0014728623755896077,0.001362783735343671,0.0012374294310537551,0.0011182482151344572,0.0010018326857045307,0.0008325674498652992,0.0005108248920512965,-5.0043021250901993e-05,-0.0008456587202854404,-0.0017371448013686786,-0.0024845956147704707,-0.0028495668344468376,-0.0027083739921747434,-0.0021077871400403507,-0.0012330668483124926,-0.00031508648148606815,0.00046389543890001375,0.0010173576832254998,0.0013456261740895754,0.001496539911731168,0.0015284540339079084,0.0014920191204823047,0.0014269814153106113,0.0013617735179065483,0.0013081851753877027,0.0012527046827801665,0.0011521898991477104,0.0009413590230168054,0.0005543333081144006,-4.491974013274018e-05,-0.0008343928417751381,-0.0017207720757712191,-0.0025498070146874135,-0.003141242332206852,-0.0033402504568522907,-0.0030692978769941417,-0.002360367606228369,-0.0013516435204615424,-0.0002464013469156911,0.0007507816198284717,0.0014943631653474229,0.0019306372580345976,0.0020926310188780256,0.0020644158162737986,0.0019349981160171506,0.0017640877988490972,0.0015727399731354959,0.0013564129420762995,0.0011057758429546727,0.0008193814353927691,0.0005019874707442222,0.0001547432178917189,-0.0002305243164985674,-0.0006643313220144937,-0.0011410882004078814,-0.0016199781405282071,-0.0020195984349908732,-0.0022356835438469046,-0.002178973492924448,-0.0018171951920272456,-0.0011993339037052264,-0.00044665761414728505,0.00028894244336689727,0.0008811475006428084,0.0012726463085365866,0.001484036260439004,0.001584901833673436,0.0016449427289299283,0.0016936431224128536,0.0017099718765772318,0.001643354117778575,0.0014471906093233245,0.0011007806653894124,0.0006089954323817435,-9.675622847712863e-06,-0.0007264421735899461,-0.0014887508063874983,-0.0022048602259455968,-0.0027516556200100923,-0.0030155531032902126,-0.002946571056291201,-0.002587915704035262,-0.0020553828672259748,-0.0014752902436748453,-0.0009202566850970697,-0.00038515555121413974,0.00018171110516366075,0.0008150432953146474,0.0014811599860220107,0.002074630599835146,0.0024666352662342825,0.0025754997856196286,0.0024164478264923853,0.0021004765508342814,0.001781670457040868,0.0015809077098221604,0.0015266788422899245,0.0015439473471827152,0.0014948192607907214,0.0012464675635591308,0.0007302128856980349,-3.3275952491741007e-05,-0.0009451006996493911,-0.0018611156017262957,-0.002629578722229708,-0.0031233160567374144,-0.003263544317073683,-0.0030346291559775382,-0.0024875619181128046,-0.0017295290970136615,-0.0008998089833306229,-0.00013666260081519042,0.0004563186677452882,0.0008337901678981803,0.0010129007347146543,0.0010560831745951623,0.0010407392402184462,0.0010302069454934605,0.001056759893983507,0.0011179958407089392,0.001181668295410568,0.001194800947860106,0.001096740205459508,0.0008366848142654553,0.0003932464802364325,-0.00020959382384547545,-0.000896330949926635,-0.0015481049622847807,-0.0020267942396172698,-0.0022118263637477455,-0.002039575644904307,-0.0015296338478485948,-0.000784048899066622,4.292029442843975e-05,0.0007921121591305876,0.0013437154532620584,0.0016429345344593218,0.0017032473482637136,0.0015924527156239423,0.0014082034744908795,0.001247424787005545,0.0011744071814118163,0.0011965355652979535,0.0012590285772402284,0.001265049415634034,0.0011156385180999821,0.0007519747181014031,0.0001790970581163272,-0.0005401041350581436,-0.0013135388925661223,-0.002050112488837627,-0.0026726739572257717,-0.0031127223888215783,-0.0033035428985178418,-0.003189100860105227,-0.0027486015760650137,-0.0020181659425833574,-0.0010899949728848282,-8.673053251660387e-05,0.0008724294487735734,0.001693966801034853,0.002313729595081543,0.0026907140536648567,0.0028044187406208957,0.0026616991577535012,0.0023071451926487204,0.0018240926492187086,0.0013163175297682662,0.0008719532924157951,0.0005248153344392653,0.00023578068170778272,-8.818297663336778e-05,-0.0005381917087981742,-0.0011359839787672581,-0.0017948190658831043,-0.002339745668534514,-0.002585345500549069,-0.002431233123126382,-0.0019194724004833435,-0.001217523817578085,-0.0005343851316389659,-1.7730853241883487e-05,0.00030928918823669796,0.000537185648692672,0.0007949073002785058,0.001157822030858608,0.0015953449555801353,0.0019884837302821747,0.0022025277845532354,0.0021657217654446333,0.0019035340917835713,0.0015093959575586788,0.0010744147157673188,0.0006239118114152824,0.00010378649114883268,-0.0005707759183457251,-0.001430349380870847,-0.0023819921912447937,-0.00320506188815443,-0.0036283566873237362,-0.003456626123245181,-0.0026796706473280977,-0.0014998014238461178,-0.00025508792099527265,0.0007267731840884543,0.0012693363781315693,0.0014092856980669403,0.001347702975116957,0.0013202481113517937,0.0014612658222943936,0.0017386132903891081,0.0019915494812784602,0.002040879543719701,0.0017990707505314662,0.0013136403339001164,0.0007235158208470738,0.00016385939140413716,-0.0003146030756953876,-0.0007577721057784458,-0.0012444509002385116,-0.0017915855252595605,-0.0022976040438450864,-0.0025709500539993274,-0.002434232811944856,-0.0018401842591213367,-0.0009223334971259553,5.7165107925372794e-05,0.0008334576549803062,0.0012620268862965603,0.0013667544242252593,0.0012927905441604283,0.0012047877349896964,0.001198300048862552,0.001271035072810671,0.001353007796258492,0.0013588398563644311,0.0012245934639604004,0.00091745803888257,0.00043188671628496383,-0.0002098118511619409,-0.0009485837399883626,-0.0016830557410599442,-0.002281594090891615,-0.0026154784607711344,-0.0026015943251218683,-0.0022344135103742127,-0.0015903683688153602,-0.0008011989601362723,-8.769920662067034e-06,0.0006772187283223465,0.0012007434880545323,0.0015555717069684872,0.001764918497149154,0.0018588676073408505,0.0018596964389851647,0.0017773797804070176,0.0016119505627420136,0.001358327492003346,0.0010113338670693047,0.0005709683007727774,4.8160952922054646e-05,-0.0005305027260247245,-0.0011216168577783147,-0.0016683495486232718,-0.0021070252115235446,-0.002375331163751757,-0.0024224041232080253,-0.002221206012761207,-0.0017802399266732558,-0.0011483290171221193,-0.0004076509726385168,0.0003438879987335097,0.0010145349734090045,0.0015371907349786855,0.0018790435223672555,0.002040462358168049,0.0020455728542677076,0.0019304342814704958,0.0017342492068337097,0.0014938058564429734,0.0012364671160432653,0.0009688306669128014,0.0006662612418223694,0.0002750185916478786,-0.0002639167549455849,-0.0009727836960294496,-0.001796102457826778,-0.002588327207977884,-0.003148278814856522,-0.0032927866687528437,-0.002935242962274917,-0.0021273873542587284,-0.0010421131460261219,9.151784257241963e-05,0.0010655425735015371,0.0017467497717621328,0.002091103030041016,0.002127570296848648,0.0019316847084911546,0.0016034771943168947,0.0012500416284770576,0.0009640208815296985,0.0007939887171575077,0.0007170069571563321,0.0006342580675465824,0.0004058283865221936,-7.978517384862297e-05,-0.0008303341893917374,-0.0017104727125436384,-0.002470807428174,-0.0028451100951703626,-0.0026732774398755313,-0.001982729564429586,-0.0009771583842426185,6.391592510435412e-05,0.0009139280636383178,0.0014786555246421038,0.0017865305893745688,0.001914227836936351,0.0019125583945851562,0.0017858822361048392,0.0015273767541909007,0.0011654684896872422,0.0007709423837664717,0.0004129267657938865,0.0001019986937334966,-0.00022342571773561635,-0.0006434368835312365,