6.6398885650494e-05,0.006868255653406362,0.012305222940216971,0.015488620826143194,0.01626585703179646,0.015159856851295611,0.013044254641809236,0.010739268168549743,0.00872940857983529,0.007107088459700526,0.005708880137070798,0.004321210576666599,0.002830625190984609,0.0012599907046144982,-0.00028814844094724997,-0.0017146821099421538,-0.002972728845584607,-0.004060521915438701,-0.004978214410198406,-0.005688213385130194,-0.006110652260807214,-0.006159290206082317,-0.0057959410537607075,-0.005069671755113294,-0.004116432247277217,-0.0031177672887670567,-0.002238754756130886,-0.0015741058593920403,-0.0011257791602668921,-0.0008205056207511632,-0.0005580380171129229,-0.0002671922066062966,5.766719299750661e-05,0.0003592031559355303,0.0005596130706895693,0.0006213383788064194,0.0005892523108504033,0.0005821759391059227,0.0007293410346343816,0.0010856386667989256,0.00158194680251707,0.0020515490941908883,0.0023239864381563715,0.0023267348884600547,0.0021239324741090405,0.0018642514706840169,0.0016769458818247773,0.0015927949854688123,0.001544047709858071,0.00143393726790699,0.0012146196177434717,0.0009126391881023974,0.0005886175682246501,0.0002711197196104127,-7.814731136660783e-05,-0.0005384890840476351,-0.001161350854272732,-0.0019066608979593418,-0.0026288676961647764,-0.0031255571913316113,-0.0032236310917790442,-0.002856407102587121,-0.0020916790048306324,-0.0011002443327717487,-8.69086380148608e-05,0.0007784791956978958,0.0014001796739536916,0.001757960485494589,0.001883048965465706,0.0018285857190501052,0.0016487561699790583,0.001389339883759125,0.001084541720842626,0.0007546287475134306,0.000403550248661541,2.0102135736610962e-05,-0.0004132774775180325,-0.0009036289788740758,-0.0014278933116816507,-0.0019210325409981517,-0.002282674749682468,-0.00240612974631213,-0.0022209224481078557,-0.001728929194087889,-0.0010132343864225433,-0.00021086251245889132,0.000539813769536125,0.0011501176145970705,0.001602172552310471,0.0019282283573231248,0.002162633776533432,0.0022998989178889266,0.0022894354200113753,0.0020722607905989893,0.0016337906136596144,0.001033081047761082,0.00038427975620476,-0.00019977999117522043,-0.000664017472906149,-0.0010285927658854749,-0.0013549552695158564,-0.0016834319847427671,-0.001984912902035506,-0.002159503602173396,-0.002083938033805464,-0.0016796348561598571,-0.0009635944107709921,-5.695890880312994e-05,0.0008511984557354588,0.001567980294926381,0.001962255723178716,0.0020059105764222854,0.0017742213774794792,0.001404420612713597,0.0010290192618009424,0.0007136344409311149,0.0004311152433630745,8.961564921426565e-05,-0.0003959388802608839,-0.0010280260392472654,-0.0016941540410678948,-0.002204015537552814,-0.00238015586955436,-0.0021505516191146932,-0.0015875265631885938,-0.0008697659961904302,-0.00019211827667075642,0.00032108540819339774,0.0006502615794469987,0.0008518210526410814,0.0009970821434823448,0.0011242856164090497,0.0012301648366773313,0.0012932315238611495,0.0012990809726447982,0.0012435853146788274,0.001115041714403776,0.0008787017966943584,0.0004877968983654883,-7.67027166509596e-05,-0.000762506672249919,-0.0014338324326331631,-0.0019095734489881634,-0.002038190973882117,-0.0017695492159739068,-0.0011821782033437029,-0.000448651753142964,0.00024280604808018364,0.0007671565535576493,0.001099306962847613,0.001293387154394783,0.0014252743662866842,0.0015394869984758045,0.001631948888919103,0.001669151783887738,0.0016174867953587782,0.0014550876970736183,0.001161335881055335,0.0007046979678141984,5.4465795317983415e-05,-0.0007794885514589482,-0.0017055202015303639,-0.0025473786014914464,-0.0031007693859072165,-0.0032295946719092133,-0.002947206021773436,-0.002425341603770533,-0.0019102309173468545,-0.0015828922330553066,-0.0014434278661379337,-0.0012962536451968467,-0.0008594541330145289,5.55292932779177e-05,0.0013999074909386052,0.0028731207469054323,0.004054980313461351,0.004607824411311778,0.004428045656109863,0.003663672435328331,0.0026039401753496926,0.0015223401343024854,0.000568239595640484,-0.00024439168246619136,-0.0009686993594528518,-0.0016367899226690506,-0.0022105602678803415,-0.002595729062477105,-0.002700316220010662,-0.002493804936186308,-0.0020290729197974047,-0.0014180252399211965,-0.0007815161450818199,-0.00020531079653111174,0.00027665818359090826,0.0006708850694126953,0.0009991260020017086,0.0012762669829984377,0.0015000313940641435,0.0016511272911131276,0.0016973628360002439,0.0015977018855062412,0.0013088347577823746,0.00080051153306406,8.082024194811964e-05,-0.0007794363723069768,-0.0016426330602392013,-0.002334063560804665,-0.0026991813252674112,-0.002661334896892827,-0.002248258723101134,-0.0015726674984676988,-0.0007801124308408451,4.4955928816029465e-06,0.0007043327432688577,0.001285697333604687,0.0017348452598956812,0.0020374849189525035,0.0021740197565612565,0.0021302596025570587,0.0019132800268113284,0.0015595735741869149,0.0011275309186489656,0.0006757953316151939,0.00023851414864733186,-0.00018719649840798474,-0.0006307660376751313,-0.0011165562594200144,-0.0016274344022695507,-0.002086364100709845,-0.0023716380593640854,-0.002363499418804071,-0.0020015101796008942,-0.0013237848357359264,-0.00046610666429041606,0.00038218032884165636,0.0010471688161197766,0.001432760274741282,0.0015471328524102107,0.0014815170485204306,0.0013538150618253994,0.001247509957672567,0.0011771984265686506,0.001095211620778809,0.0009298090962079359,0.0006296924069395494,0.00019115156561735382,-0.00034074480523042555,-0.0008896458144927903,-0.0013709476984110234,-0.0017116177351072558,-0.0018645012705454848,-0.0018161996496840623,-0.0015855962930424504,-0.0012117051348167747,-0.0007369182253621307,-0.00019760436462237308,0.00037078126642395813,0.0009211067868471336,0.0013916090636430182,0.0017229471831309673,0.0018852640028860805,0.001890422191386594,0.0017726584089334564,0.0015485983388854952,0.0011908977446328905,0.0006451032527397443,-0.00011350067791504885,-0.0010215726402179658,-0.001914226208716925,-0.0025747472484637913,-0.0028228881066567377,-0.0025913936430625698,-0.0019497302140682635,-0.0010683872724334298,-0.00014978939592285028,0.0006376427440127315,0.0011977416412948774,0.0015125380742897084,0.0016246309954510377,0.0016074276717169622,0.0015323299288069066,0.0014409049680381462,0.0013306569637696495,0.0011606972369794502,0.000875960246056858,0.00043932320737118135,-0.0001431864895581579,-0.0008147387468848257,-0.0014790153321606458,-0.002023946424011433,-0.002348416461763479,-0.0023840716997098736,-0.002108046390633037,-0.0015463984226405248,-0.000770764297450992,0.00010959704727069768,0.0009615160310453198,0.0016508337146271452,0.002074365749880806,0.0021914903551225103,0.00203857567267917,0.0017127851184535056,0.0013271855588578075,0.0009576858316974265,0.0006109654831906097,0.00023322475237479417,-0.00024382993460372437,-0.0008460560001358616,-0.001521750198703103,-0.002147539158217603,-0.0025712486899659133,-0.002669192102939975,-0.0023902406176679676,-0.0017685200213211018,-0.0009051298327237799,6.447166562138475e-05,0.0009983458171978696,0.001764686707675067,0.002255604583050759,0.0024086122550177626,0.0022327526468331384,0.001820222808646364,0.001323163541521781,0.0008944161662266594,0.0006179596866156066,0.0004683825728935059,0.00032661357531568,4.764355470620544e-05,-0.00045446415455841545,-0.0011493037777208681,-0.0018906717809627563,-0.0024743788884060464,-0.002723303677650724,-0.0025568413988593885,-0.002012947209695364,-0.0012193919380887215,-0.00033801022762148766,0.00048628425636363005,0.001153201035142596,0.001612707539714154,0.001859539745489973,0.0019238666006950065,0.0018576206838634007,0.001714243763372612,0.0015254594349034078,0.00128587276595217,0.0009570943801102234,0.0004947359214628516,-0.00011223806750539954,-0.0008111959171275779,-0.0014853881137475418,-0.001989580784931617,-0.002206381897543367,-0.002093407885047709,-0.001695676071355743,-0.0011191061423729094,-0.0004846509039465453,0.00010891252833353368,0.0005974166680888947,0.0009443079159013022,0.001132585839659189,0.0011683153243986033,0.0010899275693299708,0.0009642645624616303,0.0008568266116056397,0.000787350521187574,0.000702766847593683,0.0004967415162704949,7.569096978069249e-05,-0.0005644615440071471,-0.0013008257312501726,-0.0019155602027650096,-0.002185739124843633,-0.001983702847729644,-0.0013342849506410449,-0.00040147838239334424,0.000582745072353244,0.0014064159145448533,0.0019399104366198579,0.002151697038091287,0.0020839717856067576,0.0018119095395550007,0.001410747414213076,0.0009421723636783298,0.0004552864734786744,-1.1268084381730811e-05,-0.00043498008696838016,-0.0008187123398162416,-0.0011895181568815014,-0.0015768659083929188,-0.0019765398587656188,-0.002322965037532611,-0.0024948388314556414,-0.00236198423036184,-0.001854305503028095,-0.00101434197534593,1.5154121330836299e-06,0.000980182791001749,0.0017385866266280423,0.002191629843627402,0.0023645453566244843,0.002347746386106452,0.002226832001078879,0.00203177776464561,0.0017322967565715872,0.0012750848880836916,0.0006346809734456983,-0.0001534887515511433,-0.000993661142414213,-0.0017586757019120358,-0.0023293518094708553,-0.0026263611522761208,-0.0026247133933591316,-0.0023499036392455493,-0.0018609023654818752,-0.001228633373541125,-0.0005195745372107493,0.00020899592130453008,0.0009031850815177181,0.0015049825294927198,0.00195351113607196,0.0021987942639175658,0.0022217722837743915,0.0020481214246581845,0.0017448485955886706,0.0013967031241871983,0.0010705193045424985,0.0007845811352010125,0.0005010303339813918,0.00014884654720554173,-0.0003326275072546843,-0.0009526046291641048,-0.0016517835682459195,-0.002316401356367343,-0.002814073163323288,-0.003034027312779017,-0.0029167338557904614,-0.00246594455644388,-0.0017439556135457664,-0.0008552563892701933,7.559641092318511e-05,0.0009273165414876022,0.0016029027790655833,0.0020446922564079694,0.0022398851472447724,0.0022151573939561365,0.002023134029816024,0.0017268538536995806,0.0013879913120772472,0.0010601726711978892,0.0007833438105166869,0.0005740526640158601,0.0004128742102757901,0.0002399885935289198,-2.732715194747235e-05,-0.000452912902747316,-0.0010331400647799376,-0.0016717236098011813,-0.002200997069084693,-0.002447051673749494,-0.0023075313899813183,-0.001799435088301681,-0.0010502974937310443,-0.00024032903728677518,0.00046867697433899854,0.000979905496033943,0.0012690841145604303,0.0013658310345564363,0.0013306958798976034,0.0012378107476380324,0.0011571281155948372,0.0011290325346629071,0.0011385296441419803,0.0011092483588445025,0.0009326426940244406,0.0005256400494909599,-0.00011255413889077232,-0.0008786035312778974,-0.001594684507689127,-0.0020775938558251577,-0.00221352684345355,-0.002001795470311146,-0.0015469317375559454,-0.0010046328684255768,-0.0005098785250393007,-0.0001239590327274786,0.00017395896538928055,0.00045050704759388614,0.0007617777100238287,0.0011108790637565872,0.0014416509240538777,0.0016672087234357405,0.0017121956390433969,0.0015434373514568252,0.0011757063322953838,0.0006576537267820897,5.4454987624483284e-05,-0.0005594445072036216,-0.0010984925231319988,-0.0014686429345988617,-0.0015863106265464812,-0.001410284624801009,-0.0009683740332739944,-0.0003600578141036161,0.0002696985600424554,0.0007744025011781799,0.0010499903867466484,0.001063959514044777,0.0008612671008302291,0.0005447863501923968,0.00023525930008398048,2.4265186957505343e-05,-6.0521826829814914e-05,-6.141017056442719e-05,-6.430047773239465e-05,-0.00015218538915314427,-0.00036139737244286876,-0.0006619956984235788,-0.0009706169176867391,-0.0011866077835188016,-0.0012308945820603137,-0.00106913693219452,-0.0007139843034784345,-0.00021461401303772668,0.00035516654778737847,0.000906210221711412,0.001344895523434143,0.0015902636650881095,0.0015950357756135155,0.0013608555311470942,0.0009378186440836189,0.00040632782933225993,-0.0001495821912388881,-0.0006624715805488122,-0.0010854334492924587,-0.0013829939239121112,-0.0015223691634588987,-0.0014765315041153962,-0.0012383537917039981,-0.0008339602825223199,-0.0003230829209695033,0.000215965082931162,0.0007084573786912531,0.0011012656523005366,0.001370176996461809,0.001516379279703416,0.001555061079672009,0.0014998439473349005,0.0013487160849355118,0.0010797604853926186,0.000663406296644151,8.938226574983939e-05,-0.0006048222257990975,-0.0013226823634999638,-0.0019268095605993684,-0.002282538904049265,-0.002306551428322498,-0.0019951894637528396,-0.0014185266868175215,-0.0006873838391189296,8.391497416206008e-05,0.0007982935356667289,0.001376863374531688,0.0017541656600994645,0.001884278827556314,0.0017601842400538866,0.0014307998347923402,0.0009946524033763574,0.0005625062986416543,0.00020449033857915938,-8.657156921063058e-05,-0.0003876608097484451,-0.000790118509156204,-0.0013241310223815691,-0.0019095163685151708,-0.0023689069147871567,-0.0025032115591363353,-0.00219005091597829,-0.0014507840456171746,-0.000450399695715247,0.0005677330879266006,0.0013782936497961573,0.0018568111519505295,0.002013891956311576,0.00196834097243115,0.0018735830785273212,0.001834258783413341,0.0018559602093531063,0.0018532756752360395,0.0017072954623850436,0.0013352308138758736,0.0007314215887903625,-3.798702788817914e-05,-0.0008728769006298965,-0.0016780656986022553,-0.002378591618195929,-0.0029099586689180948,-0.0032032298376469147,-0.003188691961158242,-0.0028256786693686884,-0.0021415710588588133,-0.0012485920479720924,-0.00031621007371605353,0.0004934984278859282,0.001091210026902113,0.0014852918046240585,0.0017505239391054077,0.001962545587229964,0.002142379927661944,0.0022465332919515022,0.0022053959085010996,0.0019801847630183163,0.001598484459807442,0.0011448074059922906,0.0007121650483832511,0.00034479649925715176,8.329763121868493e-06,-0.00039078886422722905,-0.000942584032798829,-0.0016603358262646372,-0.0024397247372410515,-0.003078744811745248,-0.0033544375242576356,-0.0031207912124365123,-0.0023796414619987926,-0.0012895889910734754,-0.00010846164436741903,0.0009037056670407571,0.001576839647080431,0.0018779593324307685,0.0018962147893936028,0.0017793673123735162,0.0016574839696361712,0.0015916096378390102,0.0015667807667286981,0.001522640529017376,0.001397516445573257,0.0011608989948913824,0.0008206266198255638,0.0004061952122913785,-5.749556931103242e-05,-0.0005655189716510393,-0.0011227746756809407,-0.00171195812648531,-0.0022636504571035584,-0.002657841607283479,-0.002767415905978087,-0.0025219741410626288,-0.0019502310540769595,-0.00117025109590747,-0.00033296838718948924,0.00044254043309969375,0.001100250844914949,0.0016312718246415244,0.002033240288242379,0.0022827922579609296,0.002343239745345654,0.0021975623800504205,0.0018749251728779424,0.001444336201233221,0.00097653591688499,0.0005021268800764163,-1.0010764481408266e-06,-0.0005780856332426609,-0.001242799806329384,-0.001933142833799909,-0.002509158595822654,-0.002799553678432624,-0.0026754594308899186,-0.002113629092563885,-0.0012173999992041154,-0.00018649091478416453,0.0007490647367967292,0.0014029957839868535,0.0016885939669571352,0.001639264054947864,0.0013875698113111445,0.0011078971683293535,0.0009411270311529503,0.0009310783747711183,0.0010031609514347133,0.0010002052302425964,0.0007635790323848673,0.00022287384948219905,-0.0005509462037135859,-0.0013590063093957025,-0.0019519125821332542,-0.0021349314060045937,-0.0018498383025128606,-0.0011950287076555716,-0.00037830276343500213,0.0003701727146176787,0.0008822519887225253,0.0010990430815544857,0.0010682949119778986,0.0009016380382786433,0.0007155395017505303,0.0005826175933260085,0.0005117298647181914,0.00045982665199334824,0.0003636636422581895,0.00017306624885405286,-0.00012819441922841876,-0.0005177155821308684,-0.0009412925550765807,-0.0013241508374664136,-0.0015828380698299342,-0.0016393677048983342,-0.0014409526515915222,-0.0009834829036663585,-0.00032789015517160143,0.00040543199955012164,0.001070756298092159,0.0015486012498110379,0.001789001628276505,0.0018214108785287318,0.001723790753027384,0.001567336313424602,0.0013684747495148037,0.0010768804959497983,0.0006089309089874898,-8.884457188925834e-05,-0.0009792515312926988,-0.001911463905847797,-0.002654595137668682,-0.002979462377989191,-0.0027535217508665964,-0.0020031333496915572,-0.0009109529084912759,0.00025160307061717984,0.0012242990042225755,0.001843361812234566,0.002075817951506789,0.001995247043071291,0.001720775777563968,0.001355310452192462,0.0009522818772354389,0.0005195578159544138,4.8119015579001743e-05,-0.0004571119006785357,-0.0009625491831536676,-0.00141166923865614,-0.001742379663136129,-0.001903334865127743,-0.0018622762608585686,-0.001608112304077475,-0.0011525191746998907,-0.0005340336520929007,0.0001785197654357927,0.0008900965398859704,0.0014957261132359785,0.0019070882104185788,0.0020801325668736567,0.0020306208250739518,0.001826932965330956,0.0015590651146649803,0.0012958982704973506,0.001051693144557671,0.0007803405427821905,0.0004022489235919941,-0.00014819797865388631,-0.0008770350044514142,-0.0017082371713168837,-0.0024952353122816035,-0.003063532726523892,-0.003269446918339953,-0.0030525651791551553,-0.002459346235246229,-0.0016250185107805559,-0.0007195760009554525,0.00011700106453271385,0.0008178566612753707,0.0013898782698871597,0.0018752802941367278,0.002299281101154416,0.0026354320703522362,0.0028089425820247574,0.0027365256418632796,0.0023801753115395737,0.0017826260664657954,0.0010603036269277966,0.0003532338228424449,-0.0002415243316805731,-0.0007129633709481299,-0.0011270011238892785,-0.0015676227241911685,-0.0020629521421387832,-0.0025427905004244264,-0.002856783127845329,-0.002845917746893855,-0.0024275873050994654,-0.001646430041725478,-0.0006636379415259619,0.00030762310627076604,0.0010850293916290711,0.0015765261815854832,0.0017918204491299927,0.0018094505727789026,0.0017247837376536544,0.0016082365373450693,0.0014897248282002224,0.001366196412034017,0.0012174749383672544,0.0010175905461779372,0.0007394995356644241,0.00035981963781873743,-0.0001304060598405351,-0.000710851737800892,-0.0013219261133373993,-0.0018686620259572976,-0.0022411243163771278,-0.002345857015160521,-0.00213717730909585,-0.0016362820949352656,-0.000930697315667842,-0.00015411567119084338,0.0005473016535434965,0.001053678133270087,0.0013057152297572781,0.0013231362033800345,0.0011962651840433359,0.00104786114860973,0.000977463343445157,0.0010131271288810783,0.0010953386020177741,0.0011034973656028396,0.0009144926658716445,0.00046661613650625215,-0.00020149236072639748,-0.0009558009235667068,-0.0016135257391207956,-0.0020094185077014193,-0.0020521284961855803,-0.001748886490597153,-0.0011934053025832807,-0.0005273217400180842,0.00010676961174661543,0.0006036569252657681,0.0009153370606825728,0.0010511425628801456,0.0010626864332033837,0.001019418648557478,0.0009802185990155769,0.0009678294955817797,0.0009555842702369951,0.000875360400547266,0.0006483617704567332,0.00022811984467109445,-0.0003641827088042244,-0.0010306643405183966,-0.0016203793304614968,-0.001976804740206046,-0.0019909199070980007,-0.001640701433801447,-0.0010026563633988663,-0.00022918533054059855,0.0005026878232230799,0.001052211756084086,0.0013587114829890275,0.0014477787718357937,0.0013987470837621102,0.001293181687727533,0.0011725297166463482,0.001024696434895795,0.0008016340613778017,0.0004548048334808081,-3.0270446200882876e-05,-0.0006154577897276945,-0.0012137971932774734,-0.0017126581751485946,-0.002006455268124015,-0.0020267833925469644,-0.0017605758648706234,-0.0012527082041179055,-0.0005946031303138377,9.732607320348937e-05,0.0007088163741280195,0.0011546025265306607,0.0013977313612703476,0.0014547991226574759,0.0013839258224879387,0.0012573193561075517,0.0011263375772127627,0.0009929430218493726,0.0008036571984839959,0.0004757584020591882,-5.012165001702391e-05,-0.0007548326280950764,-0.0015153218589262537,-0.0021311287606685984,-0.0023978430202732416,-0.002194389410183675,-0.001540580655580841,-0.000595924662850925,0.0003997450706335927,0.0012162102069148938,0.0017137824742855057,0.0018814729850721945,0.0018182917744089385,0.0016688553916331186,0.001545164720981983,0.0014726513763953326,0.001385982690622294,0.0011738317470708038,0.0007459221782260123,8.558620854777987e-05,-0.0007372490011347695,-0.0015931169576155401,-0.002339963487391141,-0.002865020405064541,-0.0031063983658185515,-0.0030532512717549552,-0.002732376924806759,-0.0021909771991753353,-0.001483144527774205,-0.0006643227657377614,0.00020612766325164692,0.0010589469431336938,0.001813661582232228,0.0023887845731463218,0.0027233478700526433,0.0028001907588883763,0.002656452872028725,0.002371015286848413,0.0020305277792242405,0.0016883026590033348,0.0013368444953475722,0.0009113151514714243,0.0003279143402092014,-0.0004570532413552615,-0.001395799386271047,-0.0023354047956182064,-0.0030578019360282837,-0.00336293284012586,-0.0031575398464119327,-0.0025015185871482158,-0.0015821582549563277,-0.0006274763601314703,0.00019263969068623844,0.0008215252401708457,0.0013000435759547352,0.0016980923764786827,0.0020420874860436295,0.0022852489943718792,0.0023367472473775756,0.0021271217831144475,0.0016647323234635753,0.001044703157440121,0.0004034257132360256,-0.00015214637125960696,-0.0005944574599283659,-0.0009725645274767328,-0.0013594529532981732,-0.0017846489082447032,-0.0021964512136526714,-0.0024787236050568882,-0.002511998895007589,-0.0022404763748504926,-0.001703759684140371,-0.0010162114264360876,-0.00031054444402697925,0.00031755282561257405,0.0008328716861911228,0.0012464296443894334,0.001582230485584514,0.001850925300729142,0.0020441914354336894,0.00214474897751993,0.0021368244113796476,0.0020069255865631202,0.0017381302474379513,0.0013098182201480536,0.0007113421070284243,-3.429538152741811e-05,-0.0008519267013387039,-0.001617048999365983,-0.002185445031438412,-0.0024394082151255416,-0.0023300352193731584,-0.0018961249838299078,-0.0012510517779428254,-0.0005429904032423381,9.492136804483938e-05,0.0005832778312103081,0.0009076067257072595,0.0010999553157922917,0.0012051301300179183,0.0012529195623086815,0.0012498360211324697,0.0011877515064771134,0.0010554323851221029,0.0008413132860543248,0.0005291687695454628,9.969277182791323e-05,-0.0004520302541549029,-0.0010896205607526185,-0.001719823843568827,-0.0022059630985944625,-0.0024091465288620995,-0.002237864185675769,-0.0016838389509264942,-0.000832752139674829,0.00015039288182011428,0.001058095265945123,0.0016954587623366152,0.0019424689907862234,0.0018001211285609677,0.001393275756054443,0.0009187657226046768,0.0005569425712474815,0.0003889515201764902,0.00036294785120422664,0.00032843364494676347,0.00012287152261302478,-0.000332401500135528,-0.0009758845200087221,-0.0016196675079534358,-0.0020284045693911086,-0.0020242335632802604,-0.001564762174983181,-0.0007575053964464504,0.00019022302882200164,0.0010549957882049557,0.0016731956731285114,0.0019801739088712916,0.0020059664050915515,0.0018389827271197983,0.00157691400335223,0.001284027173436424,0.0009700185864681876,0.000598305981471409,0.00012025317233535764,-0.0004807495115987543,-0.001158132887598849,-0.0018019351408437522,-0.0022724116451242047,-0.0024526353165925576,-0.0022948088032284635,-0.0018381231346468636,-0.0011911102758733038,-0.0004893962587524947,0.00014998162962477917,0.000658350077115429,0.0010202605314117929,0.0012565695553023839,0.001397698560748333,0.0014615598035386242,0.00144570198018098,0.0013334387113720855,0.0011058631606964391,0.0007516853004105297,0.00027368680748600057,-0.00030369421569303697,-0.0009238113379416317,-0.001491846855143978,-0.001886514591598784,-0.0019949251405427353,-0.0017586820472526665,-0.0012066120356589503,-0.00045365838499038746,0.0003359658132555052,0.0010040611796203875,0.0014473975124194766,0.001641819702621219,0.0016358284014540017,0.0015191098755286243,0.0013779779421098123,0.0012533640066157833,0.0011185814387862304,0.0008901830437565554,0.00047275131818966124,-0.0001791217216872067,-0.0010113723073941906,-0.0018623197263513513,-0.0025077101780669195,-0.0027447198177238193,-0.002478325453596338,-0.0017677844098257381,-0.0008076695218940879,0.00014978957464358228,0.0008937387316700474,0.001326887457738998,0.001478229423287308,0.0014565531804971226,0.0013754872763701432,0.0012916067598521814,0.0011845819856490625,0.0009831732098876146,0.0006183026643708906,7.42337268940766e-05,-0.000587208319020335,-0.0012400708414008772,-0.0017378335056765998,-0.0019656311356917836,-0.0018769259171288579,-0.0015003135727775733,-0.000918870112637312,-0.00023783737706245826,0.00044155921615923033,0.0010339536527804013,0.0014719897485154475,0.001709134590169248,0.0017282775823663028,0.001550763312976682,0.001234608015655476,0.0008551591617458829,0.00047393371716353554,0.00011280787462702307,-0.00024833376470634024,-0.000644924415174533,-0.0010856366560175602,-0.0015212663188935768,-0.0018471105940831235,-0.0019419853739092293,-0.001724499600397831,-0.0011964435801357467,-0.0004505201296526732,0.00036079761441841344,0.0010790220718700494,0.001590216448124671,0.0018504037033936077,0.0018783995105164809,0.0017261004472290615,0.0014464120609369042,0.0010756420515729904,0.0006339049641442136,0.00013513528623354504,-0.0004036241313276533,-0.0009576284670358407,-0.0014924078195524522,-0.001961723742543422,-0.0023062559291037368,-0.0024566370464047076,-0.0023448445020940426,-0.0019255607425910418,-0.0012035846300212027,-0.0002559535740905472,0.0007669611278971665,0.0016723729550084817,0.0022838820630768624,0.0025057677185059976,0.002361181685465164,0.001981036151502906,0.0015440801365205932,0.001195063440303834,0.0009815684887339205,0.0008420138748363255,0.0006505528041741873,0.00029361918399080996,-0.00026394094802201793,-0.0009573199234689657,-0.0016515474700792778,-0.0022005229443026594,-0.0025008619860370125,-0.0025159193927879403,-0.0022676050164786785,-0.0018119352087779088,-0.0012174350433326825,-0.0005547574756107745,0.00010721596485892921,0.0007073855351643126,0.0012023565930169141,0.001573620587502383,0.001824527808454368,0.0019669953499791785,0.0020063096598006316,0.0019344976091326426,0.0017368326132021065,0.0014063333575252798,0.0009548105871342563,0.0004117126868043166,-0.0001872872550015012,-0.0008100516619432652,-0.0014247907621401446,-0.0019849165371068084,-0.0024166681104558062,-0.002626665905006329,-0.0025338362650775166,-0.0021110776411413647,-0.0014113494462422045,-0.0005596165635800721,0.00028781989671064945,0.00099575127162809,0.0014878829338016376,0.0017544995429950615,0.001832891419669682,0.0017770776622407609,0.0016347552038684227,0.0014400357890299986,0.001217935870714526,0.000989098173760029,0.0007655110542418728,0.0005382591964183655,0.0002689686045062008,-0.0001008996575601064,-0.0006178184910466667,-0.0012723458245774537,-0.001968789226833601,-0.0025341523457057457,-0.0027749394964195753,-0.002561838681985075,-0.0018994384278826827,-0.0009391257293818352,7.751398045236554e-05,0.0009171243032182638,0.0014430253506309474,0.0016499584675512846,0.0016345454126567116,0.0015263937719859695,0.0014215407088033843,0.0013508280563023936,0.0012898904046810104,0.00119267064524113,0.0010217448941603577,0.0007590006529158739,0.00039919099512285543,-5.826971123700398e-05,-0.000605655616673454,-0.0012109483899645742,-0.0018026474420742957,-0.0022723822652006296,-0.0025031792944573716,-0.0024140655071672873,-0.001997833094813128,-0.0013294660237228527,-0.0005395820983716997,0.00023163175309190214,0.0008753593640524942,0.001333649978532418,0.00159735988571966,0.0016927919182415274,0.001666641543479655,0.0015724125342595108,0.0014569586910490127,0.0013465038189721544,0.0012354726395864052,0.0010846168514423173,0.0008338406123005746,0.0004291530077240812,-0.0001449624190218655,-0.0008421265083035125,-0.001553210473020762,-0.002133312175840228,-0.0024485166014909664,-0.0024228667840868576,-0.0020641950314240825,-0.0014581799463150424,-0.0007364946872122932,-3.576413366408455e-05,0.0005366375316349992,0.0009220515317285031,0.001114860989033737,0.0011543419896804408,0.0011071114316005652,0.001043842997493816,0.0010154176308243014,0.0010349840697441118,0.0010720682087071189,0.0010621494895272534,0.0009305075777245317,0.000623844509993081,0.00013872062807808818,-0.0004654750576145167,-0.0010770041602243085,-0.001564054178858593,-0.0018167674902155274,-0.0017819680406975006,-0.0014769060096171652,-0.0009780743907054903,-0.00039197428904030277,0.00017851259386425576,0.0006583254098305134,0.001007301386485512,0.0012120799783878187,0.0012729458110338706,0.0011967043168991764,0.000998870866082982,0.0007080318927180172,0.00036230615610783603,-3.720169061374734e-06,-0.0003712737247853538,-0.0007358204266178277,-0.001089162886829028,-0.0013975281056730219,-0.001593707530949875,-0.0015933072691224092,-0.0013301154369663095,-0.0007940185214846408,-5.274236219609036e-05,0.0007548006085352293,0.00145480562063125,0.001894236567884278,0.001996186053430494,0.0017909205410759595,0.001403493612459597,0.000995808771743315,0.0006857929339845131,0.00048511116328773087,0.0002940045110469021,-3.66131603021064e-05,-0.0006054184886429355,-0.0013791147886529766,-0.0021787993821028714,-0.00274685715005084,-0.0028606688119752364,-0.0024331773142915497,-0.0015502121189433574,-0.0004316901514047021,0.00065713506650858,0.001499461160290278,0.0019875004134968415,0.0021334568090891582,0.0020369892190918904,0.001828541382210229,0.0016109750486608923,0.001418892274845135,0.001209150136351372,0.0008872162182382069,0.0003616281115953006,-0.0003943404836063433,-0.0013024839108161583,-0.002185399120712624,-0.0028237208548817306,-0.0030429687807413883,-0.0027875602838702248,-0.002141825985271817,-0.0012857393008617155,-0.0004108237504813622,0.0003552263889399455,0.0009743895248568186,0.0014677560261116885,0.0018585813050613247,0.0021329626946495553,0.002244442171222061,0.0021542132535112843,0.0018730634513934097,0.0014717185132276452,0.0010498490264880334,0.0006826929146325828,0.00037930260550954087,7.970403971248015e-05,-0.0003050656534605166,-0.0008318579430447372,-0.0014780732956112571,-0.002135218878423828,-0.002646755201509357,-0.0028688611760648297,-0.002722558872384453,-0.0022150522091387145,-0.0014283775869706962,-0.0004896304015314193,0.0004601523631252336,0.0012897448552742637,0.0018953547373148005,0.002216571167785477,0.002250457440785553,0.0020564662515291394,0.001742250192300248,0.001426545775327131,0.001188820231677204,0.0010286999369652915,0.0008605610956371726,0.000554144165437581,6.644667742545176e-06,-0.0007889887875278428,-0.0017166905137333513,-0.0025684001023597585,-0.00312081581713775,-0.0032209838345839447,-0.002840150926306478,-0.002073538410926031,-0.0010925619586056611,-7.817562115379798e-05,0.0008322419520597407,0.001565505831395946,0.002101355456068655,0.002444186471894063,0.0025968342521763984,0.0025507548934589736,0.002296865030519181,0.0018494528630953009,0.0012662144748668335,0.0006460031334021765,9.63578563475914e-05,-0.0003172189388304175,-0.0006104683928226244,-0.0008771986867947125,-0.0012343192679968094,-0.001739412171703259,-0.002329294568218649,-0.0028235147246693003,-0.0030016960673159825,-0.002717400059202473,-0.00198370109968492,-0.0009777451223390008,4.1329105383636384e-05,0.0008539682664922181,0.001370876385798264,0.0016442039143941666,0.0018017085855721884,0.0019513703360797031,0.002115065309754131,0.0022250223689136437,0.002176549175641742,0.0019003586874173266,0.0014117610444020997,0.0008104718047048708,0.0002325363239377529,-0.0002187993264421565,-0.0005251362154685408,-0.0007583703950872736,-0.0010347584940946556,-0.0014405166789284987,-0.001967632380294328,-0.002494722083526437,-0.002826635273411318,-0.0027777258066647827,-0.002260567391451592,-0.0013365976930713177,-0.00020222958449862664,0.0008842366968435691,0.0016997888999591968,0.0021317111260019794,0.002198065229583585,0.002011627910211976,0.0017133329758284139,0.0014110150705706483,0.0011483934829850779,0.0009089646168890564,0.0006437010855175145,0.0003062179141220427,-0.0001186796248293326,-0.0006024954662036515,-0.0010802074243836143,-0.0014729106542387368,-0.0017143920320546733,-0.0017688250947205594,-0.0016337869081130627,-0.0013325984639765023,-0.0009045087654840592,-0.00039819973825981137,0.00013174992201264317,0.0006288779402570272,0.0010417933229221093,0.0013335835857570943,0.0014903248241333999,0.001523690862345193,0.0014634771502516526,0.001340405714868443,0.0011666308509368489,0.000925971343822884,0.0005828723330751219,0.0001085868480111868,-0.0004883371188573763,-0.0011444761157387833,-0.0017481701981894844,-0.0021694656482659663,-0.002301399938536417,-0.0020963741404722135,-0.001584335853101083,-0.000866760032010688,-8.871470929743081e-05,0.0006017967855666751,0.001094414557814489,0.0013444483536939138,0.0013792190300794243,0.0012792241033829782,0.0011389560256069007,0.0010219727071966536,0.0009307994248498558,0.0008081911103145093,0.0005714910367335773,0.00016391611436472153,-0.00040319184177026353,-0.0010384856815160337,-0.0015947720676733803,-0.001918094676890969,-0.0019014337783064073,-0.0015233195983280982,-0.0008587576234664019,-5.908588301954578e-05,0.0006937153591800253,0.001244761736364224,0.0015164273586161566,0.00153031614136857,0.0013886623000893077,0.0012199629271124881,0.0011121561288438553,0.00106559746916566,0.0009909602601552122,0.0007563630245072679,0.0002633034326957425,-0.00048559278757161174,-0.001363401847696244,-0.002156790829694905,-0.00264970942462335,-0.002710954875805599,-0.0023402184673780675,-0.0016520025517942026,-0.0008140872925742517,1.9214272773586958e-05,0.000744346432593611,0.0013085675959962628,0.001690381281431508,0.0018839611106355198,0.0018979295754090956,0.0017609667559163376,0.0015195441549042095,0.001220976647090464,0.0008898807455287393,0.0005152485983658532,6.133933772460695e-05,-0.000498825848351394,-0.0011439725482476554,-0.0017827980504746886,-0.0022678513518793178,-0.0024457492753129457,-0.002223275086402114,-0.0016160671844140473,-0.0007522798705895504,0.00017296846791249338,0.0009694281246645509,0.0015138981247921513,0.001775542591470797,0.001799972298782938,0.0016691731048476693,0.001462228302230686,0.0012337399943970204,0.0010107085415512387,0.0007969334185373338,0.0005748364939254826,0.00030506419939073295,-6.661302493513965e-05,-0.0005866422447625596,-0.0012579969021304484,-0.002007716784880584,-0.002680364487444021,-0.0030733016329931788,-0.0030099188030453905,-0.00242253954656603,-0.001402549224767555,-0.00018433022642775314,0.0009385501098147524,0.0017286572027382728,0.0020948453694060697,0.0021114411681419807,0.0019579255150592003,0.0018134676991918156,0.001764594968955385,0.001775108594296877,0.0017298100524524502,0.0015197415929878177,0.0011136600705357069,0.0005730010819138609,6.639007161353381e-06,-0.0004995287914884779,-0.0009298775437365907,-0.001333306700244822,-0.0017700243043271573,-0.0022461984363456276,-0.0026792309658038587,-0.002918682074957909,-0.0028154500135097464,-0.002302765839831289,-0.0014436736185012148,-0.0004169003108907808,0.0005530513437773427,0.0012851584169875422,0.0017049255644774343,0.0018523886194980392,0.0018373097201586023,0.0017707340165919146,0.001711092852542043,0.001651103472835247,0.0015462499895834904,0.001360962895404125,0.0010994139168234004,0.0008002198125905257,0.000500645389537987,0.00019876102951861888,-0.00015444252978213426,-0.0006205042244826339,-0.001214768475122205,-0.0018627975736196707,-0.002406498574702468,-0.002664988958568382,-0.002519671612860053,-0.001975498660601726,-0.0011632360128110727,-0.0002824120711194416,0.0004815040008473713,0.0010209467745424677,0.0013230396456546277,0.001441927842363139,0.0014525627946674017,0.0014143981558363459,0.0013579873685199452,0.0012886636884735492,0.0011937619801853725,0.0010462462957261777,0.0008087832356194933,0.0004462093807094151,-5.267712478092355e-05,-0.000654006855104328,-0.0012730338146694554,-0.0017920726314619704,-0.0020975235031997614,-0.002119747085348286,-0.0018568566066052847,-0.0013717345329006534,-0.0007658127161450419,-0.0001442944367438738,0.00041113631524106284,0.0008538286498040414,0.0011696693711051,0.001367666188663522,0.0014694281610077007,0.001499220654406423,0.0014740843242999687,0.0013947670763421692,0.0012409307384664602,0.0009755215778296786,0.0005614831968980454,-1.1612728742062744e-05,-0.0007014932093017466,-0.0014037288360994977,-0.001971740599262382,-0.0022650818574975473,-0.0022065210376206483,-0.001818152199252713,-0.0012135894442779536,-0.0005460134426102869,6.153024282191531e-05,0.000563364755135142,0.0009866121276585257,0.0013781330488088798,0.001740394023321769,0.0020036316289278426,0.002057267070220647,0.0018207556109972299,0.0013043721332460403,0.0006163696698356089,-8.955198671655176e-05,-0.0006909968749294855,-0.0011467923036705217,-0.0014895682633884423,-0.0017709254943378417,-0.002000276735909889,-0.0021200823788227606,-0.0020338986305609777,-0.0016686961705674038,-0.001031597310460256,-0.0002253008611768442,0.0005880081709140213,0.0012536708471143519,0.0016844432514994759,0.001881276751405744,0.0019080087023333014,0.0018404788192253358,0.0017228951815165346,0.001554311173587203,0.0013047200559076744,0.0009420872026797862,0.00045156956427472176,-0.0001576208402828956,-0.0008496432405580941,-0.001556587651448347,-0.0021747319110855612,-0.0025761848143909033,-0.002644823852128298,-0.002327574584946542,-0.0016740835224174154,-0.0008353182879885241,-1.085197072158827e-05,0.0006338433393313033,0.0010357075385619972,0.0012475421462194761,0.0013879617819802757,0.0015587133377375254,0.0017799087495016064,0.001980063136781011,0.002041489623577937,0.0018682073238492133,0.001434327868117466,0.0007889895350812691,2.4349245629475425e-05,-0.0007653886671199674,-0.001506426636813476,-0.002140987855451982,-0.002609802681253208,-0.002844088442568252,-0.002780296947237874,-0.0023913876111228876,-0.001713446194404139,-0.0008472805001383081,6.918096442239813e-05,0.0009025227341755231,0.0015567707616439023,0.0019842043622887665,0.0021778759118655923,0.0021599670711875373,0.001975911072156233,0.0016913287339516635,0.0013807407574205819,0.0011024362236844768,0.0008686637951492572,0.0006313544363138728,0.00030036135915194676,-0.00020619226026823015,-0.0009014803085604214,-0.001693631661687131,-0.002400467718695724,-0.0028164581150937474,-0.0028019155436021263,-0.0023477637490488144,-0.0015799081443668493,-0.0007007669442772889,9.904539211727135e-05,0.000711409960677199,0.0011304731925904448,0.0014191090635614638,0.0016474424686972735,0.0018399580972894062,0.0019596390452062823,0.001935357740326782,0.0017130943819567003,0.0012968514612381856,0.0007520648101556687,0.00017022142863414946,-0.0003790640291938312,-0.0008733935951306671,-0.0013223972144802774,-0.0017252251835531492,-0.0020359103290595484,-0.0021671755569748997,-0.0020344684773394763,-0.0016110678613865635,-0.000956601818223139,-0.0002010497933557507,0.0005035848169431566,0.0010351885545831208,0.0013336790207468699,0.0014066136739472978,0.0013141994405749602,0.0011429499799601806,0.0009755907095559588,0.0008638800155399846,0.0008117349394945299,0.0007753898655829925,0.0006826249965466184,0.00046538369201666087,9.334640167748013e-05,-0.00040598798754176257,-0.0009507032488601218,-0.0014310192990968208,-0.0017467031677337182,-0.001836990687903691,-0.0016900737096833857,-0.0013331978987389847,-0.0008163448017587281,-0.00020264845610181727,0.00043252004018519245,0.0010036479788281996,0.0014289258326045725,0.0016547520251169582,0.0016763360544096958,0.0015374031519199546,0.0013042360340337236,0.0010274900262036229,0.0007155780691658158,0.0003378363044774209,-0.00014258066489889636,-0.0007253779218556406,-0.00134677422352848,-0.0018889183932756237,-0.0022227741206538674,-0.0022613216552838573,-0.001993332868138512,-0.0014807403383256998,-0.0008258535450198958,-0.00013174874663649883,0.0005215097209271581,0.001078377205628505,0.001498457121455628,0.001752789367682054,0.0018320713545955333,0.0017581516818669111,0.0015843297983523207,0.0013775195116599364,0.001188645999617695,0.001026323872341535,0.0008483708140078431,0.0005780510819072585,0.00014131028438215266,-0.0004887235267386385,-0.0012597033078708283,-0.00203860785431281,-0.0026475381776784692,-0.0029252380835284144,-0.0027876600728227547,-0.002259456990970711,-0.0014626993009177894,-0.0005703844292503178,0.00025247317824593116,0.0008955281597107434,0.0013226119896479018,0.0015626261389212006,0.0016804910684999536,0.0017412304861583038,0.0017806853976800254,0.0017937780442746974,0.001744229220362869,0.001588653147396563,0.0012995270481551227,0.0008737910405907331,0.0003267707348049208,-0.0003161228367072343,-0.0010171172775585299,-0.0017137525675621867,-0.002311751581444705,-0.00269940164432997,-0.0027841177536764997,-0.002532565679889008,-0.0019899126971394884,-0.0012662545616153092,-0.0004979872926908129,0.00019616592953986543,0.000746254958019171,0.0011405629808176568,0.0014138331080795633,0.0016203135721012554,0.0018014772021703817,0.0019613585936324664,0.002062054225446961,0.002044239538386052,0.0018634631262518147,0.0015204966377315,0.0010640095336686881,0.0005606279893285745,5.1798911622904695e-05,-0.00046976478585731787,-0.0010419599194318354,-0.0016809841217842758,-0.0023299109440255783,-0.002847943690025694,-0.003057208466994939,-0.002827865819720318,-0.002156189941435431,-0.0011901578475083802,-0.00018286427742937464,0.0006086384222736616,0.0010320504487770633,0.0011024105829232139,0.000985338417564767,0.0009066966883032137,0.0010331012121882741,0.0013850987175996266,0.0018291338425626801,0.0021517789101899525,0.002173703099502081,0.0018392775641786598,0.0012338084184010845,0.0005238564042396587,-0.00013933936973242565,-0.0006935065222149052,-0.0011725900191332196,-0.0016472356397837493,-0.0021413263299681342,-0.0025823805146953983,-0.0028203910682082257,-0.002704685930703271,-0.0021721511657654233,-0.0012948006646143514,-0.00026027946016768985,0.0007029508867908248,0.0014157962735493817,0.00180935590099817,0.001929985129181756,0.0018923782006486822,0.0018104435636558428,0.001743941973651531,0.0016854536092574999,0.0015863170258568074,0.001398407391105375,0.0011039131472188562,0.0007181767805621707,0.0002704529838357219,-0.00021896038449024946,-0.0007463842725382745,-0.0013100606570742503,-0.0018825380590542441,-0.0023911432292145723,-0.002725753901021106,-0.002777067058755796,-0.0024875630770307263,-0.0018859744008420548,-0.001083647429740693,-0.00023369095911151346,0.0005242425503648844,0.0011043935989834739,0.001483864765755316,0.0016843327661383118,0.0017450600157981975,0.0017050424810912865,0.0015995662957474217,0.001463274894465528,0.0013279870366416048,0.0012103995184018419,0.0010959365153619205,0.0009319339977937836,0.0006412236063105526,0.00015671105427378417,-0.0005357251761769323,-0.0013669885195615077,-0.0021857776062444113,-0.0027966117409493263,-0.003023553348119013,-0.0027755294980214102,-0.0020865002781348726,-0.001112023241892831,-7.988256798225311e-05,0.0007887492626156315,0.0013562931078487496,0.0016094868564558963,0.0016437249916028737,0.0015991088393242018,0.0015832098123951125,0.0016225456445079424,0.0016654709580355472,0.0016266875730315462,0.0014406487999095892,0.001091960661955459,0.0006112404735161527,4.824160548506825e-05,-0.0005543756411191549,-0.0011679166496120913,-0.0017625040627112657,-0.002284716714300003,-0.0026504185623895905,-0.0027660840316368267,-0.0025707179787365746,-0.0020726435629026905,-0.0013557151884156572,-0.0005486792041772165,0.00022481443160796643,0.0008867431148770911,0.0014147806673545974,0.0018209335275971795,0.002116628780625642,0.002288821143295566,0.0023028636206039784,0.002129110008255261,0.0017733924636777038,0.0012880571961897604,0.0007530347141143242,0.0002372436554533209,-0.00023443924643183888,-0.00068486632226705,-0.0011532681763774604,-0.0016469896333636597,-0.0021081793780990486,-0.00242063464849012,-0.0024579443664483956,-0.002147925889609459,-0.0015173181283448353,-0.0006915784774784221,0.00015041580787165823,0.0008435932138660637,0.0012933464158282964,0.0014967971850857135,0.0015227776449212734,0.0014649022281552032,0.0013938122926258258,0.0013317644584194637,0.0012570140084044448,0.0011275049040266557,0.0009057076763116751,0.0005727707866444302,0.0001322867901091861,-0.00038964611632205616,-0.0009445683736607536,-0.0014649230061830943,-0.0018745146408251628,-0.0021048582862493817,-0.0021107443762392914,-0.0018791289551826056,-0.001430964874220001,-0.0008191474463957363,-0.000123830255864597,0.000557449020881495,0.0011273373351916962,0.0015115343915373149,0.0016791589920009391,0.0016513298903342228,0.001492073124820687,0.0012823680416840428,0.0010857602735517252,0.000919437389592043,0.0007448316235516409,0.0004854212243363162,6.821302791024781e-05,-0.0005265563063419106,-0.001230560875137796,-0.001888739132005658,-0.0023049047450529746,-0.0023180991403749787,-0.0018765156282864112,-0.0010709752775181682,-0.0001069150683513811,0.0007741305995637735,0.0013848531969822635,0.0016507811615933377,0.0016143558642542984,0.0013922118027497356,0.0011135594357095948,0.0008683970425561237,0.0006818656463909381,0.0005172766103863995,0.0003020633345074161,-3.275567385583743e-05,-0.0005119354510014539,-0.0010894809831144474,-0.0016505194293903543,-0.00204639255661939,-0.0021515213546868597,-0.001916546966884498,-0.0013907406418680168,-0.000701061774300057,1.6749745984385306e-06,0.0006013106822388429,0.001050216070446167,0.001364795628709158,0.0015904229605788254,0.0017586035510176526,0.0018610416685438834,0.0018541769437787252,0.0016890631383609251,0.001345577133546324,0.0008480639917672159,0.00025411604755172046,-0.0003716917155739346,-0.0009776153077542655,-0.0015244835777709525,-0.0019699524608027194,-0.002255685757386028,-0.002314575038252152,-0.002099364706614116,-0.0016156152345471104,-0.0009354456591505872,-0.00017984538075369158,0.0005220406593533948,0.0010744617856128457,0.0014375687677904033,0.0016245989777487636,0.0016803929499468772,0.0016531800342477108,0.0015707538890404387,0.00142925448625763,0.0011987906434705441,0.0008441475538639284,0.0003517029914014261,-0.00025082649254651914,-0.0008930187845115054,-0.0014807207115370541,-0.0019259620123856075,-0.002172350952712984,-0.002203970941689434,-0.0020364205352309457,-0.001699234754104923,-0.0012227076588440296,-0.0006370379078360555,1.8539673869931786e-05,0.0006871728507079862,0.001296945679642235,0.001776676645350921,0.0020764649098189,0.002180478329603044,0.0021056081479874067,0.0018902104754908193,0.0015821704296459511,0.0012308311673240614,0.0008792748412650026,0.0005519957271233694,0.00024086769166857536,-9.840130341342082e-05,-0.0005274567381197454,-0.0010855359254929395,-0.001747803464648514,-0.0024086694753696217,-0.0029069399203846174,-0.003086510172668354,-0.0028643339956859466,-0.0022705684016800067,-0.0014390641033570982,-0.000552586488243977,0.00022897063944354352,0.000821588029225128,0.001228125617214131,0.0015083810896587453,0.0017305311486445092,0.0019324324528175263,0.002109860916858596,0.002229202690446839,0.0022491243893111913,0.002137136748321818,0.0018770541603933882,0.0014705192822952625,0.0009354366052364664,0.00030155057940573415,-0.0003956776136486819,-0.0011184755551763292,-0.0018229419411513906,-0.0024491763287352412,-0.00291437036891981,-0.0031208069889109773,-0.0029840445982771435,-0.002472886807887492,-0.0016411497415653674,-0.0006304355433179094,0.0003650775446715558,0.0011618696814893383,0.0016514876570021407,0.0018340418485299713,0.0018012088539544483,0.0016762404705295772,0.0015451654919838708,0.0014203670929167414,0.0012569661572342686,0.0010067119914834153,0.0006688146292141211,0.00030052016570558063,-2.038883459694156e-05,-0.00025403788033603316,-0.0004341250232836349,-0.0006508724313226632,-0.0009873052307229177,-0.001448702799295206,-0.0019325352902464852,-0.0022615401968560244,-0.002263394764600949,-0.0018537069075570392,-0.001080102509126455,-0.00010861438453141576,0.0008377692789611688,0.0015591307150265008,0.0019434588010792003,0.0019918881061958106,0.0017982740152037628,0.0014967854440412485,0.0012037571263097053,0.000979439608018702,0.0008219541917179262,0.0006875713223868552,0.0005198362120211882,0.0002720843100719199,-8.035232571805247e-05,-0.0005325422012407511,-0.0010429730044564153,-0.001532460868435536,-0.0018988723980052895,-0.002049933638485335,-0.001941336641318324,-0.0015980406698557284,-0.0011030505883069754,-0.0005580351108865214,-4.0042310541425156e-05,0.0004178596235876698,0.0008118144660345418,0.0011344638474191872,0.0013546568509969702,0.0014296279718551265,0.0013418064125342941,0.0011287534024803092,0.000875658850172155,0.0006675427411681192,0.0005323735758991351,0.00041840953764006616,0.0002271738661394451,-0.00011645946894533847,-0.000602858778770676,-0.0011254172985829035,-0.0015256802861371114,-0.0016684503622469726,-0.0015039685061376087,-0.001085669078481315,-0.0005394019770065156,-5.136365483412184e-06,0.00041778772452156674,0.0006975730289055071,0.0008617355868850886,0.0009639948919494096,0.0010465275271256194,0.001116630739518354,0.0011466985103247207,0.0010934478822556357,0.0009230528753487277,0.0006275562988963261,0.0002251625485326066,-0.00025145731708846797,-0.0007665207111886548,-0.0012813246960430085,-0.001743472900399125,-0.0020778212472364866,-0.0021948758939048262,-0.002021262883662411,-0.001538766986458856,-0.0008079592551256983,4.0908201418211356e-05,0.0008479296048910848,0.00147543233478588,0.0018483068371313261,0.001967825381503469,0.0018973300388690762,0.0017285114076945238,0.0015414350539447068,0.001371646236550102,0.0011959635202150663,0.0009445585536454063,0.0005382224315378649,-6.30347636221217e-05,-0.0008237375272879854,-0.00163043443079125,-0.002327471424048048,-0.002773355471260279,-0.0028875958176695538,-0.0026649469249479378,-0.002156116093764504,-0.0014352366269802582,-0.0005791781740220498,0.0003307982898668343,0.0011963566226786833,0.0019012624189970592,0.0023371985323605827,0.0024488140505305846,0.0022705965675256586,0.0019255760786706152,0.0015747220683401417,0.0013361836696500272,0.0012167919545910035,0.0010984360059076495,0.0007958075042799771,0.00016252274788489812,-0.0008079615483811826,-0.0019433036750170676,-0.00294318146013314,-0.003501308252498431,-0.0034395885289400245,-0.002785976099414141,-0.0017563911941160353,-0.0006525139673511529,0.00026860092335530343,0.0008856854036985221,0.001224344060270543,0.0013948960611116748,0.0015038400418514379,0.0015944825472045227,0.001645919091013772,0.0016175491453938123,0.0014977064603609183,0.0013179263543076087,0.0011241291724844178,0.000929852437154768,0.000690529338528982,0.00032282653465961954,-0.00023900097454256444,-0.000983994938696649,-0.0018001104158351685,-0.0025018955599126237,-0.002898138322373545,-0.0028663355414916634,-0.0023988587163090314,-0.0016019451378257127,-0.0006524911252691938,0.0002645243148247224,0.0010111755147740851,0.001525598657643427,0.0018191180082841039,0.0019475845192095022,0.0019715443839065645,0.0019236698696334339,0.0017986163243286992,0.0015692195684801338,0.001217840978269095,0.0007614824907531449,0.0002521940672204856,-0.0002490094870645067,-0.000705961821093462,-0.0011214742788441794,-0.0015170692680799081,-0.0018906932840461988,-0.00218559010901247,-0.0022997503308914615,-0.00213728548531795,-0.0016709496532688166,-0.0009736083761373494,-0.0001952856054337979,0.0005017920987050625,0.0010107289005106882,0.001311137152999789,0.001451336754739747,0.0015010131328251819,0.0015085681760689234,0.0014864318792270274,0.0014225707835510935,0.0012984727095650065,0.00109595659994444,0.0007925727335655218,0.0003611532710925486,-0.00021176298874873363,-0.0008923188399734786,-0.001575301599938437,-0.002098012853736242,-0.0022982883111564516,-0.0020893510731901125,-0.001506689948756328,-0.0006975046846458483,0.00013953180708908418,0.0008272872676808675,0.001259288641080557,0.0014121128479373604,0.0013314578274592791,0.0011074007865711733,0.0008450623974521649,0.0006298995617019755,0.0004925246508623067,0.00039015812412467065,0.00022452796547919396,-0.00010070904396603311,-0.0006085263169551148,-0.00120702386392387,-0.0017110959370786115,-0.0019229041819257514,-0.0017279787135073834,-0.0011528130771397348,-0.00035428744719026486,0.0004483123217224566,0.001059779030230795,0.001373670220148454,0.0013937880563241135,0.001213441362902354,0.0009672646773729058,0.0007744082405948388,0.000691260643856842,0.0006896700245160567,0.0006709726213506746,0.000513922329743783,0.00013821791384907816,-0.0004457326697295716,-0.0011263816412500223,-0.001726812944690133,-0.0020706115636523496,-0.0020477369891683654,-0.0016521541819748912,-0.0009781020083705076,-0.00018124842508536728,0.0005753145212658809,0.0011678137005280847,0.0015365530613624602,0.001685674537441239,0.0016637025495788338,0.0015336456242257177,0.0013414321381883876,0.001092725884894113,0.0007499113321310267,0.0002570634451553611,-0.00041277352167735936,-0.0012108003060336539,-0.001996559469672811,-0.002571663335549906,-0.0027544084494850797,-0.0024596618238433587,-0.0017411240479856139,-0.0007723975421732928,0.00022252191855234415,0.0010520734985481667,0.0016131217644673043,0.0018998154873745641,0.001972581080230961,0.0019124036278282525,0.0017850618612312607,0.0016254899586273337,0.0014370836752023428,0.001195930080665169,0.0008565702610926713,0.00036500118493031227,-0.0003143658413549345,-0.0011614517351633536,-0.0020714752856212113,-0.002859096537542241,-0.003309084687732489,-0.0032598078316661244,-0.002679894049488468,-0.001693916198398768,-0.0005376662048588753,0.0005361225373763241,0.0013515820673901803,0.0018550131268830507,0.0020952000296828545,0.002161627827163853,0.002124559890509252,0.0020113092654499534,0.0018222835241371972,0.0015623035228136462,0.0012568990742146242,0.0009406645860260892,0.0006290341458111532,0.00029755821891413884,-0.00011273493593145074,-0.0006622585270138966,-0.001367206784078803,-0.0021649673533399357,-0.002911647673103126,-0.003419524304349241,-0.003522644045087387,-0.0031423664418852746,-0.0023222238863663813,-0.0012162423763829272,-3.763669501396675e-05,0.0010086984784029105,0.0017835956367075224,0.0022423077674360433,0.0024275513312115495,0.0024322227170617584,0.0023486740706298976,0.002228206039131148,0.0020700435600305945,0.00184245985860795,0.0015192620166323524,0.0011063470752783015,0.000641717621659406,0.0001714840436033801,-0.00027969449785069896,-0.0007224902757669636,-0.0011903296588279336,-0.0017057119297581547,-0.002243808387871668,-0.002715932968634603,-0.002988364188986182,-0.0029346332627043516,-0.0024987676176738667,-0.0017354531532701627,-0.0008009021897280185,0.00010602612408804757,0.0008240827889751537,0.00128953458408695,0.0015447712963503003,0.0016931274913204138,0.0018273561759905525,0.0019735780046718785,0.002081881011512851,0.0020644133123479875,0.001852076072965011,0.0014330476317230309,0.0008542272495080298,0.00019380219234417956,-0.0004712184633071686,-0.0010822927509973835,-0.0015966963199025724,-0.0019745935192102162,-0.0021705111031236576,-0.0021389123184368296,-0.0018534837034083031,-0.0013306205934195713,-0.0006433156361166394,8.641941553561797e-05,0.0007201738925181223,0.0011512499619678327,0.001346355357259014,0.0013563575846359224,0.001284644067436724,0.0012259461787296564,0.001209194880693219,0.0011793387212074339,0.0010311785175769366,0.0006762089575474486,0.00010277720451677482,-0.0006054216480892414,-0.001301328604527012,-0.0018362755950578763,-0.0021162850447475727,-0.0021248034061132344,-0.001905684235925291,-0.0015233377192578144,-0.001028324418337477,-0.0004496984197002818,0.00018563131717032875,0.0008266629411724412,0.0013900124695428865,0.0017805133419580262,0.0019305529930946914,0.0018346850977653947,0.0015578834482829706,0.0012099658688279186,0.0008966744464942895,0.0006707243945827897,0.0005078937666114706,0.00032247615029192857,1.6942284200636753e-05,-0.000458465574202299,-0.001067887763303422,-0.0016946740219543547,-0.002185823641144203,-0.0024107453500064498,-0.0023035093381125237,-0.0018722485627522796,-0.0011821882429173909,-0.0003321961898538914,0.0005603819420786261,0.0013682664640179342,0.0019686346701118466,0.0022703533706791013,0.002245142701357513,0.001943451001966681,0.0014808924428954702,0.0009967555376159281,0.0006005519819819744,0.000328803178138034,0.0001318979354402605,-9.916646025997429e-05,-0.0004731711637267714,-0.0010316583325671457,-0.0017092011962782246,-0.0023460783570155696,-0.002751656971154659,-0.002787691915453098,-0.002428243866990933,-0.0017657954316052532,-0.0009633816497160002,-0.00018120256757228994,0.0004833371302063199,0.0010147484095729973,0.0014545409171144476,0.0018516096257031537,0.0022175451446592347,0.0025112856667190465,0.0026601993047821776,0.002603660867002632,0.0023318474496014097,0.0018956736570374727,0.0013824667488688146,0.0008735929879946538,0.0004096628157522239,-1.9083796123030273e-05,-0.00045680613152332405,-0.000953064714293503,-0.0015350402828151668,-0.0021889633504920034,-0.0028528224306891715,-0.003421455546452194,-0.003766465854019419,-0.0037709671921307554,-0.0033709269213505594,-0.0025863824015877586,-0.0015255752774212567,-0.0003561039238554225,0.0007462897351224855,0.0016488650088363507,0.0022907236971206443,0.002679384918563542,0.002862158163584567,0.0028908491017351863,0.0027980465204483556,0.0025934918892501187,0.0022777283329507856,0.0018633375704984112,0.0013915971931734604,0.0009323669798885617,0.0005596497075741344,0.00030864813742064855,0.00013825581765459775,-6.92970821717134e-05,-0.00045595663416688967,-0.0011019956644488173,-0.0019562720102744508,-0.0028310486753783176,-0.0034732775167672435,-0.003675891431102123,-0.00336719966431421,-0.0026317012984572448,-0.001658720988848648,-0.0006551880080115861,0.0002285241781660606,0.0009275822337859595,0.0014447559500503407,0.0018084288708832609,0.0020366948706854915,0.002127109711063828,0.002071844741720028,0.0018814713533342109,0.0015968882747815732,0.0012788453471498293,0.0009804653527347702,0.0007198021227421777,0.00047031232270723834,0.00017725814173148507,-0.00020681242844494446,-0.0006859479345662938,-0.0012040933469666677,-0.001658426687291052,-0.0019380916086056215,-0.0019705070254264247,-0.0017525740750759231,-0.0013503524722353263,-0.0008666615488258391,-0.0003942446813779851,1.8907700798786705e-05,0.00037339870185929073,0.000693183805058646,0.0009914241406440546,0.0012510637072579804,0.001431194610008136,0.0014919838402027944,0.0014193344243879382,0.0012317855884475006,0.0009646437513356428,0.0006425628333853732,0.0002619343777498903,-0.0001994294989141913,-0.0007461169604718917,-0.0013254732496792473,-0.0018169230334574085,-0.0020684995714884413,-0.001967569264688484,-0.0015061463604781869,-0.0007996360005907025,-4.370196919289776e-05,0.0005698424575078338,0.0009336788538150344,0.0010602832564129234,0.0010558100337340396,0.0010498536977019196,0.0011204268855136508,0.001252795515749184,0.0013497761345198274,0.00128372418415541,0.0009621240074443123,0.0003762710782987108,-0.00038688062044550897,-0.0011728015410288413,-0.0018138306388302907,-0.0021859142521338942,-0.002243863258751064,-0.0020224079021469916,-0.0016065381775620378,-0.0010881356370250612,-0.000530820316791284,4.0725643454294134e-05,0.0006244453842392219,0.0012101747078851327,0.001755051096394322,0.0021816784450878583,0.002402165353186326,0.0023559454846306094,0.0020405685771323545,0.0015172283004980464,0.000886163971588584,0.00024449276035169503,-0.00035004340747230933,-0.0008889864141907663,-0.0013918825584553,-0.0018676093797979807,-0.002282684996352636,-0.00255727489564664,-0.00259384079372167,-0.002324673821549443,-0.001753282613412296,-0.0009662781901887593,-0.00010624257656551657,0.0006833936668980938,0.001312837876348883,0.0017683291265959008,0.002088967558264419,0.002314533563455537,0.0024417013234266072,0.0024203609542773202,0.0021920265837684864,0.0017405653296680094,0.0011161890955255,0.0004141976462605557,-0.00027542957415082275,-0.0009095935302803878,-0.0014942337155452302,-0.0020467745701248847,-0.002547848899116601,-0.0029184537600365442,-0.0030410062466350546,-0.002814812002965721,-0.002216125837207867,-0.0013296900825171736,-0.00033183367193913185,0.0005716020295068067,0.001225739449471578,0.0015861614233513841,0.0017251753728582142,0.0017794403312230735,0.0018671619739516205,0.002022339253895837,0.002183445583690085,0.0022390661313408987,0.0020970524992354788,0.001731980164057794,0.0011851538155484285,0.0005262881952170298,-0.00018901689550606825,-0.0009331199494263627,-0.001683523921655109,-0.0023855407729676615,-0.0029358620421667085,-0.0032084068213291575,-0.0031117806373885427,-0.0026414325268959067,-0.001889957913519821,-0.0010069905963523466,-0.0001349185984158307,0.0006382867443716035,0.0012831332287752879,0.0017959342932362897,0.0021603425653740475,0.002334467324346776,0.0022737471227374014,0.001973130072220518,0.0014974458607394663,0.0009744950970063409,0.000547335343437584,0.0003074834043386245,0.0002447617912074596,0.00024395140920948472,0.00013545405330715396,-0.00022118022881627416,-0.0008602659406575469,-0.001677390957062689,-0.00245897383939826,-0.002962882306999111,-0.0030144185106168063,-0.0025736791790890953,-0.0017443847306327454,-0.0007245504273116614,0.000271842306185322,0.0010830842337292835,0.0016316676228065896,0.001917947792009818,0.0019922528449237272,0.0019251864698780496,0.0017861915356682293,0.00162971851640003,0.0014856639911552112,0.0013546858369260163,0.0012113597356706485,0.001014835131608337,0.00072226390456572,0.0003009181096288831,-0.0002604719644042023,-0.0009389050658316846,-0.0016654607904203849,-0.002324573309456568,-0.0027749755650703406,-0.00289362049308874,-0.002628038001015798,-0.0020305787819130013,-0.0012500632900487034,-0.00047577391317628966,0.00014287443641899423,0.0005583543939355112,0.0008320892506783505,0.0010809488111584338,0.0013942585402940823,0.0017703714187469756,0.0021099337368743927,0.0022693736649989954,0.002142941523517139,0.0017247855027682764,0.0011140581101438572,0.0004604234621739178,-0.00011530660446548409,-0.0005744852366105654,-0.0009544517324547807,-0.0013104288611075466,-0.0016493793852428358,-0.0019048645555015738,-0.001971814028881105,-0.0017768072096505361,-0.0013344741219571648,-0.0007509559435277795,-0.0001720066346855566,0.00029026255796006986,0.0006059548885206816,0.0008235353967094993,0.0010202839642315517,0.0012412316965697795,0.0014645071407098373,0.0016110502908406668,0.0015882738318974867,0.001339344259940616,0.0008714501724760721,0.00025269980434423185,-0.0004144972944226457,-0.0010260790148476414,-0.0014995696534072156,-0.001782184122157446,-0.0018481128420914025,-0.0016937802525544496,-0.0013374505675772157,-0.0008231703808927191,-0.00022322840789806234,0.0003684748489195842,0.0008563060555073045,0.001172355804878941,0.0013027851051401178,0.0012941625772921036,0.0012295201756293789,0.0011809862406009855,0.0011634654121759796,0.0011181795197004896,0.0009400580943833883,0.0005372130452729852,-0.00010907322095971385,-0.0009165458980447553,-0.0017217523140191544,-0.002338254606424379,-0.0026256811454289865,-0.0025377736136238944,-0.0021285788514336552,-0.0015168065752145382,-0.0008291075151413006,-0.00015278597849690666,0.0004785989086823082,0.0010638599521783228,0.0015964995419482245,0.0020399863028405544,0.002334762360925588,0.0024312176916803565,0.002322422047140011,0.0020502056343996065,0.001678292128614623,0.0012507565448158986,0.0007653328936753256,0.00018228786648375513,-0.0005330251178749414,-0.0013584112776874632,-0.0021870087358029635,-0.0028450934888938823,-0.0031520437724626327,-0.002995042577360915,-0.002382091798399756,-0.0014473356932654497,-0.0004060586454122249,0.0005200201342551293,0.0011748784726730605,0.0015090787539836928,0.0015757723685322148,0.0014877386624301864,0.0013579359555918728,0.0012521452488987628,0.0011739205281607245,0.001083245425767178,0.0009321559077218335,0.0006939033423996989,0.00037024916960072627,-2.1658611475973942e-05,-0.00046694002980578013,-0.0009571931060001135,-0.0014752546446953486,-0.0019719359272634784,-0.0023558134078469706,-0.0025110422092198812,-0.0023398997156127387,-0.0018092408332561782,-0.0009756423174638693,2.4778790631656213e-05,0.001017399636543318,0.0018422287933586535,0.002396845527787617,0.0026535957032272606,0.002648033625371694,0.002448178582132207,0.002121422119957523,0.0017145491926301097,0.0012530040378618667,0.0007535123031302876,0.00023684658301854076,-0.0002703578082871444,-0.0007457292410003721,-0.0011832529930780144,-0.0015938102328296201,-0.0019882371598900963,-0.002351249418282667,-0.002624841286551449,-0.00271712360065158,-0.002537778844006581,-0.0020444720390358152,-0.0012764781460828266,-0.0003563645301734643,0.0005452988550701281,0.0012696500302682248,0.0017273555343153254,0.0019259539121012194,0.0019514068918384093,0.0019125685089570188,0.001878692554340235,0.001844908706401705,0.0017442697115693786,0.0014967801539165168,0.0010637065181220969,0.0004741850647703423,-0.0001885452241558609,-0.0008267857638211258,-0.0013650866726401655,-0.0017628997421426725,-0.0020032615209302725,-0.0020746177139215694,-0.001964084925518587,-0.0016677360205839176,-0.001208161659362744,-0.0006429626708656207,-5.421800719517114e-05,0.0004769260477709639,0.0008956255341623733,0.0011844313968389431,0.0013564973347570466,0.0014385306183730085,0.0014545025534411621,0.0014162508592625094,0.001320610015629962,0.0011508138604865558,0.0008822823338734776,0.0004942572979400378,-1.4210576402132798e-05,-0.0006102019820031965,-0.0012227259148918528,-0.0017530720813722163,-0.002098587466830998,-0.0021830335228189583,-0.0019824675334210624,-0.001534800013096782,-0.0009266219754260275,-0.00026229952225297927,0.00036880691604190363,0.0009098099412302994,0.0013322896042722665,0.0016202023461731644,0.0017584541724025827,0.0017361544388516878,0.001560140523297939,0.0012645126683341825,0.0009039522178248882,0.0005304166653237101,0.00016624411806072338,-0.00020692780833022045,-0.0006299628530692606,-0.0011227507603498571,-0.0016397916435857058,-0.002057750045959517,-0.002213908910675158,-0.001983042544495911,-0.0013523475609791577,-0.00045023114693052986,0.0004917976555688116,0.001229123470051405,0.0016033442062065061,0.0016027045274318312,0.0013538401872881622,0.001048814590921994,0.0008443941549804519,0.0007854216225207998,0.0007917451392312474,0.0007138597454883438,0.0004250080111640915,-0.00010137184116909185,-0.000769539742368336,-0.0014029893993039012,-0.0018236002282152153,-0.0019254442881300713,-0.0017080670847258287,-0.001259396438369902,-0.0007054399507361367,-0.00015758582867471318,0.00031713192084929353,0.0006957975660634385,0.0009804625008034053,0.0011779959666011832,0.0012906099304766112,0.0013164639930664597,0.0012519117803689178,0.0010896605957380237,0.0008168802546446887,0.00042297567196514316,-8.012991393811309e-05,-0.0006373408939036228,-0.0011493970611341582,-0.0015014007436417996,-0.0016084601180558376,-0.0014506175060847591,-0.0010750673152788862,-0.0005669971032820636,-1.213164025527986e-05,0.0005235631352975037,0.0009896916493744505,0.0013376891684385634,0.0015191642715947915,0.001503541350681176,0.001300549353104375,0.0009646350567938902,0.0005710017210978991,0.00017579754956920335,-0.0002123341246276005,-0.0006265806869462429,-0.0011008589442297943,-0.001617583303079509,-0.0020811296388979217,-0.002341836194772553,-0.0022635295079173733,-0.0017969793500261367,-0.0010152339759353767,-8.989304156119711e-05,0.0007770243478122808,0.0014277899661482743,0.0017944679678664139,0.0019003572783515552,0.001826306500765961,0.0016646920890647978,0.001483617879168485,0.0013126761951182037,0.0011473616730452094,0.0009610756104311445,0.0007158809690528051,0.0003716025188186539,-0.00010143419637350976,-0.0007034912554987958,-0.001386651642928745,-0.0020492469931225254,-0.0025540804382170245,-0.0027693149642022243,-0.00261684239197346,-0.002105605102974155,-0.001332206150378855,-0.00044688810187970237,0.0003988482543348694,0.001097513053827215,0.0016042836062125532,0.0019259934158438342,0.002092781903233222,0.002130602310386017,0.0020486987052449964,0.0018462541894077515,0.0015309341364708987,0.0011336239785066158,0.0007043257543543897,0.00028704650973761323,-0.00010992353997796886,-0.0005226689792738388,-0.0010047457934625275,-0.0015766051710791801,-0.002184671720850025,-0.0027014720804714966,-0.002972723907749684,-0.002886723947042604,-0.0024273756108662125,-0.0016829437283303469,-0.0008085579754848198,3.5992362762965057e-05,0.0007425913808501686,0.001281060787432124,0.001686977556787699,0.0020206029101716995,0.0023193984720137535,0.0025686023658912835,0.0027042210644509174,0.0026459263636439676,0.002342492593878582,0.0018064474248704857,0.0011196188030871406,0.0004048407193783864,-0.00022428514988105316,-0.000711453068119142,-0.0010784267572233408,-0.0014054796553762236,-0.0017783635252089033,-0.0022268394807060726,-0.002687238643364763,-0.0030133090612049335,-0.0030371253401885487,-0.0026541366174954394,-0.0018885007797651775,-0.0008999873384065097,7.70285807562686e-05,0.0008339009035047634,0.0012750508894965255,0.0014459891446011327,0.0014887397478717094,0.0015521414193437953,0.001708697185557824,0.001922968445711091,0.00208401802997199,0.002077064963965074,0.0018496173644427035,0.0014345506525827439,0.0009204452117092124,0.0003914794887332233,-0.00012241131513538762,-0.000650439399342776,-0.0012347853269309341,-0.0018623789331198427,-0.0024233003466395983,-0.002733429362043212,-0.0026204581084384297,-0.0020284794714960216,-0.0010764063625058556,-2.6742511175525823e-05,0.0008260261280214953,0.001287506783272625,0.0013421415739861735,0.0011375838471478846,0.0008904538155336391,0.0007718493299495687,0.0008340866231684512,0.0010076099196479813,0.0011549128568620103,0.0011432654643878436,0.0008997728473273815,0.00043165639768805956,-0.00018518445457208865,-0.0008361179146309998,-0.0014025178570082255,-0.0017908619898461676,-0.0019494412257849369,-0.0018704584989605666,-0.0015808089394333423,-0.0011288452516110099,-0.0005740673873596259,1.7982256747193755e-05,0.000578749804706442,0.0010427991454389396,0.0013594983771279346,0.0015072144319734177,0.0015021263579767159,0.0013930149757853027,0.0012390061461933482,0.0010779799349356488,0.0009027626794071975,0.0006622028691645298,0.00029216330202174465,-0.00023657932369706324,-0.0008795261128480932,-0.0015136352511346631,-0.0019748770226958676,-0.0021230646434760017,-0.0019024714817568863,-0.0013679117925363945,-0.0006638501340320187,3.249447381936156e-05,0.000577166379685233,0.0009059851305288041,0.0010439626293002103,0.0010772871741488708,0.0011030440751365514,0.0011796244020723654,0.0012987146866017178,0.001389427998282689,0.0013508808752440917,0.0010975718151267284,0.000597947148894637,-0.00010807927529484299,-0.0009163959141223828,-0.0016852871993936558,-0.002271394782746539,-0.0025644593679224285,-0.0025116456012852506,-0.002125731836590185,-0.0014772517187724493,-0.0006760868694076163,0.0001509393407225692,0.0008832130538179507,0.0014296302410766425,0.001749103848815895,0.0018598899508841845,0.0018280902399862853,0.0017339936766182624,0.0016292425110763962,0.0015071333088620587,0.0013041096266493235,0.0009344557186153704,0.00034234388415002115,-0.000454170965435584,-0.001349252721914118,-0.0021733184792136692,-0.002745159491603648,-0.002930054612108446,-0.002680575006303739,-0.002046195273342897,-0.0011523566262183057,-0.0001617532557002335,0.0007655149173673854,0.0015014392135807146,0.001966848297157613,0.0021388621585496587,0.0020517927458886787,0.0017896127064889438,0.0014653772965478261,0.0011862655794384843,0.0010117139103233924,0.0009214152019182153,0.0008129543792893615,0.0005407169047636352,-1.1344631655982258e-05,-0.0008531520780743477,-0.0018505443910214608,-0.0027567677601805186,-0.003308354104492206,-0.0033396663339702076,-0.002853973340191082,-0.0020117606611978335,-0.0010455797231384938,-0.00015255444184563392,0.0005759207291045113,0.0011551938760342262,0.0016499774299209035,0.0021010712177452974,0.0024822363768592813,0.0027101793371624096,0.0026967258975481617,0.0024074507167782923,0.0018885020668351182,0.0012439226303682187,0.0005777803974214514,-6.0184750316293056e-05,-0.0006867170221267563,-0.0013436635127261553,-0.002030035171556965,-0.0026567420748362146,-0.0030613352495423413,-0.003080591276032347,-0.0026393938519533085,-0.001802595033947598,-0.0007590048066346018,0.0002535720009050628,0.0010418663461617596,0.0015222971546772748,0.0017293781313643852,0.0017703462768502067,0.0017558854628519872,0.0017451913868711602,0.001729977683528899,0.0016566204579451264,0.0014656284757362343,0.001124039201746958,0.0006372090812744483,4.1598064042869156e-05,-0.0006098114132544167,-0.001257018700867652,-0.0018328364662035062,-0.0022600573762064555,-0.002459327509383538,-0.0023742154180436234,-0.0020024829871719335,-0.0014101633606211264,-0.0007126489890425238,-3.0991449102128657e-05,0.0005492304546534199,0.000992413256252696,0.0012987021988528202,0.0014794230614461534,0.0015432388479292368,0.0014999035341627693,0.0013715787980358833,0.0011955870637040977,0.0010103374164472218,0.0008309558820285708,0.0006320513342021076,0.0003543035602480596,-6.122794101709461e-05,-0.00062509161925632,-0.001264543307795587,-0.0018276498835288692,-0.0021348184718900406,-0.002058620987668893,-0.0015910511419118733,-0.0008583730977466263,-7.112396454196212e-05,0.0005657817091253765,0.0009357756835827011,0.0010458469794514206,0.0010019340204569095,0.0009424695204287262,0.0009654254067893663,0.001083467475687985,0.0012253460573419595,0.001277519770173588,0.0011407739227891566,0.0007730068198332282,0.00020200041181306805,-0.0004895644333886872,-0.0011927240588302584,-0.001799725711141808,-0.0022221945332432567,-0.0023990925191548843,-0.002298294100658619,-0.0019172636896396724,-0.001286878840869669,-0.00047765053500991314,0.0003987677978209911,0.0012026326943093317,0.0017976711494394188,0.002092208014836411,0.002070591585195978,0.0017972678888047103,0.0013893263199181798,0.0009692228739979951,0.0006181002140148491,0.00034920209882966,0.00011301322637997024,-0.00016667160849498375,-0.0005411555384969994,-0.0009955091159573192,-0.0014408694570108424,-0.0017465398068378477,-0.0017957061614765162,-0.0015361035458946444,-0.0010023150680591884,-0.0003037675872707326,0.0004117383739755183,0.001003535454094635,0.0013789942531872898,0.0015180337598619538,0.0014705686493855044,0.0013233141189307918,0.001148425220724969,0.0009618200706111756,0.0007182200927730517,0.0003485088464742599,-0.00018295735193273721,-0.00083688017410958,-0.0014985455192690884,-0.0020179595788075285,-0.002268027304569214,-0.0021916845509708334,-0.0018179333056212298,-0.0012432895108661266,-0.0005905271648070911,3.4960952415283904e-05,0.0005719107776996998,0.00100381107006524,0.0013388354146446346,0.001585579331853832,0.0017408568020424496,0.0017940058672003703,0.0017380590000915866,0.0015735524367944743,0.0012997258875832149,0.0009028969795830509,0.0003596270068124964,-0.000335938521726405,-0.0011322539131732167,-0.0018981713349951568,-0.002446361896686312,-0.002603584401129917,-0.002294280995449791,-0.0015879541457417693,-0.0006781777615168283,0.00019849510013713158,0.0008597124876422743,0.0012389177217137838,0.0013831961604021613,0.0013972231523487002,0.0013720928339142175,0.0013412902601622895,0.0012835301624427148,0.0011592739314039181,0.0009471782789332931,0.0006527361697563289,0.0002882752432920711,-0.0001506477234144558,-0.0006835243840698719,-0.0013104076272944603,-0.0019676469867559495,-0.002512356071194244,-0.002760747689744666,-0.0025697952092003755,-0.0019180577072859697,-0.0009353998663777283,0.00014063803203182316,0.0010604453948252542,0.0016589160361741022,0.0019046361275074318,0.0018835036762731314,0.0017347901364883666,0.0015782682515455325,0.0014677939707971087,0.0013865271499808895,0.001275955081187898,0.0010768515928922247,0.0007596753103833792,0.00033211244917548746,-0.00017397231673460956,-0.0007224111618516528,-0.001283089503592945,-0.0018244789831060619,-0.002294547661785593,-0.0026083220105163206,-0.0026606715608072356,-0.002367999134639033,-0.0017200204282101276,-0.0008089125283248164,0.00018890980268043006,0.0010752498848752888,0.0017044475695749224,0.002028698861684129,0.002093075699834129,0.0019914652383899016,0.0018150183280053903,0.0016200076946279408,0.001421313940224643,0.001200778896015306,0.000918252536513223,0.0005233615365696927,-2.5582213361135305e-05,-0.0007325574962318252,-0.0015347671987708052,-0.0022939570829132745,-0.0028247708044361096,-0.0029580246501235735,-0.0026138076050907766,-0.0018475503902320447,-0.0008414451590438252,0.0001596095851810525,0.0009394869960378488,0.0013877045678814212,0.0015276106167699441,0.0014857480533578033,0.0014193652001967328,0.0014372470492113889,0.0015509419482550735,0.0016778743825948904,0.0016913481824136164,0.001488478776361178,0.0010394509073957726,0.0003951333832394375,-0.00034371603391160767,-0.0010710997689793878,-0.0017068541374257221,-0.002201741277438003,-0.002523915626248257,-0.002644372695582265,-0.002534904104644175,-0.0021797133785014552,-0.001591525412109879,-0.000821149335194202,4.518211670683772e-05,0.0008996463221560436,0.0016332000918723205,0.002157403579066022,0.0024228525322973005,0.0024291736449542833,0.0022222682575894813,0.0018778242524690816,0.0014755472879388765,0.0010731913082239297,0.0006902424471920466,0.0003075347225797925,-0.00011649277429739958,-0.0006174028419539319,-0.0011935316964688442,-0.0017855637946649094,-0.0022808302762535636,-0.0025476212844361486,-0.002488515148082757,-0.002087507359226889,-0.0014245776957695498,-0.0006465013501060007,9.30865162035951e-05,0.0006923194782715377,0.0011260628315974514,0.0014262091953356265,0.0016357331466083833,0.0017703597132131012,0.0018115931176892052,0.0017291207028729237,0.0015106034533113877,0.0011758149526527022,0.0007667215116385016,0.00032286390105021345,-0.00013880763160659115,-0.0006235735551638451,-0.001136103877640814,-0.0016500494317933027,-0.0020929737775851635,-0.0023614089502718228,-0.0023608864397831253,-0.0020484607814346763,-0.0014538466259189308,-0.0006703583232115873,0.00017459002939776219,0.000951999242547304,0.0015555550359833193,0.0019169960442907722,0.0020161070111658482,0.0018847155380218028,0.0015986452854543174,0.0012527763159426001,0.0009238370845676239,0.0006374654579826475,0.0003604960233858338,2.903786705290434e-05,-0.0003992954215171475,-0.0008998648035033096,-0.0013730039241101892,-0.001682224923517224,-0.0017181729575882058,-0.001452357069158707,-0.0009522278657612325,-0.00035241868484125864,0.00020001291626164746,0.0005982986680608568,0.0008040677529568049,0.0008436947868084023,0.0007815860298351366,0.0006871354962793403,0.0006092444697912691,0.0005631170598602211,0.0005274862132152269,0.0004511720176199989,0.0002712217251240539,-5.735061716633915e-05,-0.0005292400847539377,-0.0010708055617308638,-0.0015509022144663755,-0.0018219041271709683,-0.0017757085927863898,-0.0013897820219580755,-0.0007410544014512606,2.039355022059484e-05,0.000727057988136528,0.0012539681547060538,0.0015553644510117818,0.0016624220887334353,0.0016467214351273249,0.0015717199532388358,0.0014586144951576204,0.001281659425774016,0.000990042467759827,0.0005413770106653772,-6.87252038430956e-05,-0.0007903893488804466,-0.0015205126382289852,-0.0021222340035524307,-0.0024601201527383923,-0.0024417311619784905,-0.0020505882690879645,-0.0013563802744480306,-0.0004968159290598704,0.00036256024651902486,0.0010755500029983455,0.0015526846705955903,0.0017765712509472203,0.001791128449919104,0.0016702253857351708,0.001479833239648906,0.0012510847954165952,0.0009758642831408509,0.0006238664409830359,0.00016886470113445119,-0.0003900857935811538,-0.0010195331731989083,-0.0016524813078229717,-0.002194209919028165,-0.0025329248867347136,-0.0025607351184652742,-0.00220800709282589,-0.0014823579509382098,-0.0004915027475479101,0.0005709614712342478,0.0014815379704866578,0.0020648791664284937,0.002257356186411601,0.002122813332152686,0.0018108020202932235,0.0014786222589768655,0.0012180297345272997,0.0010231674807579913,0.0008114897869207954,0.00048081667137929885,-2.957277038588568e-05,-0.000701954509776102,-0.0014393214071176104,-0.0020959736373613175,-0.002524677201388565,-0.0026227480118640677,-0.0023617393077959197,-0.0017915610328401474,-0.001019472525427105,-0.00017473197653625935,0.0006250617562432868,0.0012937935541000578,0.0017809117989230601,0.002066538872765334,0.0021557343658123087,0.0020747961678241407,0.0018662420055743773,0.0015775971852507518,0.0012441005281002557,0.0008730696836349196,0.00044108662961299557,-8.959902333369749e-05,-0.0007396084970972648,-0.001480045469234695,-0.002217051878778442,-0.002806038440340198,-0.0030951127081812416,-0.0029814029014777208,-0.002454821720730022,-0.0016081476108269603,-0.0006079831281682324,0.00036099797651259263,0.0011546132888947277,0.0017057269530235727,0.00202451426501345,0.0021666902875929813,0.0021908518717720427,0.0021299122987380814,0.001988926253363969,0.0017616437040522204,0.0014462288987529296,0.0010458242946324312,0.0005573376337076122,-3.34108746918374e-05,-0.0007344738150862188,-0.001512839299828052,-0.002267687715210804,-0.0028405030861329813,-0.0030684820503468226,-0.0028559870475171833,-0.0022227325829193047,-0.0013003192349847722,-0.00028077124374169607,0.0006522004650713338,0.0013741920733632365,0.0018355079738514985,0.002046044885981359,0.0020479682490735186,0.0018932631817893803,0.001632953479381964,0.0013141109084904815,0.0009762314280921394,0.0006423156243998023,0.0003089046193907692,-5.402998954685302e-05,-0.00048478936205551037,-0.0009963995074784842,-0.0015448681174127354,-0.0020219548805367905,-0.0022858125988670917,-0.0022212945610767944,-0.0018006523751690376,-0.0011097659530650383,-0.0003210724497335069,0.00037632726400557183,0.0008540988390317538,0.001089589729766111,0.0011565815465736779,0.0011706171607235184,0.0012217577653948247,0.00133145881400656,0.001452461972493655,0.001503454555263439,0.0014118862833486544,0.0011401650796207172,0.0006885598999036189,8.642080678934218e-05,-0.0006128581967121665,-0.0013290140636508631,-0.001953952308701927,-0.002365814488399611,-0.0024618581812281912,-0.002199214835560865,-0.0016227012089413744,-0.0008608025106151883,-8.535357009692912e-05,0.0005497885838259756,0.0009625474841039174,0.001162653520966006,0.0012289577019721357,0.0012576719442691454,0.0013100584072789898,0.0013865151790239394,0.001436684222048672,0.0013931600518913446,0.001204792562780591,0.0008523845886532124,0.00034768164799587253,-0.0002709546142197184,-0.0009367348295607971,-0.001551461721525056,-0.0019952998217086636,-0.002157268081144695,-0.0019785621944815876,-0.0014876950879113067,-0.0008055288560126242,-0.00011056287541622587,0.00042587020437841443,0.0007078487500095977,0.0007537209673939516,0.0006825107614300568,0.0006491281328264387,0.0007580917882138717,0.0010012660387237156,0.0012554988950695851,0.0013435905755395045,0.0011258472260286547,0.0005728702879972997,-0.00021640330383268427,-0.001054300147825484,-0.0017345716448049038,-0.0020973156683877308,-0.0020660529505287964,-0.0016547921388681834,-0.0009547611219258953,-0.00010972941232749488,0.0007164392248256513,0.0013770656576310653,0.0017771926290359198,0.0018939965196297275,0.0017739020721649183,0.001505463092518994,0.0011777157942979668,0.0008419704551979996,0.0004959011032115027,9.930763873067672e-05,-0.00038604966372218145,-0.0009548786853290008,-0.0015393671659991294,-0.0020240682822500883,-0.0022867519972323553,-0.0022447159150625847,-0.00188624661574299,-0.001276178258253529,-0.0005352943213409906,0.00019826017501000311,0.0008114447492738203,0.001246151849430135,0.0015041107538656018,0.0016259036239418267,0.0016562516437825538,0.0016148673259280032,0.0014886757140980342,0.0012483306843440256,0.0008766488485095227,0.00038891258243255324,-0.00016828693653985394,-0.000735683346368242,-0.0012594852524681515,-0.0016932789094064762,-0.0019853846831213873,-0.002070495651942147,-0.0018843647409894162,-0.0014010805772616225,-0.0006698830242379257,0.00017782253798500518,0.0009643353106171524,0.0015303027499324446,0.0017949581439077626,0.0017801522313965043,0.0015865551029023593,0.0013363386081181989,0.0011130663763359407,0.0009282228208129457,0.0007274906234985049,0.00042916727119914836,-2.651590220780235e-05,-0.0006395650151290372,-0.0013378132571477707,-0.001992598358293308,-0.0024559684597320487,-0.00260672475170765,-0.0023895773557040378,-0.0018331009550460824,-0.0010395497540331684,-0.00015139319275402828,0.0006901412860545152,0.001377023592395507,0.0018474433112034155,0.0020829893142531334,0.002100300433432602,0.0019443329896526701,0.001681207225240271,0.00138310697757457,0.0011022715750522991,0.0008432392038950067,0.0005521729209025279,0.00013915934855936955,-0.00046795466994961057,-0.0012618890499391053,-0.0021222620369679025,-0.0028370103238440332,-0.0031779881045577705,-0.0029978378187131187,-0.002299547016728055,-0.001242171966818706,-7.963144003494613e-05,0.0009359882219533286,0.0016397300648971647,0.0019915796622034633,0.002058676196611611,0.0019610953412590656,0.0018123492144103428,0.0016793729612355002,0.001570490999332931,0.0014458040128351763,0.0012394172793170738,0.000885360454986826,0.00034310999304726256,-0.00038002537492894833,-0.0012145456884057981,-0.002030657928689722,-0.0026644048850426724,-0.0029674774912295193,-0.002864543938485117,-0.0023895197111747277,-0.001676269505335974,-0.0009026860922412454,-0.00021580197714426552,0.0003215657470724575,0.0007350415416222506,0.0010956557483417177,0.0014579676574077716,0.0018161851694053369,0.0021023782982670506,0.0022254746573214432,0.0021261987680463745,0.0018145547411549702,0.0013672781881589767,0.0008862875247692219,0.00044230678234274956,3.79707519128753e-05,-0.0003843977372686514,-0.0008905287985031842,-0.0014866450322672167,-0.0020805094308589964,-0.002502739945692374,-0.002584312034755576,-0.00224833438343459,-0.0015606085939406438,-0.000705903993243369,9.788175311347585e-05,0.0006972857389521314,0.001056587507137492,0.0012410994021482464,0.0013492548720538896,0.0014411209978269228,0.0015070109863965717,0.001489426212134336,0.001336512330647928,0.0010473012495967055,0.000677669398538778,0.000304272417436449,-2.7037619664962076e-05,-0.0003307137595386718,-0.0006656900774698045,-0.0010817977262594061,-0.001563382965218861,-0.002010208601734764,-0.0022733627862342835,-0.002227916652867569,-0.0018390955473947907,-0.0011823382100320807,-0.00040705428533178355,0.00033158119685248566,0.0009318556442355008,0.0013653460530642185,0.0016549634432890285,0.0018341699406981805,0.0019168443157175667,0.001893866487151694,0.00175177897616507,0.0014955480954321149,0.0011577436604956145,0.0007871940791442226,0.0004239686852598309,7.708951933326473e-05,-0.00027866386022372365,-0.0006812763643213499,-0.001145932980780519,-0.0016371317949633768,-0.0020677253200919498,-0.002328188662663389,-0.002330486773427102,-0.0020425467151354722,-0.0014973728129424094,-0.0007782338371178626,5.92296682850582e-06,0.0007414391138340357,0.0013246137299508355,0.0016763556871779578,0.0017613762033855435,0.001605707644273473,0.001297313218818052,0.0009579476981345742,0.0006911332361177038,0.0005304658270200539,0.0004197918958541726,0.00024388244357686963,-0.00010031456497038536,-0.0006294184233251628,-0.0012411536483281653,-0.001746939334026456,-0.001954603722058155,-0.0017570625428578101,-0.0011816232716825616,-0.000379347880291093,0.0004345738301398572,0.0010592322227592774,0.0013737482297916915,0.0013693395545741043,0.0011401278843575623,0.0008377914505286424,0.0006066861378531437,0.0005242134041082896,0.0005710192894816863,0.0006443382838598497,0.0006092785119528046,0.00036570869033267873,-9.90572286905609e-05,-0.0006955013913194954,-0.0012617658305734344,-0.0016251355902702483,-0.001669073938825709,-0.0013782859241576707,-0.0008437300375908616,-0.00022575581558975872,0.000309051209903693,0.000649991849230556,0.0007759229158096018,0.0007459708421585173,0.0006534186165016321,0.0005674303165514615,0.0004940832733552873,0.0003785504974598261,0.00014778113759523765,-0.00023057283486858265,-0.0007077103258647682,-0.0011566197285511057,-0.0014189429168583508,-0.001372301283193312,-0.000984692324171212,-0.0003309378533136783,0.0004337683596112305,0.001128704317675785,0.0016071377141026117,0.0017990241567539945,0.0017236277786879801,0.0014684277988887052,0.0011415778874507994,0.0008172209287020791,0.0005004560606947021,0.0001334506289004556,-0.0003558048605929031,-0.0009861376939200796,-0.0016766682941001907,-0.002253785980353544,-0.002516048208777568,-0.0023269591256896804,-0.0016865008569124863,-0.0007421157703540162,0.0002668067993739197,0.0011014889493071354,0.0016080342330703496,0.0017578234645935532,0.0016333504864209617,0.0013731835485048087,0.001103496688898431,0.0008848031906284087,0.0006941357949688927,0.00044898738289689375,6.317360681326167e-05,-0.0004897234028253526,-0.0011364989816133647,-0.0017123667962756404,-0.002020184862467064,-0.001917456212442277,-0.0013896578931050915,-0.0005708320755617346,0.0003036329725511031,0.0009927584210258846,0.001348651509448579,0.0013695932543977521,0.001182374908131711,0.0009655701312910389,0.0008549205266280728,0.0008782274221245254,0.000948576311778069,0.0009139441527260281,0.0006356092912511767,5.856467489236274e-05,-0.0007549742117835133,-0.0016397838579982297,-0.0023811642842740247,-0.0027860384711753377,-0.0027453919160907708,-0.0022660688850236234,-0.0014615989856724292,-0.0005078585269953644,0.00041627629857226585,0.00117813965006665,0.0017129087438654174,0.0020161915593910566,0.0021205288704843435,0.002072893765524016,0.0019225658884718696,0.0017165298299749248,0.0014935545002920203,0.0012730886616120409,0.0010450689360913905,0.0007710024592446131,0.0004006966650784993,-0.0001017700173752056,-0.0007354719916405844,-0.0014533321787282625,-0.0021678162592115675,-0.0027671021606135134,-0.003136702281794528,-0.0031840954476364943,-0.002864221446805381,-0.0021999894514680737,-0.0012880471630239464,-0.00028130682239043206,0.0006517492079170558,0.0013782023211947746,0.0018400118160148747,0.002061323438873711,0.002119402125279238,0.0020958744208939236,0.002036512819349838,0.001940615423604855,0.0017800347677274068,0.0015288883855595638,0.00118175911473389,0.0007513912653399621,0.00025439429344432333,-0.0002984725421556825,-0.000896735991305379,-0.0015122342097064908,-0.002082621017133436,-0.0025117432265246743,-0.0026935806985311783,-0.002552443353896674,-0.002080798670340931,-0.0013544777606143172,-0.0005148934287745356,0.00027576768198025125,0.0008868799701768799,0.0012567061956489938,0.0014008133678397438,0.0013920354166646878,0.0013241605827226,0.0012754574407989761,0.0012843514639585137,0.0013417481623940312,0.0013976924994266926,0.001377704215064595,0.001205398669190838,0.0008285833655656987,0.0002432164704887791,-0.0004939202170413804,-0.001272039835051671,-0.0019536983764842845,-0.0024139174051522982,-0.002575681822155166,-0.002427200005201185,-0.0020151606068586785,-0.0014207313956525883,-0.0007331356569375133,-3.33405173101244e-05,0.0006101986215014615,0.001141431515759921,0.0015205228574280741,0.001731993275996956,0.0017896164365221656,0.0017301064448682637,0.0015950576767036193,0.001409405947650413,0.0011682277705594457,0.0008402637731843006,0.000388995427948802,-0.0001959232248996939,-0.0008703254521251413,-0.0015261510111175935,-0.002012480088738758,-0.002185736884139944,-0.0019709455863747343,-0.0014045304479702219,-0.0006327408265161842,0.00013976635244959028,0.0007290508743946168,0.0010393003108899066,0.0010852796332266254,0.0009631687297392195,0.0007919049662184329,0.0006591496167416762,0.0005959591711470457,0.0005825472374012602,0.0005706447178937773,0.0005059652228548848,0.0003441069646214998,6.27945404654632e-05,-0.000326588202898805,-0.0007724317428054535,-0.001189529809316334,-0.0014813061458621019,-0.0015693885833878546,-0.0014174440258465579,-0.0010411883579881662,-0.0005048571708242764,9.224967326442596e-05,0.0006377725053572348,0.001036136192348497,0.0012394017140160388,0.0012640310432194687,0.0011791417279572362,0.0010663161921983086,0.0009705133093316892,0.0008707496886895837,0.0006900855933472162,0.0003426560111963417,-0.00020562447877975804,-0.0008949951140452882,-0.0015733601291816278,-0.0020459008756771235,-0.002152671544970523,-0.0018374467935613089,-0.0011732019255505741,-0.00033162113811473107,0.00048624343393707835,0.0011221789611222444,0.0015030874723910936,0.001641212423673889,0.0016028365386627403,0.0014668665912003131,0.001291350140682449,0.0010960076985214598,0.0008614511009436493,0.0005435219277252754,0.000100066467592625,-0.00047677091894503146,-0.001135862296909925,-0.0017652956353383193,-0.002221266227954111,-0.002379379636581951,-0.0021847989544905647,-0.0016750471662876334,-0.000963380735755835,-0.00019291395507810738,0.0005130402873408367,0.001080448727239044,0.001485380655754322,0.001735033879296977,0.0018456018381244363,0.0018290792020833964,0.0016904150119076023,0.0014290778919298758,0.0010405928826519963,0.0005206869935346675,-0.00012220616744641836,-0.0008471633086787239,-0.0015661888164139558,-0.0021509234418865385,-0.00246614993481877,-0.0024176262783926717,-0.001990529774591597,-0.0012591112525857698,-0.00036434560861625014,0.000527805109446218,0.0012694835625524266,0.001762635620048746,0.0019747564525813433,0.0019380581890588357,0.0017315622856027362,0.0014479279861003046,0.0011542549584614707,0.0008637033413271785,0.000534253936976661,9.923490380563604e-05,-0.0004828397374147705,-0.0011837802031579626,-0.0018911110120239767,-0.0024347905696005543,-0.0026466478207033,-0.0024268772317114205,-0.0017874349032242164,-0.0008533194365512259,0.00017707862200753633,0.0010942435913825703,0.0017384517819271357,0.002040199936725753,0.0020295750468576922,0.0018122402992397533,0.0015189878311692303,0.001246943219030288,0.0010180140125229393,0.0007758333838181019,0.00042476746336796937,-0.0001075042808888582,-0.0008156095100488674,-0.0015985951226885112,-0.0022883853248671236,-0.0027110231118767387,-0.002751275706346665,-0.0023912160926388122,-0.0017085969393221259,-0.0008417716558267977,5.76993016372534e-05,0.0008631639154134779,0.0014914289321611984,0.001904755973355013,0.002105087217850817,0.0021258795719700583,0.002020762567379589,0.0018466322666559204,0.001643169333874315,0.0014165081497746106,0.0011362493551950856,0.0007502321088670716,0.00021321111352631255,-0.0004813662850296926,-0.0012797929346107175,-0.0020678039759184624,-0.002696110912657856,-0.0030260144332479723,-0.0029780505354522853,-0.0025612345655048317,-0.0018675338296031258,-0.0010342750408839365,-0.00019497085638371908,0.0005562358119141199,0.0011727025854427798,0.0016405850266386877,0.00195817545639206,0.0021251128140436226,0.0021455731955597208,0.0020367958158083793,0.0018302186171967765,0.001559776158014655,0.001243956608955086,0.0008747612796938947,0.0004230037406620295,-0.000140443444464124,-0.0008164683335777257,-0.0015554512859745195,-0.0022530197603933847,-0.0027705528379958896,-0.0029766541654980645,-0.002793758011615434,-0.0022287746625509522,-0.0013739944988814482,-0.0003800540876571646,0.0005849126368739728,0.0013743981491503563,0.001892069208175748,0.002107316006174654,0.0020569490643197385,0.0018313539140983146,0.0015450151305521722,0.0012967866940208342,0.0011317356712524022,0.0010197800324276197,0.0008639999596280977,0.0005423635827279283,-2.8229069532057904e-05,-0.0008319201005471718,-0.0017303321649262337,-0.0024964772684741435,-0.0028991009204492077,-0.00279995504305112,-0.0022142568247083636,-0.0013023397180549063,-0.0002990622341462743,0.000578767315214426,0.0012001670053900342,0.0015378794850441143,0.0016422195256652096,0.0015956647413591465,0.0014728632370898235,0.0013188616688414399,0.00114586152962513,0.0009419168612948257,0.0006841254941855992,0.00035163765068735526,-6.282293137189935e-05,-0.0005428403101639067,-0.0010411184147294632,-0.0014798640972468057,-0.0017643391602653455,-0.0018107443940599307,-0.001580456582348937,-0.0011045708913044348,-0.00048306386650038343,0.00014584550864963177,0.0006544363738816324,0.0009701877531722151,0.0010959764333682985,0.0010970668826882162,0.001061080017336215,0.001048873059994383,0.0010590191671960305,0.0010242129733191853,0.0008446856804142843,0.0004458375929402309,-0.00016726543692846042,-0.0008885713518358124,-0.0015392521648950434,-0.0019359821456230437,-0.001965936468944751,-0.0016298871816020058,-0.0010337583487171266,-0.0003392974684064947,0.0002960857443780522,0.0007635748729242417,0.0010220521785854364,0.001096309416384412,0.0010595875820597822,0.0010017069856566565,0.0009868853046583594,0.0010158687145121327,0.0010142028692458414,0.0008614747440080931,0.0004556090954826227,-0.00021624826344688979,-0.0010384817443738958,-0.001786869024719896,-0.0022074546923365125,-0.0021233020966069955,-0.0015199670400044322,-0.0005662092268293038,0.0004453050656955432,0.001214413027924517,0.0015545997592372155,0.0014617474377963888,0.001097899770533888,0.0006995545372950949,0.0004570869183603922,0.0004245220648049731,0.0005020762212501854,0.0004977148459712612,0.00023601467663958398,-0.0003399380497721377,-0.0011243219961282456,-0.0018839412006140823,-0.0023551485053546306,-0.0023544496850946665,-0.0018509372369084143,-0.0009710187170498528,5.9690642766632935e-05,0.0010045749781969265,0.0016927995900945596,0.0020550940067863665,0.0021132045188570646,0.0019404287839109402,0.0016201036692961705,0.001221642844571563,0.0007963708445016867,0.00038095531267849376,-4.463025621856648e-06,-0.0003636441662581148,-0.0007240692566456821,-0.0011169056626933664,-0.0015414623179299597,-0.0019369472773109954,-0.00218695669852679,-0.0021638296947878812,-0.0017930348743249113,-0.0011015709924808016,-0.00022079964885076808,0.0006605060532034399,0.0013688798750189583,0.001807138591488963,0.00197496055612583,0.0019444498229362261,0.0018091163633846307,0.0016337230378917363,0.0014261919860070302,0.001139765885735419,0.0007024854605609185,6.350897267299021e-05,-0.0007606017130861746,-0.0016609846145168152,-0.00245098950030818,-0.002922680783964373,-0.002925369155675466,-0.002430230730867665,-0.0015481729844739518,-0.0004907760099253854,0.0005068826912659515,0.0012648905969426937,0.0017047369545855867,0.001848805245357404,0.0017828184162710543,0.0016062040901648586,0.0013948406543902866,0.0011869313201221486,0.0009866120085939443,0.0007732030532261508,0.0005101536397085345,0.0001579119270987353,-0.00030378300502812393,-0.0008498048930154804,-0.001397710929221614,-0.0018262263760389498,-0.0020214502301656983,-0.001926311097981262,-0.0015636854002173822,-0.0010210178994574377,-0.0004101416713786167,0.0001709602350708911,0.0006562709596848429,0.0010110857855937972,0.0012259327063881493,0.001314154191215732,0.0013095973884585726,0.0012548132429204802,0.001177559221061908,0.001067288347779293,0.0008706208094006111,0.0005175911244273973,-2.8664868420067487e-05,-0.0007254459242408356,-0.0014389577791574838,-0.001983017196461289,-0.002193345722482881,-0.0019991664130453,-0.0014533838493888602,-0.0007060687061833334,6.209067462061235e-05,0.0007090625005083961,0.0011686555879256832,0.0014436241254114938,0.0015698671146486725,0.0015799734451801683,0.0014866053991164144,0.0012871992291821864,0.0009774483939208494,0.0005609792720207003,5.253710422990321e-05,-0.0005194906990029853,-0.0011064244153388353,-0.0016324933561020335,-0.001998920848415487,-0.0021070549309741117,-0.0018962204534538577,-0.0013786272494324002,-0.0006501099087618456,0.00013391694461388753,0.0008090218637262035,0.001255847064618649,0.001433745049720882,0.0013823212727248394,0.0011956139450590788,0.000983409076595438,0.0008333397946382389,0.0007811941183773134,0.0007940858782129767,0.0007742930069069881,0.0005929099982657808,0.00015213425880027023,-0.0005462719845769243,-0.0013657022171180647,-0.0020654494618999758,-0.002396042078107293,-0.002215174711633805,-0.0015606035952027977,-0.0006372010956221688,0.00027537600132336365,0.0009431527542856869,0.001263564182437602,0.0012794672145251948,0.0011272170836211758,0.0009559035851355701,0.0008593058161899055,0.0008450891297209513,0.0008441622370059608,0.0007495816058039678,0.00046959512116727034,-2.2579280761039853e-05,-0.0006612138053499216,-0.0012982559992199658,-0.001753093928647365,-0.0018834587301016373,-0.001644703977394819,-0.0011079714451955715,-0.00042831473500075444,0.00022063570925132114,0.0007130930504840417,0.0010079057257020758,0.0011421282990532063,0.0011905990084597714,0.0012164694324691711,0.0012379455347471067,0.0012234994424786946,0.0011117216279542587,0.0008424680791688339,0.0003858380259009746,-0.00023888178575338643,-0.0009568623690502302,-0.0016450586153360666,-0.0021548862879178852,-0.002349598152988174,-0.002148575549198329,-0.001563100114858977,-0.0007066242210418514,0.00023007728422888693,0.0010349668875389247,0.0015439463436123105,0.0016960841665944564,0.0015491147486366348,0.001244175407779899,0.000933273772741771,0.0007052447665694588,0.0005505672573776293,0.0003851465770895023,0.00011794246569131055,-0.00027994375699126844,-0.0007472630032769254,-0.001161030781477979,-0.001400768382394371,-0.001407018035361693,-0.0011996056436833602,-0.0008505576098492494,-0.00043737496848223357,-1.186789058983857e-05,0.00039853877480535707,0.0007694918410725308,0.0010652822159265669,0.0012464775998750313,0.0012904921298921273,0.0012029947282799084,0.0010075699729629748,0.0007226854328035228,0.000348364452721578,-0.00012195182340125205,-0.0006702792279178736,-0.0012277498273710152,-0.0016769287755994322,-0.0018881216909162543,-0.0017725624308594944,-0.001325215980072139,-0.0006367012684517213,0.0001306489901659368,0.000793949282261701,0.001211376255603559,0.001332816750313835,0.0012173131660219746,0.001003363227619034,0.0008384338804193302,0.0007987279449173021,0.0008427893225324179,0.0008298381332589031,0.0005989393843529395,6.857347614270767e-05,-0.0006984737372852959,-0.001502970361092599,-0.002089079052969574,-0.0022565338533261994,-0.0019478791525094038,-0.0012672274040380054,-0.00042472576117584754,0.0003595294341707579,0.000940469525413459,0.0012827421107448058,0.0014378167381970135,0.0014862907743969532,0.001480424714459633,0.0014144466606066325,0.0012323427193143338,0.0008656973125270579,0.00028318038913158824,-0.00047088488344765333,-0.001268475511083726,-0.0019286000672232382,-0.002277298410924487,-0.0022115401745963032,-0.0017380364981105967,-0.0009700128441986595,-8.542028604399958e-05,0.0007332572995263107,0.001352437071546353,0.0017153400756393874,0.0018378605938367478,0.0017784351463885563,0.0015973286309565,0.0013246350501261526,0.0009524081727027437,0.0004545978981869168,-0.0001763758542892653,-0.0008974150691927795,-0.0016066516572645403,-0.0021669757770068094,-0.0024516663959985585,-0.0023900870752255826,-0.0019911125285293737,-0.0013348526587240977,-0.0005412322310816254,0.00026542001363644575,0.0009802933191590507,0.0015280843377691122,0.0018668229229761397,0.0019923770764346815,0.001941086427319646,0.0017807817526084924,0.0015842863402906215,0.0013930402384182913,0.0011906096386772441,0.0009051454117338532,0.00044508042556904424,-0.0002465842602422597,-0.0011449141931552196,-0.0021255587543803547,-0.0029874725167582912,-0.0035103913639954794,-0.003528147914131233,-0.0029911524712658314,-0.0019925866737544842,-0.000744972294411269,0.00048650999581955116,0.0014689955744130905,0.0020718252778302217,0.002293869151928314,0.0022389626523168556,0.0020533430456508494,0.0018567317896011932,0.0017007870728641653,0.001571381159916262,0.0014233132263169945,0.0012166901027840869,0.0009288178784719811,0.000540989032862418,2.4536145520326607e-05,-0.0006471969435229387,-0.0014582166020403028,-0.002308906113299165,-0.003014521033403689,-0.00336200994840711,-0.0032036143959940358,-0.002535617408810688,-0.0015139916593406813,-0.0003941262101775474,0.0005743287870431407,0.0012418627607350939,0.0015957882234691563,0.0017275499481579472,0.0017584417019561732,0.0017706024723938064,0.0017787100038702815,0.001746725950978782,0.001626234583265059,0.0013859143587988624,0.001016739702920654,0.0005208749298442322,-9.455798601090042e-05,-0.0008048529672402413,-0.0015439312562830223,-0.0021944018277118924,-0.002612244412548863,-0.0026815344184905254,-0.002368498463623397,-0.0017403826957916506,-0.0009371124862325072,-0.00011378662697893139,0.0006131517132174811,0.0011907967709252937,0.0016202768731169515,0.0019252251593051977,0.0021185697517949907,0.0021856186949726457,0.0020914050139876263,0.0018067116739027061,0.001336134862062412,0.0007296700650945031,6.921589758312114e-05,-0.0005623661417272152,-0.0011103396799212073,-0.0015572923388941378,-0.0019079391880540157,-0.002161626161239163,-0.002292928534892801,-0.0022549899828051166,-0.002004483621499576,-0.001532443496070198,-0.0008817441246665369,-0.00014105661184159375,0.0005809154580091339,0.0011877031186903171,0.0016198717851831673,0.0018640003098050208,0.0019450081218146294,0.0019073735949401908,0.0017943709704756868,0.00163398878088388,0.0014356013787277632,0.0011951305398564664,0.0009023737572607389,0.0005452471352587633,0.00011106140415582597,-0.00040986183132365583,-0.0010128882991562356,-0.0016613199700674648,-0.002272748397595435,-0.0027245221257542005,-0.002886729952713959,-0.0026746052913212068,-0.002095801451102768,-0.0012641084279942942,-0.0003655110472231038,0.00041155714846489717,0.0009480649613861561,0.0012318225161204557,0.0013432880252954127,0.0014014559367718563,0.0015008581331788233,0.0016697498561256414,0.0018635131183700321,0.001989619898440728,0.0019500717106589167,0.001684122384199649,0.0011951130031563621,0.0005502993311186093,-0.0001465898967520768,-0.0007963917464954742,-0.0013371691411402098,-0.0017511780796668503,-0.0020447640160690447,-0.00221702917258248,-0.002240525037621046,-0.0020696135819148484,-0.0016735428462604691,-0.0010733926554998136,-0.0003570866873316513,0.00034141429210218343,0.0008913116354593411,0.0012177825150119159,0.0013302792565917908,0.0013103069519868184,0.0012638326341391074,0.0012628352892225462,0.0013072687868540655,0.0013278324793005525,0.0012267456273886645,0.0009323510633306696,0.0004375445133119707,-0.0001953963237945613,-0.0008599743519676553,-0.0014419838058688317,-0.0018480736902778095,-0.002018455779874739,-0.0019290009951390603,-0.0015923115531678066,-0.0010603512116637872,-0.00042113075478379897,0.0002193456425335199,0.0007678125446694097,0.001171766128646115,0.0014272123745416028,0.0015612742026144808,0.0016020013211651798,0.0015550306598686343,0.0013995915419463298,0.001103054344637009,0.0006446538891274995,3.8006989320776385e-05,-0.0006557852579679661,-0.0013306287100299569,-0.001856470432342612,-0.0021154715354559715,-0.002042107042795967,-0.001651040875990433,-0.0010383145156190087,-0.0003509928898601648,0.00026469298932824733,0.0007139094407413384,0.0009781786722943954,0.0011034685023130174,0.0011604773669213627,0.0012004229800139207,0.0012289457802557352,0.0012073218879348879,0.001074634829338356,0.000777235209322319,0.0002949010202665607,-0.0003405913961105468,-0.0010377898446104746,-0.0016560042882269841,-0.002040424562425646,-0.002076490919297854,-0.0017409288174759629,-0.001119784310803105,-0.0003770454451997615,0.000314198439312022,0.0008411919824292492,0.0011822686844263847,0.0013841783565044967,0.0015065631115794473,0.0015742153554950265,0.001567459280479735,0.0014492659841609313,0.0012002435355557156,0.0008308724158545282,0.0003644135921457725,-0.00018726415605468743,-0.0008243860339470661,-0.0015265891111409043,-0.0022102060667671007,-0.002716508394567549,-0.0028568842564192466,-0.002501571643655327,-0.0016628532281826008,-0.0005185769862451725,0.000646412070573961,0.00155470375178032,0.002046825524659784,0.002130791495404479,0.0019489742583823624,0.0016849830310299303,0.0014619102073365384,0.0012840057099438203,0.0010491833245552381,0.0006230799257108876,-6.53985293321258e-05,-0.0009574143095367091,-0.0018623192964837645,-0.0025245845873872732,-0.002729364798458365,-0.0023964856204766512,-0.00161721816924864,-0.0006159286867097567,0.00034405196289369474,0.0010636796361027147,0.0014715881851917792,0.0016223919320915213,0.0016398059423712694,0.0016401979938602221,0.001675671926770126,0.00171900839209597,0.001688319156007785,0.0014913104822839188,0.001065733453074714,0.0004022641169769409,-0.0004506086219267561,-0.0013929597465181642,-0.002286679963021822,-0.002977682298952647,-0.0033303699999486886,-0.003269148744571839,-0.0028096625622241692,-0.002059348490929106,-0.0011798707411907472,-0.000326317444669994,0.0004062239758882559,0.001001022642634726,0.0014956275151989272,0.0019328008035633473,0.00231784093603926,0.002608108819206357,0.0027386492883926866,0.002663678568043206,0.002384181955965945,0.0019437693374644255,0.0013988903042027729,0.0007872125206087501,0.00011705231512294649,-0.0006161598162892253,-0.001399450813853283,-0.0021789472303299588,-0.002858286506522097,-0.0033198883492129958,-0.0034590110353293125,-0.00321669382132284,-0.002600138712284849,-0.0016846906084501457,-0.0005981015014979694,0.0005066537761400301,0.0014813081168646208,0.0022078511362736207,0.0026162085036869893,0.0026932318467561894,0.0024826856033386122,0.0020754133863919973,0.001589050950021012,0.0011385474845086998,0.0008026605668299139,0.0005964386402148936,0.000462302507136484,0.0002889757986790449,-4.265824427679096e-05,-0.0006010904021840222,-0.0013574830797882347,-0.0021752820426588714,-0.0028477525908550813,-0.0031723755927692797,-0.0030299740547705513,-0.002431275181116454,-0.0015101642399153517,-0.0004710676937968892,0.00048123783541574074,0.0011992754015860644,0.0016211871579112878,0.001768746420872343,0.0017234664567944281,0.0015917840132841242,0.0014695667572736462,0.0014142491597923276,0.0014302240492671831,0.0014702191950537054,0.0014524701559700025,0.0012899527147413174,0.0009236721037029173,0.00034875052587712146,-0.0003772984605734265,-0.0011483781810041989,-0.0018398475888340197,-0.002341156820040197,-0.0025781695099520423,-0.0025212345854677895,-0.0021843011150269286,-0.0016214907756441298,-0.0009209001960862695,-0.00019018898342795944,0.0004676007198201768,0.0009797915531578737,0.001318362259294714,0.0014957623894683925,0.0015468390085311625,0.0015088136646711282,0.0014094391650281257,0.0012653073933340674,0.0010846377797688947,0.0008676163249908795,0.0006032989344112419,0.00026971667200133026,-0.00015487245016621335,-0.0006696246427427341,-0.001229065149316336,-0.0017376856931690264,-0.0020710097276837084,-0.0021187170127575875,-0.0018319870282911157,-0.0012521883497518481,-0.0005045966046996229,0.00024342398963464462,0.0008426670806421423,0.0012132948328761567,0.001363115878207556,0.0013660099480146018,0.0013148272805247954,0.0012752925732379488,0.0012626243683356167,0.0012453759695734224,0.0011654518047738995,0.000960371696169141,0.0005819767716047357,1.370146019060395e-05,-0.0007123442666635617,-0.0015050195932653425,-0.0022223540617829314,-0.0027051890153924193,-0.0028286833105482965,-0.002549615529357377,-0.001924680964196106,-0.001088549213705006,-0.00020258677642371356,0.0005990062775268614,0.0012398354556846889,0.0016990912975886462,0.001986689337004787,0.0021167493138265505,0.00209655742579573,0.001934190148955888,0.0016540990210108149,0.0013048779024402222,0.0009493216816843244,0.0006390914954459255,0.00038711289432737084,0.00015432755043080727,-0.0001378150443980098,-0.0005692241537581892,-0.001170898089783978,-0.0018860210142027153,-0.0025663832482427486,-0.003014842687972627,-0.003060919225956397,-0.0026354496480604137,-0.0018066555944895844,-0.0007586433418520606,0.0002771053263211384,0.0011047255610856178,0.0016253607534384095,0.001853572613160018,0.0018858569049724529,0.0018389047795964578,0.0017890417681280016,0.0017438400247480035,0.0016587559492030415,0.0014834977408124536,0.0012029650007876185,0.0008424539447427274,0.0004356174235900102,-1.4643001314060245e-05,-0.0005437719569325992,-0.0011870888432516232,-0.00191963487261505,-0.0026213666779207412,-0.0031018666447822077,-0.0031790168171440827,-0.0027684544085253503,-0.0019316584507713653,-0.0008554950022215971,0.0002233822977819888,0.0011071613376360903,0.0016956868610498493,0.0019949648361496253,0.0020824522443043908,0.0020539177602354208,0.001979455888830451,0.0018863611214392168,0.001769529927347146,0.001614374384212075,0.0014123034979216412,0.0011581591650576077,0.0008358140191937938,0.00040986972070766617,-0.0001609727880181433,-0.0008890504816592111,-0.001720572920548156,-0.002523923658753537,-0.003120991713225155,-0.0033539673938958363,-0.003155293946400117,-0.0025815259949452636,-0.0017897318406140806,-0.0009678456975139272,-0.0002568948154933696,0.0002940810221929125,0.0007213262420904638,0.0010994219957117996,0.0014850875050496709,0.001881465344538587,0.002236404384480484,0.0024698206685577926,0.002513345041074127,0.0023420942538959722,0.0019829398161280544,0.0014955489061986044,0.0009382466179805218,0.0003414972914917388,-0.0002918422693282429,-0.0009587845940475779,-0.0016215625773112333,-0.0021944831131626747,-0.002567440555846073,-0.0026549387532778853,-0.002439240908444737,-0.0019784449606397277,-0.0013745801349537541,-0.0007248661412132791,-8.925349602363825e-05,0.0005076552781357072,0.0010492472049408587,0.0015009712318521952,0.0018090661766920247,0.0019265233536781025,0.0018474187964603607,0.0016232999662947373,0.0013457872862586134,0.0011007709969112693,0.0009188351593741157,0.0007522288004247089,0.0004964121963824829,4.9882706316629975e-05,-0.0006169416539591407,-0.0014213873515496905,-0.0021824923332545163,-0.002687656936007168,-0.002781283087185619,-0.002430938482282802,-0.001738054550110967,-0.0008908678247602231,-8.757170132499736e-05,0.0005312726324320547,0.0009139062217430931,0.0010883201745952025,0.0011282862612619494,0.0011154217021890277,0.0011113994956326928,0.0011434301882405126,0.0011997910896061213,0.0012330794165022866,0.0011727224610605627,0.0009490548173844614,0.0005263542624072221,-6.615129931410751e-05,-0.0007222222002309131,-0.0012793297772174346,-0.001571867855545415,-0.00149769986698839,-0.0010673189395630656,-0.0004095440509693808,0.00027273260675949587,0.000779280939519753,0.0009886574980203287,0.0009008016839554122,0.000628268741861798,0.00034053108019587103,0.00018535594116676378,0.0002207310375201485,0.0003869976288078604,0.0005326818823602518,0.00048435994007852215,0.0001305259617025539,-0.0005178985115455372,-0.0013179724719257022,-0.002041560147956194,-0.002459837791892225,-0.0024300983760677853,-0.0019473471097687346,-0.0011382935884629544,-0.00020284911824927903,0.0006655735476743937,0.001340717093379812,0.0017795874912683285,0.0019974793085084375,0.002028946481644124,0.0019040838617674276,0.0016504025994726597,0.001306048589639069,0.0009206032423852672,0.000533884827428967,0.00014910058197513572,-0.0002700821203351104,-0.0007640292605620859,-0.001322138963388384,-0.0018501352355887422,-0.002191492243599996,-0.0021978358882547714,-0.0018080200546605728,-0.0010886107025544708,-0.00021264880995969384,0.0006102215125941897,0.0012143972115733516,0.0015308969535053213,0.0015923788597325896,0.00149634853595836,0.0013488326334258776,0.001213382895655073,0.0010837964144493261,0.0008900651746046136,0.0005373301019231157,-3.479205808791866e-05,-0.0007982266948941345,-0.00161837359198683,-0.0022898070346376743,-0.0026150981354383838,-0.002488571282448301,-0.0019406511838247515,-0.0011202419048441912,-0.00022812933901182933,0.0005603276096129437,0.0011451296436052083,0.0015078502702670672,0.0016839216401220364,0.001725108682449617,0.0016734179084013142,0.0015534243262851574,0.0013757593870105875,0.001140033432195527,0.0008326658579962256,0.0004266223682468312,-0.00010540381974187595,-0.0007616850430592543,-0.0014805405528626053,-0.0021330323835914893,-0.002555774485351907,-0.0026145425108048317,-0.0022652719585085856,-0.001576687278545443,-0.0007015877832496395,0.00018491935978168607,0.0009448002520781679,0.0015059382950862587,0.0018555112568882188,0.00201400490697156,0.0020118270085172376,0.0018807847838684085,0.0016568637168798313,0.0013807311817351908,0.00108556357894426,0.0007761098605084403,0.00041700315085765795,-5.113798802783634e-05,-0.0006666724334638506,-0.001396570327525454,-0.002116894855698721,-0.0026472378698621044,-0.0028285284949892643,-0.002601692433510372,-0.002038767856405532,-0.0013055400075480572,-0.0005780782455851135,3.567831793440605e-05,0.0005240958548048467,0.0009397175964957007,0.0013352151747625177,0.0017120197916102634,0.0020126378756984828,0.002156557469001738,0.00209212150706466,0.0018291228161857209,0.00143207503706115,0.0009807616988748782,0.000525153658238731,6.4150526916124e-05,-0.00043807149380414336,-0.0010080323973325604,-0.001619114836438592,-0.002177064352960719,-0.00254690503918512,-0.002608165608134049,-0.00230838758696916,-0.0016871090770043335,-0.0008609710406068721,1.8473079634112914e-05,0.0008122272467735651,0.0014276137638445452,0.0018297012290371532,0.002031885836328233,0.002073437855596465,0.001994595869149901,0.0018197122687895126,0.0015552163858143669,0.0012012352529629055,0.0007670138617892869,0.0002776558491095785,-0.0002331957977523379,-0.0007380912686995203,-0.0012241752810472047,-0.001685711091361515,-0.0021041277479927015,-0.002430784766149899,-0.002588469622472912,-0.0024961232838763944,-0.0021060878664223535,-0.0014351461520421779,-0.0005736287392852276,0.0003331845038406299,0.001126068918349082,0.001681021346773851,0.0019476222498147182,0.00196004582260732,0.0018151542291987381,0.001627668319443506,0.0014836116591298105,0.0014124940779659707,0.0013865835374360061,0.0013410517999941933,0.0012015685926344503,0.0009085952832237408,0.00043469446354405536,-0.0002046731543092744,-0.000947690638558602,-0.0016938365435597677,-0.002325075534085598,-0.0027359544019753728,-0.0028608868884874,-0.0026872711203523372,-0.0022515438065293424,-0.0016242401951413717,-0.0008921740964860144,-0.0001418476864237287,0.0005550689697218111,0.0011522641633001161,0.001631199858498274,0.001992947145623327,0.0022429243368115625,0.0023776270624667885,0.0023820548329135708,0.0022389184713571195,0.0019415272934642674,0.0014997502105523048,0.0009352338323201556,0.0002722355782253563,-0.00046490934457668745,-0.0012419358832453514,-0.0019984785333762244,-0.002640812176067337,-0.0030565746868994317,-0.0031504829020060254,-0.0028838339102778784,-0.0022951254584600398,-0.0014893505285029423,-0.0006019227814558548,0.00024345271740903104,0.0009633557664498996,0.0015205291986453043,0.001910631718793705,0.0021415118136578976,0.0022180132076804766,0.002140550310694974,0.0019165626981938787,0.0015747911112414072,0.0011691781629163862,0.0007651941138287773,0.0004132787609496967,0.0001242770342682047,-0.0001365887324059112,-0.0004295260304540136,-0.000801260347371966,-0.0012475507458433884,-0.0016988485992249218,-0.0020393823888610447,-0.0021522193745035076,-0.0019693425868827,-0.00150361460061313,-0.0008487838807523598,-0.00014867083339181118,0.00045050301909861634,0.0008456701485710259,0.001004883066494957,0.0009705304678080343,0.0008390890622359773,0.0007246683594080768,0.0007168790767043095,0.000844797422745045,0.0010584774799231983,0.001237365316235804,0.0012294985165045536,0.0009143794867247294,0.0002675057190013444,-0.0006052796945321872,-0.0014886571575075866,-0.00213327702858811,-0.002353762847605829,-0.0021010621480289215,-0.0014728334903150878,-0.0006598472973272044,0.00013849796531664185,0.0007832154595091195,0.0012191318574006369,0.001454738802907592,0.0015255011141776763,0.0014692085745689602,0.0013228131047490045,0.0011280522277917547,0.0009264358885188474,0.0007376582715242169,0.0005368618744510311,0.0002560274192049506,-0.00017763883780821097,-0.0007812190213009146,-0.0014715141903912763,-0.002073593623203614,-0.002390417646886787,-0.002300000225844798,-0.0018219404969144768,-0.00110894618077189,-0.00036585491771246894,0.0002533927540607798,0.0007064848600708723,0.001047278735242075,0.0013524848331557733,0.0016454446095458865,0.0018687589013631728,0.0019197781186961636,0.0017193933606811148,0.001265317183458297,0.0006366426510138567,-4.7446833434151086e-05,-0.0006822328175478723,-0.0012089757775744184,-0.0016086726600162166,-0.0018717334135611532,-0.001971623964311841,-0.0018633994020827564,-0.0015083154442206792,-0.0009085311133953786,-0.00013070161701091517,0.0006963335081372335,0.0014124079906648694,0.0018758359976968663,0.0020136165775952054,0.001850205522278436,0.001498030029041102,0.00110748497153471,0.0007947816872251097,0.0005826778910549818,