-4.800294289637204e-05,-0.005808958019137091,-0.010371307205637698,-0.012959300500028734,-0.013456740110946663,-0.012366444254989999,-0.010527338804623941,-0.008738289949231308,-0.007466991942340975,-0.0067570696940438615,-0.006334365083300514,-0.005821526099597338,-0.004941181784992401,-0.0036221164854634293,-0.001987993541278323,-0.0002652437639766095,0.0013282500347537446,0.0026604549924294507,0.003703583484623362,0.0045003955296302935,0.005107563068135992,0.0055510506504220375,0.005816628770407735,0.005875019102812299,0.005718520827342548,0.005379042946715821,0.004912542060184115,0.0043618992027144535,0.003728311931864143,0.0029754050181669362,0.0020649803156782007,0.0009992993803826854,-0.0001588046657667125,-0.0012985487149575789,-0.0022942040852933256,-0.0030376472608327014,-0.0034591847225364735,-0.003538918429756146,-0.003313072779457295,-0.00287108696795597,-0.002334491371169315,-0.0018176696929905322,-0.0013867617447689542,-0.0010401870979140958,-0.000724101527424954,-0.0003752256319334438,3.298910869164312e-05,0.00046621473494099517,0.0008394319652196224,0.001055480627442704,0.0010521617007153779,0.0008342491900941451,0.00047398599504009547,7.872893930997921e-05,-0.0002590717509327256,-0.0005039172607405756,-0.0006873319063089131,-0.000877676496435148,-0.0011255270975576764,-0.0014185243342565359,-0.0016762893236364662,-0.0017895440912783242,-0.001676212753587957,-0.0013163366291831786,-0.0007467771632190799,-2.980796531388977e-05,0.0007716028250389028,0.0015905607829365914,0.002334996628430386,0.0028812562255311827,0.003108288244100314,0.0029637911647858576,0.002518287095497103,0.001957375834700755,0.001497239615326811,0.00126322903046674,0.0012061928376808032,0.001116858030159354,0.000740699569204952,-6.774619591171365e-05,-0.0012391174270080967,-0.0024936800436770367,-0.003455830389102219,-0.0038188688653138475,-0.0034762730210191792,-0.002557932221464668,-0.0013621232259873515,-0.00022505347889601368,0.0006070067870686573,0.001049406196425797,0.001173962968056061,0.001140827183193313,0.0011038884346860026,0.0011335031679683212,0.001191965396533851,0.001173049276457902,0.0009825110436210039,0.0006087762547923822,0.00013436148575233045,-0.0003234597210186479,-0.0007011072175283149,-0.0010368277819215069,-0.0014337580190676117,-0.001957001427170597,-0.0025389672977079057,-0.0029688799225310713,-0.0029861919559553956,-0.0024244261995697873,-0.0013154879830078125,0.00011008228123895059,0.001524611985817962,0.0026434908744671216,0.003324780308041266,0.0035824873801035494,0.003524457267681234,0.0032678698381834485,0.002887773300204748,0.0024197223272782132,0.0018939035793634268,0.0013575218583133392,0.0008583801656059462,0.0004008575802511888,-8.50340733269869e-05,-0.0007233300436054219,-0.001615874586521988,-0.0027474912267192574,-0.003932327257440624,-0.004847646783033947,-0.005156011793452252,-0.00466304593439553,-0.0034281167039506375,-0.0017620677402110428,-0.00010480138908447673,0.0011579390919591044,0.0018461166789283234,0.0020323263497719537,0.0019687882070513717,0.0019399451999768664,0.0021183071779763084,0.0024917088929789838,0.0028886047724157285,0.0030784833328110915,0.00289166167102092,0.002299657175952245,0.0014214978987638393,0.00045906848448754294,-0.0004015108845587703,-0.001070339801166594,-0.0015748574554689616,-0.002012943223421381,-0.002466750705572541,-0.0029277545952985126,-0.0032773664826466565,-0.0033372660599063305,-0.002965469401784415,-0.0021472748493956777,-0.001028806650457394,0.000131481036665423,0.0010728221719996673,0.0016454881930949342,0.0018642108129328949,0.0018726769080846433,0.0018437896436958672,0.0018785202342903352,0.001963171668973866,0.0020037852414039356,0.0019065944985463563,0.0016479190674991567,0.0012889019919602816,0.0009280981551692386,0.0006240314113156228,0.00033972642221931576,-4.838503485335725e-05,-0.0006715249663575355,-0.0015604851234038708,-0.002576842262652038,-0.0034370733577534867,-0.0038291442109828653,-0.003561580954326822,-0.002661134035636053,-0.0013640662316670798,-8.381333036338538e-06,0.0011104774149693721,0.001842712009708631,0.00219903629108193,0.0022856177891291485,0.002212604473246351,0.0020370016006920435,0.0017667201270771698,0.0014037720674038667,0.000978872966735464,0.0005456005238263779,0.0001426304584070644,-0.00023855388461640516,-0.00064807239281249,-0.0011330411181593473,-0.0016838195106577123,-0.002209361905995691,-0.0025620897362465234,-0.002602212463011702,-0.0022673763895327188,-0.0016094407539540582,-0.0007779024333411004,4.1801291954252496e-05,0.0007042835267429283,0.0011584661821235525,0.001455264547995127,0.0017040671404925278,0.0019968135506977062,0.002338558126666403,0.002627556301690116,0.0027049940827714902,0.002451479174635574,0.0018724918216354832,0.0011163296470052576,0.0004079713526128659,-6.611952934881804e-05,-0.00025793462290220635,-0.0002874654189435924,-0.00038524226019271345,-0.0007755588859476618,-0.0015560498332247471,-0.0026302348298776297,-0.0037259059175075724,-0.004495111700303796,-0.004655378798851901,-0.004110482725481928,-0.0029935472750309265,-0.0016085410676983723,-0.00029639590405750976,0.0007071631940649544,0.0013495959416092045,0.001739717434422805,0.002048356579179299,0.0023957885477191064,0.0027899641458790634,0.003140791094478404,0.0033277277314358094,0.0032718977937149824,0.002971661144985772,0.0024909221442524373,0.001919654067089391,0.001337230856884443,0.0007971658721619139,0.0003293274615711588,-5.779370382558635e-05,-0.0003856194381996604,-0.0007160650445481062,-0.001142287368108362,-0.0017461903962782623,-0.0025360651770851435,-0.0034022620570158214,-0.004128951264236641,-0.004470552900113637,-0.004260004543250585,-0.003491413370288088,-0.0023302743931430505,-0.001044692687002931,0.0001047382082548674,0.0009584452319545476,0.0014918614042980303,0.0017850104289068448,0.001957125713247944,0.0021055860400184057,0.0022736093879075245,0.002448347443831429,0.0025774945103041167,0.002592985979299727,0.0024371683048668375,0.0020895278666343596,0.0015869870887526638,0.0010241680634478882,0.0005230154445008718,0.00017855403304819226,8.828795319660177e-06,-5.80871125192583e-05,-0.00014850056727731776,-0.00037993052514048524,-0.0008074737908029123,-0.0014045170555029756,-0.002076860743381253,-0.0026938888867479313,-0.0031230829011845078,-0.003263075957713207,-0.0030717597976947066,-0.002579962237184709,-0.001879844045913884,-0.0010885349581612872,-0.0003050683363570503,0.00041395694810688146,0.0010471533865304059,0.001580875542196285,0.001987928333925813,0.0022313772131090743,0.0022891765216677797,0.002177444227841696,0.001952599099640427,0.0016906242905106337,0.0014578860340376005,0.0012897907621549115,0.0011837386656212525,0.0011031253165177906,0.0009876399778646781,0.0007692885338814117,0.00039485507265696806,-0.00015014734543763314,-0.0008277436806558743,-0.0015539508284008923,-0.0022235365242772964,-0.0027391554937601036,-0.0030301237242320576,-0.0030569576376715275,-0.0028094078319526317,-0.002307302071063398,-0.0016048742238712898,-0.0007900318801113748,3.0037622875267542e-05,0.0007557028249767508,0.001321979640724838,0.00171137905285442,0.001946439265968782,0.0020682291957639055,0.0021140791696038948,0.0021050998537236387,0.0020452021501568087,0.0019261485839466277,0.001733001681479195,0.001449446384710834,0.0010661266354442798,0.0005926940700775469,6.754841315578854e-05,-0.0004453695618687769,-0.000879626943767602,-0.001202472622563296,-0.0014415220961579629,-0.001676193195752836,-0.0019873826757554223,-0.002390911835236485,-0.002799803614268014,-0.0030481821799326764,-0.0029707076944917314,-0.0024928363486651115,-0.0016767022854341255,-0.0006933617451284155,0.0002622427749616554,0.0010617480772506043,0.0016849015778298265,0.0021899126894137128,0.0026369021080136423,0.0030195680834258004,0.0032540271437540838,0.003233464070851625,0.002910184436441916,0.00234650049075897,0.0016971199870995297,0.0011322985709212629,0.0007491153888145884,0.0005228482604136614,0.0003229248680220256,-1.9336184344876392e-05,-0.000627515157163418,-0.001518350744974801,-0.0025826484307763706,-0.0036111516428272393,-0.004354838196877459,-0.004602388908897617,-0.004252759124980498,-0.003357774993143917,-0.0021143709305891734,-0.0008027390363017746,0.0003097713780854268,0.0010610393389210726,0.001442843231407209,0.0015826032690288852,0.0016650772399119968,0.001831850117522332,0.0021112400174153325,0.0024167715438138675,0.002612495402557689,0.002602131118637997,0.0023846898973547553,0.0020424779548626486,0.0016726914332556696,0.0013110835279524177,0.0009012161756329957,0.0003329139390043514,-0.00047143176635334853,-0.0014756189539364215,-0.0025055913136984623,-0.003302569054840954,-0.003628938895147808,-0.00337205465398484,-0.002592420414519077,-0.0014943926750508696,-0.00033995844147018226,0.000646217066995253,0.0013350745268971103,0.0016982941858953314,0.0017771766571459404,0.0016464223324248821,0.0013920264721926717,0.0010996069159681663,0.0008386181286700232,0.0006378345668170051,0.0004658037389823136,0.00023731686392897328,-0.00014494446443847955,-0.0007278441673709943,-0.0014572447511321494,-0.002172372621629599,-0.002656633268483131,-0.0027253179172212066,-0.0023084598997832107,-0.0014870395320907275,-0.0004627793000942913,0.0005256826213421422,0.001300333774334042,0.0018067282198206114,0.002110090940515009,0.0023275569078370527,0.0025365680948250496,0.002715712350029049,0.00275592666992594,0.0025348285285435243,0.002003682181716429,0.0012265724113441666,0.0003446025194495153,-0.0005080091555133556,-0.0012740243946027098,-0.001978147050503364,-0.0026639164611393044,-0.0033101415051636214,-0.0037912482967531105,-0.003917738068246533,-0.003538947232770961,-0.0026459781338439205,-0.0014074939545977467,-0.00010984133965697481,0.0009683790245956334,0.0016765596723146113,0.0020398177540708476,0.0022108876108807487,0.0023589705889854587,0.0025630412329685805,0.0027712539846803403,0.0028459737568663664,0.002661035626785997,0.002187178804905698,0.0015128154791682201,0.0007918597204638303,0.00015682460876951924,-0.0003473745177606908,-0.0007732889235269082,-0.001226388573708084,-0.0017957012519014524,-0.0024943786218277514,-0.0032343767358445534,-0.003845107067396672,-0.004131552683551659,-0.003951648959601563,-0.0032801371158460513,-0.002227284188287741,-0.001000707569360734,0.0001726336297047245,0.0011272358585378392,0.0018059210454784396,0.002254652503563889,0.0025728338181266195,0.002846870413699484,0.0031007037686833837,0.003286281468166992,0.0033153781388207907,0.003113476089464863,0.0026669331957465047,0.0020396556908232003,0.0013510892456922087,0.0007261997164320826,0.0002421658645122461,-0.00010125250029327125,-0.0003729851103903188,-0.0006702139144506584,-0.0010701394362119848,-0.0015987793214316736,-0.0022262215523586107,-0.0028798872951450623,-0.0034618145879715605,-0.0038640552541587773,-0.003986115866177095,-0.0037587448744668944,-0.0031697114400887844,-0.0022791136979930233,-0.0012123084111395402,-0.00012793137222880536,0.0008290567601051432,0.0015703301489408687,0.0020833947245376726,0.0024168951528788386,0.0026392454036936698,0.0027935486674164588,0.002874595537053423,0.0028398855048619347,0.002645124138493332,0.0022806469395775133,0.001787337569661973,0.0012449467371307044,0.0007410189576873081,0.00033605394050024713,3.9164964202702116e-05,-0.00019703688326265306,-0.0004595207193125825,-0.00083906539666467,-0.0013854011369804678,-0.0020688475839119474,-0.0027663810456704874,-0.003285777041397831,-0.0034282530526764275,-0.003070199050333044,-0.002228211734392171,-0.0010720025636207528,0.00012841305354012212,0.0011020489525237914,0.0016787962730707403,0.0018468087212157203,0.0017388190210285777,0.0015548192657167859,0.0014600549514126298,0.0015099489710916868,0.0016391260750627853,0.0017162854088547763,0.0016295757761933644,0.0013505957785550412,0.0009403201007087793,0.0004983867223077039,9.331669613604917e-05,-0.0002791435444116651,-0.0006845976183974075,-0.0011964971766748648,-0.0018355302091145292,-0.0025362953437564994,-0.003157067903382045,-0.0035265643288206073,-0.003506887495262971,-0.003047355641376975,-0.0022084109334869102,-0.0011455246770963477,-5.706689255179391e-05,0.0008853434775427035,0.0015948487150715869,0.0020870171220139623,0.002445579346554783,0.0027535986132011976,0.0030306085089549595,0.0032150753254651765,0.003203578927412033,0.0029216093778257094,0.002380853074751564,0.001686986550509481,0.000993084050001861,0.00042642691551170154,3.0666700925063156e-05,-0.0002466244969628515,-0.0005190188244667995,-0.0009010836345402593,-0.0014515126098950683,-0.0021388530001673995,-0.002837702497542162,-0.0033583188302293973,-0.00350937573592923,-0.0031814804287744,-0.0024187077412669497,-0.0014344134111604837,-0.000544352454880328,-3.2588932384190967e-05,-9.494711295838718e-06,-0.00033795584882043476,-0.0006796773918964944,-0.0006549335373330647,-4.2851073914119834e-05,0.0010856592454327359,0.00238370514566508,0.0033926836979163546,0.003766621629831039,0.003432244918578021,0.0026000368610786598,0.001628758070411837,0.0008262987351631101,0.0002998760168391781,-6.354958689539707e-05,-0.00048121981486184696,-0.0010964819435806978,-0.0018503835287172626,-0.002486254076830624,-0.002688974601916103,-0.002275611321841761,-0.0013204658853044466,-0.00013740231407823614,0.0008705684549780132,0.0014061003500330316,0.0014070329850092759,0.0010462335290432317,0.0006161552400890388,0.0003730439373167941,0.0004237751175484469,0.0006990976602469003,0.0010055906383071244,0.0011179340554458943,0.0008708441525513656,0.0002226078987897079,-0.000725081618222022,-0.0017561366923326985,-0.0026104291015543596,-0.0030716177447915748,-0.0030371764832563155,-0.002540894784549877,-0.0017222671400347743,-0.0007650253385443951,0.0001618689973681012,0.0009396746618131958,0.0015118404796257707,0.0018826055213155596,0.0021061682103691625,0.0022613305490602224,0.002410141404415857,0.002555656046762083,0.002627154839499535,0.0025130540721566624,0.002131029995098205,0.001492276043805474,0.0007106171013359351,-6.054598055265812e-05,-0.0007275583029303463,-0.001321044602425157,-0.0019689653714436064,-0.002783026414208826,-0.0037308764811804563,-0.004588190217069654,-0.005018864033883761,-0.004746762314147213,-0.003717651738701185,-0.002150925245770343,-0.00044719122181941087,0.0009950034118286603,0.001948589202899932,0.002422882849217408,0.002599779392996151,0.002692480318066284,0.002817344103345312,0.0029515520060719143,0.002988638533231133,0.0028414233489336485,0.0025177354497600978,0.002120667243825685,0.0017795575354072318,0.00156264279378584,0.0014308430409678925,0.0012631193655427886,0.0009370600384849949,0.0004117803116690901,-0.00024374515198158809,-0.000899916164449263,-0.0014625960608018209,-0.0019469516873193455,-0.002467911970110371,-0.003141931865864716,-0.003962442673790558,-0.004740250687902606,-0.005164141030009721,-0.004957553509893545,-0.004039240029665432,-0.002587372007049926,-0.0009646749127510447,0.0004516800415182376,0.001434769046985757,0.001975528436729216,0.002227698844734003,0.002380761123459962,0.002547371427417817,0.002728241977472649,0.002857301785975704,0.002878096718300697,0.002792169362090675,0.0026515788295935682,0.002511676248606375,0.002384329451724053,0.002224712673211633,0.001958940943969982,0.0015347001242140695,0.0009642872149269342,0.0003321482662809991,-0.0002436344465767723,-0.0006796255412485255,-0.0009859611947822674,-0.0012749599394524355,-0.0017043088151894301,-0.0023800375302830165,-0.0032733433357984678,-0.0042023495072724395,-0.004894649173261976,-0.005099678000358925,-0.004691380894418867,-0.0037104963265201475,-0.002335117046648488,-0.0008084858280904955,0.0006336665136768131,0.0018104781645299558,0.002617479223226834,0.003033028580701935,0.0031138681071565897,0.0029742213571608907,0.0027454958287676462,0.0025285587100189874,0.0023620200552568558,0.002223844816821319,0.0020629187367491456,0.0018387752519041527,0.0015454820469214758,0.0012093722671573924,0.0008681578135048476,0.0005482198059152091,0.000252889737027489,-3.64862123577468e-05,-0.00035228644253192977,-0.0007299776081009005,-0.0011959282151050821,-0.0017538300181815705,-0.002372793257753722,-0.002982245676128518,-0.0034777657971024056,-0.0037396000486727716,-0.0036628255490360204,-0.0031932519053497537,-0.0023566985182632196,-0.0012668635267160163,-0.00010355567327760117,0.000934077568955576,0.0016836668583669972,0.0020660118763469,0.0021066961059782495,0.001925771948134019,0.0016970099020054137,0.0015866829879073764,0.001690211544167546,0.0019906756307943494,0.002360155317291286,0.0026092980600742996,0.0025677239266947826,0.002160653554182474,0.0014464256086638237,0.0005966178232754147,-0.0001735437077868562,-0.0006949578836422921,-0.0009167985590483483,-0.0009300421413439852,-0.000929042680160995,-0.0011212908012010977,-0.0016195706816502023,-0.0023664679528239956,-0.003136136392934722,-0.0036259310768197066,-0.003601631212777803,-0.0030220711437055586,-0.002070598921921873,-0.001068884398776016,-0.0003172377200324917,5.017093934713403e-05,0.00011747234131599991,0.00012571250856413318,0.000339590253203244,0.0009139761190886998,0.0018200972390728628,0.0028559184186992548,0.00372917629776045,0.004176096204457798,0.004066887420960065,0.0034539007931647394,0.0025420305257306906,0.0015962790989149079,0.000830874673268895,0.00033110368941951943,3.946957801300669e-05,-0.00019559668710491157,-0.0005379799517489373,-0.0010876353877694131,-0.0018387645320041895,-0.0026821359409432643,-0.0034432536757914665,-0.003938332108713924,-0.004029685098893852,-0.0036667152107533185,-0.0029029216589676263,-0.00188294971311014,-0.0008007551882879828,0.0001584783330594345,0.0008704252051993547,0.0012966173988778209,0.0014749098907135588,0.0014858515937106278,0.0014157827326487372,0.0013341263045354675,0.0012888523843553549,0.001310994911454083,0.001415867987520383,0.0015964557286825074,0.0018157197508270194,0.0020093367729740116,0.002104248403367617,0.0020458542149221883,0.0018177281577403035,0.001440317877609664,0.000948619868370573,0.0003641184041767954,-0.00031791917487760876,-0.0011134882527577732,-0.002013412267283319,-0.002947834440856217,-0.003776964523023627,-0.004320496870117338,-0.0044169057150044355,-0.003986580269143075,-0.003069244425841656,-0.001818462768039544,-0.0004570344585539663,0.0007861013717105477,0.0017333466570150886,0.0022946743462370182,0.0024783532563149428,0.0023786798127391753,0.0021446244852845256,0.001933537675758213,0.0018577803003166507,0.0019402394396578597,0.002101087384072813,0.002191957160262365,0.0020702047325547174,0.001677072206460897,0.001072708274321206,0.00040229462175808293,-0.00018960161853587298,-0.0006440763861127079,-0.0010178056500377319,-0.0014368725059606571,-0.0020012994825826117,-0.002698675880851243,-0.0033811929679485294,-0.0038232106352086613,-0.0038286262572189513,-0.0033278710833461044,-0.0024115673869197583,-0.0012867663570539731,-0.00018606873002703514,0.0007190921916176449,0.001362007574923978,0.0017729775321497976,0.0020377933563084536,0.002247226741470313,0.0024560389483543692,0.0026618437701078235,0.002809133729797656,0.002818092534101203,0.002628070606895819,0.002235839680576333,0.0017070209769367507,0.0011496834266378959,0.0006590186623838049,0.00026170274683800154,-0.00010492853457737652,-0.0005593296211174743,-0.001200703546883515,-0.002034214108286086,-0.0029418941613634396,-0.0037188702621364107,-0.004156504326277164,-0.004128852401086987,-0.0036403317601459433,-0.002815905756414318,-0.001844160036589615,-0.0009031049294015948,-0.0001019400638431569,0.0005385770142844147,0.001063091860280653,0.0015315377823140073,0.0019705929216150757,0.002354454600106517,0.0026256646849473226,0.0027413529495835666,0.002712178398972643,0.0026040409467706894,0.0024969480663464723,0.002426345241424646,0.0023483035755320187,0.0021579060399636004,0.001755057750823445,0.0011160923035199138,0.0003196411380932304,-0.0004968421935985876,-0.0012236682319533487,-0.001846981704841549,-0.0024452257609959404,-0.003110359127427422,-0.003845338386505022,-0.004510058808661309,-0.004859486776101567,-0.004659933548823752,-0.0038200423403591563,-0.0024617114837345144,-0.0008879707202252348,0.0005392494651235898,0.001549523112104208,0.002065620453575131,0.0022073760742838716,0.002203009012396062,0.0022616742105236185,0.002475652786183324,0.0027961393192770818,0.0030820193035495814,0.0031843549059049495,0.0030191581361856856,0.002597442215077378,0.0020092978492242328,0.0013796210350282261,0.0008184429079442649,0.00038292233149970155,6.040461669862469e-05,-0.0002232974842377764,-0.0005718577412743565,-0.001072490211765576,-0.0017535055542506005,-0.002563038730275891,-0.003377821324489408,-0.004037767303748558,-0.004391891134027477,-0.004338696567634437,-0.0038498889642433554,-0.0029751341321487715,-0.001831253199718255,-0.0005797665825368297,0.0006043597948327295,0.0015687109675238625,0.002216976862003856,0.002530915184085947,0.002572720676748781,0.0024638680856192553,0.0023429692047554893,0.0023136551345018675,0.0024014830614240475,0.002540704699856338,0.002602279009568861,0.0024552681822053116,0.0020343531194767905,0.0013786757219183508,0.0006182162038355793,-8.973626504110339e-05,-0.0006426040719136459,-0.001047210216259547,-0.0014122582806007716,-0.0018765692680493208,-0.002508759088221942,-0.003235265594935483,-0.0038440028098240876,-0.004071708132376815,-0.0037337269308753175,-0.0028254678318591587,-0.0015371008216222071,-0.00017300197455371165,0.0009769662785082981,0.00174351012282659,0.0021123777479481725,0.0021861563510040182,0.0021109422155133443,0.0020123608531294294,0.0019641052784334302,0.0019844884881737566,0.002044018890968872,0.0020749120326225678,0.001988130863899904,0.0017061470598899084,0.00120460203636145,0.0005375557693544847,-0.0001794916968864493,-0.0008291170583449368,-0.0013591537073244814,-0.0018078174337366883,-0.0022606456758227362,-0.0027626183817678054,-0.0032475269615416334,-0.0035418926366147137,-0.0034516134413606287,-0.0028803050626939413,-0.0019026593970922277,-0.0007431259437982926,0.0003293526733669519,0.0011273911013191952,0.0016182824959069051,0.0019064590522689588,0.0021443900181485026,0.00243127703844398,0.0027590262144234936,0.003029374501065597,0.0031209582333387442,0.002959475183302686,0.002551272534425433,0.0019708925452532732,0.0013216048538463674,0.0006954679183270158,0.0001475667412407996,-0.0003151458644776091,-0.0007333531010528377,-0.0011809023183940875,-0.0017317675831235416,-0.002412694330168119,-0.0031621719304342896,-0.0038258702975184243,-0.0042064050063745475,-0.004151855141490845,-0.003635009400539497,-0.002772348385393417,-0.0017669109931824716,-0.000809520949263206,-3.9376879491821043e-07,0.0006636060242674548,0.0012384840207423703,0.001763697038949303,0.002224447544851839,0.002566913772259281,0.0027477467345379757,0.002777289438437057,0.0027238002258843223,0.0026745542434561628,0.0026789305090031018,0.0027103017723847287,0.0026717187882815087,0.0024439294788201095,0.0019501103526767248,0.0012030366264512444,0.0003098501365949998,-0.0005694458628740165,-0.0012912542161964977,-0.00179246255111834,-0.002116271223907699,-0.0023827951767408408,-0.0027150111494635143,-0.0031572216486937224,-0.0036327719040944667,-0.0039703099003684395,-0.003988983747094779,-0.003594754982534658,-0.002829711196836685,-0.0018455850575539673,-0.0008232158748683637,0.00010662791366892164,0.0008942033791375501,0.001547348663487328,0.002085431216729463,0.0025098816773998635,0.0028075418892144995,0.0029728929797241915,0.00302234271921492,0.002985295550708362,0.0028800698851445036,0.0026978446350767638,0.0024127555408317253,0.0020147806079243826,0.0015404246025130883,0.0010720993980732592,0.0006966845057765304,0.00044528826216771403,0.00025622501952409903,-6.368604235266074e-06,-0.0004815835066628836,-0.001228682943151998,-0.0021824884719485378,-0.003173203236220904,-0.00399565043079074,-0.004485599839283194,-0.00456449518392161,-0.00424048786010189,-0.0035806878164165996,-0.002679886285703044,-0.0016426987789491506,-0.0005787362767707227,0.00040228880557107685,0.0012069526560651333,0.0017832684735832939,0.002138538350378144,0.002334356257811115,0.002457506488841652,0.0025812052754709026,0.0027358139270682595,0.002900070425766926,0.0030118148373622657,0.0029908207070008137,0.00276709756781234,0.002309536370841001,0.0016470214915049344,0.0008703670668644152,0.00010675387049783247,-0.000528292227018559,-0.000980542705373523,-0.001281693045628379,-0.0015324713339560253,-0.0018483351626786414,-0.002291626130118949,-0.002823632930288381,-0.0033044626741301924,-0.003547485348767927,-0.003405678740119489,-0.0028458383885776404,-0.0019697661741601307,-0.0009707163738047113,-5.0418345803128744e-05,0.0006576682440456844,0.0011216076838179454,0.0013926279142159755,0.001556441078822096,0.001686769380560361,0.0018224312739727375,0.001968154657678241,0.002105798486516982,0.002204284782827646,0.002226079896413423,0.0021340532713428374,0.001901025304558348,0.0015198231667308269,0.0010094757719374598,0.00041393002022459724,-0.00020838229017017284,-0.0008026168528601934,-0.0013364107139432313,-0.0018078324805045828,-0.0022324175468947205,-0.002611818424643598,-0.002903595692679307,-0.0030180638540907023,-0.002853581183317333,-0.002353905417165589,-0.0015520734451604605,-0.0005713830855834045,0.0004185683027488139,0.001265116311130508,0.0018805208856187033,0.0022532325297118525,0.00242409136733362,0.0024472852362991326,0.002359949092115991,0.0021744270820810703,0.0018916098138016084,0.001522386571947047,0.0011016739314831465,0.0006840510782685895,0.00031915444812050055,1.728218242272294e-05,-0.00027288275804807473,-0.0006507727310331201,-0.0012070513522043063,-0.001946518521036486,-0.0027401576115341914,-0.003351774415207944,-0.0035421850917446616,-0.0031969797846959813,-0.0023965181497812237,-0.0013769667242457158,-0.0004031680894773465,0.0003638922413665889,0.0009187523510279231,0.0013558869918928141,0.0017584822781637622,0.002119065115932108,0.002347314522712443,0.0023494663128337495,0.0021119658268683983,0.0017264464588212845,0.001342690460939074,0.001087739201859732,0.0010057491194684532,0.0010497973163232392,0.0011180250487070472,0.0011022083437407465,0.0009199747895024641,0.0005230970008793857,-0.00010599549087933913,-0.0009527730712870217,-0.0019580662402109363,-0.003003628279930752,-0.003913389933885191,-0.004483423104376396,-0.004538410494225046,-0.003995360705790848,-0.0029069206174429122,-0.0014625232537446677,5.777676871849494e-05,0.0013638195779656494,0.0022443394362711908,0.0026326178978350605,0.0026201397778903013,0.0024065210918143656,0.002203615027105423,0.0021394692008651073,0.002212160845028877,0.0023157203675298024,0.002317106817287046,0.00213516601335203,0.0017777377078557438,0.0013233363927583795,0.0008658323889461995,0.00045631247439136967,7.236892649455356e-05,-0.0003713597393433571,-0.0009765251734142053,-0.00179773784267414,-0.002789109525917099,-0.003786656222984623,-0.004542957225066998,-0.004810599070238982,-0.004445357263401226,-0.0034819579507644853,-0.0021394944194718397,-0.0007439644304543195,0.0004016536087217931,0.0011381118123100552,0.0015003547777138386,0.0016721332752440547,0.0018709817950683602,0.002227587584720408,0.002724130605125251,0.003219254802160241,0.0035364056874594065,0.0035588093731529352,0.003277359644721327,0.0027724227123505246,0.0021529187946346833,0.0014983658282344864,0.0008389503118977034,0.00017569693453074178,-0.00048662309864097987,-0.001125690072704458,-0.0017171564264472552,-0.0022605304763768704,-0.002783701571985054,-0.0033100065995332758,-0.0038057613280334177,-0.004151654415077529,-0.004174206985359886,-0.0037335256359701226,-0.0028184280039617684,-0.001585265187055463,-0.0003073037511216279,0.0007420466379909176,0.0014062947480430609,0.0016981231421303489,0.0017635819893641231,0.0017875915425405076,0.0018988655810503504,0.002122516842289403,0.002393085491105249,0.002606764401977026,0.0026785960625988862,0.0025783242129683954,0.002334748842920414,0.002012448845084793,0.001674479445527129,0.0013500550044364906,0.001023479685456659,0.0006473614657819479,0.00016738932182551672,-0.0004578612657389106,-0.0012461066848139448,-0.002179131122956041,-0.0031815089645600213,-0.004102737864071523,-0.0047306407873130615,-0.004852830838375502,-0.0043484718548588135,-0.0032617937308678725,-0.0018091142859686655,-0.00030580200747035353,0.0009540960261599875,0.0018052005970039177,0.0022522709343772086,0.0024297510461929383,0.002507199843769402,0.0025945700723253155,0.002696359452947802,0.0027325187640434142,0.0026058768686520024,0.002272035506456075,0.0017697460491191885,0.0011950046662430637,0.0006365088600402295,0.00011517308800149183,-0.00042890784753643585,-0.001085765316913837,-0.001886965198578402,-0.002736744348653537,-0.0034177951572173814,-0.0036841388061830886,-0.0033941830670303876,-0.002601563396470214,-0.0015399955146520462,-0.0005043909731256898,0.0003001061709512875,0.0008467719706350004,0.0012606706038758644,0.0017004802119966718,0.0022310631883122657,0.0027702142456664763,0.0031386968994188895,0.003172797140523286,0.002821527140443269,0.0021688700774148547,0.0013773903651027497,0.0006003604168898168,-7.953230214866405e-05,-0.0006570884575757198,-0.0011708850695583031,-0.0016626288517257812,-0.0021528245235002876,-0.002633335801809031,-0.0030658293846828775,-0.0033812667324576427,-0.00348726923325924,-0.0032918502163280282,-0.0027408782276861204,-0.001853336980025895,-0.0007347846826907914,0.0004419699886134445,0.0014849254834766944,0.0022420860974491407,0.0026482045515261476,0.002739969006851119,0.002633707155711561,0.0024748048397342007,0.002378068565659209,0.0023808754808951277,0.002427591301421656,0.002394800045091789,0.002151437582871538,0.0016293432964525603,0.0008686801672486808,1.017907200288751e-05,-0.0007673769270813923,-0.0013342292314358407,-0.0016734665627087613,-0.0018831317470149296,-0.0021117864180447577,-0.002461975841657597,-0.0029164955207724146,-0.0033304733966040157,-0.003495537187442011,-0.0032431495897647144,-0.0025339543399565253,-0.0014875927937198627,-0.0003377130418265389,0.0006654620303180262,0.0013562814997654263,0.0017084936347119477,0.0018191620560803756,0.0018363269542261435,0.00187533536208761,0.001970690288134445,0.002082999378709726,0.002144484546743519,0.0021071056997535535,0.001964516023736726,0.0017417630254850506,0.0014665895195244787,0.0011433131504475303,0.0007454707197484013,0.00023210656604546933,-0.00041994971416227074,-0.001184405414020246,-0.0019723691191528793,-0.0026482177291490506,-0.0030713895355804583,-0.0031474626077466713,-0.0028650966182757792,-0.0023001211704913745,-0.001583837422052555,-0.0008517006874941136,-0.00019860600283144606,0.0003394150214436583,0.0007748195736878452,0.0011421076753664369,0.0014708443669316355,0.0017673488563617896,0.0020079268055381238,0.0021451775382910435,0.0021284871040031226,0.0019336620968265713,0.0015861078219863661,0.001158244607333574,0.0007345323438298238,0.00036113435375048153,1.320978637603474e-05,-0.00039399084582789935,-0.000950597110540902,-0.0016822984281639163,-0.0025040727301381648,-0.0032248137852751895,-0.0036053197080184517,-0.0034479761913574114,-0.002683192836607251,-0.0014175704314922926,8.006856404808144e-05,0.0014578193731931408,0.0024005859045927833,0.0027428535272999983,0.002523107823620434,0.0019534209880889275,0.0013196138980708164,0.0008616893410330374,0.0006903623010322477,0.0007717851289390891,0.0009756572057696231,0.0011531097760916738,0.0012023707040534066,0.0010926650884374263,0.0008427607059748685,0.000477452344786208,-2.317716956372687e-06,-0.0006118589251891248,-0.0013437213708102531,-0.0021297214422328174,-0.002838152509313867,-0.00331517967321009,-0.003446995513589065,-0.0032044750408029773,-0.0026449410686131738,-0.0018751355656804287,-0.0010031372056389589,-0.0001084402626092473,0.0007591747393520336,0.0015626183664410173,0.0022608219787966033,0.0028040590340389047,0.003141898640719368,0.0032383582820990553,0.0030876077530571965,0.0027231984089709145,0.0022144332391326287,0.0016484714060533527,0.0011049144999548217,0.0006341215916638777,0.0002469917146914486,-8.341372034166529e-05,-0.00041149032913551185,-0.0008009687518108937,-0.0012988700127297686,-0.0019065453167610431,-0.002560871033366329,-0.0031401674946808485,-0.0034994461096884916,-0.0035233481416354043,-0.0031733468532976353,-0.002506248827823327,-0.0016539301820097253,-0.0007727233435591684,1.483915781575005e-05,0.0006599783431240377,0.0011915326767863673,0.0016812915996024477,0.0021859056251044397,0.0026942186323145956,0.0031107169563164725,0.0032905035911252383,0.0031135364055704558,0.0025604458944996273,0.0017452788245048891,0.000879714739587409,0.00018103932906975368,-0.00022936699638861696,-0.0003819249796996661,-0.0004382074920066185,-0.0006040960776055939,-0.0010208431790690174,-0.001687484860635224,-0.0024510925168257413,-0.0030683461917003717,-0.003308830375656456,-0.003052098879723016,-0.0023347004953665346,-0.0013279732325125137,-0.00026120703584827656,0.0006691695445385584,0.0013598744030453053,0.0018065680252848761,0.002063099814680605,0.002185852601344677,0.0021976482293178047,0.002088583759918499,0.0018460551558633525,0.0014882723638669606,0.001075100255716626,0.0006864293518105444,0.00038014855845721913,0.00015529375543022042,-5.5963856245696544e-05,-0.00035864054284521184,-0.00083813129855456,-0.00150185262696809,-0.00224923066573474,-0.002890880639359906,-0.0032167869201006304,-0.0030871120721114127,-0.002501186038142608,-0.0016048095022590046,-0.0006268709246060303,0.00022273626076340595,0.0008385685989062993,0.0012444182729905435,0.001550551556369989,0.0018734289755956797,0.0022630227547916805,0.0026725422661838336,0.002980551894488221,0.003050427165591143,0.0027970745805257647,0.002229868805271409,0.0014523862368202723,0.0006187536873314484,-0.00013350849726097552,-0.0007414317542776818,-0.0012346542920718614,-0.0017020258681189988,-0.0022232813662617546,-0.0028032450893336926,-0.0033462202989179824,-0.0036867392593311057,-0.003662314118180714,-0.0031916065750887744,-0.0023190096818925905,-0.0012041883710320416,-6.268957083605052e-05,0.000913093724003419,0.0016158744872459669,0.0020425202578277933,0.0022669159014458424,0.002385502655284527,0.002464906641329337,0.00251557091448352,0.002498806180586053,0.002357901861910452,0.0020551290829784736,0.001596963387829851,0.0010367564211669097,0.00045422634089579104,-7.856596133153614e-05,-0.0005284124955908386,-0.0009129957527611444,-0.0012847943711289554,-0.0016909766270675466,-0.002128170430602965,-0.0025195573366332863,-0.002734874890094969,-0.0026501441464418423,-0.0022164183759834145,-0.0014964476743924416,-0.0006456017166392312,0.00015214453776724588,0.0007557446998764802,0.0011084849173918004,0.0012351686041336182,0.0012085343880873128,0.001110741090336328,0.001008894906093738,0.0009476135082597933,0.0009495123168723713,0.0010129428182995047,0.0011042498620048938,0.0011529640012038606,0.0010639020491414626,0.0007532289224920807,0.00019775313684385456,-0.0005296078183949712,-0.001265263408661985,-0.0018079684627640164,-0.001997745896763165,-0.0017822964240643492,-0.001237976048845622,-0.000535214019665113,0.00013480973852384283,0.0006364939688236568,0.0009313920423873381,0.001065824955953968,0.0011170286591271534,0.0011356671706971779,0.0011222320572441033,0.0010473364372914342,0.0008918645482188738,0.0006694244505153706,0.0004110977186295477,0.00012631724522610302,-0.0002234332228733155,-0.0007075808483882756,-0.0013668202649362677,-0.0021457699006049496,-0.0028657174371657873,-0.003267225631768316,-0.00311379151734981,-0.002310551038813991,-0.0009765366763363299,0.0005748325284463832,0.0019489258850956676,0.002827732763251311,0.0030940460297694612,0.00285772552160794,0.0023731024344746288,0.0018971987778155619,0.0015674955439032522,0.0013588539251562508,0.0011288924177918673,0.0007146839419550013,2.6827149314906948e-05,-0.0008991089575460879,-0.0019065548972016912,-0.0027679699425355525,-0.0032607405507512014,-0.003244424881686566,-0.00271238055919092,-0.0017943681059198607,-0.0007042345869951327,0.00034426916011509037,0.0012090354432657967,0.0018407780980577927,0.0022508357883158255,0.0024594120116306767,0.0024672224078288872,0.0022682833481720956,0.0018840694842691334,0.001381043249251812,0.0008490065016311878,0.00035262519030545506,-0.00010706069724337498,-0.0005899797233042863,-0.0011716629633855792,-0.0018828533310406752,-0.0026698233722591723,-0.003395922590880822,-0.003880914312537148,-0.003958606912052878,-0.003531176256278269,-0.0026048288607173568,-0.0012980778748742554,0.00018105731919312623,0.0015859693366399494,0.0026977586844346697,0.0033850655749524585,0.003633922120565158,0.0035342791159797297,0.0032292501170320042,0.0028514311733761405,0.002476234017217323,0.002111263132581586,0.0017206184822793347,0.0012659022030316667,0.0007405373849797802,0.0001816072185257142,-0.00034294489182029077,-0.0007632951503836281,-0.0010410145358921213,-0.0011954075795204623,-0.0013115819122246821,-0.0015190674592152056,-0.0019372245927310164,-0.002602230299653785,-0.0034114775394909003,-0.004126279085927174,-0.004450258087170804,-0.004157038742169798,-0.0032044504638387666,-0.0017710587182257868,-0.00019004602522488547,0.0011875603870817092,0.00212963465656393,0.002592418988012043,0.002696699898618471,0.0026362186281265465,0.0025748597462561503,0.0025848275459346435,0.002645921944337922,0.002688846283358471,0.00264624738672391,0.00248266489593093,0.002197670168587235,0.001814449383902031,0.001367260053445843,0.00089158800246088,0.00041423282349580285,-5.711446910581499e-05,-0.0005396037881809817,-0.001069895890390861,-0.0016857550252127155,-0.0023984731108946744,-0.0031652108382632916,-0.0038749576468654827,-0.004363110247495897,-0.004460907095316651,-0.004065516201575537,-0.0031964897186541955,-0.0020033841528082643,-0.0007142605979108749,0.00044999567736944343,0.001350729276441709,0.0019599373051511415,0.002334677598563296,0.0025584095467841546,0.0026838277627674895,0.002707662880326503,0.002589695369203984,0.0023028017274480984,0.0018803813054369132,0.0014262544031768106,0.0010744944631200315,0.000919426329824597,0.0009569064638590221,0.0010731404414924778,0.0010904454233666354,0.0008474218509419719,0.00027278253362492924,-0.0005824967974160959,-0.0015658505471230627,-0.002480875810457932,-0.0031523437096224382,-0.003471997441799386,-0.003413054790379676,-0.0030171432067908283,-0.0023678723114572515,-0.0015669563431386486,-0.0007212143629850064,6.358697020642678e-05,0.0006936902856029963,0.0011097451309054459,0.0013120379034114375,0.0013677096224646726,0.0013837265368058327,0.0014517028212910682,0.0015948940225989146,0.001753004212439534,0.001819275614741509,0.0017098910523233833,0.0014222086727718416,0.0010429478780912523,0.00069853929374689,0.0004777387388188926,0.00037552008443079,0.0002932868727898931,9.360343136333962e-05,-0.00032473437087337837,-0.0009718086037304826,-0.0017543722544759758,-0.0025052277028219487,-0.0030388115447209704,-0.003212944448243887,-0.002975820030788178,-0.0023801158985309037,-0.0015572369159021359,-0.0006632382009647299,0.00017655272205069068,0.0008967201130164212,0.0014839110674769909,0.001944324787052695,0.00227301471482825,0.0024470524182863738,0.002445012482154389,0.0022744809706118745,0.0019828734641499004,0.0016404491265697672,0.0013075524990363036,0.0010108086391535619,0.0007435974359699532,0.00048379955566665075,0.00020833707264843963,-0.00010793294588585817,-0.0005007801745107745,-0.001012216739699315,-0.001661781605571109,-0.0024056762665943666,-0.003114268720036473,-0.003595102747414203,-0.0036630500852839237,-0.003227586898301184,-0.0023504582026950905,-0.001237403817613848,-0.0001609118281509866,0.0006509945935797643,0.0011041789170529632,0.0012604833038019026,0.0012842923656959386,0.0013480486339234362,0.0015516913823408725,0.0018956658231952996,0.002308171109493544,0.0026941693427171205,0.0029695153448540705,0.003067072711552882,0.0029301242328796614,0.0025174529226282315,0.0018276663597796231,0.0009238359546335997,-7.088979980810102e-05,-0.0010173571091594519,-0.0018205375913022477,-0.0024626088696625935,-0.0029814130695959996,-0.0034076777983931853,-0.003708426233264628,-0.0037830667610363245,-0.0035217349621547676,-0.002889287073421663,-0.0019767653097085723,-0.0009808535569059244,-0.00011781434731598559,0.00047921618684746976,0.0008190705391473863,0.0010329937085226837,0.0012890283623975042,0.0016909469995026105,0.002218625202044859,0.0027393785806160815,0.003078727123020083,0.0031096589158835747,0.0028146417164072036,0.00229101956917224,0.0016975338279315402,0.0011676917018939692,0.0007348494791629801,0.0003132953496026454,-0.00024640842085910596,-0.001051959951926143,-0.0020724289466341997,-0.0031106715305200573,-0.0038696037613246354,-0.004082767272553671,-0.0036408458111882253,-0.0026464383294621326,-0.001369057070845088,-0.00012698438863671538,0.0008400863336803584,0.0014444917885613033,0.0017424949904760439,0.0018633040978351832,0.0019232862639186493,0.0019719559322183594,0.0019898188464353896,0.0019258092046662246,0.0017430957841192416,0.0014442659182074234,0.0010642027396679569,0.0006389755359712999,0.0001724955899277819,-0.00037463460060501406,-0.001059619271119082,-0.0019020158295317902,-0.0028282173206892105,-0.0036553470353976915,-0.004138379809848339,-0.0040676606436320486,-0.003368405727980038,-0.0021456030133780914,-0.0006467363531032895,0.0008367168581190749,0.002073620585091704,0.0029507831465835593,0.0034659964725012597,0.0036779949540768474,0.003652941402660222,0.003437294866891938,0.0030614124286825833,0.0025564993120326253,0.0019636454912246495,0.00132718505759482,0.000681092916486203,4.158148450766528e-05,-0.0005898115148535079,-0.0012184904753275297,-0.0018505049841075884,-0.0024856565383568,-0.0031034210351502563,-0.003642946033330071,-0.003993152700684141,-0.004013833396726506,-0.003592217981073211,-0.0027105572180151057,-0.0014831239677670107,-0.00013342850714723048,0.001082124120393373,0.001965347134203892,0.0024366747854040246,0.0025406827758473203,0.002404292450178226,0.0021760317735033423,0.0019749899136996883,0.0018637601715338007,0.0018441488836111297,0.001867337989711948,0.0018517300406817512,0.0017055483568962709,0.0013518439852524947,0.0007511935436266832,-8.331095430269986e-05,-0.0010808643857235806,-0.0021161496761542766,-0.0030211594841852477,-0.003611063061639113,-0.003729554641056109,-0.003307499910121835,-0.0024108242212652915,-0.0012450601663301646,-9.793718356119834e-05,0.0007649037069878998,0.0012032778717444707,0.0012504591948887677,0.0010797756943216998,0.0009102444683686337,0.0009045452065896475,0.0011103225811294186,0.0014637909019519304,0.001838593603773832,0.0021059767888101707,0.002178543932312294,0.0020268335169905585,0.0016718411438442688,0.0011624886904908886,0.0005481698458652777,-0.00014260755290089935,-0.0009056267433071058,-0.001738751439525016,-0.002600322334097427,-0.0033734335253158276,-0.0038698092863351276,-0.0038903140691791543,-0.003321682006954448,-0.0022166661160490137,-0.000804861419982241,0.0005818118462871797,0.0016354647282478003,0.002187443184217306,0.0022571020742816602,0.0020161478692066765,0.001693970574134107,0.0014752742727623378,0.001437433687032856,0.0015464196536207145,0.0016968440792952243,0.001764887928012519,0.0016487849328201657,0.0012890067266608986,0.0006740460298500836,-0.00015903692571663658,-0.0011246704110400964,-0.002091543893813415,-0.0028952581768803753,-0.0033685181743174936,-0.0033894944186085314,-0.0029344168747102587,-0.002106428132283972,-0.0011133624902513112,-0.00019065363319341593,0.0004980855962393685,0.0009273495341160979,0.0012001967224976105,0.0014653413721391003,0.0018110001426473944,0.002201798188843643,0.0024978949763325943,0.002543415190700988,0.0022683371244374417,0.0017400722534120338,0.0011310837756833417,0.0006191317978052828,0.0002793633418243342,3.7060936084316615e-05,-0.0002835548701237687,-0.000839188149087088,-0.001649497443389891,-0.0025573525912455184,-0.0032951527466966576,-0.003617496130723586,-0.003419610447330575,-0.0027741367001735714,-0.0018747122094780093,-0.0009321188373151296,-8.855397175939225e-05,0.0006098649668536301,0.0011867989746595867,0.0016883834246401138,0.002144931417152908,0.002551433985076811,0.002862977032539323,0.003003373451262149,0.002891477817285051,0.0024835715073069043,0.0018121476662393144,0.0009905369894033836,0.00016761409840093127,-0.000546892481976546,-0.0011364740059231831,-0.0016674289933198316,-0.002213654915628347,-0.0027667447855563706,-0.0031988460526480122,-0.003313014031479574,-0.002954426361719033,-0.0021113017967437486,-0.0009405160086126981,0.0002961176102712739,0.0013427731788733211,0.002043291445961692,0.00237357017400274,0.0024104300901294003,0.0022682557502351104,0.0020427451166978657,0.0017854963296259083,0.0015089536215454034,0.0012049991444730188,0.0008598708869998679,0.0004586812658065847,-1.591385444679825e-05,-0.000581715962671083,-0.0012450427555874282,-0.001979327062798386,-0.002703771727921957,-0.0032786209512310587,-0.0035320869727271127,-0.003319445342789507,-0.0025925463481839936,-0.0014431628616413332,-9.032686195320288e-05,0.0011899788440468875,0.002161517638199612,0.002704085243560937,0.0028350117317279787,0.0026730310337875086,0.0023710773351686447,0.0020544131912432393,0.0017886473287597937,0.0015805232141881758,0.0013978303241546223,0.0011911737381610226,0.0009077012959059277,0.0004979744952378929,-7.549854874648338e-05,-0.0008209575215120063,-0.0016943685046049849,-0.0025855404685983826,-0.003330705392543178,-0.003756695954709655,-0.0037417482110741573,-0.003264486806753536,-0.002416446823534325,-0.0013723632092680804,-0.0003330956903379816,0.0005346897624161119,0.0011421766248962029,0.0014947767031032247,0.0016775029275746286,0.001811591913563698,0.0019947606866841175,0.0022494874296612034,0.0025069760235725074,0.002640622441492692,0.002535968214566973,0.0021602421918803724,0.0015903205100261802,0.0009785318553773021,0.0004709013994676532,0.00012212189759573837,-0.00014236019117806254,-0.0004895689813251115,-0.001080519834982667,-0.001959603835165777,-0.0029933424788317936,-0.0038986634231041655,-0.004355158617806437,-0.00414949361875047,-0.0032797137522764027,-0.001965811250931745,-0.0005609027633656099,0.0005925922377344726,0.001292823926443537,0.0015375187177177534,0.0014938624332854692,0.0014032211900762955,0.001468721399448819,0.0017720202606190188,0.0022464482491729183,0.002710550328443114,0.002946568916837349,0.0027942943959826804,0.002223793760766556,0.0013551263751005681,0.00041224032548924615,-0.00037246818377832886,-0.0008603646603980218,-0.0010657697050803776,-0.0011404217792406858,-0.0012869998199661007,-0.0016416319188131644,-0.002184859518320104,-0.0027317921470522543,-0.0030145278661094254,-0.0028190279420512144,-0.0021034585283542786,-0.0010307128328853074,0.00010466233466451327,0.0010137099345948965,0.0015373099162398038,0.001692338500438486,0.001624334239538118,0.0015046241924476502,0.0014348338850698748,0.0014087406245347526,0.0013441006041234505,0.0011580161108853595,0.000837277903731283,0.00045939398327007387,0.0001490730890369481,-5.2549444098361426e-06,-2.2319474781585928e-05,-3.663303933674415e-05,-0.0002304623074218463,-0.0007223321342935651,-0.001475491122147722,-0.0022829502168663944,-0.0028447663902680526,-0.0029017592054682707,-0.0023578180054617945,-0.0013287633492446434,-9.48679030227938e-05,0.0010171329956975422,0.0017648706464788314,0.002074534162894403,0.0020438197624114162,0.0018678133418325589,0.0017283055249888387,0.001703870663631112,0.0017449972011476583,0.0017215881400486966,0.0015109000803350701,0.0010751391210158774,0.0004876270418714627,-0.00010421584502127946,-0.0005584147414944233,-0.0008187516690251204,-0.0009523568040161591,-0.0011196335585900597,-0.0014840990198762805,-0.0021036321984377474,-0.0028629933615937093,-0.003495095847215053,-0.00369392999608357,-0.0032666346423897335,-0.002241630959930666,-0.0008685563725156294,0.0004936962046109112,0.0015395232597468804,0.0021406018538598563,0.0023684562031697776,0.0024141511589814086,0.002460272189024202,0.0025795779843149334,0.002710873696542875,0.0027152308610089806,0.0024729125884301118,0.0019638162101993815,0.0012871734271606141,0.0006106351548196082,7.731812618665839e-05,-0.0002766564455026668,-0.0005449856218838598,-0.0008966047931994913,-0.0014702034218948713,-0.0022759397409368495,-0.0031610295038016403,-0.0038613254502418495,-0.004114231187113775,-0.003776333647026958,-0.002888012726199707,-0.0016553744732672798,-0.00036169813725161646,0.0007452140059843182,0.0015346390430620643,0.002009418542662331,0.002261049439457864,0.0023982346986803245,0.0024902340013239817,0.002548126014369886,0.002540625257916034,0.00242506414371051,0.0021749169740432166,0.0017948626638111466,0.0013215305836068547,0.0008097808070301313,0.00030656418160998416,-0.0001779693162112195,-0.000683821937714843,-0.0012820027848946102,-0.002022908680216068,-0.0028765575268167873,-0.003702622673844807,-0.004277851405328664,-0.0043771074094610726,-0.0038708830264576706,-0.0027893907307615607,-0.0013209674403371406,0.0002517166527518295,0.00164484504629807,0.0026561858813393736,0.003209359485546175,0.0033500333626429128,0.003202139801557222,0.002906725170344477,0.002571645495491771,0.0022507010907748676,0.0019503779426440593,0.0016470155520271882,0.0012991098130915632,0.0008539439373252636,0.0002586091861493305,-0.0005176859108482734,-0.0014553617164595309,-0.0024645323540893613,-0.0033872095282573645,-0.0040284357294735115,-0.004212748007527908,-0.0038491114775864076,-0.0029760665568262287,-0.0017606291530189448,-0.0004453812147411992,0.0007331069381103664,0.0016161004302317245,0.002155161948038299,0.002399149144248455,0.0024500211258387306,0.002409787546037079,0.002339285034592698,0.0022430447693159317,0.0020842513639398306,0.00182027338010408,0.001437829313572139,0.0009655681478473422,0.0004544094604596678,-6.260480378707137e-05,-0.000601408258879776,-0.0012191301041010862,-0.001960533476788673,-0.0027869532443819227,-0.003538501351505247,-0.003968901061781319,-0.0038491110958371643,-0.0030884135505805793,-0.0018035489951381987,-0.00029211719577342064,0.0010803012053515063,0.0020228883794327236,0.0024221260247472816,0.002358582716175678,0.002039241360396502,0.0016892743949151335,0.0014617160856471524,0.0014030674854102418,0.0014739000105400697,0.0015942550374078701,0.001681483953396273,0.0016667652807577386,0.0014956812078177042,0.00112501281494135,0.0005250065947094423,-0.00030834058447311947,-0.0013314455405437201,-0.002430500639758653,-0.003416331692640708,-0.004056418950307155,-0.004148371825714281,-0.0036104819573017626,-0.002541554669089786,-0.00120630444586643,6.023979906103632e-05,0.0009872193755223525,0.001473024160017609,0.001607226953742066,0.0016006830551946868,0.0016631693596019877,0.0018933803220968681,0.0022368376816122113,0.0025289053987522913,0.0025938486871212125,0.002342653817752946,0.0018169006726439984,0.0011585438493725026,0.0005266781013743477,1.023598677046887e-05,-0.00041397778518659093,-0.0008549391256225322,-0.001427911965570893,-0.002165675041832465,-0.0029689300566485897,-0.003624257963874389,-0.0038848831307286328,-0.0035792758562798723,-0.0026980551139621617,-0.0014171470043108417,-4.271833765464309e-05,0.0011006579669598753,0.0017902732326149288,0.001981495080930228,0.00180793093387054,0.0015083866521777203,0.001315902200953534,0.0013593257635252452,0.0016195875395520205,0.001955856302544047,0.0021840083678832437,0.002166455465895829,0.001869580991305781,0.0013642883496856307,0.0007757850203696466,0.00021363652560627022,-0.00028013466517735224,-0.0007396677776301019,-0.00123855261866418,-0.0018276648640645104,-0.0024793299069401863,-0.0030683501367465447,-0.0034062306955995186,-0.0033201464453396622,-0.002741376404797791,-0.0017554553403723223,-0.0005817878322225366,0.0005107881471225899,0.0013086434867951636,0.0017243348400907603,0.0018031231905116202,0.0016726108564952512,0.0014712839062262226,0.00129499594310144,0.001181261024805482,0.0011249654835087431,0.001103435966361784,0.001091716012739776,0.0010633931629076795,0.0009845449429034985,0.0008112998550142039,0.0004981786274299533,1.9287271167010064e-05,-0.0006028640086569396,-0.0012762533867789365,-0.0018472824902367405,-0.0021496676620565373,-0.002079866827478895,-0.001658242391352574,-0.0010331124713650755,-0.00041591274519431673,1.92495175576565e-05,0.00021311904315212782,0.00023192851499734333,0.00021070532837199176,0.0002694359135224588,0.0004531295073646126,0.0007247107060126944,0.0010035839548289504,0.0012173152202816645,0.0013326065836506348,0.0013508910605635467,0.0012786655737921752,0.0010981957652467793,0.0007631076538983923,0.00022729554123104064,-0.0005068072803779389,-0.0013506423273303494,-0.0021315639236712605,-0.002643479478290741,-0.0027268521517074496,-0.0023391009957934744,-0.001577693813907543,-0.0006414399107903567,0.0002513036966100674,0.0009451949687550682,0.0013902223370885775,0.0016281873415302872,0.001740100784897761,0.0017898640968358947,0.001795176641679008,0.0017351620255672494,0.0015807484878695003,0.001322550649044436,0.0009773038924964052,0.0005716764910229112,0.00011863367980213314,-0.0003937664892304858,-0.0009895124866509874,-0.0016711231450196075,-0.0023827813554793903,-0.0029940840870420803,-0.0033234906717421134,-0.0032025073036934287,-0.0025564313681264044,-0.0014603982709032758,-0.00013535389386604905,0.0011223907022696212,0.0020488742824144,0.0025074489018189626,0.002526209393334278,0.0022615685808245424,0.0019090971601010078,0.0016098258313935016,0.0014011089100763278,0.0012332489202302348,0.0010318159540117018,0.0007578617247374969,0.00042455824854635256,6.569056954982373e-05,-0.00030946255790942193,-0.0007307143766661038,-0.0012343894720928637,-0.0018079583923935796,-0.002356986484519709,-0.0027249148274653247,-0.002759810557547512,-0.0023911062567811424,-0.0016726574534801223,-0.000767577982811608,0.00011764472329580983,0.0008154784565713154,0.0012544900825993198,0.0014649838395296077,0.0015357984979863719,0.0015514017771696897,0.0015473529006910978,0.0015079397054109057,0.0014006737867545025,0.0012173349557185042,0.000988039025679864,0.0007564894509125743,0.000536131096587634,0.00028499402463924486,-7.32480183264308e-05,-0.0005876406387074922,-0.0012164438035382383,-0.0018091685448549844,-0.0021577034909411987,-0.0020970635771165205,-0.0016006594706813723,-0.0008109873385064561,1.9041638503799335e-05,0.0006450459239975858,0.0009433010282584053,0.0009536576306759612,0.0008344863059628557,0.0007621302568186338,0.0008333840635030808,0.0010196549607508097,0.0011888650528620987,0.0011773802555251891,0.0008744095799814726,0.0002798622197579171,-0.0004892869214760496,-0.0012460285064297986,-0.0018120271743567828,-0.0020907266479721657,-0.002097480698250843,-0.0019288962148703778,-0.0016881170753475809,-0.0014135153423461967,-0.0010603821235073484,-0.000550467768886443,0.00014518229059111995,0.0009510830447941963,0.0017029412943611508,0.0022274548531675637,0.002434262180197956,0.00235927823304391,0.0021320728052329125,0.0018910634699397025,0.0017033066319994197,0.0015390429742907273,0.001311323984329191,0.0009466982207312917,0.0004351668847311181,-0.00017193273056704704,-0.0008056322341895483,-0.0014235044322799977,-0.002016370370338671,-0.0025725548530271987,-0.003031560890219056,-0.003271983202351442,-0.0031568051922005163,-0.0026165228571080035,-0.0017165977505912437,-0.0006569267004920314,0.0003091265271870969,0.0009944370021558726,0.0013639305936728918,0.0015307998670067834,0.001664278558958429,0.0018689259752474822,0.0021144152601565466,0.0022602184772839854,0.0021558432149582567,0.001748245573173735,0.0011251718089987828,0.00046607050474447865,-6.759782986599482e-05,-0.00043053414868289043,-0.0007128567733058248,-0.0010622957478745364,-0.001556616986913316,-0.002112350933778224,-0.0024982852629588594,-0.0024557564286505993,-0.001855929788769191,-0.0007962708644585112,0.00042595044656831924,0.0014496064135428844,0.002015992911440719,0.002072568615593004,0.0017645172280717396,0.0013322309850459886,0.00098092511846419,0.0007923223408708886,0.0007141303322235623,0.0006171798163156763,0.00037879272870466624,-5.315048044940776e-05,-0.0006414115266055586,-0.0012833120215786017,-0.0018543305737803986,-0.0022458284538818376,-0.002384456526427626,-0.002237237717519403,-0.0018133624288188426,-0.0011680153769281418,-0.0004025598688662709,0.00035008215635397007,0.0009601989022515528,0.0013468357940375853,0.0015110272792288148,0.001533418965694172,0.0015312732750884573,0.0015959398846988825,0.0017454265563975383,0.0019160891304242007,0.001991779969669685,0.001849450587445636,0.0014002843694846797,0.0006186502471287247,-0.000439184989531789,-0.0016276825165272664,-0.002726193117230199,-0.003485895932756687,-0.0037063800139427124,-0.003315637092832591,-0.002412533909150043,-0.001240308540757244,-9.403627982475303e-05,0.0007950094460984218,0.0013376666158281217,0.0015877331797900867,0.0016721817510219465,0.001699854631736112,0.0017064447571608745,0.0016635779388085136,0.0015333183729492618,0.00131928703000806,0.001072175159537881,0.0008450212228476179,0.0006346290094360787,0.00035978212477621703,-9.678864157822457e-05,-0.0008014388809194626,-0.0016922262359539235,-0.0025662328086963017,-0.0031502547955868047,-0.0032226921872842294,-0.002721411328670554,-0.001778146652819953,-0.0006609674593314667,0.0003434852153969125,0.001046923486313332,0.0014199229101596149,0.0015728805146084073,0.00167381970272174,0.0018475878819021565,0.002107013608013366,0.0023487542511933125,0.002412927117638187,0.0021725237655052473,0.001603536650000233,0.0007983931596152014,-8.209852001680182e-05,-0.0008876255841040995,-0.0015401314837049753,-0.0020428239460095333,-0.0024356661067018617,-0.0027315684326085373,-0.002879400368776734,-0.002781057362157572,-0.0023532258517542895,-0.0015946422115373953,-0.0006153427950726599,0.00039322305542466713,0.001234154708068532,0.0017872785439175562,0.002051925693588189,0.0021243233322470645,0.002121308213040609,0.002097640623231137,0.002012670700843532,0.0017718882467405248,0.0013158168199075737,0.0006901965945281096,3.989784372441401e-05,-0.00047634902811528965,-0.000791374362917789,-0.0009756927065271942,-0.001184913454244001,-0.0015410221425230177,-0.0020296161116981817,-0.002484934039898249,-0.002673491965739559,-0.0024217816074367116,-0.0017099485512025213,-0.0006827481831557652,0.0004165630246827619,0.0013444514260918458,0.0019384862757147096,0.002154759101807114,0.002059167770688811,0.0017848954692218854,0.0014745135247699235,0.0012283932970868082,0.0010792011134062608,0.0009998667201366696,0.0009338289159600293,0.0008254829963692746,0.0006347405790656762,0.00033635629001822835,-8.318351668940276e-05,-0.0006204780198596219,-0.0012429613098784542,-0.0018803691115545232,-0.002430202717776472,-0.002779352398977306,-0.002835261163425165,-0.0025550851330199756,-0.00196173193438117,-0.0011413078172986093,-0.00022443521661387293,0.0006413965314972434,0.0013226832277432395,0.0017314072704468226,0.0018523098407567484,0.001753142401269202,0.0015625256479905615,0.0014137881421055335,0.0013787496618056772,0.0014314615334380344,0.0014686628707333122,0.0013753150303775488,0.0010898300595863148,0.0006248566569874736,3.7006294813815956e-05,-0.0006190236585790639,-0.0013067541560052812,-0.0019805716381983995,-0.002544894136837825,-0.0028484653874528143,-0.002738180335383824,-0.0021485380879773955,-0.0011682123144449539,-3.166695395292519e-05,0.0009714356971916503,0.0016227206585842067,0.001865125317842973,0.0018047303973611388,0.0016278592806521458,0.0014891412942131534,0.0014387852986800507,0.001423263672722312,0.0013415411074266608,0.0011084965080765696,0.0006865972477785593,8.160627249709641e-05,-0.0006733343821948763,-0.0015200097380615126,-0.002361493482140033,-0.003053888261779542,-0.0034277297674899366,-0.0033429088891180066,-0.0027534242842978994,-0.0017446868607378595,-0.0005169808605602169,0.0006821624035526317,0.0016447503666333094,0.002265581785942406,0.0025535453985942704,0.0025926056481017255,0.002481292898209618,0.002287355027659326,0.002038238811651953,0.0017395374680336888,0.0013940170646324027,0.0009995689650043804,0.000531058169375339,-6.53796763855189e-05,-0.0008401777407015697,-0.001776670919950598,-0.0027386712130904353,-0.0034804857067666953,-0.0037367629463315034,-0.0033529964849594945,-0.0023803078147512447,-0.0010718866333148478,0.00022318199246176428,0.0012105188916670436,0.0017630655714550173,0.0019402454921202618,0.0019148048393684064,0.0018579994646799316,0.0018491707046987627,0.001853598439998912,0.0017704551429490276,0.0015149234408413457,0.0010826253652866029,0.0005566999441803855,5.2827438139535585e-05,-0.00036197092741936925,-0.0007193167871057207,-0.0011261075662330057,-0.0016737563769632165,-0.002337394488389551,-0.002939257472172563,-0.003215079846331814,-0.002954480843156377,-0.0021322016123178256,-0.0009458244323130606,0.00026944128181222333,0.0012022521307148363,0.0017085819092178198,0.0018547000427279266,0.0018408621874869673,0.001860372025728824,0.0019842243990655095,0.002137881705311861,0.0021728431275774163,0.0019760614246711024,0.0015428470000982593,0.0009699763547304017,0.0003805085896822983,-0.00016458033177698463,-0.0007045814757884612,-0.0013352137946939582,-0.0021058928065695592,-0.002927120256718007,-0.0035606045082990944,-0.0037164530424572116,-0.003209469259786547,-0.0020804103608497906,-0.0006034849996190687,0.0008295956424621444,0.0018827312876587225,0.0024074688015659953,0.0024666642712486797,0.0022520718784151453,0.001958933619992227,0.0016955448966416444,0.0014709320854422768,0.0012471294089611324,0.0010028508889617662,0.0007568440244292638,0.0005371594714530778,0.00032795251940995174,4.5312747585591755e-05,-0.0004260878156460378,-0.0011487828174591872,-0.002052632092969119,-0.0029168234595764375,-0.003439454440059687,-0.0033694563539622925,-0.0026351932639891626,-0.0013988860204714154,-1.9344644413817145e-06,0.0011753467742676995,0.0018691544909318503,0.0020254381860653624,0.0017901994628178686,0.001412410108288231,0.0011171720196050815,0.0010132017200527828,0.0010716862479581688,0.0011724909971389933,0.0011815727294234493,0.0010150130083739122,0.0006610566631296694,0.00016010817922519844,-0.00043275490819713646,-0.0010706149767964108,-0.001705014914810778,-0.0022549322886561197,-0.0025897760977578333,-0.0025589054807174942,-0.002066326169570074,-0.0011480212740927814,4.620659904377988e-06,0.0011032988134516565,0.001878933908644553,0.002193008579055852,0.0020841080847684742,0.0017285877159370264,0.0013421756273891603,0.0010774547535756743,0.0009679075890110704,0.0009391359602470674,0.0008709209741415841,0.0006701554644559611,0.0003151562097647361,-0.00014687237227709697,-0.0006390749100655892,-0.0011009216485807923,-0.0015100803541661786,-0.0018680096860152805,-0.002164437823623288,-0.002353029499242514,-0.0023626992467703197,-0.0021399005782750556,-0.0016900601040349115,-0.0010850912523111453,-0.0004305857831460112,0.00018230145965522908,0.0007063165168992734,0.001134504217977279,0.0014771375795138782,0.0017435739534158463,0.0019404081490763986,0.0020772000146661008,0.002164886052073862,0.002203647978269549,0.0021717722870014102,0.0020289717040313767,0.0017355026984332516,0.0012744587748913122,0.0006614920011535377,-6.345814726746918e-05,-0.0008524310402527996,-0.001656327057897319,-0.0024137687180115245,-0.0030330904775170736,-0.003392557433975241,-0.0033763901753364476,-0.002936228813904946,-0.0021401947638915817,-0.0011696635114395815,-0.00025343932680150073,0.0004298202030011153,0.0008272364353150677,0.001022770029307915,0.001177527759269853,0.0014318382387865725,0.0018214161426018615,0.0022520990334390025,0.0025472232711333496,0.0025434157990042844,0.0021828820998691253,0.0015487743749639632,0.0008197758957255059,0.00016797547475883034,-0.00033758679664220117,-0.0007582886286081977,-0.0012231121119284966,-0.0018151789716055026,-0.0024839245243287586,-0.003043938613985601,-0.003263835287845054,-0.0029895558580613447,-0.002226891493870743,-0.0011381835474709714,3.6122943823416886e-05,0.0010778689682102735,0.0018566446259559097,0.002335678617971154,0.0025353872486713032,0.0024939671286845163,0.0022541278040324013,0.0018737790765617616,0.001433230321848291,0.0010145234741154394,0.000658234723443233,0.0003326525754713057,-4.976752426745935e-05,-0.0005675961451823432,-0.0012170457590485063,-0.0018830059293796924,-0.00238071695142685,-0.0025468838503678974,-0.002325081066581924,-0.001793069602881368,-0.001116814215219202,-0.0004623651973992256,7.877198134377322e-05,0.0005083166915644811,0.0008812801736809832,0.001242074924108264,0.001581281689408957,0.0018374286831388047,0.001935782215677467,0.001834561155287113,0.0015495556098403828,0.0011456340032557528,0.0007034047011084526,0.0002800459561658463,-0.00011608955090950556,-0.0005229899514308116,-0.0009911195184331327,-0.0015314071197353619,-0.002075321433919649,-0.0024797013195031374,-0.00258605767529669,-0.0023055126323209833,-0.0016757225157707095,-0.0008495011530459561,-2.041540913743213e-05,0.0006662905253097472,0.001161866935682089,0.0014982099132720295,0.001730366715756732,0.0018843963488507976,0.001945685762917553,0.0018868852513693611,0.0017042354629245955,0.0014289319387973403,0.0011045704086674166,0.0007504956214549766,0.00034195424084580847,-0.00017406496647680557,-0.000832459886448221,-0.0015986762650508815,-0.0023444269974002086,-0.0028720341198309432,-0.0029851241411127114,-0.002576806363794102,-0.0016921204050372915,-0.0005298695433777153,0.0006226559485420721,0.0014949693135429083,0.0019308086280963425,0.0019331518250795196,0.0016388069763285404,0.0012406431668826835,0.0009007790626113961,0.0006972618159386173,0.0006214800812758326,0.0006122242772786235,0.0005962860670022743,0.0005124544580764592,0.00031574313563374626,-2.515101646376758e-05,-0.0005219377318182834,-0.001147901592126987,-0.0018173421074285459,-0.0023844041049324066,-0.0026771475218285413,-0.002561277805330082,-0.0020037260972459487,-0.0010993293790261282,-4.238204661174741e-05,0.0009442219389276806,0.001687915006424293,0.0021178322036055418,0.0022681937650372184,0.0022360736468095698,0.0021181550360636846,0.0019619250823979515,0.0017565080802638793,0.0014610986680245568,0.0010449319511909995,0.0005104105920529862,-0.000110577427963387,-0.0007753638128004371,-0.001443760792154577,-0.002073685435235239,-0.0026046686612210025,-0.0029490926075377796,-0.00300988747817968,-0.0027240003582198005,-0.002106299950167883,-0.0012607408804420747,-0.00034502912486706087,0.0004922347226277786,0.0011635316550379904,0.0016539780781781128,0.0019918802718099744,0.002204813711901837,0.002294516838050954,0.0022466657000880033,0.002062977274335083,0.0017841765586520232,0.0014784819182364329,0.0011982817141174586,0.0009361674240191205,0.0006169349237971244,0.0001389380621970985,-0.0005563175339798124,-0.001427759439483303,-0.002326029359585595,-0.0030399471556658295,-0.0033767234279945373,-0.0032387959898704625,-0.0026627058269091835,-0.001803071664780344,-0.000869876704484632,-4.904729775173953e-05,0.0005567349946497093,0.0009426275378270487,0.0011722177849446014,0.0013268336130749328,0.0014627825086019194,0.0015945941821009857,0.00170351770666803,0.0017580900467959015,0.0017336188791386177,0.0016235369590748984,0.0014390542442777583,0.0011952445623287131,0.0008886648311316785,0.0004828417403694178,-7.878314309181606e-05,-0.0008273865812309641,-0.001711892074198753,-0.0025703582276516224,-0.0031629690835794444,-0.0032669876646555782,-0.002791346290416713,-0.00184418485392254,-0.0007029524836975037,0.0003085485658686429,0.000971103286935364,0.0012609197193590737,0.001327431357051243,0.001376527616673254,0.0015361405063593079,0.001787386188067065,0.001996819393282458,0.0020182528464661852,0.0017909448924541453,0.001370016533025509,0.0008751319891124138,0.00039891360157969565,-5.9026251540417836e-05,-0.0005859304437410434,-0.0012787150724685313,-0.002142836697543524,-0.0030326945563787415,-0.003679280701309112,-0.0038018480509876564,-0.003248452194735191,-0.002087081282102337,-0.0005928585122330697,0.0008637891973075234,0.0019659213317053995,0.00255729277610833,0.00266249728320877,0.0024298824862905364,0.0020451804686126055,0.0016638810983954,0.0013818719093929438,0.0012336283349910476,0.001197042789889683,0.0011960653844639668,0.0011108556143986253,0.0008104521576158061,0.00020820556276039573,-0.0006825395656881563,-0.001725447651627866,-0.002691378086366131,-0.003334405519283297,-0.0034810785560159016,-0.0030928153284486832,-0.0022749953504238177,-0.001232266381207924,-0.00019325383811868513,0.0006621479676158724,0.0012460874919524565,0.001566602540458132,0.0016989593153860444,0.0017410190000445396,0.0017700604323758894,0.0018143021090225144,0.0018465672099336615,0.0018008345087489695,0.001604661195842536,0.0012137628096917255,0.000633718405385428,-7.957296297992603e-05,-0.0008374928667367468,-0.0015425407620597445,-0.0021071284533046575,-0.0024640489244101456,-0.0025724060321206587,-0.0024226366211356543,-0.002039022703568006,-0.0014751155684540086,-0.0008010148752652865,-8.827405901838306e-05,0.0005991343287420038,0.0012049139402979334,0.0016778524434780647,0.0019757853761580785,0.002077823431913148,0.0019954953280058546,0.001770866180026958,0.00145942841544519,0.00110846050280077,0.0007449470365699948,0.00037816471885522974,9.82570226461428e-06,-0.0003595131234528853,-0.0007322679957035394,-0.0011171523614704874,-0.0015217051624157555,-0.0019286250179141244,-0.002268154632743112,-0.0024140535058288126,-0.0022257623981595505,-0.0016287404599845535,-0.0006879453293734317,0.00038118504318760045,0.0012877002469698735,0.0017934900176162659,0.0018236883583705782,0.0014955945511350226,0.0010513638047081812,0.0007353065984230277,0.0006834172524957899,0.0008780585599192283,0.0011792581689431425,0.0014036048395665748,0.001404085361191918,0.0011145342394447773,0.0005500630763563188,-0.00021865601225009136,-0.0010903419017705622,-0.0019430232100386665,-0.0026370111386098587,-0.00303072016876424,-0.0030185461840206785,-0.002575996161556097,-0.0017822388932797807,-0.000799408366127235,0.00018488493436168325,0.0010217723994291844,0.0016393219147706056,0.0020399165280885357,0.0022659610017219042,0.0023577796850311663,0.002327309639366564,0.002159215783880047,0.0018345922649706786,0.0013594062264800065,0.0007770604189861292,0.0001544725200685812,-0.000450696941706478,-0.001018550994988484,-0.001566880330342886,-0.0021154219421163876,-0.002634544118423975,-0.003016747287542288,-0.0031016456652773238,-0.0027514588890983965,-0.001936527599158026,-0.0007777475834703223,0.0004834939352131954,0.0015736469371562358,0.0022864181079383697,0.0025445000131954117,0.002401400000935643,0.0019951908892932723,0.001486403880054107,0.0010104470703628157,0.0006568120888406193,0.000467753352144871,0.000441963784702974,0.000536576441959113,0.0006724849244161433,0.0007500909524780523,0.0006741185317590179,0.0003785770559083851,-0.00015480470061867498,-0.0008842661208130322,-0.0017014020517287353,-0.0024392498435417327,-0.0029097086868445556,-0.0029715399142466615,-0.002601042860502196,-0.0019180771126244545,-0.0011360949359444095,-0.00045359876576838137,4.9215640587785096e-05,0.0004402036606150732,0.0008685185045357851,0.0014433760249057742,0.002138040715913327,0.00278188824722425,0.0031442489226980452,0.0030549222129787204,0.00248800496183024,0.0015658277571447554,0.0004920422459281874,-0.000538671473340243,-0.001402182435728704,-0.002051450940012538,-0.002479096662039201,-0.0026733747416001485,-0.0026042387635475074,-0.002248992604154033,-0.0016331973009699268,-0.0008487094911543334,-2.8741946384907386e-05,0.0007051678645575637,0.001286910741914572,0.0017111886332599408,0.002001945557487774,0.002171955807518908,0.0022047042420873996,0.0020701322498199943,0.0017603920324550013,0.001317693358415087,0.0008311785135937728,0.0003994903897168889,7.797194214635142e-05,-0.00015920024108314907,-0.000417277400316835,-0.0008333915879350877,-0.001499129509969618,-0.002386865509205637,-0.003319829157328347,-0.00401359543007238,-0.004183985413991188,-0.0036763251050317683,-0.0025495332714321585,-0.0010655244778379634,0.0004156441649605288,0.001582067794983696,0.0022835481884803228,0.0025601934017074834,0.0025829987838958037,0.002547957029924205,0.0025804659892960636,0.002690204772536326,0.002785279592782809,0.002727935449410238,0.002401620414828321,0.001760345760486148,0.0008433387579130791,-0.00024328675050029055,-0.0013598104500105598,-0.0023603006539425373,-0.003106554108124034,-0.003478780975745863,-0.0033983632875421847,-0.002863674264280804,-0.0019778423703617353,-0.0009392624689076962,1.6456438717594242e-05,0.0007015956009352416,0.0010448002075145368,0.0011054599256414303,0.0010271956373908782,0.0009583091699386166,0.0009838523963721802,0.001102762860507133,0.0012521651519412456,0.001351553082602814,0.0013334754128175546,0.001147912480060011,0.0007559038872388467,0.00013811131069921083,-0.0006740304895790057,-0.00156653490004562,-0.002345268534789191,-0.0027899032992838597,-0.002741937709199134,-0.0021829202823438363,-0.0012582531218116458,-0.00022676347849098387,0.0006457292525794262,0.0011978124544163784,0.0014297805649361763,0.0014744929867734847,0.0014993663679194673,0.001599408271626843,0.00174642126209495,0.0018223522304108477,0.0017097953568416596,0.0013769982936495473,0.0009013303620761196,0.00041768146287128713,2.7657617085036874e-05,-0.00026939202752528167,-0.0005761303190709525,-0.0010239335162901832,-0.001669624669892848,-0.0024267214845067743,-0.0030775312850535854,-0.003364903502960475,-0.00311471867123382,-0.002322329920439066,-0.0011588148027358576,0.00010051367645212505,0.0011835617715968084,0.001913231581977113,0.0022499029074996477,0.0022782236564429965,0.0021517491733302175,0.002018598090618698,0.001955177137274309,0.0019342463522206772,0.001843675874194224,0.0015506314733714803,0.0009801645335747542,0.00016460932348340903,-0.0007649714015508042,-0.001637355566190391,-0.002309738654743655,-0.0027046948788607287,-0.0028032026045206986,-0.00261559065414652,-0.002163086014873039,-0.0014846109744434026,-0.0006559401417334714,0.00020422510194881174,0.0009559421943248989,0.001480176178232675,0.0017196460459452758,0.001698213135247902,0.001510757598133343,0.0012878049531195137,0.0011468814042170394,0.001146699094914514,0.0012612602709021336,0.0013860423872354593,0.0013761743909316716,0.0011019978799077259,0.0004999101187035381,-0.000399187393325145,-0.001469992487029819,-0.0025183750894049685,-0.003326083057578644,-0.0037065210926632173,-0.0035586860653329753,-0.0029011013146874325,-0.0018698015950798065,-0.0006777033418389722,0.00044926580901363095,0.001333222863278292,0.001880766742479891,0.0020883776045391763,0.0020249343986278316,0.0018038044545501523,0.0015519733194779312,0.0013782698026719832,0.0013434856859459484,0.001440110195929804,0.0015915721584399444,0.001676028084468455,0.0015693148460180697,0.0011912106646288093,0.0005355181442345612,-0.00032786696361821735,-0.0012751284589442116,-0.0021590870343182232,-0.002834031575616271,-0.0031740605958739624,-0.003094674984356975,-0.0025824692895656852,-0.0017207129117886087,-0.0006869557789572076,0.0002922355925934569,0.001017738681804414,0.0013899524601752476,0.001439147740400563,0.0012986880216032319,0.00113557173086593,0.0010722758977563841,0.0011346973937077622,0.0012458869453558616,0.0012637649153937652,0.00104408190919263,0.0005041366401888599,-0.0003333506625163413,-0.001329687324030654,-0.002259447946188941,-0.0028763579359086465,-0.0029978437840967945,-0.002575577887209582,-0.0017171431394075796,-0.0006428773612079572,0.000404088785594431,0.0012486346066258678,0.0018287816267030551,0.0021782160404328413,0.00236800970598913,0.002449397876283206,0.0024293260249326184,0.0022826146637559067,0.001981807844842751,0.0015214873722192862,0.0009248482032110706,0.00023493719477910756,-0.0004982006845294287,-0.001223624134716217,-0.001886159747754721,-0.0024209220459874368,-0.0027568178843194705,-0.002833811927441668,-0.0026263422566521555,-0.002157090359775533,-0.0014899851350185845,-0.0007073128770583141,0.00011042637164821595,0.0008865018347760352,0.0015364832435013293,0.0019664003003066846,0.0020995105081306337,0.0019232909522401067,0.0015210217551341642,0.0010524134981108977,0.0006799898247199384,0.0004789950876071089,0.0003870081769090702,0.0002311756321428252,-0.00017252447618126832,-0.0008967256630542961,-0.0018248179213571176,-0.002669391257263394,-0.003090579469987318,-0.0028600130235487136,-0.001982300540767564,-0.0007031300852129978,0.0006032812133949252,0.0016042215183808095,0.002142529600427665,0.0022687143243968768,0.002168076994414303,0.0020362677058629853,0.001975834310029174,0.001963395196651823,0.0018908854871816849,0.0016435464342868483,0.0011643347979965139,0.0004733173931573155,-0.0003545698705466041,-0.0012244536275599208,-0.0020406696271114662,-0.0027043570308532393,-0.003107801601853329,-0.0031488338596222486,-0.0027710820282334484,-0.0020104488050796234,-0.0010145128064168634,-1.0675852283747187e-05,0.0007728398687311619,0.0011981199675478928,0.0012728844536093644,0.001137980283073913,0.0009910759615199035,0.0009844284708999229,0.001146886135000501,0.001367125274669335,0.001446371527738937,0.0011983919045309595,0.0005531613038687808,-0.00038442548790902707,-0.0013537399493013522,-0.0020344037831917404,-0.002179254847992586,-0.0017222817524904465,-0.0008089683917311705,0.0002655768346282088,0.001179676397567508,0.0017099546423280684,0.0018018382202823753,0.001560412716301321,0.0011765359496190846,0.0008305121325965286,0.0006179402542219638,0.0005237112186264555,0.00044542465159356386,0.00024961211432784474,-0.0001630774051120165,-0.0008065611646772109,-0.0015887841438803766,-0.0023301521193655594,-0.0028182282516651335,-0.0028829286992309478,-0.0024642450143105062,-0.0016413737191475325,-0.0006058867605597271,0.0004108134000943831,0.001220621684999199,0.0017331246672880683,0.0019614182751742193,0.001987459602492703,0.0019120537491721856,0.0018129477088079098,0.0017216115250090769,0.0016180199022161668,0.0014400292923652377,0.0011064827159148597,0.0005527196835579489,-0.00022989398379698182,-0.001166904329314051,-0.0021025468110589993,-0.002835371524611735,-0.00317684782407049,-0.003011743007447666,-0.002338980062481639,-0.0012793788842595433,-4.733943704724516e-05,0.0011058595346864035,0.0019605246504672052,0.0023874159737723956,0.0023780073928868725,0.0020365041665887634,0.001536381142278458,0.0010551669212445953,0.000708900974959134,0.000510716470353877,0.0003724405804918418,0.00015166776438949167,-0.0002743104080115209,-0.0009395985471657725,-0.001755662005135986,-0.002527812517840388,-0.003019089339438048,-0.003040066578891375,-0.002529370515549702,-0.001587919933985468,-0.0004465216482053893,0.0006224163724987029,0.0014088351743925687,0.0018352296030265517,0.001961993301751555,0.0019320252661662045,0.0018891146815841716,0.0019124486419262402,0.0019933934926189296,0.0020544984674925153,0.00199165214275943,0.0017164725710027738,0.001183821265126572,0.00040092849602457964,-0.0005757440954163966,-0.0016459618238480755,-0.0026686238269605193,-0.003469124757074225,-0.003866208528940309,-0.003725531028436182,-0.003023969772589177,-0.0018878332370134135,-0.0005711932899527506,0.0006277464052842504,0.0014746759284398443,0.0018768646055206857,0.00189451580307172,0.0016890425541541652,0.0014422649832376093,0.001285748220558163,0.0012642987201051472,0.0013380626948315045,0.0014143028761142765,0.0013932531522550622,0.0012098767159242866,0.0008554351199379033,0.0003714185947842252,-0.00017809982283772475,-0.000737723192263371,-0.0012753722930729395,-0.0017715355309814833,-0.002194173850469258,-0.002483668613551416,-0.002565645013309816,-0.002386048014182945,-0.0019428745955400353,-0.0012912081015029964,-0.0005202840996491767,0.00027751811935585737,0.0010237680714488178,0.0016518997090494338,0.0021001268626258465,0.002318187264761019,0.002291949131918585,0.002068150784477141,0.0017526596086234688,0.0014698148482507607,0.001298672770555575,0.0012228023089753265,0.0011270182723367938,0.0008487268344627137,0.00026111606775219745,-0.0006512016473304531,-0.0017597764582686234,-0.0028201127209120137,-0.0035520620770267946,-0.0037426415884086886,-0.0033282677657385214,-0.002418598134682725,-0.0012501243317909563,-9.315131500740273e-05,0.0008413467487827668,0.0014538981085100116,0.0017546183141521363,0.0018232178243295658,0.0017593824448372784,0.0016458596675764537,0.001532070083617199,0.0014339900479575483,0.0013411177572821619,0.001222903039788868,0.0010325498745894137,0.000712395273961537,0.00020810650101934602,-0.0005046101673729733,-0.0013868318737061411,-0.0023134538421868494,-0.003081051544509549,-0.003458724543746275,-0.0032731149202587843,-0.0024936983131788955,-0.0012715235785977635,0.00010092229440406019,0.0012998323210493589,0.0020968309361995537,0.002434241986767482,0.002411092246135066,0.0021984213949231145,0.0019435848703416396,0.001719671891000777,0.0015348714756368948,0.0013730445596090912,0.0012233415304149658,0.00107767051968012,0.0009075967315954526,0.0006498654057337045,0.00022196875576828586,-0.00043408781038528383,-0.0013025722570528888,-0.002268593089239509,-0.003136276035486249,-0.003690533017014398,-0.0037797397629322155,-0.0033807498851939548,-0.002609919803758574,-0.0016696124474054825,-0.0007576350431745371,8.916055887172583e-06,0.0006142812415371067,0.0011065992042884945,0.0015370830736009136,0.0019190361191487879,0.002227349838612641,0.002426696742842691,0.0024995807672620026,0.0024534642591303307,0.0023082436865206283,0.0020805369558646518,0.0017778141837713085,0.0014007851211355518,0.0009442793826103072,0.00039401572485479517,-0.0002700134251001165,-0.0010510766879488103,-0.0018987294328503147,-0.0026843558400020126,-0.003220838465062309,-0.0033338209163464687,-0.0029531815140454018,-0.0021692051070765846,-0.001210343846611889,-0.0003447448273335141,0.00024290052959826509,0.0005287861963917534,0.0006376191188299158,0.0007506320348245558,0.0009905002053249364,0.001349934452574215,0.001701731253722337,0.0018795240220502761,0.0017786351464418337,0.0014168925128800658,0.0009208409479900764,0.00044843045157564085,9.74160114420241e-05,-0.00014396640683017473,-0.000374391945170776,-0.0006988137788050939,-0.0011386628747454943,-0.0015894927188166048,-0.0018582621381035536,-0.0017665509892704912,-0.0012630568161819905,-0.00047616471670184994,0.0003323283491518689,0.0008929531873534539,0.0010640132393876774,0.000898252684057832,0.0006027366974697178,0.0004182658352416301,0.0004907721545661351,0.0008053614870994156,0.0012085998787358602,0.0014912652682223426,0.0014785417502484847,0.0010873490113286898,0.0003419260048424517,-0.0006385147258724988,-0.0016654220357214848,-0.00251774621803368,-0.0029942822366915397,-0.0029751296749475986,-0.002467740667876089,-0.0016086771174643024,-0.0006122204734316464,0.0003113450327573126,0.0010264981710037104,0.001499491579870756,0.00177583012193848,0.0019283590262200911,0.002007244407139644,0.0020175307910954535,0.0019323779811749261,0.0017282046475550388,0.001413021507517211,0.0010231408149792632,0.0005884223552485336,9.622745865254124e-05,-0.0005071093187035351,-0.0012642708326737534,-0.0021345775869969306,-0.002956476771062998,-0.003484145610562313,-0.003489923088732874,-0.002878894743800945,-0.0017503408835022243,-0.00037016059250401023,0.0009316556714477918,0.0018856477895444045,0.0023700629378555853,0.0024258770909084976,0.0022040293287357423,0.0018806364071816237,0.0015843847590083023,0.0013646303882092453,0.001201869948719903,0.0010413676112294903,0.0008255433769042209,0.0005099719847399184,6.375075310585568e-05,-0.0005319134080211821,-0.0012714344384786682,-0.00209691694673642,-0.002873838881486473,-0.0034009803359457747,-0.003471713744151261,-0.0029690331047680625,-0.0019445375902064862,-0.0006285196626261749,0.0006481763957568911,0.001588815140884228,0.0020543006448168538,0.00211046324374613,0.001973974474284212,0.001885939956896947,0.0019802816698462162,0.0022157715279412585,0.002405837066633294,0.0023277078110568467,0.0018497042539404253,0.0010058157129665011,-2.287354949182755e-05,-0.001005705197904788,-0.0017781015610793115,-0.0023049963348006886,-0.002655626162575413,-0.0029104042848169436,-0.0030659449072323965,-0.003008085996137471,-0.0025794400541311545,-0.001703267851224653,-0.0004819349910010052,0.0008031169445129971,0.0018045208059148635,0.0022772204919523703,0.002203732256503269,0.0017992358530160252,0.0013903891194510427,0.0012379398870542568,0.0014045659759034635,0.001736717483174638,0.001958048644760755,0.0018121750193245594,0.0011795377392448138,0.00012408024282853505,-0.00113175282442494,-0.002280266748272413,-0.0030243149500205927,-0.003173932712424553,-0.002717799583132144,-0.0018366030905294258,-0.0008363761146520223,-1.8336479263185435e-05,0.0004532079845225369,0.0006102799298536002,0.0006318449219059696,0.0007171213294083292,0.0009615939326980366,0.001310209356914129,0.0016080611624951207,0.0017055716273380278,0.0015455570092266827,0.001179811083777731,0.0007147431714773041,0.00023251848663923713,-0.0002539804766568143,-0.0007825264619851101,-0.0013765282854747171,-0.001983294966098639,-0.0024618563389269166,-0.0026328995124419914,-0.0023643283622194027,-0.0016456722134861328,-0.0006114603507654552,0.0004997487585276772,0.0014326021804872868,0.002008566884427805,0.0021834030269988628,0.002044186735271075,0.0017521840066450525,0.0014642820848980611,0.0012721917264879687,0.0011823340176912048,0.0011336241440677677,0.001033909005869528,0.0007961984003474942,0.0003654338078768382,-0.0002658026546247243,-0.0010517281317600023,-0.0018967091014476598,-0.0026666986924210995,-0.003209784892526824,-0.003388133230511619,-0.003119494634598887,-0.002416099490029473,-0.0014001310304649877,-0.0002792635161775149,0.000715281122995343,0.0014044159380311274,0.001718679494743273,0.0017146601340562214,0.0015453976796247406,0.0013962746677138277,0.0014088334191804316,0.0016204507193592417,0.0019460531136187968,0.0022147906749895156,0.0022498796362316943,0.0019542644177543795,0.0013559773243340904,0.0005864072891988136,-0.00019561654850095778,-0.0008863788784131531,-0.0014743941838707294,-0.0020103038934975595,-0.002533083875224103,-0.0030060722537532027,-0.0033103186370644034,-0.0033036291512277363,-0.0029074380430723547,-0.002162848508022525,-0.0012174237659152848,-0.00025152978950018356,0.0006065475145562854,0.001322126480545928,0.0019296765008622765,0.0024652386433841426,0.0029062106455663766,0.0031616259985852778,0.003120627179446228,0.002728030391490384,0.0020387060622497834,0.0012155189858357868,0.0004675346188802933,-4.3320114299857785e-05,-0.0002819777919465174,-0.00036399574482381025,-0.0005034801732496934,-0.0009012949953772615,-0.0016243086196244443,-0.002539862092542742,-0.003349297242983145,-0.0037154880515476558,-0.0034256236131549062,-0.0025036614107761947,-0.00120785259830517,8.924878618084709e-05,0.001073313054859313,0.0016181427309254414,0.0018052962924776303,0.001833164693232193,0.0018789992367164773,0.0019983892484992296,0.002115471769124814,0.0020971666684482656,0.0018544528006221236,0.0014024754544311362,0.0008435302285188212,0.0002909152817493056,-0.0002081301012586261,-0.0006929720560212918,-0.0012378071862782526,-0.0018647771333856087,-0.0024855526336313096,-0.002916429812596194,-0.002962938401178739,-0.002524863194887874,-0.001660182469222509,-0.000571870414662265,0.0004736559987363231,0.0012517387916664026,0.0016567110552625902,0.0017213221952628345,0.0015806314482233457,0.0014047278384635182,0.0013294842159107265,0.001408278025628313,0.0015980271947856639,0.001782066245592673,0.0018202054123305708,0.001605907448096524,0.0011072254478383448,0.0003750310421578424,-0.0004825999634897719,-0.0013438226415918213,-0.0021090012281121144,-0.002710330393156926,-0.0030967873919061774,-0.0032171496475901467,-0.003026781348025452,-0.0025219061624254377,-0.0017739407849261218,-0.0009252389129098639,-0.00013229843714776177,0.0005129962209344911,0.0010272152843579477,0.001505660844741429,0.0020326148633326305,0.002591836756546455,0.003043261375729632,0.003190953108974126,0.0029062618957645136,0.0022286552292813183,0.0013735050301929709,0.0006302163362180813,0.00020355666922447691,9.177911251751267e-05,7.92170878580067e-05,-0.0001441694651131289,-0.0007993203739915563,-0.001873541296066698,-0.0030979993679400037,-0.0040628167613896635,-0.00440902647028597,-0.00399463980076822,-0.002948177132974885,-0.001588207054823736,-0.000262972559941179,0.0007960699436975574,0.0015318392238927836,0.0020164707537725993,0.0023505616936875923,0.002577993147491134,0.002665775905549142,0.002550477735560444,0.0022104450381212094,0.0017106327331081236,0.0011884746937301956,0.0007883427686134495,0.0005840143188817907,0.0005354748614949383,0.0005058729495166405,0.0003292680980268637,-0.00010854525729325792,-0.0008175160083173645,-0.001698511065708954,-0.002576618905929678,-0.003250158166149164,-0.003541346447958971,-0.003346218452749082,-0.002677274399837393,-0.0016775528988256226,-0.0005837052604009483,0.00035900588419508317,0.0009923118422529246,0.0013006108137827116,0.0013974888479151093,0.0014535996109003625,0.001606552927684708,0.001897201487062272,0.002257122704786227,0.002544930436432196,0.002609950953628916,0.0023565660670978325,0.001786391485727882,0.0010021134698375003,0.00016711258404159815,-0.0005669014298001643,-0.001130663913154084,-0.0015641708686090587,-0.001975197757749335,-0.002446397663207595,-0.0029471380018519806,-0.0033127117022037885,-0.0033159677088312797,-0.002796337707158013,-0.0017699228038165833,-0.00045188951988011424,0.0008254035842239567,0.0017538533731693466,0.002175091406178111,0.002129606184871463,0.0018148741191509406,0.0014833077280074882,0.0013319729311004607,0.0014289062534887955,0.0016981976358312486,0.0019626783464610988,0.0020250516214816382,0.00175527613915348,0.0011467900228329126,0.0003143464393610729,-0.0005657543369224202,-0.0013388294588655562,-0.0019285753524075854,-0.002335602704367107,-0.0025881484227388623,-0.002689892733035261,-0.0026078814074242903,-0.002306870842550292,-0.0017969936760776628,-0.0011523308169747017,-0.0004835211595279028,0.0001160185987697217,0.0006121422769775844,0.0010323352502283455,0.0014284060794083901,0.0018249516027517509,0.0021867406515737797,0.0024256458288418876,0.0024441856287727693,0.002192027032463983,0.0017043151032756212,0.001098879498178596,0.0005287737415036685,0.0001090808000610185,-0.00014695478501298206,-0.00034580925945688055,-0.0006655526674813922,-0.0012532942043920786,-0.0021145739388563956,-0.003059242860281132,-0.003750702315337575,-0.0038511493144369785,-0.003193494457023041,-0.0018841443328565266,-0.0002733933024550838,0.0011959160709693814,0.0021820047861369537,0.0025785872426623197,0.0025243529074586105,0.0022921237796591997,0.0021264580948029367,0.0021209634839940788,0.0021970507006368396,0.002183957484780678,0.0019426334235980189,0.0014558716984117619,0.0008332714964824084,0.00023401080145058276,-0.00024055174337325822,-0.0006162941161948365,-0.0010326694605334464,-0.0016484247963774008,-0.002516634500010504,-0.0035027906606802514,-0.0043046271865495875,-0.004579577674871254,-0.004119638857054118,-0.0029751179843114234,-0.0014500920457776638,3.366310608574454e-05,0.001128792094469616,0.0017047497070709656,0.0018698548033896146,0.0018748111260471843,0.001961951829197026,0.0022436517406012983,0.0026656272289615262,0.003058384453120096,0.0032350101535067264,0.003078984763736181,0.002583680012605451,0.0018381955010111613,0.0009797687659728656,0.00013985308752414993,-0.0005963013197388387,-0.0012066664208077401,-0.0017227603051068597,-0.0021956951487366607,-0.002649320621721825,-0.0030422453568624544,-0.003263698501349206,-0.0031754319951820503,-0.002685047908034105,-0.0018117415745572214,-0.0007035965703850392,0.0004084995151773926,0.0012981291406721296,0.0018267731585745565,0.0019838219317490496,0.001870783342452756,0.0016462387776276317,0.0014610637317112505,0.0014072274760728986,0.0014895227427740793,0.0016216047967071172,0.001648510829337254,0.0013979585697689607,0.0007526850364256987,-0.0002810013810441623,-0.0015425873207326611,-0.002748200748458994,-0.0035791593763140816,-0.003795995727349265,-0.003331455859312882,-0.0023219474331268508,-0.0010604652157811866,0.00011327075548518304,0.0009409153186938354,0.0013366675975088774,0.0014012141651469758,0.0013528030616487105,0.0014085092574335051,0.0016736322880885933,0.002094584882933066,0.0024977205649773715,0.0026881415696843897,0.0025481077527954596,0.0020788698780901927,0.001370637384522238,0.0005332224849829771,-0.000359528826236025,-0.0012766992685906272,-0.002193235087437352,-0.0030440496593351998,-0.0037074800530198077,-0.004033943784145849,-0.0039054194525889726,-0.0032926256487824197,-0.002279231873155598,-0.0010416906155497122,0.00020435939956500043,0.0012671424342561605,0.002027340195334153,0.0024574391168119413,0.002609161271981779,0.0025773662611802343,0.002456255162351544,0.002305157431210427,0.0021356821484611755,0.001922018932379683,0.001626381720221631,0.0012257825182250418,0.0007262787393321876,0.00015725687832560895,-0.0004498108475557074,-0.0010815983426461777,-0.0017424433955011596,-0.002425814550094274,-0.003073675181932008,-0.003557031462041574,-0.0037049247910446647,-0.003378451880511302,-0.0025513547265092595,-0.0013469668783417522,-4.492160836987429e-06,0.0012096936914385511,0.0020980341025344648,0.0025869584424267193,0.0027212896252470954,0.002613350189672641,0.0023821160596937657,0.0021131533842495484,0.0018491265113159113,0.0016000549776034963,0.0013548984718041901,0.0010834915548794744,0.0007329116827236006,0.00023343321205830485,-0.00047287648518467515,-0.001383977150868213,-0.002394089076443988,-0.003288933236068416,-0.0038023746759017433,-0.0037225924790010227,-0.002998589311016552,-0.0017855994348457884,-0.00039585488188723225,0.0008251841313930658,0.001633788649748473,0.0019672442854160527,0.0019359841191126175,0.0017444504931225457,0.0015871763789548072,0.001568876487209365,0.0016771699209245689,0.001807988225965642,0.0018213863543871198,0.0015987690485831773,0.0010811204727187366,0.00028274858526246196,-0.0007137716917254245,-0.0017729187678565965,-0.0027269279447052234,-0.003402003390068768,-0.0036514429181946553,-0.0033926868152839625,-0.0026381034234054185,-0.0015053663546688674,-0.00019723221929549787,0.001048068130038842,0.0020211504732098027,0.0025972755692746114,0.0027617653263319205,0.0025953212009173264,0.002227821555015032,0.0017843784954204784,0.0013499666926936435,0.0009653282563556102,0.0006446285967559426,0.0003909272428176912,0.00019217894870484948,3.99391261401798e-06,-0.0002555122538024603,-0.0006778706866809827,-0.0013084999109388576,-0.002094484843923869,-0.0028727547189034705,-0.0034152081462930366,-0.003514725829779729,-0.0030718345607148147,-0.0021403696095624314,-0.0009117180065473607,0.00035239200435404613,0.001406854820995103,0.00209521808006925,0.0023844731029216914,0.002356938353565611,0.002166513086877722,0.0019752460266586032,0.0018920719990687762,0.0019362481682150602,0.0020390789405756032,0.002080422327393217,0.00194080982365699,0.001545646266133327,0.0008860991265950474,1.4785287129634428e-05,-0.0009746996765361202,-0.0019707282774790442,-0.0028581629238753703,-0.003523530780268121,-0.003861763030013488,-0.003797620142319814,-0.0033204564890448665,-0.0025099325113781736,-0.0015248818259825337,-0.0005488642984893216,0.0002812015018237722,0.0009208545897040954,0.0014107963491995779,0.0018232573806257703,0.0021975993967067804,0.002505552951039603,0.0026661903513027843,0.002599531820338952,0.0022847745285869752,0.0017867553631860968,0.0012321877013697308,0.0007456445427159967,0.0003802234945862517,8.541302976493715e-05,-0.00026276677792731447,-0.0007802053773006968,-0.001485983639336071,-0.002259329566291677,-0.002872015895436582,-0.003084754612990859,-0.002760468662544012,-0.0019366008387976413,-0.0008187119817698158,0.00030163051077051117,0.0011624259163620114,0.0016230927650142204,0.0016932497712788986,0.0014965440106708887,0.0011995368602575752,0.0009440905307342335,0.0008078657453608931,0.0007966348318853155,0.000858855035932907,0.0009112066227942729,0.0008673313186653422,0.0006634873262587816,0.00027408601635250246,-0.000286955932319746,-0.0009739820767276043,-0.0017140209712594803,-0.0024009930056356544,-0.002890424288635671,-0.003017760266896123,-0.0026532919549526694,-0.001776814712299645,-0.0005284661147090669,0.0008071041826553244,0.0018928518856040563,0.002470654219692624,0.0024657915078676387,0.002009245525171721,0.0013679152867143679,0.0008231861379913654,0.0005609236179990314,0.000620048333733729,0.0009086188086961137,0.0012630525081734631,0.0015148949133576943,0.0015388843501312303,0.0012733184782784347,0.0007177402504744081,-8.037575721771522e-05,-0.001038386883806363,-0.002044549816200214,-0.002959996813889581,-0.003627232250959215,-0.0038965131247805152,-0.0036707438682756686,-0.002952048480413181,-0.001862320753527139,-0.0006172357553795378,0.0005429429177281301,0.0014364115967620207,0.001996457335517678,0.002273563045765076,0.0023839331930552788,0.002434775539510676,0.0024686844299460333,0.0024558900161415036,0.0023322510000620363,0.0020535024812371994,0.0016303859183016286,0.0011259315148988026,0.0006206964898588492,0.00016807600077789519,-0.00023605070232025536,-0.0006534224802988731,-0.0011703011982232103,-0.001842223853269828,-0.002640009966613722,-0.0034262836062153666,-0.003984162984700325,-0.004096180789302991,-0.0036415805219103363,-0.0026632439613632425,-0.0013658638018371242,-4.095737917492377e-05,0.0010471848864201413,0.0017591221552375619,0.002113989366118912,0.0022461463460787794,0.0023134484231388825,0.0024104625664793816,0.002532503757713434,0.002602620102762689,0.002535661444577961,0.002294875411330989,0.001907540886193848,0.0014375743112251327,0.0009414782438112476,0.0004395272335032006,-8.36965323333925e-05,-0.000657971726461982,-0.0013021599685138084,-0.002003825455821476,-0.002703489335799507,-0.0032865270729151032,-0.003596367125808896,-0.0034822624596422018,-0.0028735438699324534,-0.0018430640394303242,-0.0006127340967857399,0.0005200015853017109,0.0013064216255193645,0.0016544820516635928,0.0016561496812691372,0.0015165715288535204,0.0014288475463511544,0.0014719006260775938,0.0015907711340721665,0.0016610882717503059,0.0015836352886784862,0.0013403678368970337,0.0009786214728017305,0.0005475166340769346,4.6512804199720886e-05,-0.0005656350031213441,-0.0013032121299710467,-0.0020796668346969244,-0.002693482180294875,-0.0029035247310027906,-0.002560186035061263,-0.0017119640145454402,-0.0006128473266374618,0.0003860073882320347,0.0010042611902914425,0.0011656415773609893,0.0010220765276949865,0.0008576839804017868,0.0009279258441689522,0.0013211214560196144,0.001913211748991641,0.002434784886801443,0.0026102815106658016,0.0022932222535123393,0.0015271837313087968,0.0005070164015670114,-0.0005279096065369955,-0.0014018334806338338,-0.00205323097118545,-0.002510551660520319,-0.002821605691203865,-0.0029880310410197067,-0.0029470477574212017,-0.0026108175719171864,-0.0019378503253524697,-0.0009902204621579985,6.298757615657777e-05,0.001004171356608755,0.0016580914749235315,0.0019651350618650936,0.0019965103002613912,0.0019041990555337374,0.0018350255265554194,0.001856559534967083,0.0019330067936152032,0.0019586813848942656,0.001823976312198525,0.0014731489709647568,0.0009228182839062301,0.0002375262407815921,-0.0005136933217237396,-0.0012854437682791227,-0.0020479613501382227,-0.002750958699579894,-0.003292177498974401,-0.0035256098125481996,-0.003318908770370469,-0.00263242942275029,-0.0015704282345310504,-0.0003653142107218305,0.0007068218912613894,0.001439555035515598,0.0017779320979137451,0.0018229067884536281,0.001756283819681602,0.0017312838072969152,0.0017938836882129493,0.001878655766851194,0.0018738009264348194,0.001706482957523039,0.0013901209266049758,0.001004598034058897,0.0006273145077925281,0.0002666126141630576,-0.00015162792685483116,-0.0007278818288797286,-0.001494408015576518,-0.002344261181884952,-0.0030390392601642676,-0.003305999273437068,-0.0029779665630407935,-0.00209622228133038,-0.0009118020512710243,0.00022217057269594475,0.00101093856999204,0.0013454129236892772,0.0013309175739752727,0.0012071400912004816,0.0012059713501218956,0.0014237373035724294,0.0017743120214107685,0.0020455899436274388,0.002025379081345765,0.0016234382391968837,0.00091795093143881,0.00010027749919770115,-0.0006434192355889909,-0.001232973106418734,-0.0017087327225382832,-0.0021524828347532976,-0.002576350358555768,-0.0028671976952928334,-0.0028357147436324443,-0.002342740515735625,-0.0014157576941921986,-0.00027027896979384786,0.0007860959826121599,0.0015092046934683256,0.0018350507800412095,0.0018859241086076162,0.0018682223878847288,0.001934067080061888,0.002097234284509644,0.002250664026950232,0.002260003885243709,0.002057323768842291,0.0016666952435154762,0.0011514166188027156,0.0005361019408202728,-0.00022327732566345808,-0.0011872357996762272,-0.0023321022841809452,-0.0034791385289542113,-0.004319172662659677,-0.004536830751816397,-0.00397052658964146,-0.002715729416853617,-0.0011075749024965877,0.0004141252528809872,0.0014895162819429223,0.0019789935851024735,0.0019910723768776645,0.0017914448495061452,0.0016491239648255835,0.0017041769411913015,0.0019223072030143283,0.002147950920546325,0.002212266453235092,0.002027310595965645,0.0016148155866007592,0.0010635311678372536,0.00045377170447252627,-0.00019511117486138078,-0.0009180850455051474,-0.0017446831378046214,-0.002629364708791984,-0.0034230539995428757,-0.00391105981308728,-0.003900823688466663,-0.0033125846477261413,-0.0022253169738106677,-0.0008568457787133476,0.0005086376532784474,0.001611393355235705,0.00229081452804584,0.002522388628449531,0.00240943868727798,0.0021331209160692323,0.0018755044262324984,0.0017435906502876622,0.0017288018627796492,0.001725257196813,0.0016001977303619543,0.0012777247179269775,0.0007859407738580845,0.00023828614192916795,-0.00023959202421386426,-0.00059144342396872,-0.0008673936533832366,-0.0011887706637245736,-0.0016577308666431323,-0.002265767192824351,-0.0028607268531609205,-0.0032003014238003273,-0.003069234724017682,-0.002397908306811602,-0.0013152117452344702,-0.00010286792208731186,0.0009267438299633314,0.0015639660379874213,0.0017763130593121393,0.0016904512294585888,0.0015022946140315725,0.0013727845272926017,0.001365409780151254,0.0014475120355036644,0.0015370998330379115,0.0015557192696582002,0.0014545924086091352,0.0012068578907696373,0.0007855755467814324,0.00015781956805295235,-0.0006884219791054033,-0.001697144254258973,-0.002712660722601055,-0.003497112125902109,-0.0038039765777783275,-0.003479671579765603,-0.002543695477971979,-0.001202058687019396,0.00022132913194715148,0.0014087796767778284,0.0021700664199212436,0.0025001751748837658,0.00254510990439924,0.002497567855489873,0.0024828866831045258,0.002498298880067804,0.0024338868203912377,0.0021549094742483073,0.001593238905817859,0.0007969959121360118,-8.453129434381668e-05,-0.000868761687986076,-0.00142413904648657,-0.0017284525814812428,-0.0018715503520301564,-0.001999763982438978,-0.002229503296398706,-0.0025756313035346333,-0.002934297293165218,-0.003130432083480836,-0.003003540825350247,-0.0024847809663207177,-0.0016262926725732643,-0.0005733714315143833,0.000498657413897772,0.001446140871715971,0.0021881684464943726,0.002700548764147153,0.002989099297168722,0.0030672146085833707,0.0029525493772021853,0.0026781469649682418,0.002300486256404253,0.0018903993234268884,0.0015083769945690609,0.00117980781576257,0.0008869259143204997,0.000582169296628137,0.0002123375264779701,-0.0002625359839251503,-0.0008622078399421482,-0.0015827033748633417,-0.0023840361258336985,-0.003171252074716538,-0.0037899878512336624,-0.0040594975289840575,-0.0038423687509585806,-0.003117638737422721,-0.0020110633702745315,-0.0007573332863274624,0.000389318424106973,0.001248136736035671,0.0017614855963646587,0.0019838880566911896,0.002027856280787333,0.002000986072162106,0.0019636186482156004,0.0019193933511880942,0.0018347321751788293,0.0016734018064614468,0.0014285714910455174,0.0011363091476467877,0.0008619396774980383,0.0006637829460564478,0.0005523805636027967,0.0004688945199749397,0.0002989386838054014,-7.887050636026349e-05,-0.0007279779983628027,-0.00160120771981293,-0.0025277559359653864,-0.0032537676911901592,-0.003527959791512645,-0.0032010503788418823,-0.002296468723513379,-0.0010180883644591336,0.00031338229532285045,0.0013724527361851312,0.001944705133334869,0.0019986140042355335,0.001682081844527615,0.0012441198882991236,0.00091740447113622,0.0008184665501842739,0.0009140237297441553,0.001065569706016512,0.0011201672263769136,0.000991142236072929,0.0006842830968731969,0.0002649909983697754,-0.00019926194359106645,-0.0006765225292869278,-0.0011654948379254018,-0.0016593236077505672,-0.0021093541348300524,-0.002417493821598995,-0.0024665773326984016,-0.0021750195698309353,-0.0015467681375837782,-0.0006877339626138719,0.00022419863066573762,0.0010047589027027696,0.0015343824329524906,0.001799968903111463,0.0018853642969931116,0.0019140487147769158,0.0019737116701537757,0.0020650869031947636,0.0021064240816528125,0.001992342900542991,0.0016695120642568433,0.0011771014018485233,0.0006212974352139558,9.882931552707402e-05,-0.0003767780109285618,-0.0008890581451509497,-0.0015525889960121071,-0.0024029982645228424,-0.0033166423439057457,-0.00402405414320711,-0.004224534469832003,-0.0037406749689392715,-0.0026202325135156928,-0.001123843417733454,0.00039077614824715957,0.0016166051757867737,0.0023968378670097745,0.00273766213131424,0.002750653322733586,0.002571454493865452,0.0022974895456997807,0.00196533322758227,0.001567112995095177,0.0010912177122536322,0.0005633847380937967,6.139318240118522e-05,-0.00031288128649100956,-0.0004947459242296456,-0.0005144162296204078,-0.000506351084092489,-0.0006490911210994329,-0.001058946983259688,-0.0016973874374756413,-0.0023539662182484287,-0.0027282902522870007,-0.0025761493162777017,-0.0018420700078313427,-0.0007022366459822565,0.0005098867846218703,0.0014562297122840526,0.0019423595714013915,0.0019840885686524686,0.0017644013598317968,0.001514019365570669,0.001386821710964299,0.001396540523119166,0.0014396771156715647,0.0013782482448930584,0.0011262294786222391,0.0006911154224502837,0.00015652208892678385,-0.0003730162971151879,-0.0008282154042095076,-0.0012014969543934302,-0.001531899202208694,-0.0018585645195859997,-0.0021702816452479267,-0.0023834996625853254,-0.002368810182038308,-0.002019415540324406,-0.0013271635235711885,-0.00041950139945793035,0.0004738757309403674,0.0011171038997202078,0.0013794041951358004,0.0012995388656396219,0.0010646174441043947,0.0009126465788248509,0.0010117969483013746,0.001380593062257061,0.0018859142259568563,0.0023096837975322432,0.0024412696876979123,0.0021498781530530733,0.0014146484701565304,0.0003182153278945221,-0.000977379562144618,-0.002259234340042061,-0.0032967022251779894,-0.003885301335327148,-0.0038998723446836193,-0.003339869630789717,-0.0023409141967932986,-0.0011364894838689476,2.0518050364377134e-05,0.000941969306656076,0.0015547240619498933,0.001896296039856766,0.002065286248027512,0.0021580646227524042,0.002225083078688238,0.0022631828451486454,0.0022370468839659143,0.0021087879062265734,0.0018564894933616267,0.001475080293569914,0.0009654172138342039,0.00032328695679279484,-0.00046059680819758,-0.0013836099999160122,-0.002400556179569393,-0.0033947654016565514,-0.004174731413369992,-0.004515077476638393,-0.004238742270585687,-0.00330794410231453,-0.0018742001285355844,-0.0002488556281720661,0.0012052149057878545,0.0022135814706681183,0.0026908314323052336,0.0027481890869466377,0.0026062596921367386,0.0024654719566175876,0.0024091680816189453,0.002389814523824558,0.0022938518202056833,0.002032566757929833,0.0015973639418931074,0.0010510614239326956,0.000474289398445574,-8.765393742387424e-05,-0.0006415532010216494,-0.0012219842842895378,-0.0018485115866286581,-0.002493542550777424,-0.0030779869955361843,-0.003493922480847665,-0.003640634645903516,-0.0034567094405799845,-0.002935751401600278,-0.0021237791381381248,-0.0011062059769319675,5.61323491611327e-06,0.0010852854440326584,0.00200511933921739,0.00265821214708009,0.002985280130504805,0.0029934500491507286,0.0027545782412613964,0.0023808067005267287,0.0019868727502081497,0.0016544520092213722,0.0014118137465785375,0.0012347351419920271,0.001065358892328515,0.0008386813032144505,0.0005055372119118591,4.59021239411256e-05,-0.0005280608221505103,-0.0011771502629516278,-0.0018450531672431461,-0.002467394731299525,-0.00297413908844013,-0.0032861765577699375,-0.0033175306895734,-0.00299738667317797,-0.002311779735620117,-0.00134090458751919,-0.0002575486504149184,0.0007281888610976175,0.0014531673311447336,0.0018628236484585494,0.002010265497112713,0.0019972907423734783,0.001903518035684506,0.0017546272312708665,0.0015449588826910502,0.0012840107975020684,0.0010192197592659514,0.0008116474903000063,0.0006836872267098788,0.0005824868947248064,0.00039240539981929494,-3.664699042712344e-06,-0.000646341151407766,-0.0014500086482865124,-0.002214024339539167,-0.002696707130347322,-0.0027193194255026904,-0.002248153615562293,-0.0014122025326500879,-0.00044803352705789735,0.00039809431771352724,0.0009618219238527856,0.0012065307775887108,0.001211526165174392,0.0011174021942028283,0.0010573865582921825,0.0011034976419779924,0.001246652005212356,0.0014147794260573874,0.001516724037493882,0.0014880370469272843,0.0013142371789963965,0.0010202334856891232,0.000635604561140571,0.00016198165979864178,-0.0004305925866156061,-0.0011695046959868817,-0.0020260109355104625,-0.002879239669240622,-0.0035297470031776784,-0.0037664521723166896,-0.0034569669883872736,-0.0026144403770824803,-0.0014050036862118618,-9.107875545554065e-05,0.0010620251637412392,0.0018731923301041893,0.0022904539704777516,0.0023814058149112427,0.0022819791662702527,0.002130862932785924,0.002016501755150832,0.001953647249379292,0.001894228732554356,0.0017657853506837437,0.0015196902372649594,0.001163900929142626,0.0007586576260238943,0.0003729316071416869,2.66055962271365e-05,-0.0003404339237006764,-0.000841621749733843,-0.0015642757216176447,-0.002481596452563761,-0.0034157784514426467,-0.004088129491710023,-0.004239802578941701,-0.003759334653450867,-0.002744261964369691,-0.0014613792171860405,-0.00022878189849776485,0.0007156601436242112,0.0012938005619681603,0.0015836533138793084,0.0017470847391751934,0.0019342287798710719,0.0022144089979112234,0.0025618282785965286,0.0028896577312764035,0.003099838305912446,0.0031161123714696236,0.002892357980586846,0.002412799815315834,0.0017011184863035568,0.0008334668343171743,-6.809160737474397e-05,-0.0008770033918992788,-0.0015227349435006474,-0.0020287042078165193,-0.002491480260785149,-0.0030025342963091554,-0.003557013565096079,-0.004011089643200473,-0.004126368250649579,-0.0036890294268766945,-0.00264285752671525,-0.0011589508490265914,0.0004067257654215107,0.0016565004959328401,0.0023245464307024444,0.002388964850420936,0.0020620781433560356,0.001666365199221998,0.0014669238784882283,0.0015519410615677637,0.00181903135801568,0.00206090005570886,0.002090400294113821,0.0018334271533000804,0.001347974659040321,0.0007730575814168724,0.00024402709145024285,-0.00018006585258515398,-0.0005416243869624509,-0.0009489762169051345,-0.0014956824807394256,-0.0021762990302672328,-0.0028491991424810844,-0.003278114219583655,-0.003241410807620233,-0.002653896081311739,-0.001629466889792853,-0.00044092330963376006,0.0006062424216947117,0.001314295317672123,0.0016658969985092094,0.001791095757203293,0.0018591601316606324,0.001969598952595588,0.0021073157840516715,0.002176700450517117,0.0020787395286852818,0.0017773270624803872,0.0013191745742321128,0.0008048812490992972,0.00033378558309421773,-4.721359322246922e-05,-0.00036724017260684463,-0.0007170641606722027,-0.0012008952734682736,-0.001871449039138739,-0.0026748519355783134,-0.0034347150366036768,-0.0038959295838051364,-0.003824807288879097,-0.0031279008106652366,-0.0019261279076985358,-0.0005289179487514701,0.0006963561416436474,0.0014967299867377271,0.0018479658544163103,0.001938697185175155,0.002032693465013826,0.002296578726729139,0.0027011351851303107,0.0030523903975495604,0.0031231062948936226,0.0027961007853353603,0.0021330272539751716,0.0013355602018812716,0.000630664539805317,0.00014956721506406614,-0.0001341486646381678,-0.00037857830670222115,-0.0007770558302377226,-0.0014422110059934563,-0.0023295349129736835,-0.00323977078187374,-0.0039004069208088722,-0.0040860617256688395,-0.0037170119625763603,-0.0028875281360708433,-0.0018148507458208233,-0.0007415286315560691,0.00015687371797348348,0.0008179768201595579,0.0012813829445215766,0.0016368427523602246,0.0019627847255276054,0.002284201348878968,0.0025649842698515207,0.0027317892845105996,0.0027131737433701837,0.0024747935530080216,0.002037711182760726,0.0014755733382680754,0.0008919833249983421,0.0003828313661765857,-5.626441353350029e-06,-0.00030371499130327434,-0.000609014258397737,-0.0010332329568065231,-0.0016249333434672287,-0.002311069774830498,-0.002899855641111005,-0.003157487859329448,-0.002926546937471772,-0.002221814119598848,-0.001243199018204672,-0.0002887516430380191,0.00038953744139768394,0.0007059918144691583,0.0007670099562009265,0.0007879603384879971,0.0009533168870827073,0.001305305113710227,0.0017253616342378221,0.0020136716251785225,0.002013887082955914,0.0017067233489800357,0.0012175788042807377,0.0007351464645244718,0.0003912356147482742,0.00017692366481957282,-4.922857369917444e-05,-0.0004604012463120914,-0.001127549572147305,-0.0019383060318849395,-0.0026274744966100017,-0.0029094125755669466,-0.0026357142699129222,-0.0018816384997831688,-0.0009072049718906351,-1.6699530761765603e-05,0.0005977368127936334,0.0009360870051132947,0.001151881758848318,0.0014259657728487225,0.0018339956987306577,0.002288407192656394,0.002587131245147958,0.0025364305635313276,0.0020730518164210877,0.0013143212354829784,0.0005080753164905813,-9.021815559988224e-05,-0.00034856932670184176,-0.00033048555625594033,-0.00026957273270203065,-0.00045392561403005265,-0.0010709333168435128,-0.0020870124259581443,-0.003227919655139297,-0.004081386685262553,-0.004281082057974601,-0.0036819880117212834,-0.0024341083872435176,-0.0009122560586224894,0.00046133778004610565,0.0014045341953522238,0.0018724840194612746,0.0020209833564224493,0.0020733649755021732,0.0021804467906063555,0.002354547400750466,0.0025010560412524895,0.0025080835966197024,0.002327253279133616,0.001997633085874061,0.0016095072076033308,0.0012422366053886048,0.0009190097887419755,0.0006018698904553493,0.00022154152401308792,-0.0002815599478261577,-0.0009275667523661339,-0.0016866948466149833,-0.0024828393776208705,-0.003204091717660324,-0.0037199955963979807,-0.003909383589962463,-0.003696248612251056,-0.003080024362423836,-0.0021436842757003825,-0.0010336452503888535,7.893960254228276e-05,0.0010387158079525505,0.0017368429325796955,0.002129280395079228,0.0022432741947611776,0.0021696440309962586,0.002036409124522792,0.001964469841264991,0.002017743958955977,0.002170396414159479,0.0023124993447864286,0.002298637918114045,0.0020192142082790946,0.0014573105276569763,0.0006982447337286077,-0.00011529311661242201,-0.0008569485339846351,-0.0014745908768771156,-0.0019954668246171163,-0.0024739333795805152,-0.0029159675907127714,-0.0032349235258199776,-0.0032772641010457826,-0.002911208657419212,-0.0021253714990931896,-0.0010718249940147551,-1.9069821862272712e-05,0.0007652660742022365,0.0011395048886462384,0.0011522512245238734,0.0010098122081358802,0.0009625716882247896,0.0011700776410854634,0.0016166007436189994,0.0021216918712583495,0.0024385906294997852,0.002386187692249474,0.0019429414953576307,0.001251762308031669,0.0005329526805519162,-4.530986227941963e-05,-0.00046108397488777743,-0.00083609890624081,-0.0013333020660242308,-0.0020170962424554757,-0.0027678269568044396,-0.003311926848214907,-0.003357453359017794,-0.0027573597194491418,-0.001603369983861437,-0.00019497331695548972,0.0010961565160347167,0.0019861234406496394,0.0023769393250709634,0.0023532098765380125,0.0021001555475322385,0.0018020683752413438,0.0015741098161835528,0.0014467150466685114,0.00138890133996106,0.0013429301993850983,0.001248781242689089,0.0010526850176395264,0.0007080112899248594,0.00018106401419906454,-0.0005328132186543017,-0.0013896412866629523,-0.002287705155553975,-0.003079554436615255,-0.003605311140463066,-0.003737951514174134,-0.0034266330580376893,-0.002722965514650261,-0.0017762000379800604,-0.0007901158354377023,4.9613881929941024e-05,0.0006486304863200167,0.0010388363600924038,0.0013496166093143955,0.001724120607441718,0.002224207743575748,0.00277895113029856,0.0032099945818978653,0.0033242021581929254,0.003024067883337457,0.0023725201865324157,0.0015714789375592252,0.0008622109416971931,0.00040149181026801796,0.00018219960656403454,4.20530943031688e-05,-0.00024396583756941076,-0.0008358223723388034,-0.001730727812455149,-0.0027444743305821357,-0.0035810598673874858,-0.003957891290259777,-0.0037289901845750494,-0.0029501645663267953,-0.0018561496716453752,-0.0007597499738411489,7.962934593777008e-05,0.0005546445520417981,0.0007291217013702125,0.0007738625229776125,0.000860356393253063,0.001073203022195308,0.0013853273768339607,0.0016994179248491152,0.0019205243597404963,0.002011123215744101,0.001997355140100324,0.0019303587093356597,0.0018357618920784246,0.0016884130698835633,0.0014275528759750541,0.0009979559501418474,0.0003872958392708548,-0.0003623784792168719,-0.0011699955514315385,-0.0019409537221763502,-0.0025840184725149247,-0.003014258195998517,-0.003153410199503722,-0.0029439804524193027,-0.0023806160433263415,-0.0015416638977238844,-0.0005933597286923347,0.00025063789747466344,0.0008062096166804524,0.0009992123142288376,0.0009064388199850405,0.0007264803006665906,0.0006832984864673965,0.0009065025825980698,0.0013558544215188423,0.001840473742355013,0.002127788684605358,0.002077582617719391,0.0017160703468372918,0.0012021015758081441,0.0007094578179306308,0.00030723381138755357,-7.639958148268416e-05,-0.0005782874576028131,-0.0012635189471509193,-0.002026899019879491,-0.0026108769689453704,-0.002739935657817538,-0.002289655120402242,-0.0013807952864486814,-0.00033414176725643984,0.0004909470671174429,0.0008800984242371806,0.0008635428579152886,0.0006767332660013611,0.0006076553599629988,0.0008205655051911002,0.0012583037917950875,0.0016792405232746613,0.0018055845681142243,0.0014929043450638765,0.0008171921106295311,2.601779798729097e-05,-0.0006148390054855747,-0.0009809865427363377,-0.001151464757545499,-0.001331140393733262,-0.0016826507569417085,-0.0021794422220037662,-0.002582681228946686,-0.0025677112945381455,-0.0019282661280416574,-0.0007320597252590086,0.0006735134139647036,0.0018170432191298178,0.002334494396760906,0.002147146491486295,0.0014911898229247277,0.0007904722809951958,0.0004473768537904281,0.0006605542405612708,0.001351187698922509,0.0022168762321307287,0.0028729710306581013,0.0030119809989717526,0.002516198131501387,0.0014851196394531016,0.00017420312179185465,-0.001123804806009454,-0.002198459371455781,-0.0029830884700545236,-0.003528137144523844,-0.003907339986434716,-0.004120990471970832,-0.00406507050206021,-0.0035928894627771588,-0.0026325795880036357,-0.0012820138860108717,0.00018809436961205828,0.001436849812994993,0.002209106022498717,0.002456007557654331,0.0023483617455475384,0.002172520325668334,0.0021682176255533965,0.0024018120970016707,0.0027441946117459934,0.0029574819413816797,0.002832928552646093,0.0023016189659772067,0.001464575581070731,0.0005364226653294072,-0.00026243104726493983,-0.0008114886553388374,-0.0011438702953783788,-0.0014194471321853823,-0.0018239278300357124,-0.0024408046011481234,-0.0031684422005930565,-0.0037413451614139955,-0.003858628249057158,-0.003353490332833403,-0.0023030322226697477,-0.0010074866441564917,0.00015385783349578788,0.000907742316665796,0.0012081512642429996,0.001230175736444221,0.0012483591040532659,0.0014740507651826566,0.0019428669045910092,0.0025084321941243153,0.002934613704551851,0.003023941915688087,0.0027076588259151075,0.0020574916852223245,0.0012325058281227475,0.0004068936013553056,-0.00028202620911368286,-0.00075650952585877,-0.0010050782736516271,