0.0061
0.01099
0.01831
0.0293
0.0293
0.03174
0.03906
0.04395
0.04883
0.05127
0.05371
0.05493
0.05615
0.05615
0.06104
0.05737
0.05615
0.05615
0.05493
0.05371
0.05249
0.04883
0.04883
0.04883
0.04761
0.04639
0.04272
0.04395
0.04028
0.03906
0.03662
0.03418
0.03296
0.03052
0.02563
0.0293
0.02808
0.02686
0.02686
0.02563
0.02441
0.02319
0.02197
0.02197
0.02075
0.02075
0.02075
0.02197
0.02197
0.02197
0.02075
0.02197
0.02075
0.01953
0.02075
0.02075
0.01587
0.02075
0.01953
0.02441
0.01953
0.01709
0.01831
0.01587
0.01587
0.01587
0.01465
0.01221
0.01221
0.01099
0.00488
0.00732
0.00488
0
0.00122
0
-0.00244
-0.00244
-0.00366
-0.00488
-0.0061
-0.00854
-0.00854
-0.01099
-0.01343
-0.01343
-0.01465
-0.01953
-0.01831
-0.01953
-0.02197
-0.02197
-0.02197
-0.01831
-0.02319
-0.02441
-0.02441
-0.02441
-0.02686
-0.02563
-0.02686
-0.02808
-0.02808
-0.0293
-0.03174
-0.03174
-0.03296
-0.0354
-0.03418
-0.0354
-0.03662
-0.0354
-0.0354
-0.03418
-0.03052
-0.02808
-0.02319
-0.01831
-0.01343
-0.0061
0
0.00122
0.01099
0.01465
0.01953
0.02563
0.0293
0.03418
0.03906
0.04028
0.04272
0.04395
0.04272
0.04395
0.04395
0.0415
0.04395
0.04395
0.0415
0.0415
0.04028
0.0415
0.03906
0.03784
0.03662
0.0354
0.03296
0.03296
0.03052
0.02319
0.02686
0.02563
0.02197
0.02197
0.02319
0.02197
0.02075
0.01831
0.01953
0.01587
0.01587
0.01465
0.01343
0.01221
0.01221
0.01099
0.00977
0.01099
0.00854
0.00366
0.00732
0.0061
0.00366
0.0061
0.0061
0.00854
0.00732
0.00732
0.00854
0.00732
0.0061
0.00732
0.00732
0.0061
0.0061
0.0061
0.00488
0.00488
0.00488
0.00244
0.00366
0.00244
0.00122
0.00122
0
0.00244
-0.00122
-0.00366
-0.00244
-0.00488
-0.00732
-0.00854
-0.00977
-0.01099
-0.01099
-0.01221
-0.01343
-0.01343
-0.01465
-0.01831
-0.01831
-0.01831
-0.02075
-0.02075
-0.02075
-0.01587
-0.02075
-0.02197
-0.02441
-0.02319
-0.02563
-0.02441
-0.02441
-0.02686
-0.02563
-0.02563
-0.02808
-0.02686
-0.02808
-0.03296
-0.03052
-0.03174
-0.03296
-0.03296
-0.03296
-0.03174
-0.03174
-0.03052
-0.02686
-0.02563
-0.02319
-0.01709
-0.01343
-0.01099
-0.00244
0.00366
0.0061
0.01587
0.02197
0.02563
0.03174
0.0354
0.04639
0.04517
0.04883
0.05127
0.05249
0.05493
0.05615
0.05615
0.05371
0.05493
0.05493
0.05127
0.05249
0.05127
0.04883
0.04883
0.04639
0.04517
0.04272
0.0415
0.0415
0.03906
0.0354
0.0354
0.03174
0.02808
0.02808
0.02441
0.02563
0.02075
0.01953
0.01709
0.01709
0.01587
0.01587
0.01587
0.01465
0.01465
0.01343
0.01343
0.01465
0.01343
0.01343
0.01465
0.01465
0.01343
0.01709
0.01709
0.01831
0.01709
0.01709
0.01709
0.01709
0.01709
0.01831
0.01831
0.01465
0.01709
0.01587
0.01587
0.01587
0.01343
0.01343
0.01099
0.00977
0.00854
0.00732
0.0061
0.00366
0.00244
0
0
-0.00122
-0.00732
-0.00488
-0.00732
-0.00854
-0.00977
-0.01221
-0.01465
-0.01343
-0.01465
-0.01465
-0.01465
-0.01587
-0.01709
-0.01709
-0.01953
-0.02075
-0.02075
-0.02197
-0.02075
-0.02075
-0.02441
-0.02197
-0.02319
-0.02686
-0.02441
-0.02686
-0.02808
-0.02686
-0.02808
-0.02686
-0.02808
-0.02808
-0.02686
-0.02563
-0.02686
-0.02319
-0.01953
-0.01709
-0.01099
-0.0061
-0.00488
0.00488
0.00977
0.02197
0.02197
0.02686
0.03296
0.04028
0.04395
0.05005
0.05493
0.05737
0.06104
0.06226
0.06226
0.06348
0.06348
0.06348
0.06348
0.06226
0.06104
0.06104
0.05981
0.05859
0.05737
0.05493
0.05493
0.05371
0.05127
0.05249
0.05249
0.04761
0.04883
0.04639
0.04517
0.04272
0.0415
0.04028
0.03784
0.0354
0.0354
0.03418
0.03296
0.03174
0.03052
0.02808
0.0293
0.0293
0.02441
0.02686
0.02686
0.02197
0.02563
0.02441
0.02319
0.02319
0.02197
0.02319
0.02197
0.02197
0.02197
0.02197
0.02075
0.02075
0.02075
0.01709
0.01953
0.01709
0.01709
0.01709
0.01709
0.02075
0.01587
0.01465
0.01465
0.01221
0.01221
0.01221
0.00977
0.00977
0.00977
0.00732
0.00488
0.00366
0.00244
-0.00366
-0.00122
-0.00244
-0.0061
-0.00488
-0.0061
-0.00244
-0.00977
-0.01221
-0.01343
-0.01465
-0.01709
-0.01709
-0.01953
-0.02075
-0.01953
-0.02197
-0.02319
-0.02441
-0.02563
-0.02808
-0.02808
-0.0293
-0.03174
-0.03174
-0.03174
-0.03296
-0.03174
-0.03174
-0.03174
-0.03052
-0.0293
-0.02686
-0.02441
-0.02075
-0.01587
-0.01099
-0.00488
0.00244
0.00977
0.01343
0.02197
0.02808
0.03174
0.04028
0.04517
0.05005
0.05127
0.05371
0.05615
0.05615
0.05737
0.05859
0.05859
0.05737
0.05737
0.05615
0.05493
0.05493
0.05127
0.04761
0.05127
0.05005
0.04517
0.04761
0.04883
0.05005
0.05005
0.05005
0.05127
0.05005
0.05005
0.05127
0.05127
0.05005
0.05005
0.04883
0.04639
0.04639
0.04517
0.04028
0.04395
0.04272
0.04395
0.0415
0.04028
0.03906
0.03906
0.03784
0.03784
0.03662
0.03662
0.03784
0.03662
0.03662
0.03784
0.03784
0.0354
0.03662
0.0354
0.03418
0.03418
0.03296
0.03662
0.03052
0.0293
0.03052
0.02808
0.02686
0.02563
0.02441
0.02441
0.02441
0.02197
0.02197
0.02075
0.01953
0.01465
0.01465
0.01343
0.01099
0.00977
0.0061
0.00977
0.00366
0.00122
0
-0.00244
-0.00488
-0.00488
-0.00854
-0.00977
-0.01099
-0.01465
-0.01709
-0.01831
-0.02075
-0.02441
-0.02441
-0.02686
-0.03296
-0.0293
-0.03052
-0.03418
-0.03052
-0.03174
-0.02686
-0.03052
-0.03296
-0.03174
-0.03296
-0.03296
-0.03296
-0.03296
-0.03418
-0.03296
-0.03296
-0.03418
-0.03174
-0.03174
-0.03296
-0.03174
-0.03174
-0.03418
-0.0293
-0.02686
-0.02563
-0.02197
-0.01831
-0.01343
-0.00732
0
0.00732
0.01465
0.02075
0.0293
0.0354
0.04028
0.04517
0.05005
0.05249
0.05737
0.06104
0.06104
0.06592
0.06592
0.06836
0.06714
0.06592
0.06714
0.06592
0.0647
0.0647
0.06226
0.05493
0.05859
0.05615
0.06104
0.05493
0.05493
0.05737
0.05615
0.05493
0.05493
0.05371
0.05249
0.05127
0.05005
0.04883
0.04883
0.04639
0.04272
0.04517
0.04395
0.04028
0.0415
0.03906
0.03906
0.03662
0.0354
0.03662
0.0354
0.03418
0.0354
0.03418
0.03418
0.03418
0.03296
0.03174
0.03174
0.0293
0.02563
0.02808
0.02686
0.02441
0.02563
0.02319
0.02563
0.02075
0.01953
0.01831
0.01709
0.01587
0.01587
0.01587
0.01465
0.01221
0.01343
0.01099
0.01099
0.00854
0.00488
0.00488
0.00366
0
0
-0.00244
0.00122
-0.00488
-0.00732
-0.00732
-0.00977
-0.01221
-0.01343
-0.01465
-0.01709
-0.01709
-0.01953
-0.02197
-0.02197
-0.02319
-0.02563
-0.02441
-0.02563
-0.03052
-0.02808
-0.0293
-0.0293
-0.03052
-0.03174
-0.03052
-0.03296
-0.03418
-0.03418
-0.03418
-0.0354
-0.0354
-0.03662
-0.03906
-0.03784
-0.03784
-0.0415
-0.03662
-0.03784
-0.03906
-0.03784
-0.03906
-0.03906
-0.03906
-0.03906
-0.03662
-0.03418
-0.03174
-0.02686
-0.02197
-0.01587
-0.00977
-0.00366
0.00244
0.01099
0.01587
0.02075
0.02808
0.03296
0.0354
0.0415
0.04517
0.04761
0.04883
0.05127
0.05127
0.05127
0.05127
0.05127
0.05127
0.04883
0.04883
0.04639
0.0415
0.04395
0.0415
0.0415
0.04028
0.03784
0.03784
0.0354
0.03174
0.03052
0.02808
0.02563
0.02563
0.02441
0.01953
0.02075
0.01953
0.01587
0.01709
0.01465
0.01587
0.01221
0.01099
0.01099
0.00977
0.00732
0.0061
0.0061
0.00488
0.00366
0.00366
0.00244
0.00244
0.00244
-0.00122
0.00244
0.00244
0
0.00244
0.00122
0.00244
0.00122
0.00122
0.00122
0
0
0
-0.00244
-0.00366
-0.00366
-0.00488
-0.00732
-0.00732
-0.00732
-0.01343
-0.00977
-0.01099
-0.01343
-0.01221
-0.01465
-0.01099
-0.01709
-0.01831
-0.01831
-0.02075
-0.02075
-0.02197
-0.02319
-0.02441
-0.02563
-0.02686
-0.02808
-0.02808
-0.0293
-0.0293
-0.03052
-0.03296
-0.0354
-0.03418
-0.03662
-0.03906
-0.03906
-0.04028
-0.04028
-0.0415
-0.04272
-0.04395
-0.04395
-0.04517
-0.04395
-0.04395
-0.04517
-0.04395
-0.04395
-0.0415
-0.03784
-0.03662
-0.03296
-0.02686
-0.02319
-0.01709
-0.01099
-0.00488
0.00122
0.00854
0.01221
0.01709
0.02197
0.02686
0.0293
0.03662
0.04028
0.04517
0.04395
0.04395
0.04517
0.04395
0.04395
0.04395
0.0415
0.03906
0.04028
0.03906
0.03662
0.03662
0.0354
0.03418
0.03296
0.03174
0.03052
0.02808
0.02563
0.02441
0.02319
0.02075
0.01953
0.01709
0.01343
0.01343
0.01099
0.00977
0.00854
0.0061
0.00977
0.00488
0.00244
0.00244
0.00244
0.00122
0.00122
0.00122
0
0.00122
0.00122
0.00122
0.00122
0.00122
-0.00122
0.00122
0.00122
0
0.00122
0
0.00366
0
-0.00244
-0.00122
-0.00366
-0.00488
-0.0061
-0.00732
-0.00854
-0.00854
-0.01099
-0.01221
-0.01221
-0.01343
-0.01709
-0.01587
-0.01831
-0.01953
-0.01953
-0.02075
-0.01709
-0.02197
-0.02441
-0.02563
-0.02563
-0.02686
-0.02808
-0.0293
-0.03052
-0.03174
-0.03296
-0.03418
-0.0354
-0.03662
-0.03784
-0.03906
-0.0415
-0.04272
-0.0415
-0.0415
-0.04272
-0.04272
-0.04395
-0.04639
-0.04639
-0.04517
-0.04517
-0.04517
-0.04639
-0.04639
-0.04761
-0.04883
-0.04761
-0.04761
-0.05005
-0.04883
-0.05005
-0.05249
-0.04883
-0.04761
-0.04639
-0.04272
-0.04028
-0.0354
-0.03052
-0.02441
-0.01709
-0.01099
-0.00366
0.00366
0.01221
0.01709
0.02441
0.0293
0.03418
0.04028
0.04395
0.04761
0.05127
0.05249
0.05615
0.05615
0.05615
0.05615
0.05493
0.05371
0.05249
0.05127
0.05005
0.05005
0.04883
0.04761
0.04639
0.04395
0.04395
0.04395
0.0415
0.04028
0.03906
0.03662
0.03662
0.03662
0.0354
0.03418
0.03296
0.03052
0.03052
0.0293
0.02563
0.02686
0.02563
0.02197
0.02197
0.02075
0.02319
0.01709
0.01587
0.01587
0.01343
0.01221
0.01221
0.01099
0.00854
0.00977
0.00854
0.00732
0.00732
0.00732
0.0061
0.00732
0.00732
0.0061
0.0061
0.00488
0.00854
0.00366
0.00244
0.00366
0.00244
0.00122
0.00122
0
-0.00244
-0.00244
-0.00366
-0.0061
-0.00732
-0.00732
-0.01221
-0.00977
-0.00977
-0.01343
-0.01343
-0.01465
-0.01221
-0.01709
-0.01953
-0.02075
-0.02197
-0.02319
-0.02319
-0.02441
-0.02563
-0.02563
-0.02686
-0.02808
-0.02808
-0.0293
-0.03052
-0.0293
-0.02808
-0.0293
-0.0293
-0.03052
-0.03052
-0.03174
-0.03296
-0.03174
-0.03296
-0.03296
-0.03296
-0.03296
-0.0354
-0.0354
-0.0354
-0.03662
-0.03784
-0.03784
-0.04028
-0.03906
-0.0415
-0.04272
-0.04517
-0.04761
-0.04883
-0.05127
-0.05249
-0.05249
-0.05371
-0.05493
-0.05371
-0.05371
-0.05493
-0.05371
-0.05127
-0.05005
-0.04395
-0.03906
-0.03784
-0.02686
-0.01953
-0.01221
-0.00488
0.00244
0.0061
0.01587
0.02075
0.02686
0.03174
0.03662
0.0415
0.04517
0.04639
0.04883
0.05005
0.04883
0.05005
0.05005
0.04639
0.04883
0.04883
0.04883
0.04639
0.04517
0.04395
0.04272
0.04028
0.0415
0.03906
0.03418
0.0354
0.03418
0.03052
0.03052
0.02808
0.03174
0.02563
0.02441
0.02441
0.02197
0.02075
0.02075
0.01831
0.01587
0.01587
0.01465
0.01221
0.01221
0.01099
0.00488
0.00977
0.00854
0.00488
0.0061
0.00488
0.00366
0.00366
0.00244
0.00244
0.00244
0.00122
0.00122
0
-0.00244
-0.00122
-0.00244
-0.00366
-0.00244
-0.00122
-0.00732
-0.00366
-0.00488
-0.00732
-0.00732
-0.00854
-0.00366
-0.01099
-0.01221
-0.01221
-0.01343
-0.01587
-0.01587
-0.01831
-0.02075
-0.02075
-0.02319
-0.02563
-0.02563
-0.02686
-0.02808
-0.02808
-0.0293
-0.03418
-0.03296
-0.03418
-0.03418
-0.03662
-0.03662
-0.03296
-0.03784
-0.03906
-0.03906
-0.03906
-0.0415
-0.0415
-0.04272
-0.04517
-0.04395
-0.04517
-0.04639
-0.04517
-0.04517
-0.04639
-0.04639
-0.04761
-0.05127
-0.04883
-0.04883
-0.05005
-0.05005
-0.05127
-0.04639
-0.05249
-0.05493
-0.05493
-0.05615
-0.05859
-0.05859
-0.06104
-0.06226
-0.06348
-0.06348
-0.06592
-0.06592
-0.06714
-0.06714
-0.06836
-0.06714
-0.06714
-0.0647
-0.06226
-0.06104
-0.05249
-0.04761
-0.04272
-0.03296
-0.02686
-0.02075
-0.01099
-0.00488
0.0061
0.00977
0.01587
0.02075
0.02563
0.0293
0.03296
0.03662
0.03662
0.03906
0.03906
0.0354
0.03784
0.03662
0.0415
0.0354
0.03296
0.03296
0.03174
0.0293
0.0293
0.02808
0.02441
0.02441
0.02197
0.01587
0.01831
0.01587
0.01343
0.01343
0.01099
0.00977
0.00854
0.0061
0.0061
0.00488
0.00244
0.00122
0
-0.00244
-0.00244
-0.00366
-0.0061
-0.00488
-0.0061
-0.00977
-0.0061
-0.00732
-0.00732
-0.00732
-0.00732
-0.00732
-0.00732
-0.00732
-0.0061
-0.0061
-0.0061
-0.0061
-0.00488
-0.00488
-0.00488
-0.00488
-0.00732
-0.0061
-0.00732
-0.01099
-0.00977
-0.00854
-0.01099
-0.01099
-0.01221
-0.00854
-0.01343
-0.01587
-0.01587
-0.01709
-0.02075
-0.02075
-0.02197
-0.02319
-0.02319
-0.02563
-0.02686
-0.02808
-0.0293
-0.03174
-0.03174
-0.03174
-0.03784
-0.03296
-0.03296
-0.03662
-0.03418
-0.03662
-0.03296
-0.03662
-0.03784
-0.03784
-0.03906
-0.0415
-0.0415
-0.0415
-0.04395
-0.04395
-0.04517
-0.04517
-0.04639
-0.04639
-0.04639
-0.04639
-0.04639
-0.05005
-0.04517
-0.04639
-0.04517
-0.04272
-0.04028
-0.04028
-0.03296
-0.02808
-0.01709
-0.01587
-0.01099
-0.00488
0.00244
0.00732
0.01343
0.01831
0.02319
0.02808
0.03174
0.0354
0.03906
0.04028
0.03906
0.0415
0.0415
0.04028
0.0415
0.04028
0.0415
0.03784
0.03662
0.0354
0.03296
0.03174
0.03052
0.0293
0.02319
0.02563
0.02441
0.02197
0.01953
0.01587
0.01343
0.01221
0.00977
0.00854
0.0061
0.00366
0.00244
0.00122
0
-0.00122
-0.00366
-0.00488
-0.00366
-0.00488
-0.00854
-0.0061
-0.00732
-0.00854
-0.00732
-0.00732
-0.00854
-0.0061
-0.00732
-0.00488
-0.00488
-0.0061
-0.00366
-0.00366
-0.00488
-0.00366
-0.00366
-0.00488
-0.00488
-0.00488
-0.00732
-0.0061
-0.00732
-0.00854
-0.00977
-0.01099
-0.01221
-0.01221
-0.01343
-0.01465
-0.01587
-0.01709
-0.01587
-0.01831
-0.02075
-0.02197
-0.02319
-0.02441
-0.02441
-0.02563
-0.02686
-0.02686
-0.02808
-0.03174
-0.03052
-0.03174
-0.0354
-0.03296
-0.03418
-0.03784
-0.03662
-0.03784
-0.03418
-0.03906
-0.04028
-0.04028
-0.0415
-0.04272
-0.04272
-0.04395
-0.04517
-0.04517
-0.04517
-0.04639
-0.04639
-0.04639
-0.04639
-0.04272
-0.0415
-0.04028
-0.03418
-0.03052
-0.02808
-0.01709
-0.01099
-0.00488
0.00366
0.01099
0.01709
0.02441
0.0293
0.0354
0.04028
0.04395
0.04883
0.05127
0.05371
0.05493
0.05615
0.05615
0.05859
0.05859
0.06348
0.05859
0.05615
0.05737
0.05493
0.05371
0.05249
0.05005
0.04761
0.04639
0.04517
0.0415
0.0415
0.03906
0.0415
0.03662
0.0354
0.03418
0.03296
0.03052
0.03052
0.0293
0.02808
0.02686
0.02563
0.02441
0.02319
0.02197
0.01953
0.02075
0.01953
0.01831
0.01709
0.01709
0.02075
0.01465
0.01465
0.01587
0.01465
0.01343
0.01465
0.01343
0.01343
0.01343
0.01343
0.01221
0.01343
0.01343
0.00977
0.01221
0.01221
0.00732
0.00977
0.00732
0.0061
0.0061
0.00366
0.00366
0.00244
0.00122
0
-0.00244
-0.00488
-0.0061
-0.00732
-0.00854
-0.00854
-0.00977
-0.01587
-0.01221
-0.01343
-0.01587
-0.01465
-0.01709
-0.01831
-0.01831
-0.02075
-0.02075
-0.02197
-0.02319
-0.02319
-0.02441
-0.02686
-0.02441
-0.02563
-0.02686
-0.02686
-0.02808
-0.03052
-0.02808
-0.0293
-0.03174
-0.03174
-0.03296
-0.03174
-0.03418
-0.0354
-0.03784
-0.0354
-0.03662
-0.03662
-0.03784
-0.04028
-0.04028
-0.04028
-0.0415
-0.04028
-0.04028
-0.03906
-0.03662
-0.03418
-0.03174
-0.02563
-0.02197
-0.01709
-0.00732
0
0.00366
0.01587
0.02197
0.02808
0.0354
0.0415
0.05249
0.05249
0.05737
0.06104
0.06348
0.0647
0.06714
0.06714
0.06592
0.06714
0.06592
0.0647
0.0647
0.06348
0.06104
0.06226
0.06104
0.05981
0.05859
0.05615
0.05493
0.05371
0.05127
0.05127
0.05005
0.04761
0.04883
0.04639
0.04761
0.04517
0.0415
0.04028
0.04028
0.03784
0.03784
0.0354
0.03418
0.03418
0.03174
0.03052
0.0293
0.02808
0.02563
0.02686
0.02563
0.02441
0.02441
0.02319
0.02686
0.02197
0.02075
0.02197
0.02075
0.02075
0.02075
0.02197
0.01953
0.01953
0.01831
0.01709
0.01709
0.01587
0.01343
0.01587
0.01587
0.01343
0.01343
0.01221
0.01221
0.01099
0.00732
0.00732
0.0061
0.00488
0.00366
0.00244
0.00122
0
-0.00122
-0.00366
-0.00366
-0.00366
-0.00488
-0.0061
-0.00732
-0.00244
-0.00977
-0.01099
-0.01099
-0.01343
-0.01587
-0.01587
-0.01709
-0.01831
-0.01831
-0.01953
-0.02197
-0.02197
-0.02319
-0.02441
-0.02441
-0.02563
-0.0293
-0.02686
-0.02808
-0.0293
-0.02808
-0.0293
-0.03052
-0.03052
-0.03296
-0.03296
-0.03418
-0.0354
-0.03418
-0.0354
-0.03662
-0.03784
-0.03906
-0.0415
-0.04272
-0.04272
-0.04639
-0.04517
-0.04517
-0.04639
-0.04639
-0.04639
-0.0415
-0.04272
-0.0415
-0.03662
-0.03174
-0.02686
-0.01831
-0.01221
-0.00488
0.00488
0.01221
0.01831
0.02563
0.03052
0.03662
0.04395
0.04883
0.05127
0.05615
0.05859
0.05859
0.06226
0.06104
0.06104
0.06226
0.06104
0.06104
0.05981
0.05737
0.05615
0.05371
0.04883
0.05127
0.05005
0.05371
0.04761
0.04517
0.04517
0.0415
0.03906
0.03784
0.0354
0.03296
0.03296
0.03174
0.0293
0.0293
0.02808
0.02441
0.02441
0.02319
0.01953
0.02075
0.01953
0.01831
0.01831
0.01709
0.01709
0.01587
0.01465
0.01465
0.01343
0.01221
0.01221
0.01221
0.01099
0.01221
0.01221
0.01099
0.01221
0.01099
0.01587
0.01099
0.00977
0.01221
0.00977
0.00977
0.01099
0.00977
0.00732
0.00732
0.00732
0.00366
0.00488
0.00366
-0.00244
0.00122
0
-0.00488
-0.00366
-0.00488
-0.0061
-0.00732
-0.00732
-0.00732
-0.00977
-0.01221
-0.01221
-0.01343
-0.01587
-0.01709
-0.01709
-0.02075
-0.01831
-0.02075
-0.02563
-0.02197
-0.02319
-0.02686
-0.02563
-0.02686
-0.02686
-0.0293
-0.0293
-0.0293
-0.03052
-0.03296
-0.03418
-0.03418
-0.0354
-0.0354
-0.03662
-0.03784
-0.03784
-0.03784
-0.04028
-0.03906
-0.04028
-0.0415
-0.04028
-0.0415
-0.03662
-0.0415
-0.03662
-0.0354
-0.03174
-0.02686
-0.02075
-0.01587
-0.01099
-0.00366
0.00366
0.00854
0.01587
0.02319
0.02686
0.03296
0.03784
0.0415
0.04639
0.05005
0.05127
0.05249
0.05493
0.05493
0.05615
0.05493
0.05493
0.05371
0.05127
0.05005
0.04883
0.04272
0.04517
0.04395
0.04639
0.0415
0.03906
0.03662
0.03418
0.03174
0.03052
0.02686
0.02563
0.02441
0.02197
0.01953
0.01953
0.01953
0.01587
0.01465
0.01221
0.01587
0.00977
0.00854
0.00854
0.00732
0.0061
0.0061
0.00488
0.0061
0.0061
0.0061
0.00488
0.0061
0.00732
0.00366
0.00854
0.00854
0.00732
0.00977
0.00854
0.00732
0.01099
0.00854
0.00977
0.00854
0.00854
0.00732
0.0061
0.00488
0.00488
0.00366
0.00122
0.00244
0.00122
-0.00244
-0.00122
-0.00366
-0.00244
-0.0061
-0.00732
-0.00732
-0.00977
-0.01221
-0.01221
-0.01343
-0.01465
-0.01587
-0.01709
-0.01953
-0.01953
-0.02075
-0.02441
-0.02197
-0.02319
-0.02686
-0.02563
-0.02686
-0.02563
-0.0293
-0.0293
-0.0293
-0.03052
-0.03174
-0.03174
-0.03174
-0.03296
-0.03418
-0.03418
-0.0354
-0.03418
-0.03418
-0.03418
-0.03052
-0.02808
-0.03052
-0.02197
-0.01709
-0.01221
-0.0061
0.00122
0.00366
0.01343
0.01953
0.03052
0.03174
0.03784
0.0415
0.04761
0.05127
0.05493
0.05737
0.05981
0.06226
0.06226
0.05859
0.06348
0.06348
0.06592
0.05981
0.05859
0.05737
0.05615
0.05615
0.05493
0.05371
0.05127
0.05127
0.04883
0.04517
0.04517
0.0415
0.0415
0.03784
0.0354
0.0354
0.03296
0.03052
0.0293
0.02686
0.02441
0.02441
0.02197
0.02075
0.02075
0.01953
0.01343
0.01709
0.01465
0.01221
0.01343
0.01343
0.01221
0.01343
0.01343
0.01465
0.01465
0.01343
0.01343
0.01343
0.01343
0.01343
0.01343
0.01343
0.01465
0.01465
0.01221
0.01343
0.01221
0.01587
0.01099
0.00854
0.00977
0.00854
0.0061
0.0061
0.00488
0.00244
0.00244
0.00122
-0.00122
-0.00122
-0.00244
-0.00732
-0.00366
-0.0061
-0.00977
-0.00732
-0.00977
-0.01099
-0.01099
-0.01221
-0.01343
-0.01343
-0.01465
-0.01465
-0.01587
-0.01831
-0.01831
-0.01953
-0.02197
-0.02197
-0.02197
-0.02808
-0.02319
-0.02441
-0.02686
-0.02563
-0.02686
-0.02563
-0.02808
-0.0293
-0.0293
-0.0293
-0.03052
-0.03052
-0.03052
-0.03174
-0.03174
-0.03174
-0.0354
-0.03296
-0.03174
-0.03296
-0.0293
-0.02563
-0.02441
-0.01831
-0.01343
-0.00732
0
0.0061
0.01465
0.02197
0.02808
0.0354
0.0415
0.04517
0.05127
0.05615
0.05737
0.0647
0.06714
0.07202
0.07202
0.07202
0.07446
0.07324
0.07202
0.07202
0.07202
0.06714
0.0708
0.06958
0.06958
0.06714
0.06592
0.0647
0.06348
0.06104
0.06104
0.05737
0.05493
0.05493
0.05249
0.04761
0.05127
0.05005
0.04517
0.04639
0.04517
0.04395
0.04272
0.0415
0.0415
0.04028
0.03784
0.03784
0.0354
0.03418
0.03418
0.03296
0.03174
0.03296
0.03174
0.0293
0.03174
0.03052
0.03174
0.0293
0.0293
0.02808
0.0293
0.02808
0.02808
0.02808
0.02808
0.02808
0.02686
0.02563
0.02686
0.02441
0.02197
0.02441
0.02319
0.02075
0.02197
0.01953
0.02075
0.01709
0.01587
0.01465
0.01343
0.01099
0.01099
0.00977
0.00854
0.00732
0.0061
0.00366
0.00488
0.00244
-0.00244
0.00122
0
0.00122
-0.00244
-0.00488
-0.00732
-0.0061
-0.00854
-0.00854
-0.01099
-0.01099
-0.01221
-0.01343
-0.01465
-0.01465
-0.01709
-0.01831
-0.01709
-0.01709
-0.02197
-0.01831
-0.01953
-0.02197
-0.02075
-0.02197
-0.02197
-0.02075
-0.02197
-0.02197
-0.02319
-0.02441
-0.02441
-0.02563
-0.02808
-0.02686
-0.02808
-0.03296
-0.0293
-0.03052
-0.02808
-0.03052
-0.03052
-0.0293
-0.0293
-0.02808
-0.02563
-0.02197
-0.01831
-0.01221
-0.0061
-0.00244
0.00732
0.01465
0.01831
0.0293
0.0354
0.0415
0.04761
0.05371
0.06104
0.06348
0.06592
0.0708
0.07202
0.07202
0.07324
0.07324
0.0708
0.07202
0.0708
0.06592
0.06714
0.06592
0.06714
0.0647
0.06348
0.06348
0.06226
0.05981
0.05981
0.05859
0.05371
0.05493
0.05249
0.04761
0.04883
0.04761
0.04883
0.04517
0.04395
0.04395
0.0415
0.03906
0.03784
0.0354
0.03296
0.03296
0.03174
0.0293
0.03052
0.0293
0.02563
0.02808
0.02686
0.02441
0.02563
0.02563
0.02441
0.02441
0.02441
0.02563
0.02441
0.02319
0.02319
0.02197
0.02075
0.02197
0.02197
0.01953
0.02075
0.02075
0.01953
0.01831
0.01709
0.02197
0.01465
0.01221
0.01343
0.01099
0.00977
0.00977
0.00732
0.00488
0.00488
0.00244
0
0
-0.00244
-0.0061
-0.00366
-0.00488
-0.00366
-0.00732
-0.00854
-0.01099
-0.01221
-0.01221
-0.01343
-0.01343
-0.01465
-0.01465
-0.01587
-0.01709
-0.01709
-0.01831
-0.02075
-0.01953
-0.02075
-0.02563
-0.02197
-0.02319
-0.02686
-0.02441
-0.02563
-0.02319
-0.02686
-0.02808
-0.02686
-0.02808
-0.0293
-0.03052
-0.03174
-0.03296
-0.03296
-0.03418
-0.03662
-0.03662
-0.03662
-0.03906
-0.03784
-0.03906
-0.04395
-0.04028
-0.0415
-0.04517
-0.0415
-0.0415
-0.03296
-0.03662
-0.03418
-0.03174
-0.02441
-0.01953
-0.01221
-0.0061
0.00122
0.00977
0.01587
0.02319
0.03052
0.03662
0.0415
0.04639
0.05249
0.05493
0.05981
0.06226
0.06104
0.0647
0.06592
0.06592
0.06592
0.0647
0.06348
0.06226
0.05859
0.05859
0.05737
0.05493
0.05371
0.05127
0.05005
0.05005
0.04639
0.04517
0.0415
0.03906
0.03784
0.0354
0.03296
0.03296
0.03052
0.02563
0.02686
0.02563
0.01953
0.02197
0.01953
0.01709
0.01709
0.01587
0.01587
0.01465
0.01343
0.01343
0.01221
0.01221
0.01343
0.01343
0.01099
0.01465
0.01343
0.01221
0.01343
0.01343
0.01343
0.01465
0.01465
0.01587
0.01465
0.01343
0.01465
0.01465
0.01221
0.01221
0.00977
0.00854
0.00854
0.00732
0.0061
0.0061
0.00366
0.00732
0.00244
0.00122
0
-0.00244
-0.00366
-0.00488
-0.0061
-0.00732
-0.00732
-0.00977
-0.01221
-0.01099
-0.01343
-0.01587
-0.01343
-0.01465
-0.01587
-0.01465
-0.01587
-0.01099
-0.01709
-0.01831
-0.01953
-0.01831
-0.01953
-0.01831
-0.01953
-0.02197
-0.02197
-0.02319
-0.02563
-0.02563
-0.02808
-0.0293
-0.02808
-0.02808
-0.02808
-0.02686
-0.02686
-0.02808
-0.02563
-0.02686
-0.01953
-0.02075
-0.01709
-0.01343
-0.00732
-0.00122
0.0061
0.01099
0.01709
0.02441
0.03052
0.0354
0.04028
0.04517
0.05005
0.05493
0.05859
0.05737
0.06348
0.06348
0.06836
0.0647
0.06348
0.06348
0.06348
0.06104
0.06104
0.05859
0.05493
0.05615
0.05371
0.05127
0.05127
0.05005
0.04883
0.04761
0.04395
0.0415
0.03906
0.0354
0.03418
0.03174
0.02808
0.02808
0.02563
0.01953
0.02197
0.01953
0.01587
0.01831
0.01587
0.01465
0.01465
0.01465
0.01465
0.01465
0.01343
0.01343
0.01343
0.01221
0.01221
0.01343
0.01221
0.01465
0.01587
0.01465
0.01709
0.01587
0.02075
0.01709
0.01343
0.01465
0.01343
0.01221
0.01221
0.01221
0.00977
0.00977
0.00854
0.0061
0.00488
0.00366
0
0.00244
0
-0.00488
-0.00244
-0.00488
-0.0061
-0.0061
-0.00854
-0.00732
-0.00854
-0.00977
-0.00977
-0.01099
-0.01343
-0.01343
-0.01465
-0.01709
-0.01709
-0.01709
-0.02319
-0.01831
-0.01953
-0.02319
-0.02075
-0.02197
-0.02075
-0.02319
-0.02441
-0.02319
-0.02563
-0.02686
-0.02563
-0.02686
-0.02808
-0.02808
-0.0293
-0.03174
-0.03296
-0.03296
-0.0354
-0.0354
-0.0354
-0.03784
-0.03418
-0.0354
-0.03784
-0.03174
-0.03174
-0.02197
-0.02197
-0.01831
-0.01221
-0.00366
0.00244
0.01221
0.01831
0.02441
0.03174
0.04028
0.04639
0.05249
0.05981
0.06348
0.06836
0.07202
0.0708
0.07568
0.07568
0.07935
0.07813
0.07813
0.07813
0.0769
0.07446
0.07446
0.07324
0.0708
0.0708
0.06836
0.06592
0.06714
0.06592
0.0647
0.06104
0.06104
0.05981
0.05737
0.05615
0.05493
0.05371
0.05249
0.05127
0.05005
0.04639
0.04639
0.04517
0.0415
0.04272
0.0415
0.04517
0.04028
0.03784
0.03906
0.03662
0.0354
0.0354
0.03418
0.03174
0.03296
0.03174
0.03052
0.03174
0.03174
0.02808
0.03174
0.03052
0.02808
0.03052
0.03052
0.03174
0.0293
0.02808
0.02808
0.02563
0.02441
0.02319
0.02197
0.01953
0.01953
0.01831
0.01587
0.01587
0.01587
0.01221
0.01343
0.01099
0.01343
0.00854
0.00732
0.0061
0.0061
0.00366
0.00366
0.00122
0
-0.00244
-0.00366
-0.0061
-0.0061
-0.00732
-0.01099
-0.00854
-0.00977
-0.01099
-0.01221
-0.01343
-0.00977
-0.01709
-0.01709
-0.01709
-0.01831
-0.01953
-0.01953
-0.02075
-0.02319
-0.02319
-0.02319
-0.02563
-0.02441
-0.02441
-0.02686
-0.02563
-0.02441
-0.03052
-0.02686
-0.02808
-0.03174
-0.03052
-0.03174
-0.02686
-0.03174
-0.03418
-0.03296
-0.0354
-0.03662
-0.03662
-0.03784
-0.03906
-0.03906
-0.03906
-0.03784
-0.0354
-0.03296
-0.03052
-0.02563
-0.02075
-0.01465
-0.00732
0.00122
0.00488
0.01587
0.02441
0.03174
0.03906
0.04395
0.05249
0.05737
0.06226
0.06836
0.0708
0.07324
0.07568
0.0769
0.0769
0.07813
0.07813
0.0769
0.07568
0.07568
0.07446
0.07446
0.07202
0.07202
0.0708
0.06836
0.06714
0.0647
0.06104
0.06226
0.06104
0.05859
0.05859
0.05737
0.06104
0.05493
0.05371
0.05371
0.05005
0.04761
0.04761
0.04639
0.04395
0.04395
0.04028
0.03662
0.03662
0.0354
0.02808
0.03174
0.03052
0.02686
0.0293
0.0293
0.0293
0.0293
0.02808
0.0293
0.02808
0.02808
0.03052
0.0293
0.0293
0.0293
0.0293
0.02686
0.02808
0.02808
0.02563
0.02563
0.02441
0.02808
0.02197
0.02197
0.02197
0.01953
0.01709
0.01709
0.01465
0.01343
0.01221
0.01221
0.00977
0.00977
0.00854
0.00244
0.0061
0.00488
0.00122
0.00244
0.00122
0
0
-0.00244
-0.00244
-0.00366
-0.00488
-0.0061
-0.00732
-0.00977
-0.00977
-0.01099
-0.01465
-0.01343
-0.01465
-0.01587
-0.01587
-0.01709
-0.01465
-0.01831
-0.01953
-0.01953
-0.02075
-0.02197
-0.02319
-0.02441
-0.02563
-0.02563
-0.02686
-0.02808
-0.02808
-0.0293
-0.03174
-0.03052
-0.03174
-0.03662
-0.03418
-0.03418
-0.03906
-0.03662
-0.03662
-0.03418
-0.03906
-0.04028
-0.03906
-0.0415
-0.04395
-0.04395
-0.04639
-0.04639
-0.04639
-0.04761
-0.04883
-0.04761
-0.04761
-0.04761
-0.04517
-0.04272
-0.0415
-0.03418
-0.02808
-0.02563
-0.01465
-0.00732
-0.00244
0.00854
0.01587
0.0293
0.03174
0.04028
0.04639
0.05615
0.0647
0.07202
0.0769
0.07935
0.08423
0.08667
0.08423
0.08789
0.08789
0.09155
0.08667
0.08545
0.08545
0.08301
0.08057
0.08057
0.07813
0.07568
0.07568
0.07446
0.0708
0.0708
0.06714
0.06958
0.06348
0.05981
0.05859
0.05493
0.05371
0.05249
0.05127
0.04883
0.04883
0.04517
0.04272
0.04272
0.04028
0.0354
0.03784
0.0354
0.03174
0.03418
0.03296
0.03296
0.03174
0.03174
0.03174
0.03174
0.03296
0.03418
0.0354
0.0354
0.03662
0.03662
0.0354
0.03784
0.03662
0.03662
0.03662
0.03418
0.03906
0.03296
0.03052
0.0293
0.02563
0.02319
0.02075
0.01709
0.01587
0.01343
0.01099
0.00854
0.00732
0.00366
-0.00244
0
-0.00488
-0.00977
-0.00854
-0.01099
-0.01343
-0.01465
-0.01709
-0.02075
-0.02319
-0.02686
-0.0293
-0.03174
-0.03418
-0.03662
-0.03906
-0.04272
-0.04395
-0.04761
-0.05371
-0.05249
-0.05493
-0.06104
-0.05859
-0.06104
-0.06226
-0.0647
-0.06836
-0.06958
-0.07202
-0.07446
-0.07813
-0.08057
-0.08301
-0.08423
-0.08667
-0.09033
-0.09033
-0.09399
-0.09888
-0.09644
-0.09888
-0.10132
-0.1001
-0.09888
-0.09277
-0.08911
-0.08179
-0.07446
-0.06226
-0.05005
-0.0354
-0.01953
-0.00366
0.01465
0.03052
0.04639
0.06226
0.0769
0.09155
0.1062
0.11841
0.12451
0.13916
0.14404
0.15259
0.15015
0.15015
0.15015
0.14893
0.14648
0.14404
0.1416
0.13794
0.13672
0.13184
0.12817
0.12451
0.11963
0.11475
0.11108
0.10254
0.09766
0.09155
0.08545
0.08057
0.07446
0.06958
0.06348
0.05737
0.05127
0.04639
0.04395
0.03662
0.03662
0.03296
0.02808
0.02808
0.02441
0.02319
0.02075
0.01831
0.01831
0.01831
0.01709
0.01831
0.01953
0.01953
0.02075
0.02197
0.02197
0.02441
0.02563
0.02319
0.02563
0.02441
0.0293
0.02441
0.02075
0.02075
0.01953
0.01465
0.01343
0.01099
0.00732
0.00488
0.00244
-0.00244
-0.00732
-0.01099
-0.01831
-0.01953
-0.02319
-0.02808
-0.02686
-0.03052
-0.03296
-0.0354
-0.0415
-0.04272
-0.04639
-0.05005
-0.05127
-0.05371
-0.05493
-0.05615
-0.05859
-0.06226
-0.06592
-0.06836
-0.07568
-0.07324
-0.07446
-0.0769
-0.07446
-0.0769
-0.07935
-0.08179
-0.08545
-0.08667
-0.08789
-0.09155
-0.09277
-0.09399
-0.09888
-0.09888
-0.10132
-0.1062
-0.10986
-0.1123
-0.11841
-0.11841
-0.11963
-0.11963
-0.11597
-0.11475
-0.10864
-0.1001
-0.09277
-0.08057
-0.06592
-0.05249
-0.03418
-0.01709
0
0.01953
0.03662
0.05249
0.06836
0.08423
0.09766
0.11353
0.12695
0.14038
0.14282
0.14771
0.15137
0.15259
0.15137
0.15259
0.15259
0.15015
0.15137
0.15015
0.14404
0.14404
0.1416
0.13794
0.13306
0.12939
0.12695
0.12207
0.11719
0.11597
0.1123
0.11108
0.10864
0.10498
0.1001
0.09766
0.09399
0.08667
0.08545
0.08057
0.08057
0.07202
0.06836
0.0647
0.06226
0.05859
0.05737
0.05493
0.05371
0.05371
0.05127
0.04761
0.04883
0.04883
0.04395
0.04639
0.04761
0.04883
0.05127
0.05127
0.05493
0.05005
0.05005
0.04883
0.04517
0.04395
0.04395
0.0415
0.03906
0.03906
0.03662
0.03296
0.03174
0.0293
0.01953
0.02075
0.01709
0.01099
0.00977
0.0061
0.00244
0
-0.00366
-0.00488
-0.01099
-0.01587
-0.01831
-0.02319
-0.02686
-0.02808
-0.03174
-0.03662
-0.03662
-0.0415
-0.04761
-0.04883
-0.05249
-0.05371
-0.05737
-0.05981
-0.05981
-0.06348
-0.06592
-0.06714
-0.0708
-0.07324
-0.07446
-0.0769
-0.07935
-0.07935
-0.08179
-0.08789
-0.08423
-0.08545
-0.09033
-0.09155
-0.09277
-0.09033
-0.09644
-0.09766
-0.09766
-0.10132
-0.10254
-0.10376
-0.10742
-0.10864
-0.10986
-0.1123
-0.11475
-0.11475
-0.11719
-0.12451
-0.12207
-0.12573
-0.13306
-0.13062
-0.13428
-0.13794
-0.14038
-0.14282
-0.14282
-0.14771
-0.14893
-0.15015
-0.15015
-0.15015
-0.14648
-0.14404
-0.13916
-0.12817
-0.11475
-0.10376
-0.08301
-0.0647
-0.04883
-0.02319
0
0.02563
0.04395
0.0647
0.08667
0.10498
0.12329
0.13794
0.14893
0.15747
0.16724
0.1709
0.17334
0.17822
0.17944
0.17822
0.17822
0.17578
0.17212
0.16968
0.16724
0.16357
0.16235
0.15381
0.15503
0.15015
0.14282
0.1416
0.1355
0.13062
0.12939
0.12695
0.12573
0.12329
0.12207
0.11841
0.11475
0.10986
0.1062
0.10254
0.09888
0.09644
0.09399
0.08911
0.08911
0.08545
0.08789
0.08179
0.07935
0.0769
0.0769
0.07324
0.0708
0.06958
0.06958
0.06836
0.06836
0.06836
0.06714
0.06714
0.06592
0.06714
0.06592
0.06592
0.06592
0.06348
0.06714
0.06104
0.05737
0.05737
0.05615
0.05249
0.05127
0.04883
0.04517
0.04517
0.0415
0.03784
0.03418
0.03052
0.02197
0.02075
0.01831
0.01221
0.01221
0.00732
0.0061
0.00244
-0.00366
-0.0061
-0.00977
-0.01465
-0.01831
-0.01953
-0.02197
-0.02563
-0.02808
-0.03296
-0.03662
-0.04028
-0.04761
-0.04639
-0.04883
-0.05371
-0.05371
-0.05737
-0.05981
-0.06104
-0.0647
-0.06592
-0.06958
-0.07202
-0.07324
-0.07568
-0.07935
-0.07935
-0.08179
-0.08423
-0.08545
-0.08667
-0.09033
-0.08911
-0.09033
-0.09399
-0.09277
-0.09521
-0.09521
-0.09888
-0.10132
-0.10254
-0.10376
-0.1062
-0.10742
-0.11108
-0.11353
-0.11475
-0.11597
-0.12085
-0.12329
-0.12695
-0.13306
-0.13184
-0.1355
-0.1416
-0.14038
-0.14404
-0.14404
-0.14526
-0.14648
-0.14526
-0.14404
-0.1416
-0.13672
-0.12939
-0.11963
-0.1062
-0.09277
-0.0769
-0.05737
-0.03784
-0.01831
0.00488
0.02686
0.04517
0.06592
0.08423
0.10864
0.11841
0.13184
0.14404
0.15381
0.15991
0.16724
0.16968
0.16846
0.16968
0.16968
0.16479
0.16602
0.16235
0.15991
0.15625
0.15259
0.14893
0.14404
0.14038
0.13672
0.12939
0.11963
0.11841
0.11353
0.10742
0.10498
0.10254
0.10376
0.09521
0.09155
0.08789
0.08179
0.0769
0.07446
0.06958
0.06592
0.06348
0.06104
0.05737
0.05493
0.05127
0.04517
0.04395
0.0415
0.03784
0.03784
0.03662
0.0415
0.03662
0.0354
0.03662
0.0354
0.0354
0.03784
0.03784
0.03662
0.03662
0.0354
0.03418
0.0354
0.03296
0.02686
0.03174
0.02686
0.02075
0.02197
0.01953
0.01831
0.01587
0.01343
0.01099
0.0061
0.00366
0.00122
-0.00366
-0.00732
-0.00977
-0.01221
-0.01831
-0.01831
-0.02441
-0.03052
-0.0293
-0.03418
-0.0415
-0.04272
-0.04639
-0.05127
-0.05371
-0.05859
-0.06226
-0.06592
-0.06958
-0.07202
-0.07324
-0.07324
-0.07324
-0.07568
-0.0769
-0.0769
-0.08057
-0.08667
-0.08667
-0.09033
-0.09399
-0.09399
-0.09644
-0.09644
-0.10132
-0.10376
-0.10498
-0.10864
-0.10986
-0.1123
-0.11475
-0.11597
-0.11597
-0.11841
-0.12085
-0.11963
-0.12085
-0.12573
-0.12085
-0.11719
-0.11475
-0.10498
-0.09521
-0.08423
-0.06958
-0.05493
-0.03784
-0.02319
-0.0061
0.01221
0.02808
0.04395
0.06104
0.0769
0.09033
0.10376
0.11475
0.12207
0.13062
0.1355
0.13916
0.14282
0.14404
0.14404
0.1416
0.13672
0.13306
0.12817
0.12085
0.12085
0.11475
0.11475
0.10742
0.10132
0.09644
0.09033
0.08301
0.07813
0.0708
0.06592
0.06104
0.05493
0.05005
0.04639
0.04272
0.0354
0.03296
0.02808
0.02197
0.01953
0.01587
0.01709
0.01099
0.00854
0.00854
0.0061
0.00488
0.00488
0.00488
0.0061
0.00854
0.01099
0.01099
0.01343
0.01465
0.01221
0.01709
0.01831
0.01465
0.01831
0.01709
0.01709
0.01831
0.01465
0.01343
0.01099
0.00854
0.00488
0.00244
0
-0.00366
-0.00732
-0.01099
-0.01343
-0.01709
-0.02441
-0.02441
-0.0293
-0.03296
-0.0354
-0.04028
-0.04272
-0.04517
-0.04761
-0.05127
-0.05371
-0.05859
-0.06104
-0.0647
-0.06958
-0.07202
-0.07568
-0.07813
-0.07935
-0.08179
-0.08545
-0.08545
-0.09033
-0.09277
-0.09521
-0.09888
-0.09644
-0.10132
-0.10254
-0.10376
-0.1062
-0.10986
-0.1123
-0.11597
-0.11841
-0.11841
-0.12085
-0.12207
-0.12207
-0.12329
-0.12573
-0.12329
-0.12085
-0.11841
-0.10864
-0.1001
-0.08667
-0.07324
-0.05737
-0.04028
-0.02319
-0.00488
0.01221
0.03174
0.04883
0.06836
0.08545
0.10132
0.11597
0.12817
0.13428
0.14404
0.14771
0.15381
0.15503
0.15625
0.15869
0.15869
0.15625
0.15503
0.15137
0.14648
0.14404
0.1416
0.13306
0.13306
0.13062
0.12695
0.12207
0.11475
0.10986
0.10376
0.09644
0.09277
0.08911
0.08423
0.08057
0.0769
0.0708
0.06592
0.06104
0.05249
0.05249
0.04883
0.04639
0.04517
0.0415
0.04395
0.03784
0.03418
0.03418
0.03174
0.03174
0.03174
0.03174
0.03296
0.03418
0.0354
0.0354
0.03662
0.03662
0.0354
0.03418
0.0354
0.03418
0.0354
0.03296
0.03906
0.03174
0.03052
0.03052
0.02686
0.02319
0.02197
0.01831
0.01587
0.01343
0.00977
0.0061
0.00244
-0.00244
-0.00977
-0.01099
-0.01465
-0.02075
-0.02319
-0.02441
-0.02563
-0.03052
-0.03418
-0.03662
-0.0415
-0.04639
-0.04883
-0.05127
-0.05493
-0.05615
-0.06104
-0.0647
-0.06592
-0.06714
-0.07324
-0.07446
-0.07568
-0.07813
-0.07935
-0.08179
-0.0769
-0.08423
-0.08789
-0.08789
-0.09033
-0.09399
-0.09399
-0.09644
-0.1001
-0.10132
-0.10254
-0.10498
-0.1062
-0.10986
-0.11475
-0.11475
-0.11719
-0.11841
-0.11963
-0.11963
-0.11475
-0.11597
-0.1123
-0.1062
-0.1001
-0.09033
-0.0769
-0.06226
-0.04517
-0.02563
-0.0061
0.01465
0.0354
0.05493
0.07202
0.09155
0.10986
0.12695
0.14282
0.15747
0.16846
0.17944
0.18433
0.19165
0.19287
0.19409
0.19653
0.19775
0.19287
0.19531
0.19409
0.19775
0.18921
0.18677
0.18433
0.18066
0.177
0.17578
0.16968
0.16602
0.16357
0.16113
0.15381
0.15381
0.15137
0.14771
0.14526
0.14282
0.14282
0.13672
0.13428
0.13184
0.12817
0.12451
0.12085
0.11719
0.11475
0.11353
0.11108
0.10742
0.1062
0.10376
0.09766
0.1001
0.09766
0.09033
0.09399
0.09521
0.09766
0.09644
0.09399
0.09521
0.09277
0.09155
0.09155
0.08911
0.08789
0.08667
0.08423
0.08057
0.08057
0.07813
0.07202
0.07202
0.06836
0.0647
0.06226
0.05737
0.06104
0.05249
0.05005
0.04883
0.04395
0.04028
0.03662
0.03174
0.02808
0.02563
0.02075
0.01709
0.01587
0.01221
0.00732
0.00732
0.00488
0.00244
0.00244
-0.00244
0.00122
-0.00732
-0.00977
-0.01099
-0.01343
-0.01709
-0.01953
-0.02441
-0.02686
-0.0293
-0.03296
-0.03662
-0.03784
-0.0415
-0.04517
-0.04517
-0.04761
-0.05249
-0.05249
-0.05493
-0.05737
-0.05859
-0.06104
-0.0647
-0.06592
-0.06836
-0.07202
-0.07568
-0.07813
-0.07935
-0.08179
-0.08423
-0.08423
-0.08545
-0.08911
-0.08789
-0.08789
-0.09033
-0.08179
-0.07568
-0.06592
-0.05615
-0.0415
-0.02808
-0.00854
0.00977
0.03052
0.04883
0.06592
0.08545
0.10254
0.11963
0.13794
0.15259
0.16235
0.17456
0.18311
0.18677
0.19531
0.2002
0.20386
0.20508
0.2063
0.2063
0.20386
0.20142
0.2002
0.19653
0.19043
0.19287
0.19043
0.19165
0.18799
0.18311
0.17944
0.17578
0.1709
0.16846
0.16479
0.16235
0.15991
0.15747
0.15381
0.15015
0.14771
0.14038
0.13916
0.13428
0.13062
0.12695
0.12329
0.12451
0.11841
0.11475
0.11353
0.11108
0.10864
0.10742
0.10498
0.10376
0.10254
0.1001
0.1001
0.09766
0.09644
0.09399
0.09521
0.09155
0.09155
0.09155
0.08911
0.09277
0.08789
0.08545
0.08423
0.08301
0.07935
0.07813
0.07446
0.0708
0.06836
0.06592
0.06104
0.05859
0.05493
0.05005
0.04639
0.0415
0.0354
0.03418
0.0293
0.03174
0.02441
0.01953
0.01709
0.01343
0.00732
0.00366
0
-0.00366
-0.0061
-0.00854
-0.01221
-0.01343
-0.01709
-0.02319
-0.02319
-0.02686
-0.03296
-0.03296
-0.03662
-0.03906
-0.04028
-0.04395
-0.04639
-0.04761
-0.05005
-0.05249
-0.05371
-0.05493
-0.05737
-0.05859
-0.06226
-0.06348
-0.06592
-0.07202
-0.06958
-0.07324
-0.07813
-0.0769
-0.08179
-0.08545
-0.08789
-0.09155
-0.09521
-0.09888
-0.10254
-0.10498
-0.1062
-0.1062
-0.1062
-0.10742
-0.1062
-0.10132
-0.09766
-0.09399
-0.08179
-0.0708
-0.05737
-0.0415
-0.02563
-0.00854
0.01221
0.03052
0.04883
0.0647
0.08179
0.09766
0.11353
0.12695
0.13916
0.14771
0.15625
0.16357
0.16724
0.16968
0.1709
0.16968
0.16968
0.16968
0.16846
0.16602
0.16479
0.15991
0.15747
0.15381
0.14771
0.14771
0.14282
0.1355
0.1355
0.12939
0.12817
0.12207
0.11719
0.11353
0.10864
0.10376
0.1001
0.09644
0.09155
0.09033
0.08545
0.08179
0.07935
0.07568
0.06958
0.06958
0.06714
0.0647
0.0647
0.0647
0.06714
0.06348
0.0647
0.0647
0.06348
0.06104
0.06226
0.06226
0.06226
0.0647
0.0647
0.0647
0.0647
0.06348
0.05981
0.06104
0.05981
0.05493
0.05493
0.05249
0.05127
0.04639
0.0415
0.03784
0.03418
0.02808
0.02563
0.02197
0.01709
0.01465
0.01221
0.0061
0.00366
0
-0.00854
-0.00854
-0.01221
-0.01343
-0.01709
-0.02197
-0.02441
-0.02686
-0.0293
-0.03174
-0.03418
-0.03906
-0.04028
-0.04272
-0.04761
-0.05005
-0.05127
-0.05493
-0.05615
-0.05859
-0.0647
-0.0647
-0.06836
-0.07324
-0.07446
-0.0769
-0.07568
-0.08057
-0.08423
-0.08545
-0.08911
-0.09277
-0.09521
-0.09644
-0.09766
-0.09888
-0.09888
-0.09888
-0.09277
-0.08911
-0.08545
-0.07202
-0.06104
-0.04883
-0.03296
-0.01831
0.00488
0.01709
0.03174
0.04639
0.06226
0.07568
0.09277
0.10498
0.11597
0.12573
0.13428
0.13794
0.14526
0.14893
0.14893
0.15137
0.15137
0.15381
0.15259
0.15137
0.15137
0.14893
0.14526
0.14282
0.14038
0.13306
0.13306
0.12939
0.12695
0.12085
0.11719
0.11353
0.10864
0.10376
0.1001
0.09399
0.09033
0.08667
0.08179
0.0769
0.07568
0.0708
0.06592
0.0647
0.06226
0.05737
0.05737
0.05493
0.05981
0.05249
0.05127
0.05127
0.04883
0.04883
0.04883
0.04761
0.04761
0.04883
0.04761
0.04761
0.05005
0.04883
0.04272
0.04639
0.04395
0.0354
0.03784
0.0354
0.03174
0.03174
0.02686
0.02441
0.02075
0.01709
0.01465
0.00854
0.0061
0.00366
0
-0.0061
-0.00732
-0.01221
-0.01831
-0.02197
-0.02563
-0.02563
-0.03418
-0.03784
-0.04028
-0.04395
-0.04761
-0.05005
-0.05493
-0.05859
-0.06226
-0.06592
-0.06958
-0.0708
-0.07446
-0.07935
-0.07813
-0.08179
-0.08667
-0.08911
-0.09155
-0.08911
-0.09521
-0.09766
-0.09766
-0.1001
-0.10254
-0.10254
-0.10498
-0.1062
-0.10742
-0.10986
-0.1123
-0.11353
-0.11597
-0.12085
-0.12085
-0.12451
-0.12817
-0.12939
-0.13184
-0.13062
-0.13794
-0.13794
-0.13672
-0.13428
-0.13062
-0.12451
-0.11719
-0.1062
-0.09277
-0.08057
-0.0647
-0.04639
-0.02808
-0.00854
0.01221
0.03052
0.04517
0.06592
0.08179
0.09766
0.11475
0.12695
0.13916
0.14648
0.15381
0.15991
0.16235
0.16479
0.16724
0.16724
0.16846
0.16846
0.16724
0.16602
0.16724
0.16357
0.16235
0.15991
0.15869
0.15625
0.15259
0.14893
0.14893
0.14648
0.1416
0.1416
0.13916
0.13672
0.1355
0.13184
0.12817
0.12695
0.12329
0.12085
0.11597
0.1123
0.10742
0.10376
0.1001
0.09766
0.09521
0.09155
0.09155
0.08911
0.08301
0.08423
0.07935
0.07813
0.07935
0.07813
0.07568
0.07568
0.07446
0.07446
0.07202
0.0708
0.06836
0.06592
0.0647
0.06104
0.05981
0.05737
0.05615
0.05493
0.04761
0.04883
0.04395
0.03784
0.03662
0.03296
0.0293
0.02808
0.02441
0.02075
0.01709
0.01221
0.00854
0.00488
0
-0.00366
-0.00732
-0.01099
-0.01343
-0.01587
-0.01953
-0.02441
-0.0293
-0.02808
-0.03784
-0.0415
-0.04395
-0.04761
-0.05127
-0.05249
-0.05493
-0.05737
-0.06104
-0.0647
-0.06714
-0.07202
-0.07568
-0.08057
-0.08057
-0.08179
-0.08545
-0.08667
-0.08911
-0.08545
-0.09277
-0.09766
-0.09644
-0.1001
-0.10254
-0.10498
-0.1062
-0.10864
-0.11108
-0.11353
-0.11719
-0.12085
-0.12329
-0.12817
-0.12817
-0.12817
-0.13428
-0.13428
-0.13794
-0.1416
-0.14526
-0.15015
-0.15259
-0.15503
-0.15747
-0.16113
-0.16235
-0.16602
-0.16724
-0.16846
-0.16968
-0.16846
-0.16479
-0.16235
-0.14893
-0.13916
-0.12939
-0.11353
-0.09766
-0.07446
-0.06104
-0.0415
-0.02319
0
0.01953
0.03906
0.05737
0.07324
0.08911
0.10254
0.11353
0.12329
0.13062
0.1355
0.1416
0.14526
0.14771
0.15015
0.14893
0.14893
0.14771
0.14526
0.14404
0.14404
0.14038
0.14282
0.14282
0.13672
0.13672
0.13306
0.12939
0.12817
0.12573
0.12573
0.12207
0.11963
0.11963
0.11597
0.11353
0.11108
0.10864
0.10376
0.10254
0.1001
0.09399
0.09399
0.09277
0.09033
0.09033
0.08789
0.09033
0.08179
0.07935
0.07935
0.07813
0.07446
0.07446
0.0708
0.06958
0.06958
0.06714
0.06592
0.06592
0.0647
0.05981
0.06226
0.06104
0.05615
0.05493
0.05127
0.05127
0.04517
0.0415
0.04028
0.0354
0.03174
0.03052
0.02563
0.02075
0.01709
0.01343
0.00732
0.00732
0.00366
-0.00488
-0.00366
-0.00732
-0.01343
-0.01465
-0.01831
-0.02319
-0.02686
-0.0293
-0.03296
-0.03662
-0.04028
-0.04272
-0.04761
-0.05127
-0.05493
-0.05981
-0.06714
-0.06714
-0.06836
-0.07202
-0.07324
-0.07446
-0.07202
-0.08057
-0.08423
-0.08545
-0.09033
-0.09277
-0.09399
-0.09644
-0.1001
-0.1001
-0.10376
-0.10742
-0.10986
-0.1123
-0.11963
-0.11719
-0.12085
-0.12451
-0.12451
-0.12817
-0.13306
-0.13428
-0.13794
-0.14038
-0.14526
-0.14771
-0.15137
-0.15503
-0.15991
-0.16113
-0.16602
-0.1709
-0.17212
-0.17578
-0.17944
-0.18066
-0.18188
-0.17578
-0.18066
-0.17944
-0.17578
-0.17334
-0.16602
-0.15503
-0.14526
-0.13184
-0.11597
-0.09888
-0.08057
-0.05981
-0.0415
-0.02441
-0.00366
0.01221
0.02686
0.04883
0.06348
0.08179
0.08789
0.09766
0.10376
0.10742
0.1123
0.11475
0.11597
0.11597
0.11841
0.11719
0.11353
0.11597
0.11353
0.11108
0.10864
0.10498
0.10254
0.09888
0.09399
0.09155
0.08789
0.08423
0.08301
0.07813
0.0708
0.07202
0.06714
0.06592
0.06226
0.05737
0.05493
0.05249
0.04761
0.04395
0.04028
0.03662
0.03418
0.03174
0.0293
0.02808
0.02563
0.02441
0.02441
0.02197
0.02075
0.01953
0.01831
0.01831
0.01953
0.01831
0.01953
0.02075
0.01953
0.01953
0.01953
0.01709
0.01587
0.01587
0.01221
0.01343
0.01221
0.01099
0.00977
0.0061
0.00488
0.00122
-0.00366
-0.00488
-0.00732
-0.01099
-0.01465
-0.01709
-0.02197
-0.02686
-0.0293
-0.0354
-0.03784
-0.04028
-0.04639
-0.04639
-0.05005
-0.04883
-0.05493
-0.05737
-0.05859
-0.06226
-0.06592
-0.06836
-0.07202
-0.07446
-0.0769
-0.07935
-0.08301
-0.08545
-0.08911
-0.09399
-0.09766
-0.09888
-0.10376
-0.10498
-0.10742
-0.10986
-0.11475
-0.12085
-0.12207
-0.12573
-0.12939
-0.12939
-0.13184
-0.13428
-0.13428
-0.13428
-0.1355
-0.1355
-0.13428
-0.13428
-0.13062
-0.12451
-0.11719
-0.10742
-0.09644
-0.07935
-0.06958
-0.05615
-0.0415
-0.02441
-0.01099
0.00732
0.02075
0.03662
0.05127
0.0647
0.07446
0.08423
0.09033
0.09399
0.1001
0.10376
0.11108
0.10742
0.1062
0.1062
0.10376
0.10132
0.1001
0.09766
0.09399
0.09277
0.09033
0.08545
0.08423
0.08057
0.0769
0.06836
0.06348
0.05981
0.05371
0.04883
0.04639
0.04272
0.03784
0.03418
0.0293
0.02197
0.01953
0.01465
0.0061
0.00732
0.0061
0.00488
0.00244
0.00244
-0.00122
-0.00244
-0.00244
-0.00366
-0.00488
-0.00366
0
0
0
0.00244
0.00244
0.00122
0.00122
0.00122
-0.00244
-0.00244
-0.00366
0.00122
-0.00732
-0.00732
-0.00977
-0.01343
-0.01709
-0.02075
-0.02563
-0.02808
-0.0293
-0.03296
-0.03662
-0.03906
-0.04395
-0.05127
-0.05249
-0.05615
-0.06104
-0.0647
-0.06714
-0.0647
-0.07202
-0.07446
-0.07935
-0.08423
-0.08911
-0.09277
-0.09766
-0.1001
-0.10132
-0.10498
-0.10742
-0.10864
-0.11108
-0.11719
-0.11475
-0.11719
-0.12085
-0.12085
-0.12329
-0.11963
-0.12573
-0.12695
-0.12817
-0.13184
-0.1355
-0.13672
-0.13916
-0.1416
-0.14038
-0.14404
-0.14771
-0.14526
-0.14771
-0.15137
-0.14526
-0.14404
-0.14038
-0.13062
-0.12085
-0.10986
-0.09521
-0.07935
-0.06348
-0.04883
-0.03296
-0.01587
-0.00244
0.01343
0.03174
0.04639
0.06104
0.07568
0.08667
0.09277
0.10376
0.10986
0.11353
0.11719
0.11841
0.12207
0.12085
0.12085
0.11963
0.11597
0.11108
0.1123
0.10986
0.10986
0.10986
0.10742
0.10498
0.10254
0.09644
0.09399
0.09033
0.08789
0.08545
0.08545
0.08301
0.08179
0.08057
0.07813
0.07568
0.0708
0.0708
0.06592
0.06104
0.05859
0.05615
0.05249
0.05127
0.04883
0.04517
0.04395
0.0415
0.03784
0.03662
0.03662
0.03418
0.03662
0.0354
0.0354
0.03174
0.0293
0.03052
0.02563
0.02197
0.02319
0.02197
0.02075
0.01953
0.01831
0.01465
0.01221
0.00854
0.00366
0.00244
0
-0.00244
-0.00366
-0.0061
-0.00244
-0.01099
-0.01343
-0.01587
-0.02075
-0.02686
-0.02808
-0.03052
-0.03418
-0.03418
-0.03784
-0.04272
-0.04517
-0.04761
-0.05615
-0.05615
-0.05981
-0.06104
-0.0647
-0.06714
-0.06958
-0.07202
-0.07568
-0.0769
-0.08057
-0.08423
-0.08667
-0.09033
-0.09277
-0.09277
-0.09399
-0.09888
-0.1001
-0.10132
-0.10498
-0.1062
-0.10742
-0.10254
-0.10986
-0.11108
-0.11108
-0.11475
-0.11719
-0.11963
-0.12207
-0.12573
-0.12573
-0.12817
-0.13184
-0.13184
-0.13428
-0.14282
-0.1416
-0.14404
-0.14771
-0.15015
-0.15259
-0.15381
-0.15503
-0.15747
-0.15625
-0.15869
-0.15747
-0.15381
-0.15015
-0.14282
-0.13306
-0.12085
-0.10864
-0.09155
-0.07324
-0.05859
-0.03662
-0.01831
0.00122
0.01831
0.03662
0.06104
0.07324
0.08789
0.10254
0.1123
0.11841
0.12573
0.13062
0.13062
0.1355
0.13794
0.1355
0.13916
0.13916
0.13916
0.13672
0.1355
0.13428
0.13184
0.13062
0.13062
0.12817
0.12207
0.12451
0.12085
0.11719
0.11841
0.11353
0.11475
0.10864
0.10498
0.10498
0.10132
0.09888
0.09644
0.09277
0.08789
0.08545
0.08179
0.07813
0.07568
0.07446
0.06958
0.0708
0.06714
0.06348
0.06104
0.05737
0.05859
0.05249
0.05127
0.05127
0.04883
0.04761
0.04517
0.04395
0.04272
0.0415
0.04028
0.03784
0.03784
0.0354
0.0293
0.03174
0.02808
0.02686
0.02197
0.01953
0.01709
0.01343
0.01099
0.00977
0.0061
0.00244
0
-0.00488
-0.00854
-0.00977
-0.01343
-0.01953
-0.01831
-0.02075
-0.02197
-0.02319
-0.02808
-0.03174
-0.03418
-0.03662
-0.0415
-0.04395
-0.04517
-0.04517
-0.04761
-0.05127
-0.05371
-0.05737
-0.06104
-0.06226
-0.06592
-0.06836
-0.0708
-0.07202
-0.06958
-0.07568
-0.07813
-0.07935
-0.08179
-0.08301
-0.08301
-0.08179
-0.08301
-0.08301
-0.08545
-0.08667
-0.08789
-0.09155
-0.09644
-0.09644
-0.10132
-0.1062
-0.10742
-0.11108
-0.1123
-0.11719
-0.12085
-0.12451
-0.12817
-0.13062
-0.13306
-0.13428
-0.1355
-0.13428
-0.13306
-0.13062
-0.12451
-0.11841
-0.11108
-0.09888
-0.08789
-0.07446
-0.05615
-0.03906
-0.02197
-0.00488
0.00732
0.02319
0.03784
0.05249
0.06592
0.07813
0.08789
0.09766
0.10376
0.10864
0.11108
0.11353
0.11597
0.11719
0.11597
0.11719
0.11719
0.11597
0.11719
0.11719
0.11108
0.11353
0.1123
0.11353
0.1062
0.10254
0.10132
0.09766
0.09521
0.09399
0.09155
0.08667
0.08545
0.08301
0.07813
0.0769
0.07446
0.06714
0.06836
0.06592
0.05981
0.05737
0.05127
0.04883
0.04517
0.04395
0.04272
0.0415
0.04028
0.04028
0.03906
0.0354
0.0354
0.03418
0.03052
0.03296
0.03174
0.03052
0.0293
0.02686
0.02686
0.02197
0.01709
0.01709
0.01343
0.01343
0.01221
0.00977
0.0061
0.00488
0
-0.00366
-0.00488
-0.00732
-0.01221
-0.01343
-0.01709
-0.01343
-0.02075
-0.02319
-0.02686
-0.03174
-0.0354
-0.03662
-0.0415
-0.04272
-0.04517
-0.04883
-0.05249
-0.05371
-0.05615
-0.06104
-0.05981
-0.06226
-0.06836
-0.06714
-0.06836
-0.0708
-0.07202
-0.07324
-0.07446
-0.07813
-0.07935
-0.08179
-0.08423
-0.08545
-0.08667
-0.08911
-0.09277
-0.09277
-0.09644
-0.10132
-0.10132
-0.10376
-0.10132
-0.1062
-0.10742
-0.10986
-0.11108
-0.11108
-0.1123
-0.1123
-0.11108
-0.10742
-0.10376
-0.09644
-0.08789
-0.0769
-0.06836
-0.05249
-0.04028
-0.02686
-0.01221
0.00122
0.01587
0.03174
0.04639
0.06104
0.07446
0.08545
0.09644
0.10376
0.10986
0.11597
0.11841
0.11963
0.12207
0.12329
0.12207
0.12329
0.11841
0.11597
0.11353
0.10986
0.10742
0.10498
0.09888
0.10132
0.09766
0.09155
0.08789
0.08057
0.07568
0.07202
0.06592
0.06348
0.05981
0.05493
0.05249
0.05005
0.04395
0.0415
0.03662
0.03174
0.03174
0.0293
0.02563
0.02686
0.02563
0.02563
0.02686
0.02686
0.02563
0.02563
0.02441
0.02563
0.02686
0.02563
0.02686
0.02808
0.02441
0.02686
0.02563
0.02197
0.02441
0.02441
0.02319
0.02441
0.02197
0.02075
0.01709
0.01343
0.01099
0.00854
0.00488
0.00244
0
-0.00732
-0.00732
-0.00977
-0.01343
-0.01709
-0.01953
-0.01709
-0.02563
-0.0293
-0.0293
-0.03296
-0.03662
-0.03784
-0.0415
-0.04639
-0.04883
-0.05127
-0.05493
-0.05493
-0.05737
-0.06348
-0.06226
-0.0647
-0.07202
-0.07202
-0.07568
-0.0769
-0.08179
-0.08423
-0.08545
-0.08911
-0.09277
-0.09521
-0.09888
-0.10254
-0.10498
-0.1062
-0.10986
-0.10986
-0.11108
-0.11475
-0.11108
-0.10986
-0.10376
-0.10376
-0.09766
-0.09033
-0.08179
-0.07202
-0.05859
-0.04517
-0.03174
-0.01465
0
0.01221
0.02808
0.04395
0.05615
0.07202
0.08667
0.09766
0.10742
0.11353
0.11963
0.12329
0.12451
0.12573
0.12573
0.12451
0.12573
0.12451
0.12329
0.12329
0.11963
0.11597
0.11597
0.11475
0.11475
0.11475
0.11108
0.10864
0.1062
0.10254
0.10132
0.09888
0.09155
0.09521
0.09155
0.08911
0.09033
0.08667
0.08301
0.08301
0.07935
0.0769
0.07446
0.0708
0.06714
0.0647
0.06226
0.06104
0.05859
0.05737
0.05615
0.05371
0.05127
0.05127
0.04883
0.05493
0.05005
0.05005
0.05005
0.04883
0.04639
0.04395
0.04272
0.04028
0.03906
0.03784
0.0354
0.0354
0.03296
0.03052
0.0293
0.02686
0.0293
0.02075
0.01587
0.01465
0.01221
0.00977
0.00732
0.0061
0.00244
0
-0.00488
-0.00977
-0.01221
-0.01465
-0.01709
-0.01831
-0.02075
-0.01831
-0.02563
-0.03052
-0.03052
-0.03418
-0.03906
-0.04028
-0.0415
-0.04272
-0.04395
-0.04639
-0.04883
-0.05127
-0.05371
-0.05981
-0.05859
-0.05981
-0.0647
-0.06226
-0.0647
-0.06592
-0.06836
-0.07324
-0.07446
-0.07813
-0.08179
-0.08423
-0.08667
-0.09033
-0.09277
-0.09521
-0.1001
-0.10132
-0.10376
-0.10742
-0.1062
-0.10742
-0.10376
-0.10864
-0.10986
-0.10498
-0.10376
-0.10132
-0.09399
-0.08545
-0.07568
-0.06104
-0.04639
-0.03174
-0.01465
0.00244
0.01587
0.03296
0.04883
0.05981
0.07935
0.09399
0.10864
0.11719
0.12573
0.13306
0.13794
0.14038
0.14282
0.14404
0.1416
0.14404
0.14404
0.14893
0.14282
0.1416
0.13916
0.1355
0.13428
0.13428
0.13306
0.13062
0.12939
0.12817
0.12207
0.12573
0.12329
0.11963
0.12085
0.11963
0.11719
0.11719
0.11475
0.11353
0.11108
0.10864
0.10376
0.1001
0.09521
0.09277
0.08789
0.08301
0.08179
0.07813
0.07202
0.07202
0.06836
0.06958
0.06348
0.06104
0.06104
0.05981
0.05859
0.05859
0.05737
0.05493
0.05371
0.05127
0.04883
0.04883
0.04639
0.0415
0.04517
0.0415
0.03662
0.03906
0.03662
0.03418
0.03296
0.03052
0.02808
0.02563
0.02441
0.02319
0.01953
0.01709
0.01343
0.00854
0.00244
0.00122
-0.00244
-0.0061
-0.0061
-0.00854
-0.00977
-0.01343
-0.01831
-0.02075
-0.02441
-0.02808
-0.03174
-0.0354
-0.04028
-0.04272
-0.04639
-0.05127
-0.05371
-0.05737
-0.0647
-0.06226
-0.0647
-0.06714
-0.06714
-0.07202
-0.07446
-0.07568
-0.07935
-0.08179
-0.08179
-0.08423
-0.08667
-0.08667
-0.08911
-0.09033
-0.09155
-0.09521
-0.09644
-0.1001
-0.10132
-0.10498
-0.10742
-0.10498
-0.11108
-0.11475
-0.11719
-0.12085
-0.12329
-0.12573
-0.12817
-0.13062
-0.13062
-0.13184
-0.13306
-0.13184
-0.13184
-0.1355
-0.13062
-0.12817
-0.12207
-0.11353
-0.10376
-0.09033
-0.07202
-0.05615
-0.03662
-0.01831
-0.00244
0.01587
0.03174
0.04883
0.06592
0.08179
0.09399
0.1062
0.11353
0.12329
0.12451
0.12695
0.12939
0.13184
0.13062
0.13062
0.13062
0.12817
0.12695
0.12573
0.11963
0.11963
0.11719
0.11475
0.1123
0.10986
0.10742
0.10376
0.1001
0.09888
0.09644
0.09155
0.09033
0.08667
0.07813
0.08057
0.07813
0.07202
0.07202
0.06958
0.06348
0.06104
0.05737
0.05493
0.05127
0.04883
0.04761
0.04517
0.04272
0.0415
0.04028
0.03662
0.03906
0.03662
0.03418
0.0354
0.03662
0.0354
0.0354
0.0354
0.0354
0.03296
0.03296
0.03296
0.03174
0.03052
0.03174
0.0293
0.02563
0.02563
0.02197
0.01831
0.01465
0.01221
0.01343
0.0061
0.00244
0.00122
-0.00366
-0.00732
-0.00854
-0.01221
-0.01709
-0.01831
-0.02197
-0.02563
-0.02686
-0.0293
-0.03662
-0.03296
-0.03662
-0.0415
-0.04028
-0.04517
-0.04883
-0.05127
-0.05493
-0.05615
-0.05859
-0.06104
-0.0647
-0.06592
-0.06836
-0.06958
-0.07202
-0.07568
-0.07568
-0.07813
-0.08301
-0.08179
-0.08667
-0.08545
-0.09155
-0.09155
-0.09277
-0.09277
-0.09399
-0.09399
-0.09521
-0.09521
-0.09521
-0.09399
-0.09155
-0.08545
-0.07935
-0.07202
-0.06104
-0.05005
-0.03784
-0.02441
-0.01221
0.0061
0.01709
0.03174
0.04395
0.05859
0.0708
0.08423
0.09399
0.10254
0.10864
0.11353
0.1123
0.11963
0.11963
0.12451
0.12207
0.11963
0.11963
0.11719
0.11475
0.11108
0.10864
0.10376
0.10376
0.1001
0.09766
0.09399
0.09033
0.08423
0.08057
0.07446
0.07202
0.06714
0.06226
0.05859
0.05493
0.05005
0.04517
0.04272
0.03662
0.03418
0.03174
0.02686
0.02563
0.02319
0.02441
0.02075
0.01831
0.01953
0.01587
0.01465
0.01465
0.01465
0.01343
0.01587
0.01709
0.01709
0.01953
0.01953
0.01953
0.01831
0.01831
0.02075
0.01587
0.01465
0.01465
0.01099
0.00854
0.00732
0.00366
0.00122
-0.00244
-0.0061
-0.01221
-0.01221
-0.01465
-0.01953
-0.02197
-0.02563
-0.02563
-0.03296
-0.0354
-0.03662
-0.0415
-0.04395
-0.04639
-0.04883
-0.05249
-0.05371
-0.05615
-0.05981
-0.06104
-0.06226
-0.06958
-0.06592
-0.06836
-0.07324
-0.07202
-0.07324
-0.07568
-0.0769
-0.0769
-0.0769
-0.07813
-0.08057
-0.08179
-0.08301
-0.08667
-0.08789
-0.09033
-0.09521
-0.09399
-0.09521
-0.09888
-0.09766
-0.09766
-0.09399
-0.09644
-0.09521
-0.09155
-0.08911
-0.08423
-0.07446
-0.0647
-0.05249
-0.0354
-0.02075
-0.00488
0.01343
0.02808
0.04272
0.05859
0.07446
0.08301
0.10254
0.11475
0.12817
0.13306
0.13916
0.14404
0.14526
0.14648
0.14893
0.14893
0.14771
0.15015
0.14893
0.15137
0.14526
0.14282
0.14282
0.13916
0.13794
0.13672
0.13306
0.13062
0.12817
0.12329
0.11963
0.11841
0.11597
0.11353
0.11353
0.11108
0.11475
0.1062
0.10376
0.10254
0.09888
0.09399
0.09033
0.08667
0.08301
0.08057
0.07813
0.07568
0.07446
0.07202
0.06714
0.06714
0.0647
0.06226
0.06348
0.06226
0.06348
0.05981
0.05737
0.05615
0.05371
0.05127
0.05005
0.04883
0.04639
0.04272
0.04395
0.03906
0.03906
0.03662
0.03418
0.03296
0.02808
0.03052
0.02197
0.01953
0.01709
0.01465
0.01099
0.00732
0.00488
0
-0.00366
-0.00732
-0.00977
-0.01343
-0.01465
-0.02197
-0.01953
-0.02319
-0.02197
-0.02808
-0.03174
-0.03174
-0.03296
-0.03662
-0.03662
-0.04028
-0.04272
-0.04517
-0.04761
-0.05127
-0.05371
-0.05615
-0.05981
-0.05981
-0.06104
-0.06226
-0.06348
-0.06592
-0.06226
-0.06958
-0.07324
-0.07446
-0.0769
-0.07935
-0.08057
-0.08301
-0.08667
-0.08789
-0.09155
-0.09644
-0.1001
-0.10132
-0.10742
-0.1062
-0.10742
-0.11108
-0.10864
-0.10742
-0.1062
-0.10254
-0.09888
-0.09033
-0.08179
-0.0708
-0.05493
-0.03906
-0.02319
-0.00488
0.01221
0.0293
0.04639
0.06226
0.0769
0.09399
0.10864
0.11841
0.13062
0.13794
0.14404
0.14771
0.14893
0.15015
0.15137
0.15015
0.15015
0.14893
0.14771
0.14648
0.14526
0.1416
0.14038
0.13916
0.13794
0.1355
0.13184
0.12817
0.12451
0.11963
0.11841
0.11475
0.10864
0.11108
0.10986
0.1062
0.10498
0.10254
0.09766
0.09521
0.09277
0.08789
0.08301
0.07935
0.0769
0.07202
0.06958
0.06714
0.0647
0.05981
0.05859
0.05615
0.05371
0.05127
0.04883
0.05249
0.04517
0.04395
0.04395
0.04272
0.0415
0.0415
0.03906
0.03662
0.0354
0.03418
0.03174
0.03174
0.03052
0.02441
0.02441
0.02197
0.02197
0.01465
0.01099
0.00977
0.0061
0.00366
0.00122
-0.00366
-0.00732
-0.01099
-0.01587
-0.02075
-0.02197
-0.02563
-0.03296
-0.03052
-0.03418
-0.03784
-0.04028
-0.04395
-0.04761
-0.05005
-0.05371
-0.05371
-0.05737
-0.05981
-0.06104
-0.06348
-0.06714
-0.06836
-0.07202
-0.0769
-0.0769
-0.07935
-0.08179
-0.08179
-0.08423
-0.07935
-0.08667
-0.09033
-0.09155
-0.09399
-0.09521
-0.09644
-0.09888
-0.10132
-0.10254
-0.10498
-0.10864
-0.10986
-0.11353
-0.11963
-0.11963
-0.12207
-0.12817
-0.12573
-0.12939
-0.13062
-0.12939
-0.12939
-0.12695
-0.12207
-0.11597
-0.10742
-0.09766
-0.08545
-0.0708
-0.05615
-0.03906
-0.02075
-0.00366
0.01343
0.03174
0.04761
0.06226
0.07813
0.09033
0.1001
0.10986
0.11475
0.11963
0.12329
0.12451
0.12451
0.12451
0.11963
0.12207
0.11841
0.12085
0.11353
0.10986
0.10864
0.10498
0.10254
0.10132
0.09766
0.09399
0.09033
0.08545
0.07813
0.0769
0.07324
0.07202
0.06836
0.06348
0.05981
0.05737
0.05249
0.05005
0.04517
0.04028
0.03784
0.03296
0.03052
0.02808
0.02563
0.02197
0.02197
0.02075
0.01709
0.01587
0.01465
0.01343
0.01221
0.01221
0.01343
0.01221
0.01221
0.01221
0.01221
0.01221
0.01343
0.01343
0.01099
0.01343
0.01343
0.01099
0.01099
0.00854
0.00732
0.00244
0
-0.00122
-0.00488
-0.00854
-0.00977
-0.01343
-0.01831
-0.02075
-0.02441
-0.03052
-0.03174
-0.03418
-0.03662
-0.03662
-0.03906
-0.03662
-0.04639
-0.05005
-0.05127
-0.05615
-0.05737
-0.05859
-0.06104
-0.06348
-0.06348
-0.06714
-0.06958
-0.0708
-0.07324
-0.07935
-0.07813
-0.08179
-0.08545
-0.08545
-0.08667
-0.08545
-0.09277
-0.09399
-0.09644
-0.10132
-0.10498
-0.1062
-0.10864
-0.10986
-0.10864
-0.1062
-0.10498
-0.09888
-0.09277
-0.08911
-0.07813
-0.06836
-0.05859
-0.04272
-0.02686
-0.01099
0.00488
0.01953
0.03418
0.04639
0.06104
0.07446
0.08911
0.09888
0.10986
0.11597
0.11841
0.12695
0.12817
0.12939
0.13184
0.13062
0.13062
0.12817
0.12573
0.12207
0.11841
0.10986
0.11108
0.10376
0.10498
0.09766
0.09155
0.08911
0.08301
0.07813
0.07446
0.0708
0.06592
0.06348
0.05981
0.05493
0.05249
0.04883
0.0415
0.0415
0.03906
0.03418
0.03418
0.03174
0.02686
0.02563
0.02441
0.02319
0.02319
0.02197
0.02319
0.02197
0.02075
0.02197
0.02075
0.01709
0.01953
0.01953
0.01831
0.02075
0.02075
0.01953
0.01831
0.01587
0.01587
0.01343
0.01099
0.00977
0.00732
0.00366
0.00122
-0.00244
-0.00854
-0.00977
-0.01221
-0.01587
-0.01831
-0.02197
-0.02319
-0.0293
-0.03418
-0.0354
-0.04028
-0.04517
-0.04761
-0.05127
-0.05371
-0.05493
-0.05615
-0.05981
-0.06104
-0.06348
-0.0708
-0.06714
-0.07202
-0.07568
-0.07568
-0.07935
-0.08057
-0.08301
-0.08545
-0.08667
-0.08911
-0.09399
-0.09399
-0.09644
-0.1001
-0.1001
-0.10254
-0.1062
-0.1062
-0.10742
-0.11108
-0.11353
-0.11597
-0.1123
-0.11841
-0.12085
-0.11963
-0.12085
-0.12207
-0.11963
-0.11719
-0.11353
-0.10498
-0.09521
-0.08423
-0.06714
-0.05127
-0.03662
-0.01343
0.00488
0.02319
0.0415
0.06104
0.08545
0.09644
0.11353
0.12817
0.13794
0.14526
0.15259
0.15747
0.15869
0.16479
0.16602
0.16968
0.16479
0.16113
0.15869
0.15259
0.14771
0.14526
0.14038
0.1355
0.1355
0.13428
0.13062
0.13184
0.12939
0.12573
0.12573
0.12207
0.11963
0.11841
0.11719
0.11597
0.11353
0.11108
0.10986
0.1062
0.10132
0.09766
0.09399
0.09033
0.08789
0.08545
0.08667
0.07813
0.07446
0.07202
0.06958
0.06714
0.0647
0.06348
0.06104
0.05859
0.05615
0.05493
0.05493
0.05493
0.05493
0.05615
0.05615
0.05859
0.05493
0.05127
0.05127
0.05127
0.04883
0.04639
0.04395
0.04028
0.03662
0.03296
0.02808
0.02563
0.02319
0.02075
0.01831
0.01343
0.01099
0.0061
0.00122
-0.00244
-0.0061
-0.00977
-0.01221
-0.01465
-0.01953
-0.02197
-0.02563
-0.03174
-0.03174
-0.03296
-0.0354
-0.03662
-0.03906
-0.03784
-0.04272
-0.04639
-0.04761
-0.05127
-0.05493
-0.05737
-0.05859
-0.06104
-0.06348
-0.0647
-0.06836
-0.06836
-0.0708
-0.0769
-0.07568
-0.07935
-0.07813
-0.08179
-0.08423
-0.08667
-0.08789
-0.09155
-0.09155
-0.09399
-0.09521
-0.09521
-0.09888
-0.10132
-0.10132
-0.1001
-0.1001
-0.09399
-0.08911
-0.08423
-0.07202
-0.05981
-0.04272
-0.0293
-0.01343
0.0061
0.02319
0.03906
0.05737
0.07202
0.08667
0.10376
0.11841
0.12939
0.14038
0.14771
0.14893
0.15747
0.15869
0.16113
0.15991
0.15991
0.15869
0.15747
0.15259
0.15259
0.15015
0.14404
0.14526
0.1416
0.1416
0.13916
0.13672
0.13428
0.13062
0.12695
0.12573
0.12207
0.11841
0.11719
0.11353
0.1062
0.10864
0.10376
0.09888
0.09644
0.09155
0.08667
0.08301
0.07813
0.07446
0.0708
0.06836
0.06714
0.0647
0.06348
0.06104
0.05859
0.05249
0.05127
0.04883
0.04517
0.04639
0.04517
0.04639
0.04517
0.04517
0.04395
0.0415
0.03906
0.03784
0.0354
0.03296
0.03174
0.0293
0.02563
0.02563
0.02319
0.01709
0.01831
0.01343
0.00977
0.00732
0.00488
0.00244
0
-0.00244
-0.00488
-0.00854
-0.01465
-0.01831
-0.02197
-0.0293
-0.0293
-0.03296
-0.03906
-0.03784
-0.0415
-0.04517
-0.04639
-0.05127
-0.05371
-0.05615
-0.05859
-0.05981
-0.06348
-0.0647
-0.06714
-0.06958
-0.07446
-0.07568
-0.0769
-0.07813
-0.07813
-0.07935
-0.0769
-0.08301
-0.08667
-0.08911
-0.09155
-0.09521
-0.09644
-0.09888
-0.10132
-0.10132
-0.10254
-0.1062
-0.1062
-0.1062
-0.11108
-0.10864
-0.10864
-0.10132
-0.1001
-0.09399
-0.08179
-0.0708
-0.05859
-0.04272
-0.0293
-0.01343
0.00366
0.02075
0.03662
0.05249
0.06958
0.08301
0.09766
0.10864
0.12207
0.12207
0.12817
0.13184
0.13306
0.13428
0.1355
0.13428
0.13306
0.13306
0.13062
0.12451
0.12573
0.12085
0.11963
0.11475
0.1123
0.10986
0.1062
0.1001
0.09521
0.09033
0.08423
0.08179
0.07813
0.07324
0.0708
0.06592
0.06836
0.06104
0.05615
0.05249
0.04883
0.04395
0.04028
0.03784
0.0354
0.03418
0.03052
0.0293
0.02686
0.02319
0.01709
0.02075
0.01831
0.01587
0.01709
0.01587
0.01587
0.01587
0.01465
0.01465
0.01587
0.01587
0.01587
0.01465
0.01343
0.01343
0.01221
0.00732
0.00854
0.0061
0.00366
0.00122
-0.00244
-0.00244
-0.00366
-0.00732
-0.01099
-0.01343
-0.01709
-0.02075
-0.02319
-0.02563
-0.02686
-0.0293
-0.03296
-0.03418
-0.03662
-0.0415
-0.04395
-0.04761
-0.04639
-0.05371
-0.05615
-0.05615
-0.05737
-0.05859
-0.06104
-0.06226
-0.06592
-0.06836
-0.0708
-0.07446
-0.07568
-0.07813
-0.08423
-0.08179
-0.08301
-0.08911
-0.08911
-0.09277
-0.09521
-0.09644
-0.1001
-0.09888
-0.09766
-0.09766
-0.09521
-0.09033
-0.08545
-0.0769
-0.06714
-0.05737
-0.04272
-0.0293
-0.01709
0.00488
0.02075
0.03662
0.05249
0.06348
0.08057
0.08911
0.1001
0.11108
0.11963
0.12573
0.13062
0.13306
0.13306
0.13672
0.13672
0.13672
0.13306
0.13062
0.12817
0.12451
0.11841
0.11475
0.10986
0.10376
0.10376
0.1001
0.09521
0.09033
0.08423
0.08423
0.07568
0.0708
0.06836
0.06104
0.05493
0.05249
0.04761
0.04272
0.04028
0.0354
0.03174
0.03174
0.0293
0.02441
0.02686
0.02441
0.03052
0.02563
0.02441
0.02441
0.02319
0.02197
0.02197
0.02075
0.01953
0.02075
0.01953
0.01953
0.02075
0.01953
0.01465
0.01953
0.01709
0.01587
0.01465
0.01221
0.01099
0.00854
0.00732
0.00366
0
-0.00366
-0.0061
-0.00977
-0.01343
-0.01465
-0.01831
-0.02686
-0.02686
-0.03052
-0.03662
-0.0354
-0.03784
-0.04028
-0.0415
-0.04395
-0.04517
-0.04761
-0.05127
-0.05249
-0.05493
-0.05859
-0.06104
-0.06348
-0.06592
-0.06592
-0.06714
-0.07202
-0.06958
-0.07202
-0.07568
-0.07568
-0.08057
-0.08545
-0.08789
-0.09033
-0.09277
-0.09521
-0.09888
-0.10132
-0.10376
-0.10498
-0.1062
-0.10986
-0.11108
-0.11108
-0.10986
-0.1123
-0.10742
-0.1062
-0.10498
-0.09399
-0.08545
-0.07568
-0.06226
-0.04883
-0.03174
-0.01587
0.00122
0.01953
0.03662
0.05493
0.07202
0.08667
0.10132
0.11719
0.12817
0.1355
0.14648
0.15259
0.15869
0.15991
0.15869
0.15869
0.15625
0.15503
0.15381
0.15259
0.15015
0.14893
0.14404
0.1416
0.13794
0.13306
0.13184
0.12817
0.12451
0.12329
0.12085
0.11841
0.11719
0.11475
0.10986
0.1062
0.10376
0.09766
0.09766
0.09399
0.08911
0.08911
0.08545
0.08301
0.08179
0.0769
0.07446
0.0708
0.06714
0.0647
0.06226
0.05981
0.05737
0.05615
0.05249
0.05249
0.05249
0.05005
0.05127
0.05249
0.05615
0.05249
0.05127
0.05127
0.05005
0.04639
0.04517
0.04272
0.03906
0.03662
0.03296
0.03052
0.02808
0.02563
0.01953
0.02075
0.01709
0.01221
0.01099
0.00732
0.00488
0.00244
-0.00244
-0.00488
-0.00854
-0.01343
-0.01587
-0.02075
-0.02563
-0.02686
-0.0293
-0.03296
-0.03174
-0.03296
-0.03662
-0.03784
-0.0415
-0.03906
-0.04517
-0.04761
-0.04883
-0.05249
-0.05615
-0.05859
-0.06104
-0.0647
-0.06592
-0.06836
-0.07202
-0.0708
-0.0708
-0.07568
-0.07324
-0.07324
-0.07568
-0.0769
-0.08057
-0.08301
-0.08423
-0.08667
-0.08667
-0.09155
-0.09399
-0.09644
-0.1001
-0.10498
-0.1062
-0.10864
-0.11108
-0.10742
-0.10498
-0.10376
-0.10132
-0.09644
-0.08667
-0.08179
-0.0708
-0.05737
-0.04028
-0.02319
-0.00366
0.01343
0.03174
0.05005
0.06592
0.08057
0.09644
0.11108
0.12207
0.13428
0.14282
0.14771
0.15259
0.15625
0.15747
0.15747
0.15625
0.15625
0.15259
0.15015
0.15015
0.14771
0.1416
0.14282
0.13916
0.13794
0.13428
0.13062
0.12695
0.12207
0.11963
0.11719
0.11597
0.1123
0.11108
0.10864
0.10254
0.10254
0.09888
0.09155
0.09155
0.08789
0.08301
0.08179
0.0769
0.07324
0.06836
0.06592
0.06348
0.06104
0.05981
0.05737
0.05493
0.05127
0.05127
0.04883
0.04639
0.04517
0.04395
0.05005
0.04395
0.04272
0.04395
0.0415
0.03906
0.0354
0.0354
0.03296
0.03174
0.03052
0.02808
0.02808
0.02686
0.02075
0.02197
0.01831
0.01587
0.01099
0.0061
0.00122
-0.00244
-0.00488
-0.00732
-0.01099
-0.01465
-0.01831
-0.02197
-0.02563
-0.02808
-0.03174
-0.03784
-0.03784
-0.0415
-0.04761
-0.04761
-0.05249
-0.05737
-0.05859
-0.0647
-0.06714
-0.0708
-0.07324
-0.07446
-0.07568
-0.07813
-0.08057
-0.08301
-0.08667
-0.08667
-0.08667
-0.08911
-0.09033
-0.09155
-0.08911
-0.09644
-0.1001
-0.10132
-0.10376
-0.10742
-0.10742
-0.10742
-0.10864
-0.10986
-0.11108
-0.11597
-0.11719
-0.12085
-0.12573
-0.12451
-0.12451
-0.12329
-0.12207
-0.11963
-0.11353
-0.1062
-0.09888
-0.08789
-0.07446
-0.06104
-0.04395
-0.02686
-0.00977
0.00732
0.02563
0.03906
0.05493
0.06958
0.08179
0.09399
0.10376
0.1123
0.11841
0.12207
0.12451
0.12573
0.12451
0.12451
0.12329
0.11841
0.11719
0.11353
0.10864
0.1062
0.10376
0.1001
0.09888
0.09399
0.09155
0.08789
0.08179
0.08179
0.0769
0.0708
0.06836
0.06348
0.06226
0.05615
0.05127
0.04883
0.04517
0.0415
0.03906
0.03418
0.03052
0.02686
0.02441
0.02075
0.02075
0.01953
0.01709
0.01587
0.01587
0.01709
0.01465
0.01343
0.01465
0.01465
0.01465
0.01587
0.01709
0.01587
0.01709
0.01587
0.01465
0.01465
0.01343
0.01099
0.01099
0.00732
0.0061
0.00488
0.00244
0
-0.00244
-0.00732
-0.01099
-0.01343
-0.01709
-0.01831
-0.02197
-0.02808
-0.02808
-0.03296
-0.03906
-0.03906
-0.04272
-0.04639
-0.04883
-0.05249
-0.05371
-0.05493
-0.05737
-0.05981
-0.06226
-0.06592
-0.06714
-0.06958
-0.07324
-0.07446
-0.07568
-0.08057
-0.07935
-0.08301
-0.08179
-0.08667
-0.09155
-0.09277
-0.09399
-0.09766
-0.09766
-0.09888
-0.10132
-0.10132
-0.10254
-0.10498
-0.10254
-0.10132
-0.10132
-0.09521
-0.09033
-0.08423
-0.07202
-0.06226
-0.04395
-0.0354
-0.02319
-0.00732
0.00732
0.02075
0.03662
0.05127
0.0647
0.08057
0.09399
0.10254
0.1123
0.11719
0.11841
0.12207
0.12451
0.12695
0.12573
0.12329
0.12207
0.11841
0.11353
0.1123
0.10864
0.10254
0.1001
0.09644
0.09277
0.08789
0.08301
0.07935
0.07324
0.06836
0.06348
0.05615
0.05005
0.04639
0.0415
0.03296
0.03418
0.02808
0.02197
0.01709
0.01221
0.00732
0.0061
0.00366
0.00366
0.00366
0.00366
0.00488
0.00488
0.00366
0.0061
0.00488
0.00122
0.0061
0.00732
0.00977
0.00977
0.00732
0.0061
0.0061
0.00488
0.00366
0.00244
0.00122
0.00122
-0.00244
-0.00488
-0.00732
-0.01099
-0.01709
-0.01465
-0.01831
-0.02441
-0.02441
-0.02808
-0.03296
-0.03418
-0.03906
-0.0415
-0.04639
-0.04883
-0.05249
-0.05371
-0.05737
-0.05859
-0.06226
-0.06592
-0.06592
-0.06958
-0.07202
-0.07446
-0.07813
-0.07568
-0.08179
-0.08423
-0.08545
-0.08667
-0.08911
-0.09155
-0.09155
-0.09399
-0.09521
-0.09766
-0.1001
-0.10132
-0.10498
-0.10986
-0.11108
-0.11475
-0.11353
-0.11841
-0.12085
-0.12085
-0.12085
-0.12329
-0.12207
-0.12085
-0.11963
-0.11475
-0.11108
-0.10742
-0.1001
-0.09155
-0.08179
-0.06348
-0.04761
-0.03052
-0.01343
0.00488
0.02563
0.0415
0.05615
0.07202
0.08911
0.10254
0.11475
0.12451
0.13062
0.13672
0.13916
0.13794
0.14038
0.14038
0.1416
0.14038
0.13794
0.13672
0.13184
0.12695
0.12451
0.12207
0.11475
0.11597
0.11597
0.11597
0.10864
0.10254
0.09644
0.09033
0.08423
0.08179
0.07568
0.07324
0.0708
0.0647
0.06226
0.05981
0.05493
0.04639
0.04761
0.04395
0.03784
0.03906
0.0354
0.03296
0.03174
0.03052
0.02808
0.02686
0.02563
0.02563
0.02441
0.02441
0.02563
0.02441
0.02075
0.02441
0.02197
0.01953
0.02075
0.01953
0.01831
0.01953
0.01953
0.02075
0.01831
0.01587
0.01465
0.01099
0.00732
0.00488
0.00122
-0.00488
-0.00366
-0.0061
-0.00732
-0.01221
-0.01587
-0.01953
-0.02197
-0.02686
-0.0293
-0.03174
-0.03296
-0.03418
-0.03662
-0.03784
-0.04028
-0.04395
-0.04883
-0.05005
-0.05371
-0.05615
-0.05615
-0.05859
-0.05737
-0.06226
-0.06592
-0.06714
-0.06958
-0.07324
-0.0769
-0.07935
-0.08301
-0.08423
-0.08667
-0.08911
-0.09033
-0.09521
-0.10132
-0.1001
-0.10254
-0.10498
-0.10376
-0.10254
-0.10254
-0.1001
-0.1001
-0.09766
-0.09399
-0.08789
-0.07935
-0.06836
-0.05493
-0.04028
-0.02563
-0.00977
0.00732
0.02563
0.03784
0.05737
0.0708
0.08423
0.1001
0.1123
0.12329
0.13062
0.1355
0.14038
0.14282
0.14282
0.14404
0.14404
0.14038
0.14282
0.14038
0.14038
0.1355
0.13062
0.12817
0.12451
0.11963
0.11963
0.11597
0.10986
0.10986
0.10498
0.10376
0.09766
0.09399
0.09399
0.08911
0.08789
0.08545
0.08179
0.07935
0.07568
0.07202
0.06592
0.06348
0.06104
0.05249
0.05493
0.05127
0.05249
0.04639
0.04517
0.04272
0.04028
0.03784
0.03662
0.0354
0.03418
0.03418
0.03296
0.03174
0.03418
0.03296
0.02808
0.03052
0.02808
0.03174
0.02563
0.02563
0.02563
0.02197
0.02075
0.01831
0.01465
0.01099
0.00977
0.00488
0.00122
0.00122
-0.00244
-0.0061
-0.00732
-0.01099
-0.00854
-0.01709
-0.02075
-0.02319
-0.02686
-0.03052
-0.03296
-0.03418
-0.03784
-0.04028
-0.04395
-0.04883
-0.05005
-0.05249
-0.05493
-0.05493
-0.05737
-0.05371
-0.06104
-0.06226
-0.0647
-0.06836
-0.07202
-0.0769
-0.07935
-0.08179
-0.08423
-0.08667
-0.08667
-0.08789
-0.09033
-0.09766
-0.09399
-0.09521
-0.09521
-0.09155
-0.08789
-0.08301
-0.0769
-0.06836
-0.05737
-0.04639
-0.03296
-0.01709
0
0.01587
0.03296
0.05005
0.06592
0.08057
0.09521
0.10864
0.11963
0.12817
0.13428
0.14282
0.14771
0.15137
0.15625
0.15625
0.15625
0.15381
0.14893
0.14893
0.14648
0.14648
0.14038
0.13672
0.1355
0.13184
0.12573
0.12085
0.11475
0.10742
0.10498
0.10132
0.09399
0.09399
0.09033
0.09033
0.08423
0.08057
0.07813
0.07324
0.0708
0.06836
0.0647
0.06226
0.06104
0.05737
0.05249
0.05005
0.04639
0.03906
0.0415
0.03784
0.03906
0.03418
0.03418
0.03418
0.03296
0.03174
0.03296
0.03052
0.03052
0.03052
0.03052
0.02808
0.02808
0.02563
0.01953
0.02197
0.01831
0.01953
0.01343
0.01099
0.00977
0.00732
0.0061
0.00366
0
-0.00366
-0.00732
-0.01099
-0.01465
-0.01587
-0.01953
-0.02319
-0.02563
-0.0293
-0.0293
-0.03784
-0.0415
-0.04395
-0.04639
-0.04883
-0.05249
-0.05371
-0.05615
-0.05859
-0.06104
-0.06592
-0.06714
-0.0708
-0.07568
-0.07324
-0.07568
-0.0769
-0.07813
-0.08179
-0.08423
-0.08423
-0.08545
-0.08789
-0.08911
-0.09155
-0.09277
-0.09644
-0.09888
-0.1001
-0.10254
-0.1062
-0.10742
-0.1123
-0.11719
-0.11841
-0.12085
-0.12207
-0.12207
-0.12451
-0.12329
-0.12207
-0.11963
-0.11353
-0.1062
-0.09644
-0.08545
-0.07202
-0.05737
-0.03906
-0.02197
-0.00732
0.01465
0.03052
0.04639
0.06348
0.07935
0.09399
0.10742
0.11597
0.12451
0.12939
0.13306
0.13306
0.13428
0.13062
0.13306
0.13062
0.12817
0.12451
0.11963
0.11719
0.11353
0.10986
0.10742
0.10376
0.09888
0.09888
0.09521
0.08911
0.08667
0.08179
0.07935
0.07324
0.06958
0.06714
0.06348
0.06104
0.05737
0.05493
0.05127
0.04883
0.04517
0.0415
0.04028
0.03906
0.03418
0.03418
0.03174
0.0354
0.03052
0.03052
0.03052
0.0293
0.0293
0.03052
0.0293
0.0293
0.03052
0.0293
0.02808
0.0293
0.0293
0.02441
0.02686
0.02686
0.0293
0.02197
0.02075
0.02075
0.01709
0.01343
0.01099
0.0061
0.00244
-0.00122
-0.00366
-0.00854
-0.00854
-0.01099
-0.01709
-0.01709
-0.02197
-0.02197
-0.0293
-0.03296
-0.03418
-0.0354
-0.03906
-0.04028
-0.04395
-0.04761
-0.04761
-0.05371
-0.05615
-0.05737
-0.06104
-0.06592
-0.06348
-0.06592
-0.07202
-0.06958
-0.07324
-0.07568
-0.0769
-0.07935
-0.08057
-0.08301
-0.08545
-0.08667
-0.08667
-0.08667
-0.08789
-0.08911
-0.09155
-0.09033
-0.09033
-0.09033
-0.08667
-0.08301
-0.07446
-0.06836
-0.05981
-0.04761
-0.03662
-0.02441
-0.01099
0.00244
0.01709
0.03296
0.04517
0.05859
0.07202
0.08545
0.09277
0.10742
0.11475
0.12573
0.12695
0.12817
0.12939
0.12817
0.12695
0.12451
0.12329
0.11841
0.11841
0.11475
0.11597
0.10742
0.10132
0.09888
0.09277
0.08545
0.08057
0.07202
0.0647
0.06104
0.05615
0.04883
0.04517
0.0415
0.0354
0.03174
0.02563
0.02686
0.01953
0.01587
0.01465
0.01221
0.00977
0.00977
0.00732
0.0061
0.0061
0.0061
0.00488
0.00732
0.00854
0.00732
0.01221
0.01221
0.01709
0.01465
0.01465
0.01587
0.01709
0.01587
0.01709
0.01587
0.01343
0.01343
0.01099
0.00732
0.0061
0.00366
-0.00488
-0.00244
-0.00488
-0.01099
-0.01099
-0.01465
-0.02075
-0.02319
-0.02686
-0.02808
-0.03174
-0.03418
-0.03662
-0.04028
-0.04395
-0.04517
-0.04883
-0.05371
-0.05371
-0.05615
-0.06104
-0.06104
-0.06348
-0.06348
-0.06836
-0.07202
-0.07568
-0.07813
-0.08057
-0.08179
-0.08545
-0.08911
-0.08911
-0.09155
-0.09399
-0.09399
-0.09644
-0.10132
-0.09888
-0.1001
-0.10132
-0.09521
-0.09033
-0.08301
-0.07446
-0.06592
-0.05371
-0.04272
-0.02808
-0.01221
0.00366
0.02075
0.03784
0.05371
0.06714
0.08301
0.09521
0.10498
0.11963
0.12817
0.13916
0.14038
0.14404
0.14648
0.14771
0.14648
0.14648
0.14282
0.13916
0.13794
0.13428
0.12939
0.12939
0.12573
0.12329
0.11963
0.11475
0.11108
0.10498
0.09766
0.09521
0.09155
0.08789
0.08545
0.08057
0.07446
0.07568
0.07202
0.0708
0.06714
0.0647
0.06226
0.05981
0.05615
0.05493
0.05249
0.04883
0.04761
0.04517
0.04395
0.04272
0.0415
0.03906
0.0415
0.0415
0.04028
0.0415
0.04028
0.04028
0.04028
0.03906
0.03906
0.03906
0.03784
0.03906
0.03662
0.03296
0.03296
0.03052
0.02563
0.02441
0.02197
0.01831
0.01587
0.01465
0.01221
0.00732
0.00366
0.00122
-0.00366
-0.00732
-0.00977
-0.01343
-0.01709
-0.02075
-0.02319
-0.02808
-0.03052
-0.03296
-0.03662
-0.03662
-0.03662
-0.03784
-0.04028
-0.04395
-0.04639
-0.04883
-0.05127
-0.05127
-0.05371
-0.05737
-0.05737
-0.06104
-0.06348
-0.06348
-0.06592
-0.0708
-0.0708
-0.07324
-0.07568
-0.0769
-0.0769
-0.07446
-0.08179
-0.08545
-0.08545
-0.08911
-0.09155
-0.09277
-0.09521
-0.09644
-0.09521
-0.09521
-0.09399
-0.09033
-0.08545
-0.08301
-0.07202
-0.06104
-0.04761
-0.03296
-0.01465
0.0061
0.02197
0.03906
0.05493
0.07324
0.08789
0.10376
0.11841
0.13062
0.14282
0.15137
0.15747
0.16357
0.16724
0.17212
0.16968
0.16846
0.16846
0.16479
0.16235
0.16113
0.15747
0.15259
0.15259
0.14893
0.14404
0.14404
0.1416
0.13794
0.13428
0.13062
0.12817
0.12451
0.12329
0.12085
0.11597
0.1123
0.10986
0.1062
0.10254
0.1001
0.09766
0.09277
0.09033
0.08423
0.08545
0.07568
0.07202
0.06958
0.06714
0.06348
0.06348
0.06104
0.05981
0.05981
0.05737
0.05615
0.05615
0.05371
0.04883
0.05371
0.05249
0.05005
0.05127
0.05005
0.04639
0.04761
0.04517
0.04517
0.04395
0.04272
0.04028
0.03784
0.03418
0.03296
0.02808
0.02197
0.02075
0.01709
0.01099
0.01343
0.00977
0.00732
0.0061
0.00122
-0.00122
-0.00488
-0.00854
-0.01221
-0.01465
-0.01831
-0.02075
-0.02441
-0.02686
-0.03052
-0.03418
-0.0415
-0.03906
-0.04272
-0.04272
-0.04639
-0.04883
-0.05127
-0.05127
-0.05371
-0.05493
-0.05737
-0.05981
-0.06226
-0.06226
-0.06592
-0.06592
-0.06714
-0.06836
-0.0708
-0.07202
-0.07813
-0.07568
-0.07813
-0.08179
-0.08057
-0.08057
-0.08179
-0.08179
-0.08423
-0.08545
-0.08911
-0.09155
-0.09521
-0.09521
-0.09888
-0.10132
-0.10376
-0.10742
-0.10864
-0.11108
-0.11719
-0.11597
-0.11841
-0.11353
-0.11475
-0.11108
-0.1062
-0.10132
-0.09399
-0.08301
-0.0708
-0.05615
-0.04028
-0.02197
-0.00366
0.01465
0.03296
0.05127
0.0708
0.08789
0.10132
0.12085
0.13306
0.14282
0.15137
0.15625
0.15869
0.16113
0.15991
0.15869
0.15747
0.15137
0.15137
0.14893
0.15015
0.14282
0.13916
0.13672
0.13306
0.12939
0.12573
0.12329
0.11475
0.11353
0.10986
0.10376
0.10376
0.10254
0.09521
0.09521
0.09033
0.08545
0.08301
0.07813
0.07568
0.07202
0.06836
0.06592
0.06226
0.05615
0.05493
0.05249
0.04883
0.05005
0.04883
0.04639
0.04517
0.04517
0.04639
0.04272
0.0415
0.04272
0.04028
0.04028
0.0415
0.0415
0.03906
0.04028
0.03906
0.03662
0.03662
0.0354
0.03296
0.03174
0.0293
0.03052
0.02441
0.02197
0.01953
0.01343
0.00977
0.0061
0.00366
0.00122
0
-0.00366
-0.00854
-0.01099
-0.01587
-0.02075
-0.02441
-0.0293
-0.02686
-0.03418
-0.03784
-0.03784
-0.0415
-0.04395
-0.04639
-0.05005
-0.05249
-0.05371
-0.05737
-0.06104
-0.06226
-0.0647
-0.06958
-0.06714
-0.06958
-0.07324
-0.07324
-0.07446
-0.07202
-0.0769
-0.07935
-0.07935
-0.08057
-0.08179
-0.08301
-0.08545
-0.08545
-0.08545
-0.08789
-0.08911
-0.09033
-0.09155
-0.09766
-0.09521
-0.1001
-0.10498
-0.1062
-0.10986
-0.11353
-0.11353
-0.11475
-0.11597
-0.11963
-0.12085
-0.12329
-0.12451
-0.12695
-0.12573
-0.12817
-0.12939
-0.12329
-0.11963
-0.11597
-0.10254
-0.09277
-0.08179
-0.06714
-0.05127
-0.03418
-0.01709
0
0.01831
0.0354
0.05127
0.06714
0.08179
0.09399
0.1062
0.11353
0.11963
0.12573
0.12939
0.13184
0.13184
0.12939
0.12939
0.12695
0.12329
0.11963
0.11597
0.11108
0.10864
0.10376
0.1001
0.09399
0.08789
0.08301
0.0769
0.0708
0.06714
0.06226
0.05615
0.05493
0.05005
0.0415
0.03906
0.0354
0.03296
0.02563
0.02197
0.02197
0.01831
0.01465
0.01587
0.01221
0.00977
0.00977
0.00854
0.0061
0.00732
0.00977
0.00854
0.01343
0.01587
0.02319
0.01831
0.01953
0.02197
0.01953
0.02075
0.02197
0.02197
0.02075
0.02197
0.02075
0.01587
0.01709
0.01465
0.01221
0.01099
0.00977
0.00732
0.00488
0.00122
0
-0.0061
-0.00977
-0.01221
-0.01587
-0.02075
-0.02197
-0.02441
-0.03052
-0.03052
-0.03418
-0.04028
-0.03906
-0.04272
-0.04639
-0.04761
-0.05005
-0.05127
-0.05493
-0.05737
-0.05981
-0.06226
-0.06592
-0.06592
-0.06958
-0.07324
-0.07202
-0.07446
-0.07935
-0.0769
-0.08179
-0.08423
-0.08667
-0.08911
-0.09033
-0.09155
-0.09155
-0.09155
-0.09277
-0.09155
-0.09399
-0.09521
-0.09644
-0.09277
-0.09155
-0.08789
-0.08057
-0.07202
-0.06226
-0.05005
-0.03784
-0.02319
-0.00732
0.00732
0.02441
0.03906
0.05249
0.06592
0.07935
0.09277
0.10498
0.11353
0.11841
0.12695
0.12817
0.13306
0.13306
0.13306
0.13306
0.13184
0.12817
0.12451
0.12207
0.11841
0.11353
0.11108
0.10742
0.10498
0.10132
0.09888
0.09399
0.08789
0.08179
0.07568
0.06836
0.0647
0.06104
0.05127
0.05127
0.04639
0.0415
0.0354
0.03174
0.0293
0.02686
0.02441
0.02441
0.02197
0.01953
0.01953
0.01831
0.01465
0.01709
0.01709
0.01587
0.02075
0.02197
0.0293
0.02563
0.02686
0.0293
0.02808
0.02808
0.02808
0.02686
0.02686
0.02563
0.02441
0.02197
0.02197
0.01953
0.01709
0.01465
0.01221
0.01343
0.00854
0.00488
0.00366
-0.00122
-0.00488
-0.00854
-0.01221
-0.01587
-0.01831
-0.02319
-0.02686
-0.0293
-0.03174
-0.0354
-0.03784
-0.04272
-0.04272
-0.04883
-0.05249
-0.05493
-0.05859
-0.06104
-0.06226
-0.06348
-0.06592
-0.06836
-0.0708
-0.07446
-0.07446
-0.0769
-0.08057
-0.0769
-0.07935
-0.07446
-0.07813
-0.08057
-0.08057
-0.08301
-0.08667
-0.08911
-0.09033
-0.09155
-0.09277
-0.09644
-0.09888
-0.10254
-0.10376
-0.10986
-0.10742
-0.11108
-0.1062
-0.10864
-0.10742
-0.10376
-0.09766
-0.09277
-0.08179
-0.07202
-0.05737
-0.0415
-0.02441
-0.0061
0.01343
0.03174
0.05005
0.06714
0.08301
0.09766
0.11475
0.12817
0.1416
0.15015
0.15869
0.16479
0.16968
0.1709
0.1709
0.1709
0.16602
0.16602
0.16357
0.16235
0.15869
0.15381
0.15259
0.14771
0.14282
0.14038
0.13672
0.12939
0.12817
0.12573
0.12939
0.12207
0.11841
0.11475
0.10986
0.1062
0.10254
0.09766
0.09399
0.09155
0.08911
0.08545
0.08423
0.07935
0.07446
0.07202
0.06958
0.0708
0.06104
0.05859
0.05859
0.05615
0.05493
0.05249
0.05005
0.04883
0.04883
0.04639
0.04517
0.04761
0.04517
0.04272
0.04395
0.04028
0.03662
0.0354
0.03296
0.03174
0.02808
0.02686
0.02686
0.02441
0.02197
0.01953
0.01587
0.01099
0.01221
0.00854
0.01343
0.00488
0.00122
-0.00244
-0.0061
-0.00977
-0.01343
-0.01465
-0.01831
-0.02197
-0.02441
-0.02808
-0.0293
-0.03296
-0.03418
-0.03784
-0.04028
-0.04028
-0.04517
-0.05005
-0.05005
-0.05127
-0.05493
-0.05737
-0.06104
-0.0647
-0.06592
-0.06836
-0.07324
-0.07324
-0.07446
-0.07935
-0.07813
-0.07935
-0.07324
-0.08057
-0.08301
-0.08301
-0.08423
-0.08789
-0.08911
-0.09033
-0.09277
-0.09399
-0.09521
-0.09766
-0.09766
-0.09888
-0.10132
-0.10254
-0.10376
-0.10132
-0.10742
-0.11108
-0.11108
-0.11475
-0.11719
-0.11963
-0.12207
-0.12573
-0.12451
-0.12573
-0.12695
-0.12207
-0.11719
-0.11597
-0.1062
-0.09644
-0.08423
-0.0708
-0.05371
-0.03418
-0.01587
0.00366
0.02441
0.0415
0.05737
0.07446
0.09155
0.10376
0.12207
0.13184
0.14404
0.14893
0.15381
0.15747
0.15747
0.15747
0.15747
0.15503
0.14893
0.15259
0.14893
0.14526
0.14404
0.13916
0.13428
0.12939
0.12451
0.11963
0.11475
0.10864
0.1062
0.10376
0.09888
0.09521
0.09033
0.09033
0.08423
0.07813
0.07568
0.07202
0.06836
0.06592
0.06226
0.05859
0.05493
0.05249
0.04761
0.04639
0.04517
0.04028
0.0415
0.03906
0.03662
0.03662
0.03418
0.03418
0.03296
0.03052
0.03174
0.03174
0.03174
0.03296
0.03418
0.0293
0.03174
0.03174
0.0354
0.02808
0.02686
0.02808
0.02563
0.02197
0.02197
0.01831
0.01465
0.01221
0.00977
0.00366
0.00366
0.00122
-0.0061
-0.00488
-0.0061
-0.00977
-0.01221
-0.01465
-0.01709
-0.02075
-0.02319
-0.02441
-0.02808
-0.03174
-0.03296
-0.03662
-0.04272
-0.04272
-0.04639
-0.04639
-0.05005
-0.05249
-0.05249
-0.05615
-0.05737
-0.05859
-0.06226
-0.06592
-0.06714
-0.0708
-0.07202
-0.07324
-0.07568
-0.08179
-0.07935
-0.08301
-0.08423
-0.08545
-0.08667
-0.09155
-0.09155
-0.09521
-0.09644
-0.09888
-0.10132
-0.10254
-0.10498
-0.10742
-0.10742
-0.11108
-0.11475
-0.11353
-0.11475
-0.11841
-0.11475
-0.11475
-0.11353
-0.10742
-0.10254
-0.09521
-0.08545
-0.07324
-0.05859
-0.04272
-0.02686
-0.00732
0.01099
0.02686
0.04395
0.05859
0.07446
0.09155
0.10498
0.11597
0.12817
0.13306
0.13916
0.14282
0.14526
0.14404
0.14404
0.1416
0.1416
0.13916
0.1355
0.13306
0.12817
0.12451
0.12207
0.11597
0.11475
0.11108
0.10498
0.10376
0.09766
0.08911
0.08423
0.07813
0.07568
0.06836
0.0647
0.06104
0.05615
0.05127
0.04883
0.04272
0.03784
0.0354
0.03052
0.02441
0.02441
0.02441
0.02197
0.02197
0.02075
0.02197
0.01953
0.01953
0.02197
0.02075
0.02319
0.02563
0.02686
0.02686
0.0293
0.0293
0.02563
0.02808
0.02686
0.02319
0.02686
0.02441
0.02319
0.02319
0.02075
0.01831
0.01465
0.01099
0.00977
0.00488
0.00122
0
-0.00366
-0.01099
-0.00854
-0.01343
-0.02075
-0.02075
-0.02441
-0.0293
-0.03052
-0.0354
-0.03662
-0.04028
-0.04272
-0.04517
-0.04883
-0.05249
-0.05493
-0.05859
-0.06348
-0.06348
-0.06592
-0.06836
-0.06836
-0.0708
-0.07202
-0.07446
-0.07813
-0.07935
-0.08179
-0.08423
-0.08545
-0.08911
-0.09155
-0.09399
-0.09644
-0.10132
-0.10132
-0.10498
-0.10742
-0.10498
-0.10498
-0.09766
-0.09888
-0.09399
-0.08545
-0.07568
-0.06348
-0.04883
-0.03296
-0.01465
0.00488
0.02197
0.04028
0.05615
0.07202
0.08667
0.10376
0.11597
0.12695
0.13672
0.14404
0.15015
0.15503
0.15625
0.15625
0.15625
0.15381
0.15381
0.15259
0.14893
0.15015
0.14771
0.14648
0.1416
0.13672
0.13306
0.12817
0.12207
0.11841
0.11353
0.10742
0.1062
0.10254
0.09644
0.09155
0.08789
0.08667
0.07446
0.06958
0.0647
0.05859
0.05493
0.05127
0.04761
0.04272
0.0415
0.03906
0.03418
0.0354
0.0354
0.03296
0.03296
0.03296
0.03906
0.03174
0.03174
0.03418
0.03174
0.03296
0.03418
0.0354
0.0354
0.03662
0.0354
0.03174
0.03174
0.03052
0.02686
0.02563
0.02441
0.02563
0.02075
0.01831
0.01587
0.01099
0.00732
0.00488
0
-0.00366
-0.0061
-0.00977
-0.01587
-0.01465
-0.01709
-0.02441
-0.02319
-0.02441
-0.03052
-0.03052
-0.03418
-0.03662
-0.04028
-0.04395
-0.04639
-0.05127
-0.05371
-0.05615
-0.05981
-0.06348
-0.06226
-0.06348
-0.06592
-0.06592
-0.06714
-0.06714
-0.07202
-0.07446
-0.0769
-0.07935
-0.08179
-0.08179
-0.08301
-0.08423
-0.08545
-0.08911
-0.09155
-0.09277
-0.09644
-0.09766
-0.09766
-0.1001
-0.09644
-0.10254
-0.10498
-0.1062
-0.10742
-0.10864
-0.11108
-0.10986
-0.10864
-0.1062
-0.10376
-0.09766
-0.08911
-0.07935
-0.06836
-0.05005
-0.0354
-0.02075
0.00488
0.02441
0.04639
0.06592
0.08423
0.10376
0.12085
0.13794
0.15259
0.16357
0.17212
0.18188
0.18677
0.18799
0.19165
0.19165
0.19165
0.18921
0.18677
0.18555
0.18188
0.17822
0.17578
0.17334
0.16724
0.16602
0.16113
0.15625
0.15015
0.14648
0.14282
0.13916
0.1355
0.13428
0.13062
0.12695
0.12329
0.11963
0.10986
0.11108
0.10742
0.10254
0.1001
0.09766
0.09399
0.08911
0.08423
0.08179
0.0769
0.07446
0.07446
0.07446
0.07202
0.07324
0.07324
0.07202
0.07324
0.07202
0.06958
0.0708
0.06958
0.07568
0.0708
0.0708
0.0708
0.06836
0.06592
0.0647
0.06104
0.05981
0.05737
0.05493
0.05249
0.05127
0.04761
0.03906
0.04028
0.0354
0.0354
0.03052
0.02686
0.02563
0.02075
0.01587
0.01221
0.00732
0.00488
0.00244
-0.00122
-0.00366
-0.00488
-0.00854
-0.01221
-0.01465
-0.01831
-0.01709
-0.02441
-0.02808
-0.03174
-0.03662
-0.04028
-0.04272
-0.04517
-0.04761
-0.05005
-0.05371
-0.05859
-0.05859
-0.06226
-0.06714
-0.0647
-0.06592
-0.0647
-0.06714
-0.0708
-0.07324
-0.07324
-0.07568
-0.0769
-0.07813
-0.07935
-0.08057
-0.08179
-0.08423
-0.08545
-0.08667
-0.09277
-0.08911
-0.09399
-0.09277
-0.09277
-0.09399
-0.09521
-0.09644
-0.10132
-0.10376
-0.1062
-0.10986
-0.1123
-0.11475
-0.11719
-0.11963
-0.11963
-0.12329
-0.12085
-0.12085
-0.11597
-0.11597
-0.11353
-0.1062
-0.09888
-0.08911
-0.07324
-0.05615
-0.03784
-0.01831
0.00366
0.02441
0.04395
0.0647
0.08423
0.10498
0.12329
0.13794
0.15259
0.16357
0.17456
0.18066
0.18311
0.18799
0.19043
0.18921
0.19043
0.18921
0.18555
0.18311
0.17822
0.17456
0.16846
0.16357
0.16113
0.15381
0.14526
0.1416
0.13306
0.12573
0.12207
0.11719
0.11719
0.10864
0.10376
0.10132
0.09766
0.09277
0.08789
0.08423
0.07813
0.07446
0.0708
0.06714
0.06592
0.06348
0.05981
0.05859
0.05493
0.05737
0.05371
0.05127
0.05127
0.05005
0.04883
0.04883
0.04761
0.04761
0.04761
0.04639
0.04395
0.04395
0.0415
0.04028
0.0415
0.04028
0.0415
0.04272
0.0415
0.04028
0.03662
0.03296
0.0293
0.02808
0.02563
0.02319
0.01953
0.01465
0.01343
0.00977
0.00488
0.00488
0
-0.00366
-0.00488
-0.00977
-0.01221
-0.01587
-0.02319
-0.02686
-0.03174
-0.03662
-0.03906
-0.04028
-0.04639
-0.04517
-0.04761
-0.05127
-0.05127
-0.05371
-0.05615
-0.05615
-0.05981
-0.05981
-0.06226
-0.06348
-0.0647
-0.06592
-0.07202
-0.07446
-0.07813
-0.08301
-0.08423
-0.08545
-0.09033
-0.08911
-0.09155
-0.09399
-0.09521
-0.09644
-0.09766
-0.1001
-0.10376
-0.10498
-0.1062
-0.10864
-0.10986
-0.10986
-0.1123
-0.11108
-0.11108
-0.1123
-0.10864
-0.1062
-0.10498
-0.10132
-0.09766
-0.08911
-0.07935
-0.06836
-0.05371
-0.03784
-0.02075
-0.00122
0.01709
0.03296
0.05249
0.06958
0.08545
0.10132
0.11597
0.12695
0.13672
0.14404
0.15137
0.15625
0.15747
0.16113
0.15869
0.15747
0.15381
0.15015
0.14526
0.14282
0.13794
0.13306
0.12939
0.12451
0.11963
0.11353
0.10254
0.1001
0.09155
0.08423
0.08179
0.07568
0.0708
0.06836
0.06226
0.05615
0.05127
0.04517
0.0415
0.03784
0.03418
0.03174
0.02808
0.02441
0.02441
0.02075
0.01709
0.01831
0.01587
0.01831
0.01709
0.01831
0.02197
0.02441
0.02441
0.02686
0.0293
0.03052
0.03174
0.03296
0.03174
0.0354
0.0354
0.03418
0.0354
0.03296
0.03052
0.02808
0.02563
0.02563
0.02319
0.02075
0.01953
0.01709
0.01221
0.00854
0.00488
-0.00366
-0.0061
-0.00977
-0.01587
-0.01587
-0.01953
-0.02197
-0.02319
-0.02686
-0.0293
-0.03418
-0.03784
-0.04028
-0.0415
-0.04639
-0.04761
-0.04883
-0.05371
-0.05493
-0.05737
-0.06104
-0.06348
-0.06592
-0.06104
-0.06714
-0.06958
-0.06836
-0.0708
-0.07324
-0.07446
-0.07813
-0.08057
-0.08057
-0.08179
-0.08301
-0.08301
-0.08301
-0.08789
-0.08423
-0.08423
-0.08301
-0.07935
-0.07202
-0.06226
-0.05005
-0.03784
-0.02075
-0.00732
0.00977
0.02808
0.04517
0.06104
0.07935
0.09644
0.11108
0.12817
0.14282
0.15259
0.16235
0.16846
0.17212
0.17456
0.177
0.17944
0.17944
0.177
0.17822
0.17456
0.16846
0.16724
0.16235
0.15625
0.15381
0.15015
0.14648
0.14038
0.1355
0.12817
0.12207
0.11475
0.11353
0.10742
0.10132
0.10132
0.09644
0.09521
0.08911
0.08301
0.07813
0.07202
0.06714
0.06348
0.05981
0.05615
0.05493
0.05127
0.05005
0.04883
0.04639
0.0415
0.04639
0.04517
0.04639
0.04883
0.04883
0.05127
0.05249
0.05127
0.05127
0.05127
0.05127
0.05005
0.05005
0.05005
0.05005
0.05005
0.04517
0.04639
0.04272
0.04517
0.03906
0.0354
0.0354
0.03052
0.02563
0.02319
0.01953
0.01343
0.00977
0.0061
0
-0.00488
-0.00854
-0.01587
-0.01709
-0.02197
-0.01953
-0.0293
-0.03418
-0.03662
-0.0415
-0.04517
-0.04639
-0.05005
-0.05249
-0.05371
-0.05615
-0.06104
-0.06348
-0.06714
-0.07202
-0.0708
-0.07202
-0.07568
-0.07324
-0.07446
-0.07568
-0.0769
-0.07935
-0.08057
-0.08301
-0.08545
-0.08545
-0.08667
-0.08911
-0.09155
-0.09277
-0.09766
-0.09888
-0.10132
-0.10498
-0.10498
-0.10498
-0.1001
-0.10132
-0.09644
-0.08667
-0.07935
-0.06958
-0.05493
-0.04028
-0.02319
-0.00244
0.01831
0.03906
0.05859
0.07813
0.09521
0.11475
0.13184
0.14893
0.16357
0.17578
0.18433
0.19287
0.19897
0.20386
0.20508
0.20508
0.2063
0.20508
0.20264
0.20142
0.2002
0.19775
0.19653
0.19287
0.18921
0.18677
0.18188
0.17822
0.17212
0.16724
0.16602
0.16357
0.15869
0.15869
0.15381
0.15015
0.14526
0.1416
0.13794
0.1355
0.13184
0.12939
0.12695
0.12451
0.12085
0.11719
0.11353
0.11108
0.10864
0.10498
0.10376
0.10132
0.10498
0.1001
0.09888
0.09766
0.09521
0.09277
0.09155
0.09033
0.09033
0.09155
0.09033
0.08911
0.08911
0.08545
0.08057
0.08423
0.08057
0.07446
0.0769
0.07446
0.0708
0.0708
0.0647
0.0647
0.05981
0.05737
0.05371
0.05005
0.04517
0.04395
0.03906
0.03662
0.03418
0.03174
0.02686
0.02441
0.02197
0.02197
0.01709
0.01343
0.01221
0.00854
0.00488
0.00122
-0.00244
-0.00488
-0.00732
-0.00854
-0.01465
-0.01465
-0.01709
-0.01831
-0.02075
-0.02319
-0.02319
-0.02686
-0.0293
-0.03052
-0.03296
-0.0354
-0.03662
-0.03784
-0.0415
-0.04272
-0.04517
-0.04761
-0.04761
-0.04883
-0.05249
-0.05249
-0.05493
-0.05493
-0.06226
-0.06714
-0.06836
-0.07202
-0.07568
-0.0769
-0.07935
-0.07935
-0.07935
-0.07813
-0.07813
-0.07446
-0.06958
-0.06714
-0.05249
-0.03906
-0.02686
-0.00732
0.00977
0.03174
0.04761
0.0647
0.08545
0.10254
0.11963
0.13672
0.15259
0.16479
0.17822
0.18799
0.19409
0.2002
0.20386
0.20508
0.2063
0.20752
0.20752
0.2063
0.20264
0.20264
0.19775
0.19165
0.19165
0.18799
0.18311
0.18188
0.17822
0.17456
0.16968
0.16602
0.16357
0.15869
0.15381
0.15137
0.14648
0.14038
0.14038
0.13794
0.13184
0.13306
0.12695
0.12207
0.11963
0.11597
0.11353
0.11108
0.10864
0.10498
0.10376
0.1001
0.09766
0.09521
0.09155
0.09155
0.09033
0.09033
0.09155
0.09155
0.09521
0.09155
0.09033
0.09155
0.09033
0.09033
0.08789
0.08789
0.08667
0.08545
0.08423
0.08057
0.07935
0.07568
0.0708
0.06714
0.06226
0.0647
0.05615
0.05249
0.05127
0.04761
0.04272
0.03784
0.03296
0.02808
0.02563
0.02197
0.01709
0.01709
0.01343
0.00977
0.0061
0.00244
0.00244
-0.0061
-0.00854
-0.00977
-0.01221
-0.01587
-0.01709
-0.01831
-0.02319
-0.02563
-0.02808
-0.03174
-0.03418
-0.03418
-0.0354
-0.0354
-0.03784
-0.0354
-0.04272
-0.04761
-0.04761
-0.05249
-0.05615
-0.05859
-0.06104
-0.06348
-0.0647
-0.06836
-0.07324
-0.07568
-0.07813
-0.08423
-0.08301
-0.08301
-0.07813
-0.08179
-0.07935
-0.07202
-0.06592
-0.05737
-0.04517
-0.03296
-0.01953
0
0.01587
0.03296
0.05127
0.06714
0.08179
0.09888
0.11353
0.12695
0.1416
0.15259
0.16235
0.1709
0.17578
0.18188
0.18188
0.18066
0.18188
0.18066
0.17578
0.17578
0.17456
0.17212
0.16724
0.16479
0.16113
0.15625
0.15015
0.14771
0.1416
0.13306
0.13306
0.12817
0.12085
0.12085
0.11475
0.10864
0.10498
0.1001
0.09644
0.09277
0.08911
0.08545
0.08301
0.07935
0.0769
0.07324
0.06958
0.06958
0.06714
0.06714
0.06592
0.06592
0.0708
0.06714
0.06714
0.06836
0.06836
0.06958
0.06958
0.0708
0.0708
0.07202
0.07324
0.07202
0.07202
0.06958
0.06592
0.06592
0.06226
0.05859
0.05615
0.05371
0.05127
0.04883
0.04395
0.04028
0.03662
0.03174
0.02808
0.02563
0.01953
0.01953
0.01343
0.00977
0.00732
0.00244
-0.00122
-0.00366
-0.00854
-0.00977
-0.01343
-0.01709
-0.01953
-0.02197
-0.02808
-0.03052
-0.03296
-0.03906
-0.04028
-0.04272
-0.04883
-0.04761
-0.05249
-0.05371
-0.05615
-0.06104
-0.06226
-0.06592
-0.06958
-0.0708
-0.07324
-0.07446
-0.0769
-0.07813
-0.08179
-0.08057
-0.07813
-0.07446
-0.06714
-0.05981
-0.04395
-0.03662
-0.02441
-0.00854
0.00732
0.02197
0.03906
0.05371
0.06836
0.08423
0.1001
0.11597
0.13062
0.14282
0.15259
0.16113
0.16724
0.1709
0.17578
0.177
0.17944
0.17822
0.17578
0.17456
0.1709
0.16602
0.16357
0.15869
0.15381
0.15259
0.14893
0.14648
0.14038
0.1355
0.13062
0.12451
0.11963
0.11841
0.11353
0.10742
0.10498
0.1001
0.10132
0.09155
0.08545
0.08057
0.07568
0.0708
0.06714
0.0647
0.06104
0.05981
0.05859
0.05615
0.05493
0.05249
0.05005
0.05127
0.05005
0.05615
0.05127
0.05127
0.05249
0.05249
0.05127
0.05127
0.05005
0.04883
0.04761
0.04517
0.04272
0.04395
0.04272
0.03906
0.03662
0.03296
0.03174
0.02808
0.02441
0.02197
0.01953
0.01587
0.01221
0.00977
0.00488
0.00122
-0.00366
-0.01221
-0.01221
-0.01587
-0.01709
-0.02197
-0.02686
-0.03052
-0.0354
-0.04028
-0.04395
-0.04761
-0.05249
-0.05371
-0.05615
-0.05859
-0.06226
-0.06348
-0.07202
-0.0708
-0.07446
-0.07324
-0.07935
-0.08057
-0.08179
-0.08545
-0.09033
-0.09155
-0.09644
-0.1001
-0.10254
-0.1062
-0.10986
-0.11108
-0.1123
-0.11963
-0.11719
-0.11841
-0.11475
-0.11963
-0.11963
-0.11597
-0.11353
-0.10742
-0.09888
-0.08911
-0.07813
-0.06226
-0.04761
-0.03174
-0.01343
0.0061
0.02075
0.0415
0.05981
0.07813
0.09521
0.1123
0.12573
0.13672
0.14526
0.15259
0.15869
0.16235
0.16724
0.16968
0.16724
0.1709
0.16846
0.16846
0.16357
0.16235
0.15991
0.15869
0.15625
0.15503
0.15259
0.15015
0.14771
0.1416
0.1416
0.13794
0.13428
0.13306
0.13184
0.12817
0.12573
0.12207
0.11841
0.11353
0.10986
0.10498
0.10254
0.1001
0.09644
0.09277
0.08911
0.08789
0.08301
0.07935
0.07813
0.07446
0.07202
0.07202
0.06958
0.06836
0.06714
0.06592
0.06348
0.06226
0.05981
0.05493
0.05737
0.05737
0.05615
0.05615
0.05371
0.05249
0.05005
0.04517
0.04517
0.0415
0.03784
0.0354
0.03052
0.02319
0.02441
0.02197
0.01709
0.01465
0.00977
0.00732
0.00244
-0.00244
-0.00366
-0.00732
-0.01099
-0.01343
-0.01709
-0.02197
-0.02319
-0.02686
-0.03418
-0.03418
-0.03784
-0.03784
-0.04639
-0.05005
-0.05371
-0.05737
-0.06226
-0.0647
-0.06836
-0.0708
-0.07202
-0.07446
-0.07935
-0.07935
-0.08179
-0.08667
-0.08911
-0.09033
-0.08911
-0.09521
-0.09766
-0.09888
-0.10254
-0.10376
-0.1062
-0.10742
-0.10986
-0.11353
-0.11353
-0.11719
-0.11597
-0.11963
-0.12207
-0.12329
-0.12695
-0.12573
-0.13306
-0.13672
-0.13794
-0.14038
-0.14404
-0.14404
-0.14526
-0.14771
-0.14893
-0.15015
-0.15381
-0.15137
-0.15015
-0.14526
-0.13672
-0.12817
-0.11353
-0.10376
-0.08911
-0.07202
-0.05493
-0.0354
-0.01831
0.00122
0.01953
0.03784
0.05493
0.0708
0.08423
0.09644
0.10498
0.11597
0.12207
0.12817
0.13062
0.13184
0.13306
0.13306
0.13062
0.12817
0.12573
0.12207
0.12085
0.11841
0.11719
0.11475
0.11108
0.10986
0.1062
0.1001
0.09766
0.09399
0.09033
0.09033
0.08911
0.08423
0.08179
0.07935
0.08057
0.07202
0.06592
0.0647
0.05981
0.05493
0.05371
0.05005
0.04639
0.04395
0.04028
0.03418
0.03296
0.03174
0.0293
0.0293
0.02808
0.03174
0.02563
0.02319
0.02441
0.02075
0.01831
0.01831
0.01587
0.01343
0.01343
0.01099
0.00732
0.00732
0.0061
0.00244
0.00122
-0.00366
-0.00366
-0.00732
-0.01099
-0.01221
-0.01587
-0.01831
-0.02197
-0.02686
-0.03052
-0.03418
-0.03784
-0.04272
-0.04395
-0.04639
-0.05005
-0.05249
-0.05737
-0.05737
-0.0647
-0.06714
-0.06958
-0.07324
-0.07446
-0.07568
-0.08057
-0.08423
-0.08667
-0.09033
-0.09521
-0.09644
-0.1001
-0.10254
-0.10376
-0.10742
-0.10864
-0.11353
-0.11719
-0.11841
-0.12207
-0.12451
-0.12695
-0.12817
-0.13062
-0.13062
-0.13306
-0.13672
-0.13672
-0.13916
-0.14404
-0.1416
-0.14404
-0.14526
-0.14648
-0.14648
-0.14771
-0.15015
-0.15381
-0.15503
-0.15869
-0.15991
-0.16235
-0.16357
-0.16968
-0.16968
-0.17212
-0.17578
-0.17578
-0.17944
-0.18188
-0.18311
-0.18433
-0.18433
-0.18433
-0.18311
-0.17944
-0.17578
-0.17212
-0.16357
-0.15381
-0.14282
-0.12573
-0.10864
-0.09277
-0.07324
-0.05493
-0.03784
-0.01953
-0.00366
0.01343
0.03174
0.04517
0.05737
0.06714
0.07446
0.08179
0.08789
0.08911
0.09033
0.08911
0.08789
0.08545
0.08423
0.08301
0.07935
0.07446
0.07202
0.06714
0.06104
0.06104
0.05493
0.05249
0.04517
0.04028
0.0354
0.03052
0.02686
0.02319
0.01953
0.01587
0.01221
0.00854
0.00122
0
-0.00488
-0.01221
-0.01221
-0.01709
-0.02075
-0.02197
-0.02319
-0.02441
-0.02441
-0.02563
-0.02441
-0.02563
-0.02686
-0.02563
-0.02686
-0.03052
-0.02441
-0.02319
-0.02563
-0.02075
-0.02075
-0.02075
-0.01831
-0.01953
-0.01953
-0.02075
-0.02319
-0.02319
-0.02563
-0.02808
-0.02808
-0.03174
-0.0354
-0.03784
-0.0415
-0.04395
-0.04639
-0.05005
-0.04517
-0.05127
-0.05615
-0.05615
-0.05981
-0.0647
-0.06836
-0.07202
-0.07813
-0.08057
-0.08423
-0.08667
-0.08789
-0.09155
-0.1001
-0.1001
-0.10498
-0.10498
-0.11108
-0.11353
-0.11475
-0.11597
-0.11841
-0.11963
-0.12085
-0.12451
-0.12695
-0.12817
-0.13306
-0.13428
-0.13672
-0.1416
-0.14038
-0.14282
-0.14038
-0.14771
-0.15015
-0.15015
-0.15259
-0.15503
-0.15381
-0.15381
-0.15137
-0.14771
-0.14282
-0.13672
-0.12817
-0.11719
-0.10864
-0.09277
-0.07813
-0.0647
-0.04639
-0.03052
-0.01343
0.00122
0.01465
0.03052
0.04272
0.05493
0.06592
0.07446
0.07935
0.08667
0.08911
0.09521
0.09155
0.09277
0.09277
0.09277
0.09033
0.09033
0.08789
0.08423
0.08301
0.07935
0.07324
0.07446
0.06958
0.0647
0.05981
0.05493
0.05127
0.04639
0.0415
0.03906
0.03296
0.02808
0.02563
0.02075
0.01465
0.01343
0.00977
0.01099
0.00366
0
-0.00244
-0.0061
-0.00977
-0.01099
-0.01221
-0.01343
-0.01343
-0.01465
-0.01465
-0.01343
-0.01343
-0.01831
-0.01221
-0.01221
-0.01343
-0.01099
-0.01221
-0.01465
-0.01343
-0.01587
-0.01831
-0.01953
-0.02197
-0.02319
-0.02441
-0.02686
-0.02808
-0.03052
-0.03418
-0.03662
-0.03906
-0.04272
-0.04395
-0.04639
-0.04517
-0.05249
-0.05493
-0.05859
-0.06104
-0.06592
-0.0708
-0.07446
-0.07813
-0.08057
-0.08301
-0.08667
-0.08789
-0.09155
-0.09644
-0.09644
-0.1001
-0.10254
-0.10498
-0.10742
-0.10498
-0.10986
-0.1123
-0.11475
-0.11719
-0.11963
-0.12329
-0.12329
-0.12451
-0.12573
-0.12695
-0.12695
-0.12817
-0.12939
-0.13428
-0.13184
-0.13428
-0.13306
-0.13794
-0.14038
-0.1416
-0.14404
-0.14648
-0.14771
-0.14893
-0.15137
-0.15259
-0.15381
-0.15381
-0.15259
-0.15015
-0.14893
-0.14282
-0.13672
-0.13184
-0.11963
-0.10864
-0.09033
-0.0769
-0.05859
-0.03906
-0.01953
0
0.01709
0.03296
0.05005
0.06592
0.08057
0.09277
0.10498
0.11475
0.11963
0.12695
0.12939
0.13306
0.13184
0.13062
0.12939
0.12817
0.12573
0.12451
0.12451
0.12329
0.12085
0.11719
0.11353
0.10986
0.1062
0.10376
0.09888
0.09521
0.09399
0.09033
0.08789
0.08667
0.08423
0.07935
0.07935
0.0769
0.07446
0.0708
0.06714
0.06836
0.06104
0.05615
0.05371
0.04639
0.04395
0.0415
0.03906
0.03662
0.0354
0.03296
0.0293
0.0293
0.02808
0.02197
0.02441
0.02197
0.02441
0.02075
0.02075
0.02075
0.02075
0.01953
0.01831
0.01587
0.01465
0.01465
0.01343
0.01099
0.00977
0.00854
0.00244
0.00244
0
0.00244
-0.00366
-0.00732
-0.01099
-0.01343
-0.01709
-0.01831
-0.02197
-0.02441
-0.02686
-0.03174
-0.0354
-0.03662
-0.04028
-0.04639
-0.04639
-0.04883
-0.05615
-0.05493
-0.05859
-0.06348
-0.06592
-0.06714
-0.0708
-0.07324
-0.07568
-0.07813
-0.08057
-0.08179
-0.08423
-0.08667
-0.08911
-0.08911
-0.09155
-0.09644
-0.09399
-0.09521
-0.09399
-0.09888
-0.10132
-0.10254
-0.10498
-0.10864
-0.11108
-0.1123
-0.11475
-0.11353
-0.11597
-0.11719
-0.11719
-0.12085
-0.12451
-0.12207
-0.12451
-0.12817
-0.12817
-0.13062
-0.13062
-0.13428
-0.13672
-0.13916
-0.14282
-0.14648
-0.14893
-0.15015
-0.15137
-0.15137
-0.15137
-0.15259
-0.15137
-0.14893
-0.14526
-0.13672
-0.12695
-0.10864
-0.09888
-0.08179
-0.0647
-0.04395
-0.02686
-0.00732
0.01221
0.0293
0.04761
0.0647
0.08057
0.09521
0.1062
0.11475
0.12207
0.12695
0.12939
0.13306
0.13306
0.13306
0.13306
0.13184
0.13062
0.12817
0.12207
0.12207
0.11963
0.11719
0.1123
0.10986
0.10742
0.10254
0.09888
0.09766
0.09399
0.09033
0.08911
0.08545
0.08179
0.08179
0.08057
0.07568
0.07324
0.06958
0.06958
0.05981
0.05493
0.05249
0.04761
0.04395
0.0415
0.03906
0.0354
0.03296
0.03174
0.02686
0.02686
0.02686
0.02441
0.02441
0.02441
0.0293
0.02197
0.02197
0.02075
0.01953
0.01953
0.02075
0.01953
0.02075
0.02197
0.02197
0.01953
0.01831
0.01709
0.01221
0.00977
0.0061
0.00854
0
-0.00244
-0.00488
-0.00854
-0.01343
-0.01709
-0.02075
-0.02319
-0.02563
-0.0293
-0.03296
-0.03418
-0.03662
-0.04272
-0.0415
-0.04639
-0.04883
-0.05127
-0.05493
-0.05859
-0.06104
-0.06226
-0.06348
-0.06714
-0.06958
-0.07202
-0.07568
-0.07935
-0.07935
-0.08179
-0.08423
-0.08179
-0.08179
-0.08423
-0.08545
-0.08789
-0.08545
-0.09033
-0.09277
-0.09277
-0.09521
-0.09766
-0.09888
-0.10132
-0.10254
-0.10498
-0.10864
-0.11108
-0.1123
-0.11475
-0.12085
-0.11719
-0.11841
-0.11841
-0.11963
-0.11963
-0.11719
-0.1123
-0.10742
-0.1001
-0.09033
-0.07935
-0.06592
-0.05249
-0.03784
-0.02197
-0.00732
0.00854
0.02686
0.0415
0.05493
0.07202
0.08545
0.09521
0.10498
0.1123
0.11597
0.12085
0.12451
0.12695
0.12695
0.12573
0.12695
0.12451
0.12207
0.11963
0.11475
0.1123
0.10864
0.10376
0.10254
0.1001
0.09277
0.08911
0.08423
0.07813
0.07568
0.0708
0.07202
0.06836
0.0647
0.06226
0.05737
0.05249
0.05005
0.04639
0.0415
0.03906
0.03418
0.03174
0.0293
0.02686
0.02441
0.02441
0.02441
0.0293
0.02319
0.02319
0.02563
0.02441
0.02441
0.02563
0.02686
0.02686
0.02686
0.02808
0.02563
0.02686
0.02686
0.02686
0.02686
0.02563
0.02686
0.02197
0.02075
0.01953
0.01587
0.01343
0.01221
0.00854
0.00488
0.00244
-0.00244
-0.00854
-0.00854
-0.01343
-0.01953
-0.01831
-0.02197
-0.02319
-0.02563
-0.02686
-0.0293
-0.03418
-0.03662
-0.03784
-0.0415
-0.04395
-0.04395
-0.04639
-0.05127
-0.05005
-0.05249
-0.05737
-0.05981
-0.0647
-0.0647
-0.07202
-0.07446
-0.07568
-0.07813
-0.08179
-0.08301
-0.08545
-0.08911
-0.09033
-0.09399
-0.09521
-0.09521
-0.09399
-0.09521
-0.09033
-0.08789
-0.07813
-0.07813
-0.06958
-0.05981
-0.04639
-0.03296
-0.01709
-0.00244
0.01343
0.0293
0.04395
0.05981
0.07446
0.08789
0.10132
0.11597
0.12573
0.13916
0.1416
0.14771
0.15015
0.15259
0.15259
0.15137
0.15137
0.14771
0.14771
0.14648
0.15015
0.14282
0.13794
0.1355
0.13184
0.12695
0.12329
0.11841
0.1123
0.10864
0.10376
0.09644
0.09644
0.09155
0.08545
0.08423
0.08057
0.0769
0.07324
0.06958
0.06836
0.0647
0.06226
0.06104
0.05737
0.05493
0.05493
0.05127
0.04761
0.04883
0.04761
0.04517
0.04639
0.04639
0.04517
0.04517
0.04639
0.04761
0.04761
0.04761
0.04883
0.04883
0.04761
0.04883
0.04639
0.04028
0.04395
0.04028
0.03906
0.03418
0.03174
0.0293
0.02563
0.02319
0.02075
0.01587
0.01221
0.00977
0.00732
0.00244
0.00122
-0.00366
-0.00854
-0.01099
-0.01465
-0.01221
-0.02197
-0.02441
-0.02686
-0.03052
-0.03296
-0.03662
-0.03906
-0.04272
-0.04517
-0.05005
-0.05249
-0.05371
-0.05615
-0.06226
-0.05859
-0.06104
-0.06226
-0.06348
-0.0647
-0.06714
-0.06714
-0.06958
-0.0708
-0.07324
-0.07446
-0.07446
-0.0769
-0.07935
-0.08179
-0.08545
-0.09033
-0.09033
-0.09277
-0.09766
-0.09644
-0.09888
-0.10132
-0.1001
-0.10132
-0.1001
-0.09888
-0.09644
-0.09033
-0.08301
-0.07568
-0.06348
-0.05127
-0.03784
-0.02075
-0.00244
0.01587
0.03662
0.05371
0.0769
0.08911
0.10498
0.12207
0.13672
0.14893
0.15869
0.16602
0.17212
0.17822
0.18066
0.17944
0.18188
0.18066
0.18066
0.17822
0.17334
0.17212
0.1709
0.16602
0.16602
0.16357
0.16235
0.15869
0.15381
0.15015
0.14526
0.1416
0.13916
0.13428
0.13062
0.13062
0.12695
0.12207
0.11963
0.11597
0.10742
0.10986
0.10498
0.10132
0.09888
0.09521
0.09277
0.09033
0.08789
0.08545
0.08179
0.07935
0.07935
0.0769
0.07568
0.07813
0.07568
0.07202
0.07568
0.07446
0.07446
0.07202
0.07202
0.0708
0.0708
0.06958
0.06958
0.06714
0.06592
0.0647
0.06104
0.05737
0.05615
0.05371
0.05005
0.05005
0.04517
0.04639
0.03906
0.0354
0.0293
0.02686
0.02441
0.02319
0.01953
0.01709
0.01465
0.01099
0.00488
0.00488
0
-0.00732
-0.00732
-0.01099
-0.01465
-0.01709
-0.02197
-0.02441
-0.02808
-0.03296
-0.03418
-0.03784
-0.04028
-0.0415
-0.04395
-0.04761
-0.04639
-0.04883
-0.05371
-0.05249
-0.05493
-0.05615
-0.05615
-0.05859
-0.06104
-0.06226
-0.0647
-0.0647
-0.06836
-0.06958
-0.0708
-0.07202
-0.07446
-0.07202
-0.07324
-0.0769
-0.0769
-0.07935
-0.08057
-0.08423
-0.08667
-0.08911
-0.09033
-0.09399
-0.09521
-0.09644
-0.09888
-0.10254
-0.10498
-0.10864
-0.10986
-0.10986
-0.10986
-0.10498
-0.1001
-0.09155
-0.08423
-0.07324
-0.05737
-0.04395
-0.0293
-0.00977
0.00854
0.02808
0.04883
0.06592
0.08179
0.09888
0.11597
0.12695
0.14282
0.15259
0.16235
0.16602
0.16846
0.17212
0.17334
0.17212
0.17334
0.17212
0.16357
0.16724
0.16357
0.16235
0.15869
0.15625
0.15381
0.15137
0.14771
0.14404
0.13916
0.1355
0.13428
0.13184
0.12573
0.12817
0.12573
0.12695
0.12207
0.11963
0.11597
0.11353
0.11108
0.10864
0.10498
0.10132
0.09888
0.09521
0.09033
0.08911
0.08423
0.07813
0.08057
0.07813
0.07446
0.0769
0.07568
0.07568
0.07568
0.07324
0.0708
0.06836
0.06592
0.0647
0.06348
0.06226
0.06104
0.05981
0.05493
0.05859
0.05615
0.05371
0.05493
0.05249
0.05127
0.04883
0.04517
0.0415
0.03662
0.03174
0.02808
0.02563
0.02197
0.01953
0.01587
0.01099
0.00977
0.00488
0.0061
-0.00244
-0.00732
-0.00732
-0.01221
-0.01587
-0.01831
-0.02197
-0.02686
-0.0293
-0.03296
-0.03784
-0.04028
-0.0415
-0.04639
-0.04639
-0.05005
-0.04517
-0.05249
-0.05493
-0.05493
-0.05737
-0.06104
-0.06104
-0.06226
-0.0647
-0.06592
-0.06714
-0.0708
-0.07324
-0.07446
-0.07935
-0.07935
-0.08057
-0.08423
-0.08179
-0.08423
-0.08545
-0.08667
-0.09033
-0.09033
-0.09399
-0.09766
-0.09766
-0.10132
-0.10376
-0.10498
-0.1062
-0.11108
-0.11108
-0.11353
-0.11719
-0.11597
-0.11597
-0.11475
-0.11108
-0.1062
-0.09888
-0.09033
-0.08057
-0.06714
-0.05249
-0.03662
-0.01709
0.00122
0.01831
0.03662
0.05371
0.06714
0.08667
0.10254
0.12085
0.12573
0.13428
0.14282
0.14771
0.15015
0.15381
0.15259
0.15015
0.15015
0.14893
0.14893
0.14404
0.14038
0.13916
0.13428
0.13062
0.12695
0.12329
0.11597
0.11108
0.10498
0.09766
0.09766
0.09399
0.09277
0.08789
0.08301
0.07935
0.07324
0.06958
0.0647
0.06104
0.05737
0.05493
0.05005
0.04883
0.04639
0.04272
0.03662
0.03784
0.03418
0.03174
0.03174
0.03174
0.0293
0.03174
0.03052
0.0293
0.02808
0.0293
0.0293
0.03174
0.03174
0.03418
0.03418
0.03174
0.03296
0.03174
0.03418
0.02686
0.02319
0.02197
0.01831
0.01465
0.01343
0.01099
0.00732
0.00366
0.00122
-0.00488
-0.00732
-0.00977
-0.01221
-0.01465
-0.01831
-0.01709
-0.02319
-0.02808
-0.03052
-0.0354
-0.04028
-0.0415
-0.04272
-0.04639
-0.04761
-0.05005
-0.05371
-0.05371
-0.05615
-0.05859
-0.05981
-0.06226
-0.05737
-0.0647
-0.06592
-0.06592
-0.06836
-0.0708
-0.07202
-0.07446
-0.0769
-0.0769
-0.07935
-0.08179
-0.08179
-0.08057
-0.08667
-0.08667
-0.08911
-0.08789
-0.09399
-0.09521
-0.09521
-0.09644
-0.09644
-0.09277
-0.09155
-0.08789
-0.08179
-0.07446
-0.06592
-0.05371
-0.0415
-0.0293
-0.00977
0.0061
0.01953
0.03662
0.05127
0.07202
0.07935
0.09399
0.10864
0.11963
0.12695
0.1355
0.14038
0.1416
0.14648
0.14771
0.15015
0.14526
0.14282
0.14282
0.13916
0.13672
0.13306
0.12939
0.12329
0.12207
0.11597
0.10986
0.10986
0.10376
0.09766
0.09399
0.08911
0.08301
0.07813
0.07202
0.06836
0.0647
0.05981
0.05615
0.05249
0.04639
0.04517
0.0415
0.0354
0.0354
0.03174
0.02808
0.02808
0.02686
0.02563
0.02563
0.02441
0.02319
0.02197
0.02197
0.02319
0.02319
0.01953
0.02563
0.02441
0.02441
0.02563
0.02441
0.02441
0.02319
0.01953
0.01953
0.01831
0.01587
0.01343
0.01221
0.00732
0.0061
0.00244
-0.00244
-0.00488
-0.00732
-0.0061
-0.01465
-0.01831
-0.01953
-0.02441
-0.02808
-0.03174
-0.03418
-0.04028
-0.0415
-0.0415
-0.04517
-0.04761
-0.05005
-0.05615
-0.05859
-0.06104
-0.05737
-0.06714
-0.06958
-0.06958
-0.07324
-0.07568
-0.0769
-0.08057
-0.08545
-0.08667
-0.08911
-0.09155
-0.09155
-0.09155
-0.09521
-0.09277
-0.09399
-0.09155
-0.09644
-0.09766
-0.09888
-0.10132
-0.10132
-0.10254
-0.10376
-0.1062
-0.10498
-0.1062
-0.10864
-0.10986
-0.11108
-0.11841
-0.11475
-0.11597
-0.11597
-0.12207
-0.12207
-0.12573
-0.12939
-0.13062
-0.13184
-0.13428
-0.13672
-0.13672
-0.13916
-0.14038
-0.13916
-0.13916
-0.14282
-0.13428
-0.12695
-0.11841
-0.1062
-0.09277
-0.07568
-0.05493
-0.0354
-0.01343
0.00732
0.02808
0.04883
0.06836
0.08911
0.1062
0.12329
0.13184
0.14771
0.15503
0.16357
0.16602
0.16724
0.16846
0.16968
0.16846
0.16846
0.16479
0.15991
0.16235
0.15869
0.15625
0.15137
0.14771
0.14526
0.1416
0.13794
0.13428
0.13184
0.12695
0.12451
0.12207
0.11597
0.11597
0.11353
0.11597
0.10986
0.1062
0.10498
0.1001
0.09521
0.09155
0.08667
0.08301
0.08057
0.07813
0.07446
0.07324
0.0708
0.0647
0.06714
0.06592
0.06714
0.06226
0.06104
0.06226
0.06104
0.05859
0.05981
0.05859
0.05615
0.05737
0.05493
0.05249
0.05493
0.05371
0.05127
0.05249
0.05005
0.05493
0.04761
0.04517
0.04395
0.0415
0.03906
0.03662
0.03296
0.02808
0.02563
0.01953
0.01221
0.00977
0.0061
0
0.00122
-0.00244
-0.0061
-0.00732
-0.01099
-0.01343
-0.01709
-0.02075
-0.02197
-0.02563
-0.0293
-0.03052
-0.03418
-0.04028
-0.03784
-0.04272
-0.04761
-0.04639
-0.05005
-0.05371
-0.05371
-0.05493
-0.05615
-0.05859
-0.06104
-0.06348
-0.06592
-0.06958
-0.06958
-0.07202
-0.0769
-0.07202
-0.07324
-0.0769
-0.07568
-0.07813
-0.08301
-0.08301
-0.08545
-0.08667
-0.08667
-0.08789
-0.08789
-0.09033
-0.09155
-0.09277
-0.09644
-0.10376
-0.10132
-0.10376
-0.1062
-0.1062
-0.10864
-0.11108
-0.11353
-0.11719
-0.12085
-0.12329
-0.12573
-0.12939
-0.13184
-0.13306
-0.13428
-0.1355
-0.13672
-0.13916
-0.14038
-0.13916
-0.13794
-0.1355
-0.12939
-0.12085
-0.10986
-0.09644
-0.08179
-0.0647
-0.04639
-0.02686
-0.0061
0.01587
0.03662
0.05371
0.07568
0.09399
0.10986
0.12329
0.13428
0.14404
0.15259
0.15747
0.16357
0.16602
0.16724
0.16724
0.16724
0.16602
0.16235
0.15869
0.15625
0.15137
0.14893
0.14648
0.1416
0.13672
0.13428
0.12817
0.12817
0.11963
0.11475
0.1123
0.10986
0.10498
0.10254
0.09888
0.09521
0.09155
0.08667
0.08301
0.08057
0.0769
0.0708
0.07202
0.06836
0.06714
0.06592
0.06104
0.05737
0.05493
0.05249
0.05127
0.05005
0.04883
0.04761
0.04639
0.04639
0.04517
0.04395
0.03906
0.04395
0.04395
0.04883
0.04517
0.04395
0.04517
0.04395
0.0415
0.04028
0.03906
0.03662
0.03296
0.03052
0.02808
0.02686
0.02441
0.02075
0.02075
0.01587
0.01221
0.01099
0.00488
0.00244
-0.00244
-0.0061
-0.00854
-0.01221
-0.01709
-0.01831
-0.02319
-0.02686
-0.02686
-0.0293
-0.03296
-0.03296
-0.03662
-0.03906
-0.0415
-0.04639
-0.04883
-0.05127
-0.05493
-0.05615
-0.05737
-0.06104
-0.06104
-0.06226
-0.06958
-0.06714
-0.06836
-0.07324
-0.07202
-0.07202
-0.07446
-0.07324
-0.07568
-0.07568
-0.07935
-0.08179
-0.08301
-0.08545
-0.08789
-0.08789
-0.09033
-0.09644
-0.09521
-0.09766
-0.10376
-0.10132
-0.10376
-0.1062
-0.1062
-0.10742
-0.10742
-0.10864
-0.10986
-0.10742
-0.1062
-0.10498
-0.09766
-0.09033
-0.08423
-0.06714
-0.05371
-0.0415
-0.02075
-0.00366
0.01587
0.03174
0.04883
0.06592
0.07935
0.09644
0.11108
0.12451
0.13306
0.14282
0.14893
0.15259
0.15381
0.15503
0.15625
0.15381
0.15137
0.15015
0.14648
0.1416
0.13916
0.13428
0.12939
0.12695
0.12085
0.11719
0.11108
0.10376
0.09766
0.09155
0.08667
0.08179
0.0769
0.0708
0.06836
0.06348
0.05859
0.05493
0.05127
0.05005
0.04517
0.0415
0.03906
0.0354
0.03174
0.03174
0.0293
0.0293
0.0293
0.03052
0.02686
0.03052
0.03052
0.03052
0.03296
0.0354
0.03784
0.04028
0.03906
0.0415
0.04028
0.03906
0.03906
0.03906
0.03662
0.03906
0.03906
0.03662
0.03418
0.03174
0.03296
0.02441
0.02197
0.01831
0.01587
0.01099
0.00977
0.00488
0
-0.00244
-0.0061
-0.01343
-0.01221
-0.01587
-0.01953
-0.02441
-0.02808
-0.0293
-0.03174
-0.03296
-0.03418
-0.03784
-0.04028
-0.0415
-0.04395
-0.04761
-0.04761
-0.05005
-0.05371
-0.05493
-0.05737
-0.05615
-0.06226
-0.06592
-0.06836
-0.0708
-0.07202
-0.07324
-0.07568
-0.07813
-0.08057
-0.08301
-0.08789
-0.08667
-0.08667
-0.09155
-0.08789
-0.08911
-0.08911
-0.08545
-0.08423
-0.07813
-0.06958
-0.05981
-0.04639
-0.03174
-0.01465
0.00366
0.02075
0.03784
0.05737
0.07324
0.08789
0.10742
0.12329
0.13916
0.15259
0.16235
0.16968
0.177
0.177
0.17822
0.17822
0.177
0.17578
0.17334
0.17212
0.16968
0.16602
0.16357
0.15991
0.15381
0.15137
0.14893
0.14282
0.13916
0.13428
0.13184
0.12695
0.12329
0.11841
0.11353
0.10986
0.1062
0.10132
0.09644
0.09399
0.08911
0.08179
0.08057
0.07568
0.06958
0.06958
0.06592
0.06104
0.05981
0.05615
0.05493
0.05249
0.04883
0.04639
0.04272
0.04028
0.03784
0.0354
0.03174
0.0354
0.03418
0.03052
0.03174
0.03052
0.02686
0.02808
0.02441
0.02563
0.02441
0.02197
0.02197
0.02075
0.01831
0.01709
0.01465
0.01099
0.01221
0.00977
0.01343
0.00732
0.0061
0.0061
0.00488
0.00244
0
-0.00244
-0.00488
-0.0061
-0.00854
-0.01099
-0.01099
-0.01343
-0.01465
-0.01709
-0.01953
-0.02075
-0.02441
-0.02686
-0.02808
-0.02808
-0.0293
-0.03052
-0.03174
-0.0354
-0.03662
-0.03784
-0.04272
-0.0415
-0.04272
-0.04639
-0.04395
-0.04517
-0.04639
-0.04639
-0.05127
-0.05371
-0.05859
-0.06226
-0.06348
-0.06714
-0.0708
-0.07202
-0.07446
-0.07935
-0.07813
-0.07935
-0.08179
-0.0769
-0.07202
-0.06836
-0.05981
-0.05127
-0.03906
-0.02686
-0.01343
0.00488
0.02319
0.0415
0.06226
0.08301
0.1001
0.11841
0.1355
0.14771
0.16602
0.17822
0.19165
0.19653
0.20386
0.20874
0.21118
0.2124
0.21484
0.21362
0.20874
0.21118
0.20996
0.20752
0.20508
0.20264
0.2002
0.19653
0.19287
0.18921
0.18311
0.17456
0.17578
0.17212
0.17212
0.16968
0.16602
0.16235
0.15869
0.15503
0.15015
0.14893
0.14404
0.1416
0.13916
0.13428
0.13306
0.12939
0.12695
0.12207
0.11963
0.11841
0.11475
0.11108
0.10986
0.10742
0.10498
0.10376
0.10254
0.1001
0.09888
0.09766
0.09277
0.09399
0.09277
0.08911
0.09155
0.09033
0.08911
0.08789
0.08423
0.08179
0.07935
0.07568
0.07446
0.07202
0.06958
0.06836
0.06592
0.05981
0.05981
0.05615
0.05249
0.05127
0.04883
0.04639
0.04395
0.04028
0.03784
0.03418
0.0293
0.02686
0.02441
0.01953
0.01709
0.01465
0.01099
0.00854
0.0061
0.00488
-0.00122
-0.00366
-0.00488
-0.00732
-0.01099
-0.01221
-0.01587
-0.02075
-0.02197
-0.02441
-0.03296
-0.03052
-0.03296
-0.0354
-0.03662
-0.03784
-0.03906
-0.0415
-0.04395
-0.04761
-0.05249
-0.05615
-0.05859
-0.06104
-0.0647
-0.06592
-0.06714
-0.07202
-0.07202
-0.07568
-0.07446
-0.07935
-0.08179
-0.08057
-0.08179
-0.08057
-0.07568
-0.06958
-0.06226
-0.05005
-0.03784
-0.02197
-0.00244
0.01709
0.0354
0.05859
0.07813
0.09399
0.11353
0.12817
0.14282
0.15503
0.16602
0.17578
0.18188
0.18677
0.19165
0.19287
0.19287
0.19409
0.19165
0.19165
0.18921
0.18555
0.18311
0.18188
0.17578
0.17456
0.16968
0.16357
0.16113
0.15625
0.15015
0.14771
0.14282
0.1416
0.13794
0.13428
0.13184
0.12817
0.12329
0.12207
0.11841
0.1123
0.11108
0.10742
0.10986
0.10132
0.09766
0.09644
0.09033
0.08789
0.08667
0.08423
0.08301
0.08301
0.08057
0.07568
0.0769
0.07446
0.0708
0.0708
0.0708
0.06958
0.06958
0.06836
0.06958
0.06836
0.06714
0.06714
0.0647
0.06348
0.0647
0.06348
0.05859
0.06226
0.05981
0.06226
0.05615
0.05249
0.04883
0.04517
0.0415
0.03784
0.03296
0.0293
0.02563
0.02075
0.01587
0.01343
0.00854
0.0061
0.00366
-0.00122
-0.00366
-0.00854
-0.01221
-0.01587
-0.01953
-0.02563
-0.02808
-0.03174
-0.03662
-0.03906
-0.0415
-0.04639
-0.04639
-0.05005
-0.05371
-0.05493
-0.05981
-0.06348
-0.0647
-0.06836
-0.06958
-0.0708
-0.07324
-0.07568
-0.07813
-0.08057
-0.08301
-0.08423
-0.08789
-0.08545
-0.08545
-0.08423
-0.08057
-0.0769
-0.06836
-0.05737
-0.04639
-0.03174
-0.01709
-0.00244
0.01465
0.03052
0.04517
0.06104
0.07446
0.08911
0.1062
0.11963
0.12817
0.14282
0.14893
0.15869
0.16113
0.16235
0.16357
0.16357
0.16113
0.16235
0.16113
0.15747
0.15869
0.15625
0.15381
0.15015
0.14648
0.14282
0.13672
0.13062
0.12817
0.12329
0.11353
0.11475
0.10986
0.1062
0.10254
0.09644
0.09155
0.08789
0.08301
0.08057
0.07446
0.0708
0.06592
0.06226
0.05737
0.05493
0.05249
0.05249
0.05249
0.05371
0.05737
0.05493
0.05493
0.05493
0.05493
0.05615
0.05615
0.05737
0.05615
0.05615
0.05615
0.05249
0.05249
0.05005
0.04395
0.04517
0.0415
0.03906
0.03662
0.03296
0.0293
0.0293
0.02441
0.02075
0.01831
0.01343
0.00977
0.00732
0.00244
0
-0.0061
-0.0061
-0.01343
-0.01709
-0.01953
-0.02319
-0.02808
-0.03174
-0.0354
-0.03906
-0.04028
-0.04272
-0.04883
-0.04761
-0.05005
-0.05493
-0.05615
-0.05859
-0.06104
-0.06348
-0.06714
-0.06958
-0.07324
-0.0769
-0.07935
-0.08301
-0.08789
-0.08911
-0.08911
-0.09521
-0.09155
-0.09155
-0.08667
-0.08789
-0.08545
-0.07935
-0.07324
-0.0647
-0.05249
-0.03906
-0.02563
-0.00732
0.00854
0.02441
0.04272
0.05859
0.0708
0.08911
0.10498
0.12085
0.13306
0.1416
0.14893
0.15625
0.15869
0.16235
0.16357
0.16235
0.16479
0.16357
0.16846
0.16235
0.15869
0.15747
0.15381
0.15015
0.14771
0.14526
0.13916
0.13916
0.13306
0.12695
0.12451
0.12085
0.11719
0.11475
0.11108
0.10986
0.10498
0.10254
0.09888
0.09399
0.08911
0.08545
0.08179
0.07324
0.07324
0.06958
0.06958
0.06592
0.06348
0.06348
0.05981
0.05737
0.05615
0.05493
0.05249
0.05249
0.05371
0.05249
0.05371
0.05493
0.05249
0.05127
0.05127
0.04883
0.04761
0.04639
0.04639
0.04517
0.04272
0.04272
0.03906
0.03418
0.03174
0.02563
0.01831
0.01709
0.01343
0.01587
0.00732
0.00366
0
-0.00488
-0.00854
-0.01221
-0.01709
-0.02075
-0.02319
-0.02563
-0.03296
-0.03296
-0.03662
-0.04272
-0.04272
-0.04639
-0.05127
-0.05493
-0.05859
-0.06104
-0.06348
-0.06714
-0.06836
-0.07202
-0.0769
-0.07813
-0.08179
-0.08545
-0.08423
-0.08545
-0.08789
-0.08789
-0.09155
-0.09399
-0.09521
-0.09644
-0.09888
-0.09888
-0.1001
-0.09888
-0.10254
-0.10376
-0.1062
-0.10986
-0.11719
-0.11597
-0.12085
-0.12085
-0.12451
-0.12573
-0.12695
-0.12817
-0.12939
-0.12939
-0.12817
-0.12451
-0.12207
-0.11475
-0.10742
-0.09521
-0.08179
-0.06714
-0.04761
-0.03052
-0.01343
0.00977
0.02808
0.04883
0.06714
0.08667
0.10498
0.12207
0.1355
0.14771
0.15625
0.15991
0.16724
0.17212
0.17578
0.177
0.177
0.177
0.17578
0.17334
0.17212
0.16968
0.16235
0.16113
0.15747
0.15259
0.14893
0.14526
0.1416
0.13672
0.13306
0.13062
0.12695
0.12329
0.12329
0.11963
0.11597
0.11597
0.1123
0.11475
0.1062
0.10254
0.09888
0.09399
0.09033
0.08667
0.08545
0.08301
0.07935
0.07568
0.07202
0.0708
0.06714
0.0647
0.0647
0.06104
0.06104
0.05981
0.05737
0.05615
0.05371
0.05127
0.05127
0.05127
0.05005
0.05127
0.05127
0.04639
0.04761
0.04395
0.04272
0.03662
0.03296
0.03174
0.02686
0.02441
0.02197
0.01831
0.01343
0.00977
0.0061
0
-0.00366
-0.0061
-0.01099
-0.01099
-0.01465
-0.01831
-0.02197
-0.02686
-0.02808
-0.03174
-0.03784
-0.04028
-0.04272
-0.04639
-0.04883
-0.05127
-0.05859
-0.06104
-0.0647
-0.06348
-0.0708
-0.07324
-0.07324
-0.07568
-0.07935
-0.07935
-0.08301
-0.08545
-0.08789
-0.09155
-0.09521
-0.09521
-0.09766
-0.10132
-0.1001
-0.10132
-0.10498
-0.10498
-0.10742
-0.10864
-0.11108
-0.1123
-0.11108
-0.11475
-0.11719
-0.11597
-0.11963
-0.12573
-0.12451
-0.12817
-0.12939
-0.13428
-0.13672
-0.13916
-0.1416
-0.14526
-0.14648
-0.15015
-0.15137
-0.15137
-0.15381
-0.15381
-0.15137
-0.14648
-0.14038
-0.13184
-0.12329
-0.10742
-0.09644
-0.08057
-0.06348
-0.04395
-0.02563
-0.0061
0.01221
0.03052
0.04883
0.0647
0.07813
0.09399
0.10376
0.11353
0.12207
0.12695
0.13062
0.13306
0.13184
0.13062
0.12939
0.12695
0.12451
0.12207
0.12329
0.11841
0.11597
0.11475
0.10986
0.1062
0.10376
0.1001
0.09399
0.09155
0.08789
0.08057
0.08179
0.08057
0.07813
0.07202
0.06836
0.06592
0.05981
0.05737
0.05493
0.05127
0.04761
0.04517
0.0415
0.03662
0.0354
0.03174
0.02808
0.02686
0.02441
0.02563
0.02197
0.01953
0.01709
0.01343
0.01221
0.01099
0.00854
0.0061
0.00854
0.00732
0.00244
0.00732
0.00488
0.00977
0.00244
0
-0.00488
-0.0061
-0.00854
-0.01099
-0.01343
-0.01587
-0.01831
-0.02197
-0.02808
-0.02808
-0.03296
-0.03662
-0.03662
-0.0415
-0.04395
-0.04639
-0.05127
-0.05371
-0.05859
-0.06226
-0.06592
-0.06836
-0.07324
-0.07446
-0.07813
-0.08301
-0.08301
-0.08667
-0.08423
-0.09155
-0.09521
-0.09521
-0.09766
-0.1001
-0.10132
-0.10132
-0.10498
-0.10742
-0.10864
-0.1123
-0.11353
-0.11597
-0.11841
-0.11963
-0.12329
-0.12451
-0.12817
-0.13184
-0.13428
-0.13672
-0.14038
-0.1416
-0.14404
-0.14771
-0.14893
-0.15137
-0.15869
-0.15625
-0.15869
-0.16113
-0.16235
-0.16479
-0.16479
-0.16602
-0.16724
-0.16602
-0.16602
-0.16357
-0.15869
-0.15381
-0.14648
-0.13428
-0.12085
-0.11108
-0.09277
-0.07568
-0.06226
-0.04272
-0.02686
-0.01099
0.00488
0.02075
0.03662
0.05005
0.06104
0.0708
0.07568
0.07813
0.08301
0.08423
0.08301
0.08545
0.08423
0.08301
0.08057
0.0769
0.07446
0.06958
0.0647
0.06104
0.05615
0.05493
0.05005
0.04517
0.04028
0.0354
0.0293
0.02563
0.01953
0.01343
0.01099
0.00732
0.00244
0.00122
-0.00366
-0.00732
-0.00977
-0.01465
-0.01709
-0.02075
-0.02441
-0.02441
-0.02563
-0.02808
-0.02563
-0.02563
-0.03174
-0.02808
-0.02808
-0.02686
-0.02808
-0.02808
-0.02563
-0.02563
-0.02441
-0.02197
-0.02197
-0.02319
-0.02319
-0.02319
-0.02563
-0.02441
-0.02563
-0.03174
-0.0293
-0.03174
-0.03418
-0.03906
-0.04395
-0.04761
-0.05127
-0.05371
-0.05615
-0.05737
-0.06226
-0.06348
-0.06836
-0.07324
-0.07446
-0.0769
-0.08301
-0.08179
-0.08545
-0.08423
-0.09033
-0.09399
-0.09521
-0.1001
-0.10254
-0.10376
-0.1062
-0.10742
-0.10986
-0.1123
-0.11597
-0.11597
-0.11841
-0.12085
-0.12329
-0.12573
-0.12939
-0.12939
-0.13062
-0.13184
-0.13428
-0.13672
-0.13916
-0.1416
-0.14526
-0.14404
-0.14648
-0.15015
-0.14404
-0.14282
-0.13794
-0.13306
-0.12695
-0.11963
-0.10864
-0.09644
-0.08423
-0.06836
-0.05249
-0.03662
-0.02197
-0.0061
0.00854
0.02319
0.03296
0.05005
0.06104
0.07324
0.07935
0.08423
0.08911
0.09277
0.09277
0.09399
0.09277
0.08911
0.09033
0.08911
0.08667
0.08301
0.07935
0.0769
0.0708
0.06714
0.06348
0.05737
0.04761
0.04761
0.04272
0.0354
0.0354
0.03174
0.02686
0.02319
0.01709
0.01343
0.00854
0.00488
0.00122
-0.00244
-0.00732
-0.00732
-0.01099
-0.01587
-0.01587
-0.01831
-0.01465
-0.01953
-0.02075
-0.01953
-0.02075
-0.02075
-0.02197
-0.02197
-0.02197
-0.02075
-0.02197
-0.02197
-0.01831
-0.01831
-0.02319
-0.01709
-0.01831
-0.01953
-0.02075
-0.02319
-0.02441
-0.02563
-0.02808
-0.0293
-0.03296
-0.0354
-0.03906
-0.04272
-0.04639
-0.04883
-0.05371
-0.05981
-0.05859
-0.06104
-0.0647
-0.06592
-0.0708
-0.07446
-0.07568
-0.08057
-0.08179
-0.08301
-0.08667
-0.08667
-0.09033
-0.09155
-0.09277
-0.09521
-0.10132
-0.09888
-0.10254
-0.10498
-0.10498
-0.10742
-0.10986
-0.11108
-0.11353
-0.11475
-0.11719
-0.11841
-0.12085
-0.12207
-0.12451
-0.12451
-0.12573
-0.13062
-0.13062
-0.13428
-0.13062
-0.13672
-0.13794
-0.13672
-0.13794
-0.13794
-0.1355
-0.13306
-0.13062
-0.12451
-0.11597
-0.10742
-0.09399
-0.08057
-0.06714
-0.04761
-0.03052
-0.01343
0.00854
0.02319
0.03906
0.05615
0.0708
0.08667
0.09888
0.10742
0.11597
0.12207
0.12329
0.12695
0.12695
0.12573
0.12573
0.12451
0.12451
0.12207
0.11963
0.11841
0.11475
0.10986
0.10986
0.1062
0.10254
0.1001
0.09644
0.09399
0.09155
0.08789
0.08789
0.08301
0.07813
0.07446
0.0708
0.06714
0.06592
0.06226
0.06348
0.05615
0.05127
0.04883
0.04517
0.0415
0.03906
0.0354
0.0354
0.03418
0.03174
0.02686
0.02686
0.02563
0.02441
0.02319
0.02197
0.02319
0.02319
0.02319
0.02319
0.02197
0.01953
0.01831
0.01587
0.01343
0.01465
0.01343
0.00977
0.01221
0.00977
0.00977
0.00732
0.00488
0.00244
0
-0.00488
-0.0061
-0.00854
-0.01465
-0.01709
-0.01953
-0.02563
-0.02686
-0.03052
-0.03418
-0.03784
-0.04028
-0.0415
-0.04395
-0.04761
-0.05005
-0.05371
-0.05859
-0.05859
-0.06226
-0.06836
-0.06592
-0.06714
-0.06836
-0.07202
-0.07446
-0.07446
-0.07813
-0.08057
-0.08057
-0.08301
-0.08423
-0.08423
-0.08667
-0.09033
-0.09033
-0.09155
-0.09521
-0.09644
-0.1001
-0.1001
-0.10498
-0.10742
-0.10864
-0.11108
-0.11475
-0.11719
-0.12085
-0.12329
-0.12329
-0.12573
-0.12939
-0.12451
-0.12207
-0.12085
-0.1123
-0.10864
-0.1001
-0.08667
-0.07324
-0.05737
-0.0415
-0.02319
-0.0061
0.01099
0.02808
0.04517
0.05981
0.07446
0.09033
0.10254
0.11841
0.12085
0.12695
0.13062
0.13306
0.13184
0.13184
0.13062
0.12573
0.12573
0.12207
0.12695
0.11963
0.11719
0.11597
0.1123
0.10742
0.10498
0.1001
0.09399
0.09155
0.08911
0.08423
0.08301
0.08057
0.08301
0.07446
0.0708
0.06958
0.0647
0.06104
0.05859
0.05493
0.05005
0.04639
0.0415
0.03662
0.0354
0.03296
0.0293
0.02808
0.02686
0.02686
0.02441
0.02197
0.02075
0.01953
0.01709
0.01831
0.01587
0.01587
0.01587
0.01587
0.01099
0.01465
0.01343
0.00977
0.01099
0.00854
0.00854
