-0.28931
-0.31372
-0.32593
-0.33936
-0.35522
-0.36743
-0.3833
-0.39307
-0.40649
-0.42114
-0.42969
-0.44678
-0.45654
-0.46875
-0.48218
-0.49072
-0.50537
-0.5127
-0.52246
-0.53467
-0.54077
-0.55542
-0.56274
-0.57129
-0.58105
-0.58716
-0.59814
-0.60059
-0.60181
-0.59814
-0.58472
-0.56641
-0.53589
-0.49805
-0.45288
-0.39185
-0.33569
-0.26489
-0.19409
-0.11963
-0.03784
0.03418
0.10986
0.18311
0.24658
0.31738
0.37231
0.42603
0.46997
0.50903
0.54443
0.56885
0.5896
0.60791
0.61523
0.625
0.625
0.6311
0.62256
0.61523
0.60913
0.59082
0.5835
0.56885
0.55298
0.53711
0.52002
0.50171
0.4834
0.46021
0.44189
0.41748
0.39673
0.37598
0.35278
0.33447
0.3125
0.29541
0.27588
0.25635
0.24536
0.22705
0.21484
0.20142
0.18921
0.18188
0.1709
0.16357
0.15381
0.14893
0.14648
0.13794
0.13306
0.13062
0.12451
0.12085
0.1123
0.11353
0.10254
0.09399
0.09033
0.07813
0.07202
0.06348
0.05127
0.04395
0.03174
0.01953
0.0061
-0.00854
-0.02319
-0.03662
-0.05005
-0.06592
-0.08301
-0.09521
-0.1123
-0.12573
-0.14282
-0.16235
-0.17212
-0.19165
-0.20752
-0.22339
-0.24048
-0.25391
-0.271
-0.28564
-0.30273
-0.31738
-0.32959
-0.3479
-0.36133
-0.37354
-0.3894
-0.40161
-0.41626
-0.42236
-0.43945
-0.4541
-0.46265
-0.47974
-0.48706
-0.49927
-0.51025
-0.52124
-0.53467
-0.54199
-0.5542
-0.56641
-0.57617
-0.58472
-0.59204
-0.59937
-0.60669
-0.60303
-0.60181
-0.58838
-0.56763
-0.54077
-0.49683
-0.45288
-0.39795
-0.33813
-0.26978
-0.19531
-0.12207
-0.04272
0.03296
0.10742
0.18311
0.25024
0.31372
0.3772
0.42847
0.47607
0.51392
0.55054
0.57739
0.59814
0.6189
0.62744
0.63721
0.63965
0.63843
0.63477
0.6311
0.62622
0.61401
0.59692
0.59082
0.57129
0.55664
0.53833
0.52124
0.50415
0.4834
0.46509
0.44434
0.42358
0.40527
0.37964
0.36011
0.3418
0.32227
0.3064
0.28809
0.27588
0.26123
0.24658
0.23682
0.21973
0.21118
0.2002
0.19043
0.18555
0.17456
0.17456
0.16846
0.16235
0.15869
0.15137
0.14648
0.14038
0.13184
0.13062
0.12207
0.11597
0.10864
0.09766
0.09155
0.07813
0.06958
0.05737
0.04883
0.03418
0.01953
0.00732
-0.00977
-0.02319
-0.03418
-0.05371
-0.06714
-0.08057
-0.09888
-0.1123
-0.12939
-0.14526
-0.15869
-0.17578
-0.18799
-0.20752
-0.22217
-0.23682
-0.25269
-0.26611
-0.28809
-0.29663
-0.3125
-0.32837
-0.34058
-0.35522
-0.36987
-0.3833
-0.39795
-0.41016
-0.4248
-0.43579
-0.448
-0.46265
-0.46875
-0.4834
-0.49316
-0.50659
-0.51758
-0.5249
-0.53711
-0.54443
-0.55298
-0.55908
-0.5542
-0.55054
-0.53345
-0.51025
-0.47729
-0.43213
-0.3833
-0.32227
-0.25513
-0.18433
-0.10742
-0.0354
0.03906
0.11719
0.18921
0.26001
0.32227
0.38696
0.43945
0.48706
0.53101
0.56396
0.59448
0.61768
0.63354
0.65308
0.65674
0.66406
0.66406
0.66162
0.6604
0.65063
0.64453
0.63232
0.62012
0.60913
0.59082
0.57495
0.55908
0.53955
0.5249
0.50171
0.48096
0.46509
0.44434
0.42603
0.40283
0.38208
0.36133
0.34058
0.32349
0.29785
0.28564
0.26855
0.25269
0.23804
0.22095
0.21118
0.19775
0.18433
0.17456
0.16602
0.15869
0.15137
0.14282
0.14038
0.13062
0.12573
0.11597
0.1062
0.10132
0.08911
0.08179
0.0708
0.06226
0.05249
0.04028
0.03052
0.01343
0.00366
-0.0061
-0.02319
-0.03662
-0.05005
-0.06592
-0.07813
-0.09521
-0.10986
-0.12695
-0.14404
-0.15747
-0.17944
-0.19287
-0.20996
-0.22827
-0.2417
-0.25635
-0.27588
-0.29541
-0.31372
-0.32959
-0.34668
-0.36133
-0.3772
-0.39307
-0.39917
-0.4187
-0.43213
-0.44556
-0.46265
-0.47241
-0.49072
-0.50293
-0.51758
-0.53101
-0.53955
-0.55298
-0.56152
-0.57617
-0.58472
-0.59326
-0.60547
-0.61523
-0.62744
-0.63477
-0.63965
-0.64575
-0.64453
-0.63599
-0.62256
-0.59448
-0.56396
-0.51758
-0.46753
-0.40771
-0.33691
-0.26611
-0.18433
-0.10498
-0.02686
0.05493
0.13184
0.20752
0.2771
0.34058
0.40771
0.45288
0.50049
0.53833
0.56641
0.59937
0.61646
0.63477
0.64453
0.65186
0.65674
0.6543
0.65063
0.64209
0.63232
0.625
0.60913
0.5957
0.58472
0.56763
0.55298
0.53345
0.5188
0.49805
0.47729
0.45898
0.43213
0.41626
0.39551
0.37231
0.354
0.33203
0.3125
0.29053
0.271
0.25513
0.23804
0.22339
0.20752
0.19287
0.18433
0.16968
0.16235
0.15015
0.13916
0.13428
0.12207
0.11597
0.1062
0.09888
0.09277
0.08179
0.0769
0.0708
0.05737
0.04883
0.03662
0.02686
0.01587
0.00488
-0.0061
-0.02075
-0.02563
-0.04517
-0.05981
-0.0708
-0.09033
-0.10254
-0.11719
-0.13428
-0.14893
-0.16113
-0.18066
-0.19897
-0.21729
-0.23071
-0.24902
-0.26367
-0.2832
-0.30029
-0.3125
-0.33447
-0.34912
-0.36621
-0.38574
-0.39673
-0.41504
-0.42847
-0.44678
-0.46265
-0.47363
-0.49072
-0.50171
-0.52124
-0.53101
-0.54077
-0.55664
-0.56763
-0.57983
-0.59204
-0.60181
-0.61523
-0.62378
-0.63599
-0.64697
-0.6543
-0.66772
-0.67261
-0.68359
-0.69458
-0.70068
-0.71411
-0.71655
-0.72388
-0.72632
-0.71777
-0.70435
-0.67749
-0.64331
-0.59814
-0.54077
-0.48462
-0.41626
-0.34302
-0.26489
-0.17822
-0.09766
-0.01221
0.06958
0.14526
0.22705
0.29419
0.35889
0.41138
0.46265
0.50903
0.54199
0.57373
0.59814
0.61523
0.6311
0.63721
0.64941
0.64331
0.63965
0.63721
0.62744
0.62134
0.60913
0.5957
0.58228
0.56396
0.55054
0.53223
0.5127
0.49561
0.47607
0.45776
0.43701
0.41504
0.39673
0.37231
0.35156
0.32837
0.31006
0.29175
0.271
0.25513
0.23682
0.22461
0.21362
0.19897
0.18921
0.18311
0.16724
0.15869
0.14648
0.13794
0.13184
0.12329
0.11841
0.10864
0.10498
0.09399
0.08545
0.07935
0.06592
0.06104
0.05127
0.03906
0.03052
0.01709
0.00977
-0.00488
-0.01831
-0.03174
-0.04272
-0.05493
-0.0708
-0.08667
-0.1001
-0.11597
-0.13062
-0.14893
-0.16968
-0.17944
-0.19897
-0.21362
-0.23315
-0.24902
-0.26489
-0.28564
-0.30029
-0.31982
-0.33691
-0.35156
-0.37109
-0.38574
-0.40161
-0.41748
-0.43213
-0.44922
-0.46509
-0.47729
-0.49194
-0.50293
-0.52124
-0.52979
-0.54443
-0.55786
-0.56885
-0.57739
-0.59204
-0.60425
-0.61768
-0.62866
-0.63965
-0.64697
-0.65674
-0.66772
-0.67505
-0.68726
-0.6958
-0.70679
-0.71899
-0.72144
-0.72876
-0.72754
-0.7251
-0.71289
-0.68726
-0.65674
-0.61279
-0.56763
-0.50659
-0.44067
-0.37109
-0.29175
-0.21118
-0.12695
-0.0415
0.03906
0.11963
0.19775
0.26978
0.33691
0.39185
0.448
0.49316
0.53223
0.56641
0.59204
0.61646
0.62866
0.63721
0.64941
0.64575
0.64697
0.64209
0.63354
0.6311
0.61768
0.60791
0.58838
0.57251
0.5542
0.53223
0.51392
0.4895
0.47119
0.45288
0.42847
0.40771
0.38452
0.36133
0.33936
0.3125
0.29785
0.27222
0.25391
0.23682
0.21729
0.2063
0.19043
0.17578
0.16724
0.15869
0.14648
0.13428
0.12451
0.11475
0.10498
0.09888
0.09033
0.08057
0.08057
0.06836
0.0647
0.05493
0.04395
0.03906
0.02686
0.02075
0.00854
-0.00366
-0.01221
-0.02686
-0.03784
-0.05493
-0.0647
-0.07813
-0.09399
-0.1062
-0.12451
-0.14038
-0.15503
-0.17578
-0.19287
-0.20874
-0.22583
-0.24048
-0.26123
-0.27466
-0.29297
-0.31128
-0.32715
-0.34912
-0.36133
-0.38086
-0.39795
-0.41504
-0.43335
-0.448
-0.46753
-0.4834
-0.49683
-0.51514
-0.52734
-0.54321
-0.55786
-0.56885
-0.58472
-0.59448
-0.61035
-0.62378
-0.63232
-0.64575
-0.6543
-0.66772
-0.67871
-0.68848
-0.7019
-0.71045
-0.7251
-0.7312
-0.73853
-0.75073
-0.75684
-0.76538
-0.77393
-0.78125
-0.79102
-0.78613
-0.79346
-0.78491
-0.76416
-0.73853
-0.69092
-0.63843
-0.57739
-0.50781
-0.43457
-0.36133
-0.2832
-0.2002
-0.11108
-0.02686
0.06348
0.14282
0.21973
0.29053
0.35278
0.41138
0.45654
0.49561
0.53589
0.56396
0.5896
0.60303
0.6189
0.62744
0.62866
0.62988
0.625
0.61646
0.60913
0.59326
0.58228
0.56396
0.54688
0.52734
0.50537
0.48828
0.46387
0.43945
0.41748
0.39185
0.37109
0.34424
0.32104
0.29785
0.27344
0.25513
0.23071
0.21118
0.19653
0.17578
0.16357
0.14771
0.1355
0.12695
0.11353
0.10742
0.09644
0.09399
0.08667
0.07935
0.07813
0.0708
0.06958
0.06836
0.06104
0.05981
0.05737
0.04639
0.0415
0.03052
0.02563
0.01709
0.00977
0.00122
-0.01221
-0.01953
-0.03296
-0.04639
-0.05859
-0.07935
-0.08667
-0.10376
-0.11963
-0.13306
-0.15015
-0.16235
-0.18066
-0.19897
-0.21851
-0.23315
-0.25024
-0.26978
-0.28687
-0.30273
-0.32349
-0.33936
-0.36011
-0.37964
-0.39307
-0.4126
-0.4248
-0.44312
-0.4541
-0.46753
-0.4834
-0.49438
-0.50903
-0.52246
-0.53345
-0.5481
-0.55786
-0.57129
-0.58228
-0.59326
-0.60547
-0.61523
-0.62622
-0.63599
-0.64331
-0.6543
-0.65918
-0.67017
-0.68115
-0.68848
-0.70068
-0.70313
-0.71289
-0.71655
-0.71411
-0.70801
-0.69214
-0.66895
-0.63354
-0.57739
-0.52612
-0.45776
-0.3894
-0.31738
-0.23438
-0.15503
-0.06836
0.01587
0.1062
0.18555
0.26123
0.33691
0.39917
0.46021
0.51392
0.55542
0.5957
0.62866
0.6543
0.67627
0.68848
0.70313
0.70679
0.70923
0.71045
0.70435
0.70557
0.69336
0.68237
0.66895
0.65186
0.63721
0.61768
0.59814
0.5835
0.55908
0.53955
0.51514
0.49072
0.47119
0.44556
0.4248
0.39917
0.3772
0.35767
0.33447
0.3186
0.29541
0.28442
0.27222
0.25635
0.24536
0.23071
0.22095
0.21362
0.20142
0.19287
0.18799
0.18188
0.17822
0.16968
0.16602
0.15991
0.15259
0.14893
0.1355
0.13672
0.12695
0.11841
0.10986
0.09888
0.09277
0.07935
0.06592
0.05127
0.03906
0.02686
0.00977
-0.0061
-0.01831
-0.0354
-0.04883
-0.06836
-0.09033
-0.1001
-0.12085
-0.1355
-0.15747
-0.17578
-0.19165
-0.2124
-0.22949
-0.25391
-0.26978
-0.28564
-0.3064
-0.32227
-0.3418
-0.35767
-0.37231
-0.39063
-0.40649
-0.41992
-0.43579
-0.44678
-0.46387
-0.47485
-0.4895
-0.50171
-0.51392
-0.53101
-0.53833
-0.55298
-0.56641
-0.57617
-0.5896
-0.59937
-0.61157
-0.62134
-0.6311
-0.64087
-0.64819
-0.65918
-0.66895
-0.67261
-0.67993
-0.67505
-0.66772
-0.64819
-0.61401
-0.57251
-0.51514
-0.45532
-0.38452
-0.31006
-0.23682
-0.15259
-0.07568
0.01709
0.10498
0.18799
0.26978
0.34424
0.4126
0.47729
0.52979
0.5835
0.625
0.6604
0.69214
0.71411
0.73608
0.74829
0.75684
0.76416
0.76416
0.7666
0.7605
0.75317
0.74707
0.73242
0.72266
0.70557
0.68726
0.67627
0.65674
0.64087
0.61768
0.59937
0.57983
0.55542
0.53467
0.50781
0.48828
0.46875
0.44434
0.42603
0.40649
0.38696
0.37109
0.35278
0.33813
0.32471
0.3125
0.30151
0.28809
0.2832
0.271
0.26367
0.25757
0.2478
0.24414
0.2356
0.22949
0.22339
0.21729
0.21362
0.20508
0.19775
0.19043
0.18188
0.17578
0.16235
0.15137
0.14404
0.12939
0.12085
0.10498
0.09033
0.07935
0.06226
0.05005
0.03052
0.01587
0.00244
-0.01831
-0.03296
-0.05371
-0.06958
-0.08545
-0.10498
-0.11963
-0.14038
-0.15625
-0.17334
-0.19531
-0.2124
-0.22827
-0.24414
-0.26001
-0.27832
-0.29297
-0.31006
-0.32593
-0.33936
-0.36133
-0.36865
-0.38452
-0.39795
-0.41016
-0.4248
-0.43213
-0.44678
-0.46021
-0.47485
-0.48584
-0.49561
-0.50781
-0.51758
-0.5249
-0.53467
-0.53955
-0.55298
-0.56396
-0.56885
-0.57983
-0.58716
-0.5957
-0.59692
-0.59204
-0.58472
-0.56274
-0.53711
-0.49438
-0.44067
-0.38574
-0.31982
-0.25024
-0.17822
-0.09888
-0.02075
0.06348
0.14404
0.22705
0.30518
0.37598
0.44434
0.50049
0.55298
0.60059
0.63721
0.67505
0.70313
0.72632
0.74341
0.75806
0.77026
0.77393
0.77515
0.77637
0.77026
0.7666
0.75562
0.75073
0.73608
0.72021
0.70679
0.68848
0.67505
0.65796
0.63721
0.6189
0.60059
0.57617
0.55664
0.53467
0.51514
0.49561
0.47485
0.45776
0.43701
0.42358
0.40405
0.38818
0.37598
0.36011
0.35156
0.33691
0.32837
0.3186
0.30396
0.30029
0.28931
0.28076
0.27588
0.26611
0.26245
0.25391
0.24902
0.24048
0.23315
0.22827
0.21484
0.20508
0.19897
0.18555
0.17822
0.16357
0.15259
0.14282
0.12817
0.11719
0.1001
0.08667
0.07446
0.05615
0.04395
0.02686
0.01343
0.00122
-0.01709
-0.02808
-0.04517
-0.06226
-0.07568
-0.09399
-0.10742
-0.12451
-0.13916
-0.15259
-0.1709
-0.18311
-0.20264
-0.21729
-0.23071
-0.24902
-0.25879
-0.27344
-0.28687
-0.29907
-0.31128
-0.32104
-0.33691
-0.34912
-0.36133
-0.36987
-0.37842
-0.39185
-0.40161
-0.41016
-0.42358
-0.43091
-0.44312
-0.45532
-0.45776
-0.46875
-0.47607
-0.48706
-0.49316
-0.49927
-0.50781
-0.50903
-0.51392
-0.50537
-0.4895
-0.46997
-0.43579
-0.39673
-0.3479
-0.28931
-0.22827
-0.15869
-0.08423
-0.01099
0.06592
0.13672
0.21118
0.28076
0.3479
0.41138
0.46143
0.5188
0.55908
0.59692
0.62988
0.6543
0.67993
0.69458
0.70557
0.71655
0.71777
0.72266
0.71655
0.71045
0.70801
0.69702
0.6897
0.67261
0.65918
0.64331
0.62256
0.60547
0.5896
0.57007
0.5603
0.54688
0.53711
0.52246
0.49927
0.47119
0.43579
0.41504
0.3833
0.36499
0.35522
0.34302
0.34058
0.32959
0.31616
0.29907
0.28076
0.25635
0.23193
0.21729
0.20874
0.2063
0.21118
0.20874
0.20752
0.20508
0.2002
0.19531
0.18433
0.17456
0.16968
0.16235
0.15991
0.15259
0.14526
0.14282
0.12939
0.11719
0.09766
0.08057
0.06348
0.04272
0.02808
0.01099
-0.00244
-0.01343
-0.02686
-0.0354
-0.04883
-0.06348
-0.0769
-0.09521
-0.10742
-0.12329
-0.13794
-0.15137
-0.16846
-0.17822
-0.19775
-0.2124
-0.22705
-0.2478
-0.25391
-0.26855
-0.28076
-0.29053
-0.3064
-0.31372
-0.32837
-0.33936
-0.35278
-0.36133
-0.37109
-0.38574
-0.39917
-0.41138
-0.4248
-0.43213
-0.44678
-0.45898
-0.46265
-0.47363
-0.47729
-0.48584
-0.4895
-0.49438
-0.50293
-0.50659
-0.51758
-0.5188
-0.51758
-0.51636
-0.50171
-0.48096
-0.45654
-0.41748
-0.37354
-0.3186
-0.26001
-0.19409
-0.12329
-0.05737
0.01465
0.08789
0.15991
0.23071
0.29419
0.36011
0.4126
0.46143
0.50659
0.54321
0.57617
0.59937
0.6189
0.63232
0.64453
0.65186
0.65063
0.64697
0.64575
0.63599
0.62866
0.61523
0.60547
0.59204
0.57373
0.55908
0.53711
0.52002
0.50293
0.48096
0.46265
0.44067
0.4187
0.39795
0.37598
0.354
0.33447
0.31494
0.29785
0.2771
0.26367
0.2478
0.23438
0.22217
0.2063
0.20142
0.18799
0.17822
0.16846
0.15625
0.15137
0.1416
0.13672
0.12817
0.12695
0.12451
0.11841
0.11108
0.10864
0.10132
0.09888
0.09033
0.08301
0.07935
0.06836
0.06104
0.04639
0.03662
0.02563
0.01221
0.00244
-0.01465
-0.02319
-0.03418
-0.04761
-0.05737
-0.07202
-0.08667
-0.09888
-0.11475
-0.12695
-0.14038
-0.15381
-0.16724
-0.18433
-0.19043
-0.21118
-0.22583
-0.23804
-0.25879
-0.26611
-0.28198
-0.29419
-0.3064
-0.31738
-0.32959
-0.34424
-0.35522
-0.36743
-0.37842
-0.38696
-0.40039
-0.41138
-0.41748
-0.43091
-0.43701
-0.45044
-0.46143
-0.46631
-0.47607
-0.48096
-0.4895
-0.49072
-0.49927
-0.50781
-0.5127
-0.52246
-0.52612
-0.52856
-0.52979
-0.5188
-0.49927
-0.48096
-0.44434
-0.40283
-0.34668
-0.28809
-0.22339
-0.15259
-0.08545
-0.01221
0.06348
0.1355
0.20874
0.27344
0.34302
0.39917
0.45166
0.50171
0.54199
0.58105
0.60913
0.63477
0.6543
0.66772
0.67993
0.68237
0.68237
0.68359
0.67505
0.67017
0.65674
0.64697
0.63477
0.61646
0.60181
0.57861
0.56274
0.54688
0.5249
0.50903
0.48828
0.46875
0.448
0.42603
0.40649
0.38818
0.36987
0.354
0.33447
0.31982
0.30396
0.28931
0.2771
0.25879
0.25391
0.23926
0.22827
0.22095
0.21118
0.2063
0.19897
0.19409
0.18799
0.18433
0.18188
0.17456
0.16846
0.16602
0.15869
0.15625
0.14648
0.13672
0.13306
0.12329
0.11719
0.10376
0.09399
0.08423
0.06958
0.05981
0.04395
0.03418
0.02441
0.00732
-0.00244
-0.01465
-0.03174
-0.04272
-0.06104
-0.07446
-0.08667
-0.10132
-0.11353
-0.12939
-0.1355
-0.15625
-0.1709
-0.18311
-0.20142
-0.20874
-0.22461
-0.23682
-0.24902
-0.25757
-0.27222
-0.28564
-0.29785
-0.30884
-0.32104
-0.32959
-0.3418
-0.354
-0.35645
-0.37476
-0.38208
-0.39429
-0.40527
-0.40894
-0.4187
-0.42358
-0.43457
-0.43701
-0.44434
-0.45044
-0.44922
-0.45044
-0.44067
-0.42358
-0.40161
-0.36499
-0.32227
-0.27222
-0.21362
-0.15259
-0.08423
-0.01709
0.05249
0.12573
0.19409
0.26489
0.33447
0.39917
0.46021
0.50903
0.56274
0.60303
0.63965
0.67139
0.69458
0.71533
0.72754
0.7373
0.74951
0.74463
0.74463
0.73608
0.72632
0.72266
0.70923
0.69824
0.67993
0.6665
0.65063
0.6311
0.61646
0.59692
0.57861
0.56396
0.54077
0.52368
0.50415
0.4834
0.46265
0.44067
0.42236
0.40283
0.3833
0.36743
0.3479
0.33447
0.31738
0.30273
0.28931
0.26978
0.26611
0.25269
0.24292
0.2356
0.22583
0.21973
0.20996
0.20264
0.19409
0.18799
0.18188
0.17212
0.16235
0.16113
0.14404
0.13794
0.12573
0.11353
0.1062
0.09155
0.08179
0.06592
0.05615
0.04272
0.02686
0.01587
-0.00244
-0.01343
-0.02808
-0.04639
-0.05981
-0.08179
-0.09521
-0.10864
-0.12817
-0.14038
-0.15747
-0.17334
-0.18555
-0.20386
-0.21729
-0.23193
-0.24658
-0.25879
-0.27588
-0.28564
-0.30151
-0.31616
-0.33081
-0.3479
-0.35645
-0.37109
-0.38452
-0.39429
-0.40649
-0.41382
-0.4248
-0.43579
-0.44312
-0.4541
-0.46021
-0.47241
-0.48218
-0.48584
-0.49683
-0.50293
-0.5127
-0.52002
-0.5249
-0.53101
-0.52979
-0.52856
-0.51636
-0.49561
-0.46875
-0.42603
-0.38208
-0.32349
-0.26001
-0.19531
-0.12329
-0.05005
0.02319
0.10132
0.17456
0.24902
0.32104
0.38696
0.45044
0.50415
0.55664
0.59448
0.6311
0.66162
0.67993
0.70557
0.71533
0.72388
0.72754
0.72754
0.72632
0.71899
0.70679
0.69946
0.68359
0.67261
0.6543
0.63721
0.62134
0.60181
0.58716
0.56396
0.54565
0.52612
0.50293
0.48462
0.46021
0.43945
0.4187
0.39673
0.3772
0.35645
0.33569
0.31982
0.29907
0.28198
0.26855
0.25513
0.24292
0.22827
0.21973
0.20752
0.19653
0.18799
0.17334
0.16968
0.15869
0.15015
0.14404
0.1355
0.12817
0.11475
0.10498
0.09644
0.08545
0.07813
0.06592
0.05493
0.05127
0.03174
0.02197
0.00732
-0.00732
-0.01709
-0.0354
-0.04639
-0.06348
-0.08179
-0.09155
-0.10864
-0.12207
-0.1416
-0.15625
-0.1709
-0.18921
-0.20142
-0.21973
-0.23438
-0.24902
-0.26733
-0.28198
-0.29785
-0.31372
-0.32837
-0.34546
-0.36011
-0.37354
-0.38696
-0.39917
-0.41382
-0.42358
-0.43823
-0.45044
-0.45898
-0.47729
-0.48096
-0.49316
-0.50415
-0.51392
-0.52734
-0.53345
-0.54565
-0.5542
-0.56519
-0.57251
-0.57983
-0.5896
-0.60059
-0.60669
-0.61523
-0.61646
-0.6189
-0.61523
-0.59692
-0.57617
-0.54199
-0.50415
-0.45288
-0.39429
-0.33447
-0.26611
-0.20142
-0.12817
-0.05371
0.01831
0.09521
0.16602
0.23438
0.30029
0.35645
0.41138
0.45532
0.49438
0.52979
0.55176
0.57739
0.58838
0.59814
0.60425
0.60181
0.60181
0.59204
0.57983
0.56885
0.5542
0.54077
0.52124
0.50293
0.48706
0.46509
0.44678
0.42236
0.40039
0.38208
0.35645
0.33569
0.31006
0.28931
0.26611
0.24292
0.22339
0.19775
0.18188
0.16357
0.14282
0.13062
0.11353
0.10376
0.09277
0.08057
0.06958
0.06226
0.05249
0.04395
0.03174
0.02563
0.01587
0.00854
0.00244
-0.00854
-0.01221
-0.02197
-0.0293
-0.0354
-0.0415
-0.05127
-0.06104
-0.06958
-0.0769
-0.08667
-0.09399
-0.10986
-0.12207
-0.13428
-0.15015
-0.16235
-0.17822
-0.19409
-0.2063
-0.22461
-0.23804
-0.25757
-0.27222
-0.28442
-0.30273
-0.31494
-0.33203
-0.34424
-0.35889
-0.37598
-0.3894
-0.40771
-0.42236
-0.43457
-0.45288
-0.46387
-0.47852
-0.49194
-0.50293
-0.51758
-0.52979
-0.53955
-0.55298
-0.56274
-0.57617
-0.58472
-0.59448
-0.60303
-0.60913
-0.62378
-0.62378
-0.63599
-0.64575
-0.65186
-0.66406
-0.66772
-0.67505
-0.68237
-0.68848
-0.69458
-0.69702
-0.70435
-0.70801
-0.7019
-0.69946
-0.68237
-0.65918
-0.62744
-0.57739
-0.5249
-0.46143
-0.39673
-0.31982
-0.24658
-0.17334
-0.09766
-0.02563
0.05005
0.12329
0.18921
0.25513
0.31006
0.36255
0.40894
0.44312
0.47607
0.50049
0.5188
0.53467
0.53955
0.5481
0.54688
0.54077
0.53589
0.5249
0.51392
0.49927
0.4834
0.46875
0.448
0.43213
0.41138
0.39185
0.37476
0.35156
0.33203
0.30884
0.2832
0.26733
0.24292
0.22583
0.20386
0.18433
0.16968
0.14893
0.13672
0.11597
0.10864
0.09766
0.08423
0.07568
0.0647
0.05615
0.05127
0.0415
0.0354
0.03174
0.02563
0.02319
0.01587
0.01587
0.00854
0.00488
0.00244
-0.00854
-0.00854
-0.01587
-0.02319
-0.0293
-0.03662
-0.04517
-0.05615
-0.06714
-0.0769
-0.08789
-0.09644
-0.10986
-0.12207
-0.12695
-0.14648
-0.15869
-0.17334
-0.18921
-0.19897
-0.21606
-0.22827
-0.24414
-0.26123
-0.26855
-0.28564
-0.29785
-0.31494
-0.32715
-0.33936
-0.35522
-0.36621
-0.38208
-0.39429
-0.40283
-0.41504
-0.42358
-0.43335
-0.44434
-0.45288
-0.46631
-0.47485
-0.48584
-0.49683
-0.50415
-0.51636
-0.52124
-0.53101
-0.53955
-0.54565
-0.5603
-0.55908
-0.56885
-0.57251
-0.57373
-0.57129
-0.55664
-0.53955
-0.51147
-0.47363
-0.42847
-0.37231
-0.31616
-0.25269
-0.17944
-0.11719
-0.04272
0.02686
0.09766
0.17334
0.24048
0.30762
0.36499
0.41626
0.46265
0.49927
0.53345
0.55786
0.57861
0.5957
0.60181
0.61035
0.61157
0.60913
0.60547
0.59692
0.58716
0.57617
0.56274
0.55054
0.52856
0.5188
0.49927
0.47974
0.46265
0.44067
0.4248
0.40405
0.3833
0.36377
0.34424
0.32715
0.3064
0.28687
0.27344
0.25024
0.2356
0.21606
0.2002
0.18921
0.17334
0.16357
0.14893
0.14282
0.12695
0.11475
0.10742
0.09521
0.09033
0.08423
0.07568
0.07324
0.06592
0.06104
0.05737
0.04883
0.04395
0.0354
0.02686
0.02197
0.00854
-0.00366
-0.01099
-0.02197
-0.03174
-0.04639
-0.05615
-0.07202
-0.08667
-0.09766
-0.11475
-0.12451
-0.13916
-0.15381
-0.16479
-0.17944
-0.19287
-0.20874
-0.22339
-0.23682
-0.25269
-0.26611
-0.28076
-0.29663
-0.30762
-0.32471
-0.33569
-0.35156
-0.36865
-0.37354
-0.38818
-0.39795
-0.41016
-0.42236
-0.43213
-0.44678
-0.45776
-0.47241
-0.4834
-0.49072
-0.50537
-0.51147
-0.51636
-0.53101
-0.53711
-0.5481
-0.55542
-0.5603
-0.56519
-0.5603
-0.55786
-0.53467
-0.51514
-0.48218
-0.43701
-0.3894
-0.32837
-0.26855
-0.20386
-0.13184
-0.0647
0.01343
0.08545
0.15747
0.22949
0.29541
0.36011
0.41382
0.46143
0.50781
0.54321
0.57495
0.59814
0.61279
0.6311
0.63721
0.64087
0.63843
0.63599
0.63232
0.62134
0.61157
0.60059
0.58716
0.57495
0.55542
0.53833
0.52368
0.50537
0.49072
0.46875
0.45044
0.43213
0.41138
0.39307
0.36743
0.35034
0.32837
0.30762
0.29053
0.27222
0.25269
0.2356
0.21729
0.20264
0.18799
0.17578
0.16235
0.14893
0.14404
0.12939
0.12085
0.11108
0.10132
0.09766
0.08789
0.08423
0.07568
0.0647
0.0647
0.05371
0.04517
0.03662
0.02808
0.02075
0.00854
0
-0.01221
-0.02319
-0.03174
-0.04761
-0.05859
-0.07202
-0.08667
-0.09766
-0.11475
-0.13184
-0.14282
-0.15869
-0.16968
-0.18799
-0.20264
-0.21606
-0.23193
-0.24414
-0.26367
-0.27344
-0.28931
-0.30396
-0.3125
-0.32593
-0.33813
-0.35156
-0.36499
-0.3772
-0.38818
-0.39795
-0.41138
-0.42358
-0.42603
-0.44556
-0.45532
-0.46631
-0.47852
-0.4834
-0.49561
-0.50293
-0.51392
-0.5249
-0.52856
-0.53955
-0.54443
-0.55054
-0.55176
-0.54688
-0.54077
-0.52246
-0.49683
-0.46021
-0.4126
-0.36377
-0.30396
-0.2417
-0.17578
-0.10254
-0.03296
0.04028
0.11353
0.18555
0.25879
0.32104
0.38574
0.44067
0.4895
0.53223
0.56152
0.5957
0.61401
0.6311
0.64453
0.64941
0.65308
0.65186
0.64575
0.63965
0.62866
0.61768
0.60303
0.58838
0.57495
0.55542
0.53955
0.52124
0.50171
0.48462
0.46265
0.44312
0.41748
0.39917
0.38086
0.35767
0.33691
0.31738
0.29419
0.27588
0.25513
0.23804
0.22339
0.2063
0.19287
0.177
0.16602
0.15259
0.13916
0.13062
0.11841
0.1123
0.10376
0.09399
0.08911
0.07568
0.07202
0.0647
0.05493
0.05005
0.0415
0.0354
0.02441
0.01343
0.00488
-0.0061
-0.01587
-0.02686
-0.04272
-0.05127
-0.0647
-0.07568
-0.09033
-0.10864
-0.11719
-0.13428
-0.14893
-0.16357
-0.17578
-0.19409
-0.2124
-0.22461
-0.2417
-0.25635
-0.26855
-0.28809
-0.30273
-0.31982
-0.33447
-0.34668
-0.36499
-0.3772
-0.39063
-0.40405
-0.41382
-0.42969
-0.43945
-0.45044
-0.46265
-0.47241
-0.48706
-0.49561
-0.50781
-0.52002
-0.52856
-0.54688
-0.55054
-0.5603
-0.57129
-0.57861
-0.58594
-0.59448
-0.60059
-0.60669
-0.60425
-0.59692
-0.57861
-0.55054
-0.51636
-0.46265
-0.41382
-0.35156
-0.28687
-0.22095
-0.14526
-0.0769
-0.00244
0.07324
0.14282
0.21973
0.28198
0.34546
0.39795
0.44922
0.49316
0.52368
0.55298
0.57739
0.59082
0.60425
0.60791
0.60669
0.60669
0.59937
0.59204
0.57739
0.56763
0.55298
0.53467
0.52002
0.50537
0.48462
0.46509
0.44312
0.4248
0.40283
0.3833
0.36133
0.33691
0.31372
0.29175
0.27222
0.25024
0.22705
0.2124
0.19043
0.17578
0.16113
0.14404
0.1355
0.11963
0.10986
0.09766
0.08667
0.08057
0.06958
0.06348
0.05249
0.05005
0.04639
0.03784
0.03296
0.03174
0.02197
0.01831
0.00854
0.00244
-0.00366
-0.01221
-0.01953
-0.03174
-0.04272
-0.05005
-0.06226
-0.07202
-0.08667
-0.09766
-0.11108
-0.12573
-0.13672
-0.15381
-0.16602
-0.18066
-0.19653
-0.20752
-0.22583
-0.23682
-0.25146
-0.26733
-0.28198
-0.29541
-0.30762
-0.32349
-0.33936
-0.34424
-0.36621
-0.37842
-0.39307
-0.40771
-0.41626
-0.43091
-0.44067
-0.45166
-0.46631
-0.46997
-0.4834
-0.49316
-0.50293
-0.5127
-0.52002
-0.53223
-0.54077
-0.55054
-0.55908
-0.5603
-0.56396
-0.55664
-0.54199
-0.51758
-0.48096
-0.43945
-0.3894
-0.32715
-0.26367
-0.19287
-0.12573
-0.04883
0.02197
0.09277
0.16602
0.23193
0.29785
0.35645
0.40771
0.45654
0.49561
0.53101
0.55908
0.57983
0.59692
0.60791
0.61401
0.61523
0.61157
0.61035
0.59814
0.58838
0.57495
0.55786
0.54443
0.5249
0.50781
0.48584
0.46753
0.45166
0.42725
0.40771
0.39307
0.36621
0.34546
0.32349
0.30273
0.28442
0.26123
0.24414
0.22095
0.20264
0.18921
0.17212
0.15991
0.14526
0.13672
0.12573
0.11475
0.10986
0.09644
0.09521
0.08911
0.08301
0.07935
0.07202
0.06958
0.06348
0.05615
0.05005
0.04272
0.03662
0.0293
0.02075
0.01953
0.00366
-0.00366
-0.01465
-0.02808
-0.03418
-0.05005
-0.06226
-0.07446
-0.09155
-0.1001
-0.11597
-0.12939
-0.14404
-0.15991
-0.1709
-0.18921
-0.20386
-0.21851
-0.23193
-0.24414
-0.26001
-0.27222
-0.28442
-0.29907
-0.30884
-0.32349
-0.33691
-0.34424
-0.35889
-0.36865
-0.3833
-0.39429
-0.40771
-0.42236
-0.43335
-0.45166
-0.45898
-0.46631
-0.47607
-0.4834
-0.48706
-0.49805
-0.50537
-0.51147
-0.50781
-0.50171
-0.48462
-0.45776
-0.42236
-0.3772
-0.32471
-0.26245
-0.19775
-0.13306
-0.05859
0.00732
0.08057
0.15259
0.21973
0.28931
0.35034
0.40649
0.45654
0.50049
0.53955
0.56396
0.58838
0.60791
0.61401
0.62256
0.62134
0.61768
0.61768
0.60913
0.60181
0.58838
0.57861
0.56396
0.54688
0.53101
0.50903
0.49316
0.47241
0.45044
0.43213
0.40771
0.38574
0.36255
0.33691
0.31372
0.29419
0.27466
0.25513
0.23438
0.22095
0.2002
0.18433
0.16968
0.15259
0.14282
0.12817
0.11841
0.10498
0.09521
0.08789
0.07568
0.06714
0.05981
0.05249
0.04761
0.03906
0.03418
0.02563
0.02197
0.01953
0.0061
-0.00244
-0.00977
-0.02319
-0.03296
-0.04517
-0.05737
-0.06592
-0.08179
-0.09155
-0.10986
-0.12329
-0.13428
-0.14893
-0.15991
-0.17822
-0.18677
-0.20142
-0.21729
-0.22949
-0.24048
-0.25879
-0.27222
-0.28809
-0.30029
-0.31494
-0.32715
-0.34058
-0.35645
-0.36987
-0.38208
-0.39429
-0.40527
-0.42114
-0.42847
-0.44312
-0.45532
-0.46753
-0.48096
-0.48706
-0.50171
-0.51025
-0.52002
-0.53345
-0.53955
-0.54932
-0.5542
-0.55664
-0.54688
-0.52734
-0.50537
-0.47119
-0.4248
-0.3772
-0.3186
-0.25757
-0.19043
-0.11963
-0.05127
0.02563
0.09399
0.16846
0.23926
0.30273
0.36377
0.4126
0.46387
0.50415
0.53589
0.56763
0.58716
0.60425
0.61768
0.62012
0.62134
0.62134
0.61768
0.61035
0.59692
0.59082
0.57495
0.5603
0.54565
0.53345
0.51147
0.49194
0.47363
0.45288
0.43213
0.41382
0.3894
0.36743
0.34424
0.32349
0.30273
0.27954
0.25879
0.24048
0.22095
0.2063
0.18677
0.16968
0.15747
0.1416
0.13184
0.11963
0.10986
0.10132
0.09155
0.08545
0.0708
0.06836
0.06104
0.05249
0.04639
0.03906
0.03052
0.02075
0.00977
0.00122
-0.01221
-0.02075
-0.0293
-0.04272
-0.04639
-0.06348
-0.07446
-0.08667
-0.10132
-0.10864
-0.12573
-0.13916
-0.15137
-0.16846
-0.17822
-0.19287
-0.20752
-0.22095
-0.23438
-0.24536
-0.26245
-0.2771
-0.29175
-0.30396
-0.31616
-0.32959
-0.3418
-0.35522
-0.36865
-0.3772
-0.39063
-0.40283
-0.41138
-0.4248
-0.43457
-0.448
-0.4541
-0.46753
-0.48096
-0.48828
-0.50171
-0.50903
-0.51636
-0.52734
-0.53467
-0.54077
-0.5481
-0.55298
-0.55786
-0.55298
-0.54443
-0.52734
-0.49927
-0.46387
-0.4187
-0.36377
-0.30273
-0.23682
-0.16846
-0.09033
-0.02075
0.05493
0.12939
0.19775
0.27466
0.33813
0.39917
0.45166
0.49683
0.53833
0.56641
0.59082
0.61523
0.62134
0.63232
0.63354
0.6311
0.63354
0.625
0.6189
0.60425
0.59326
0.58228
0.56396
0.54932
0.53101
0.51514
0.49805
0.47607
0.4541
0.4248
0.40039
0.38086
0.36621
0.35645
0.3479
0.33203
0.3064
0.27222
0.2417
0.20874
0.18555
0.16846
0.15259
0.15259
0.14893
0.14648
0.1416
0.13306
0.11841
0.09644
0.07935
0.0647
0.05493
0.05249
0.05005
0.05005
0.05249
0.04517
0.03906
0.02441
0.00854
-0.0061
-0.02319
-0.0354
-0.04761
-0.05737
-0.0647
-0.07568
-0.08301
-0.09644
-0.1062
-0.12085
-0.14038
-0.15991
-0.18433
-0.20264
-0.21851
-0.23438
-0.24292
-0.25757
-0.26733
-0.27832
-0.29541
-0.31128
-0.32715
-0.34424
-0.36133
-0.37964
-0.38574
-0.40405
-0.41504
-0.42358
-0.43945
-0.44678
-0.46143
-0.47485
-0.48706
-0.50659
-0.51147
-0.5249
-0.53223
-0.53589
-0.54199
-0.54565
-0.55298
-0.55908
-0.56519
-0.57373
-0.57983
-0.59326
-0.60303
-0.60669
-0.61401
-0.61157
-0.61035
-0.60303
-0.57861
-0.5542
-0.51514
-0.47241
-0.4187
-0.35645
-0.29297
-0.22095
-0.14893
-0.07202
0.00488
0.07935
0.15625
0.23193
0.29663
0.36133
0.41626
0.46509
0.51025
0.54443
0.57251
0.59204
0.61157
0.61646
0.62134
0.62256
0.61401
0.61279
0.60059
0.5896
0.57495
0.55908
0.54688
0.52612
0.50781
0.49072
0.46997
0.45288
0.43091
0.41016
0.39185
0.36987
0.35156
0.32715
0.3064
0.28931
0.26855
0.25146
0.23071
0.21362
0.19775
0.17944
0.16724
0.14893
0.13916
0.13062
0.12085
0.11475
0.11108
0.10132
0.09644
0.08911
0.08545
0.07813
0.0708
0.06592
0.05615
0.05127
0.04517
0.03906
0.0293
0.02075
0.01587
0.00244
-0.00854
-0.01831
-0.03662
-0.04395
-0.05859
-0.07202
-0.08545
-0.10132
-0.11353
-0.13062
-0.14648
-0.15991
-0.17456
-0.18677
-0.20264
-0.21729
-0.23193
-0.24536
-0.25635
-0.27344
-0.28687
-0.29663
-0.3125
-0.32349
-0.33813
-0.34912
-0.35767
-0.36987
-0.3772
-0.39185
-0.40283
-0.41016
-0.42358
-0.43213
-0.44556
-0.45288
-0.46143
-0.47241
-0.47974
-0.48828
-0.50049
-0.50781
-0.5188
-0.52368
-0.53223
-0.53955
-0.54321
-0.5481
-0.54321
-0.53589
-0.51636
-0.48706
-0.45288
-0.40283
-0.35156
-0.29053
-0.22461
-0.15991
-0.07813
-0.00488
0.07446
0.15381
0.23071
0.30518
0.37109
0.43457
0.48706
0.53833
0.5835
0.61523
0.64209
0.66772
0.68115
0.6958
0.69946
0.7019
0.69946
0.69092
0.68604
0.67139
0.6604
0.64941
0.6311
0.61768
0.60181
0.5835
0.56763
0.5481
0.53101
0.51147
0.49072
0.46997
0.44556
0.42358
0.40283
0.38208
0.35889
0.33691
0.32349
0.30151
0.28564
0.26978
0.2478
0.2417
0.22583
0.21606
0.2063
0.19531
0.19043
0.17822
0.1709
0.16357
0.15625
0.15137
0.14282
0.13428
0.12573
0.11841
0.11353
0.10132
0.09277
0.08789
0.07446
0.06714
0.05371
0.0415
0.03052
0.01465
0.00244
-0.01465
-0.03174
-0.04395
-0.06104
-0.07446
-0.09277
-0.10498
-0.12085
-0.13916
-0.15381
-0.177
-0.19165
-0.20752
-0.22705
-0.24048
-0.25635
-0.27222
-0.28809
-0.30518
-0.31982
-0.33203
-0.34424
-0.35522
-0.36987
-0.37598
-0.39063
-0.40283
-0.4126
-0.42725
-0.43213
-0.44434
-0.4541
-0.46265
-0.47974
-0.4834
-0.49683
-0.50659
-0.51514
-0.5249
-0.52856
-0.53955
-0.54443
-0.55054
-0.54932
-0.54077
-0.53101
-0.51025
-0.47729
-0.43823
-0.38574
-0.33203
-0.26855
-0.19653
-0.12573
-0.04761
0.02563
0.10132
0.18188
0.25635
0.33081
0.39429
0.45654
0.5127
0.55786
0.60059
0.63599
0.6604
0.68115
0.69336
0.70557
0.70923
0.71045
0.71167
0.70435
0.70068
0.6897
0.67749
0.6665
0.65063
0.63843
0.61768
0.60059
0.58472
0.56519
0.54932
0.52734
0.50659
0.48218
0.46387
0.44434
0.4187
0.39673
0.38208
0.354
0.33691
0.31494
0.29663
0.2832
0.26489
0.25146
0.23438
0.21851
0.20874
0.19531
0.18555
0.17212
0.16357
0.15381
0.14282
0.13672
0.12085
0.11841
0.1123
0.10132
0.09399
0.08789
0.07446
0.0647
0.05249
0.04272
0.03174
0.01953
0.00732
-0.00854
-0.02075
-0.03662
-0.04883
-0.06226
-0.07935
-0.09033
-0.10864
-0.12451
-0.13916
-0.16113
-0.17212
-0.19043
-0.20752
-0.22217
-0.23438
-0.25146
-0.271
-0.28687
-0.30151
-0.3186
-0.33081
-0.3479
-0.36377
-0.37598
-0.39185
-0.40283
-0.4187
-0.43213
-0.44312
-0.45776
-0.46509
-0.47852
-0.49072
-0.49805
-0.51147
-0.5188
-0.53223
-0.54199
-0.5481
-0.56152
-0.56641
-0.57739
-0.5835
-0.59082
-0.60059
-0.60547
-0.61768
-0.62134
-0.62256
-0.62378
-0.61523
-0.60303
-0.57861
-0.54321
-0.50293
-0.44922
-0.3894
-0.32227
-0.24658
-0.17334
-0.09277
-0.00977
0.07202
0.15381
0.23193
0.31372
0.38208
0.44556
0.50537
0.55786
0.59814
0.62988
0.65796
0.67749
0.6958
0.70923
0.71167
0.71167
0.71289
0.70313
0.6958
0.68237
0.66772
0.65796
0.64087
0.62744
0.60669
0.5896
0.57251
0.55176
0.53345
0.50781
0.49072
0.46997
0.44556
0.42603
0.40161
0.37842
0.35889
0.33569
0.31738
0.29785
0.27954
0.26367
0.24536
0.22949
0.21606
0.20386
0.19287
0.17944
0.17456
0.16235
0.15259
0.14526
0.13062
0.12939
0.11963
0.1123
0.1062
0.10132
0.09033
0.07935
0.06958
0.05981
0.04761
0.03784
0.02563
0.01099
0.00122
-0.01465
-0.02563
-0.04395
-0.05859
-0.07202
-0.09033
-0.10498
-0.12329
-0.1416
-0.15259
-0.17212
-0.18433
-0.20264
-0.21484
-0.23193
-0.24902
-0.26123
-0.28076
-0.29541
-0.31006
-0.32959
-0.34302
-0.36133
-0.37354
-0.38818
-0.40771
-0.4187
-0.43823
-0.45044
-0.46143
-0.47729
-0.48706
-0.49805
-0.50903
-0.51758
-0.53101
-0.53711
-0.55176
-0.5603
-0.56885
-0.57983
-0.58472
-0.5957
-0.60303
-0.61157
-0.625
-0.62744
-0.63721
-0.64575
-0.65063
-0.65918
-0.65796
-0.65552
-0.64697
-0.62866
-0.60059
-0.56152
-0.51636
-0.46021
-0.39551
-0.32349
-0.24292
-0.16479
-0.08301
0.00244
0.08423
0.16846
0.24536
0.3186
0.39063
0.45044
0.50659
0.55176
0.59204
0.62622
0.64941
0.67139
0.68726
0.69092
0.6958
0.69092
0.68726
0.67871
0.66772
0.65674
0.64087
0.62988
0.60913
0.59204
0.57495
0.55054
0.53589
0.51392
0.49194
0.47119
0.45166
0.42725
0.40161
0.37842
0.35645
0.33447
0.31494
0.29053
0.26978
0.25024
0.23193
0.21851
0.2002
0.18555
0.17578
0.16113
0.15259
0.13916
0.12695
0.12329
0.11353
0.10742
0.09644
0.09277
0.08179
0.0708
0.0647
0.05371
0.04517
0.03906
0.02686
0.02075
0.00488
-0.00488
-0.01465
-0.03174
-0.0415
-0.05615
-0.0708
-0.08423
-0.10132
-0.11597
-0.13306
-0.15015
-0.16602
-0.18555
-0.19287
-0.21606
-0.23193
-0.24658
-0.26611
-0.27832
-0.29907
-0.31616
-0.33203
-0.35156
-0.36499
-0.38208
-0.39795
-0.41382
-0.43213
-0.44434
-0.46143
-0.47852
-0.49194
-0.50537
-0.51514
-0.52979
-0.54199
-0.54688
-0.56519
-0.57251
-0.58594
-0.59937
-0.60669
-0.6189
-0.62744
-0.63843
-0.65063
-0.65308
-0.66284
-0.66895
-0.67993
-0.68604
-0.69214
-0.70313
-0.70923
-0.71899
-0.72021
-0.72021
-0.71777
-0.7019
-0.68359
-0.65063
-0.60425
-0.5542
-0.49194
-0.4187
-0.3418
-0.26001
-0.17822
-0.09399
-0.00854
0.07446
0.15747
0.23193
0.30762
0.37231
0.43091
0.48462
0.52612
0.56396
0.59082
0.61157
0.62988
0.63843
0.64453
0.64209
0.63843
0.63477
0.62134
0.61157
0.5957
0.5835
0.56519
0.54321
0.5249
0.50171
0.48218
0.46265
0.43945
0.4187
0.39185
0.36743
0.34668
0.3186
0.29785
0.27344
0.25391
0.2356
0.2124
0.19653
0.17822
0.16235
0.15015
0.1355
0.12207
0.11353
0.10498
0.09888
0.08911
0.08667
0.07813
0.07202
0.06958
0.05737
0.05981
0.05371
0.04639
0.04517
0.0415
0.03296
0.02319
0.01587
0.00854
-0.00244
-0.00977
-0.02197
-0.03418
-0.04639
-0.05981
-0.07202
-0.08789
-0.10376
-0.11475
-0.13428
-0.14893
-0.16846
-0.18799
-0.19897
-0.21729
-0.23315
-0.25146
-0.26245
-0.28198
-0.30151
-0.31494
-0.33325
-0.34912
-0.36255
-0.37964
-0.39185
-0.41016
-0.42114
-0.43213
-0.448
-0.45776
-0.47119
-0.48218
-0.49194
-0.50537
-0.51514
-0.5249
-0.53589
-0.54443
-0.55664
-0.56519
-0.57251
-0.58105
-0.58716
-0.59937
-0.60547
-0.61768
-0.625
-0.62622
-0.62988
-0.61401
-0.59814
-0.57129
-0.53223
-0.4834
-0.42358
-0.36011
-0.28687
-0.2063
-0.12451
-0.03906
0.04272
0.12573
0.20752
0.28442
0.36011
0.4248
0.4834
0.54077
0.5835
0.62378
0.65308
0.67993
0.69824
0.70923
0.71899
0.71533
0.71899
0.71655
0.70557
0.69702
0.68481
0.67017
0.65674
0.63721
0.61768
0.59937
0.57739
0.55908
0.53467
0.51392
0.49072
0.46387
0.44189
0.4126
0.39307
0.36743
0.34424
0.32471
0.29785
0.28198
0.26123
0.24414
0.22949
0.21484
0.20264
0.18799
0.177
0.16602
0.15991
0.15381
0.14648
0.13916
0.13916
0.13184
0.12939
0.12329
0.11597
0.11353
0.10376
0.1001
0.09155
0.07935
0.0769
0.0647
0.05737
0.04395
0.03296
0.02075
0.00366
-0.00977
-0.03052
-0.0415
-0.05615
-0.07446
-0.08911
-0.10376
-0.12451
-0.13916
-0.15991
-0.17578
-0.19409
-0.2124
-0.22827
-0.25024
-0.26733
-0.28442
-0.30273
-0.3186
-0.33813
-0.35034
-0.36743
-0.38208
-0.39551
-0.41626
-0.42358
-0.43945
-0.4541
-0.46509
-0.47729
-0.49194
-0.50537
-0.51636
-0.52734
-0.53833
-0.54688
-0.56152
-0.57373
-0.58228
-0.59326
-0.59937
-0.60425
-0.60181
-0.58716
-0.56885
-0.53589
-0.49561
-0.448
-0.37964
-0.3125
-0.23315
-0.15381
-0.06714
0.01831
0.1001
0.18677
0.26611
0.34546
0.42236
0.48462
0.54565
0.59937
0.64331
0.68237
0.71045
0.73364
0.75439
0.76416
0.77271
0.77026
0.77393
0.7666
0.75806
0.74829
0.72876
0.71777
0.69702
0.67749
0.65918
0.63721
0.6189
0.59814
0.57617
0.55176
0.52979
0.50903
0.48218
0.45532
0.44067
0.40771
0.38574
0.36133
0.33691
0.31982
0.29663
0.28076
0.26245
0.24536
0.2356
0.22095
0.20996
0.19653
0.18677
0.17944
0.16846
0.16235
0.14893
0.14404
0.13916
0.12939
0.12329
0.11841
0.10498
0.09888
0.08667
0.07813
0.06836
0.05615
0.04761
0.03174
0.02197
0.00732
-0.0061
-0.01953
-0.03662
-0.05005
-0.06836
-0.08667
-0.10132
-0.12451
-0.13428
-0.15259
-0.16968
-0.18677
-0.20142
-0.22217
-0.2417
-0.26123
-0.2771
-0.29663
-0.31006
-0.32715
-0.34546
-0.35889
-0.3772
-0.39063
-0.41016
-0.42725
-0.44067
-0.45654
-0.46875
-0.4834
-0.49805
-0.50781
-0.52368
-0.53467
-0.54932
-0.55908
-0.57007
-0.58472
-0.59448
-0.60669
-0.61523
-0.62012
-0.62622
-0.62134
-0.61157
-0.59082
-0.55786
-0.51514
-0.45776
-0.39429
-0.32104
-0.23926
-0.15869
-0.06958
0.01709
0.10254
0.19043
0.26978
0.35522
0.42236
0.48828
0.54932
0.5957
0.64575
0.68115
0.70923
0.73364
0.74707
0.7605
0.76538
0.7666
0.76538
0.75684
0.75073
0.7373
0.72266
0.71167
0.68848
0.67261
0.65063
0.62744
0.61035
0.58594
0.56641
0.53955
0.51636
0.49438
0.46631
0.44312
0.41626
0.39307
0.36987
0.34424
0.32349
0.29785
0.27832
0.26489
0.24414
0.23071
0.21484
0.20142
0.19043
0.17578
0.16602
0.15869
0.14893
0.14404
0.13306
0.13062
0.12207
0.11353
0.10864
0.09888
0.09521
0.08545
0.07568
0.06836
0.05127
0.04639
0.03296
0.02075
0.00854
-0.00366
-0.01709
-0.03296
-0.04761
-0.06104
-0.07813
-0.09155
-0.10864
-0.12817
-0.14404
-0.16235
-0.17822
-0.19775
-0.21362
-0.22949
-0.2478
-0.26245
-0.28076
-0.29907
-0.31128
-0.33081
-0.34668
-0.36621
-0.38574
-0.39673
-0.41504
-0.42969
-0.44556
-0.45898
-0.47241
-0.4895
-0.50171
-0.52002
-0.53101
-0.54199
-0.55786
-0.56885
-0.57373
-0.59204
-0.60059
-0.61401
-0.62622
-0.63843
-0.65186
-0.65796
-0.66406
-0.6604
-0.64819
-0.62866
-0.59204
-0.55054
-0.49561
-0.43091
-0.35889
-0.2771
-0.19897
-0.10864
-0.02075
0.06958
0.16113
0.24536
0.33081
0.40527
0.47485
0.53955
0.59448
0.64697
0.68726
0.72021
0.74951
0.76782
0.78369
0.78857
0.78979
0.79224
0.78125
0.77393
0.76294
0.74951
0.7373
0.71777
0.7019
0.68115
0.6604
0.64209
0.61768
0.59692
0.57251
0.5481
0.5249
0.49683
0.47241
0.448
0.42358
0.40283
0.37598
0.35522
0.33569
0.31616
0.30029
0.28198
0.27222
0.25635
0.24414
0.2356
0.21973
0.21484
0.20386
0.19287
0.18677
0.17944
0.16846
0.15991
0.15015
0.14526
0.13672
0.12939
0.11963
0.10864
0.09888
0.09033
0.08301
0.0708
0.05859
0.05249
0.03296
0.02075
0.00488
-0.01221
-0.02563
-0.04517
-0.05859
-0.0769
-0.09644
-0.11108
-0.13428
-0.14893
-0.16846
-0.18555
-0.20386
-0.22461
-0.24048
-0.26123
-0.2771
-0.29175
-0.3125
-0.32715
-0.34424
-0.36133
-0.37598
-0.39429
-0.40771
-0.4248
-0.44189
-0.45532
-0.47363
-0.48706
-0.50171
-0.51636
-0.52856
-0.54199
-0.55298
-0.56641
-0.57983
-0.58838
-0.60303
-0.61401
-0.625
-0.63599
-0.64331
-0.65186
-0.64819
-0.63965
-0.62256
-0.59082
-0.55664
-0.50171
-0.44312
-0.37476
-0.29663
-0.21484
-0.12817
-0.04272
0.04272
0.12939
0.2124
0.29419
0.36865
0.43579
0.49683
0.54932
0.59692
0.63354
0.66406
0.69214
0.70679
0.72021
0.72754
0.72876
0.72876
0.71899
0.70923
0.69214
0.67993
0.66406
0.64087
0.62012
0.59814
0.57373
0.55176
0.5249
0.50049
0.47607
0.45044
0.42725
0.39673
0.37598
0.3479
0.32227
0.30151
0.27588
0.25757
0.23682
0.21729
0.20264
0.18555
0.17334
0.16113
0.14893
0.14038
0.12817
0.12329
0.11475
0.1062
0.10254
0.09521
0.09155
0.08545
0.07813
0.07202
0.06348
0.05737
0.04761
0.03662
0.03052
0.01831
0.00977
-0.00366
-0.01953
-0.0293
-0.04517
-0.05615
-0.07324
-0.09155
-0.10254
-0.12085
-0.1355
-0.15259
-0.16968
-0.18311
-0.20264
-0.22095
-0.2417
-0.25635
-0.27222
-0.29297
-0.31128
-0.33081
-0.34668
-0.36133
-0.38208
-0.39673
-0.4126
-0.43213
-0.44434
-0.46387
-0.48218
-0.49194
-0.50781
-0.52002
-0.53711
-0.54443
-0.56152
-0.57495
-0.58472
-0.60059
-0.61035
-0.62256
-0.63599
-0.64453
-0.6604
-0.66406
-0.67139
-0.67749
-0.67627
-0.66772
-0.65308
-0.62622
-0.5896
-0.53833
-0.48096
-0.41016
-0.33569
-0.25391
-0.16968
-0.08179
0.00854
0.09521
0.17944
0.26978
0.33936
0.41138
0.47485
0.52979
0.58228
0.6189
0.6543
0.67993
0.69702
0.71289
0.71777
0.72021
0.71533
0.71167
0.70557
0.6897
0.67749
0.66284
0.64331
0.62622
0.60181
0.57861
0.55908
0.53467
0.51392
0.48584
0.46509
0.43579
0.40771
0.38452
0.35645
0.33325
0.3064
0.28076
0.26123
0.23315
0.22095
0.20386
0.18799
0.17578
0.16602
0.15137
0.14038
0.13062
0.12695
0.11841
0.11353
0.10986
0.10254
0.09766
0.09399
0.09033
0.08423
0.07813
0.08057
0.06592
0.05981
0.05127
0.03906
0.0354
0.02197
0.01221
0
-0.01709
-0.02441
-0.04272
-0.05493
-0.07202
-0.08545
-0.10376
-0.12329
-0.13916
-0.15869
-0.17578
-0.19043
-0.2124
-0.22949
-0.2478
-0.26367
-0.27954
-0.29907
-0.31494
-0.33081
-0.35156
-0.36499
-0.38452
-0.39917
-0.4126
-0.42847
-0.44067
-0.45776
-0.47119
-0.48584
-0.50171
-0.51147
-0.52856
-0.53955
-0.54932
-0.56274
-0.57129
-0.58838
-0.59692
-0.60669
-0.61646
-0.6189
-0.62256
-0.60913
-0.59082
-0.56396
-0.52368
-0.47607
-0.41504
-0.34668
-0.271
-0.18921
-0.10376
-0.01587
0.07202
0.15747
0.24048
0.32349
0.39917
0.46631
0.5249
0.58594
0.62988
0.67139
0.70435
0.73364
0.74951
0.7605
0.76782
0.76782
0.76782
0.76416
0.75195
0.73975
0.72632
0.70923
0.69458
0.67261
0.65063
0.6311
0.60791
0.58838
0.56152
0.53589
0.51392
0.48706
0.46265
0.43457
0.41138
0.38574
0.35889
0.33936
0.3125
0.29053
0.26978
0.24902
0.23315
0.2124
0.20142
0.19043
0.17578
0.16846
0.15503
0.14771
0.13916
0.12939
0.12329
0.11597
0.10864
0.1001
0.09033
0.08545
0.07568
0.06958
0.05981
0.04883
0.04028
0.02808
0.01709
0.00366
-0.01343
-0.02441
-0.04272
-0.05737
-0.07202
-0.09033
-0.10254
-0.12085
-0.13428
-0.15381
-0.17334
-0.18799
-0.20874
-0.22705
-0.24658
-0.26489
-0.28076
-0.30273
-0.31982
-0.33569
-0.35767
-0.37231
-0.39185
-0.40771
-0.42236
-0.43945
-0.4541
-0.47241
-0.49072
-0.50049
-0.5188
-0.52979
-0.54688
-0.55664
-0.57251
-0.58716
-0.59814
-0.61401
-0.62256
-0.63477
-0.64819
-0.6543
-0.66284
-0.66162
-0.65308
-0.63721
-0.60913
-0.57251
-0.52246
-0.46387
-0.39795
-0.31982
-0.23926
-0.15137
-0.06348
0.02441
0.11475
0.19897
0.2832
0.35889
0.42725
0.49438
0.54565
0.59448
0.63721
0.66895
0.69946
0.71777
0.73486
0.74097
0.74463
0.74463
0.73486
0.72754
0.71899
0.70068
0.68726
0.6665
0.64697
0.62866
0.60547
0.58594
0.55908
0.53345
0.5127
0.48462
0.46021
0.43091
0.40527
0.3772
0.35034
0.32715
0.29663
0.27588
0.25513
0.23315
0.21484
0.19287
0.17944
0.16235
0.14648
0.1355
0.12329
0.1123
0.10376
0.09399
0.08301
0.07813
0.0708
0.06104
0.05127
0.05127
0.03418
0.02441
0.01587
0.00366
-0.00366
-0.01465
-0.02563
-0.03784
-0.05371
-0.06104
-0.07935
-0.09277
-0.1062
-0.11963
-0.1355
-0.15381
-0.16968
-0.18799
-0.20508
-0.21973
-0.2417
-0.26001
-0.2771
-0.29663
-0.31372
-0.33447
-0.35156
-0.36987
-0.38818
-0.40283
-0.42358
-0.44067
-0.4541
-0.47241
-0.48706
-0.50293
-0.52124
-0.53345
-0.55054
-0.56274
-0.58228
-0.59448
-0.60913
-0.62622
-0.63721
-0.65552
-0.66284
-0.67505
-0.6897
-0.69824
-0.70801
-0.72388
-0.73364
-0.74585
-0.75073
-0.75684
-0.75439
-0.74585
-0.72998
-0.69824
-0.6604
-0.60913
-0.54688
-0.47974
-0.39673
-0.3125
-0.22095
-0.12817
-0.03662
0.05981
0.14771
0.23438
0.31494
0.38574
0.45532
0.5127
0.56396
0.60547
0.64087
0.67139
0.68848
0.70313
0.71533
0.71411
0.71411
0.70557
0.6958
0.68604
0.67017
0.65674
0.63354
0.61401
0.59326
0.56763
0.54565
0.5188
0.49683
0.46997
0.44067
0.41748
0.38696
0.36255
0.33691
0.30884
0.28564
0.25879
0.23682
0.21606
0.19531
0.17944
0.16235
0.14648
0.13428
0.11963
0.10986
0.09766
0.08911
0.07935
0.06836
0.0647
0.05127
0.04395
0.03784
0.02563
0.02563
0.01587
0.00732
0
-0.0061
-0.01831
-0.03174
-0.04272
-0.05371
-0.06592
-0.07813
-0.09277
-0.10742
-0.12329
-0.13794
-0.15015
-0.1709
-0.18921
-0.20264
-0.22583
-0.2417
-0.26123
-0.28076
-0.29785
-0.3186
-0.33569
-0.35889
-0.37842
-0.39551
-0.41626
-0.43213
-0.45166
-0.46875
-0.48584
-0.50659
-0.52124
-0.54321
-0.55664
-0.57129
-0.5896
-0.60303
-0.62012
-0.63232
-0.64575
-0.66162
-0.67261
-0.68726
-0.7019
-0.71411
-0.72998
-0.74341
-0.75317
-0.76416
-0.77515
-0.78857
-0.79224
-0.80811
-0.81543
-0.81909
-0.82153
-0.81055
-0.79346
-0.76294
-0.72021
-0.67017
-0.60303
-0.53589
-0.45776
-0.37354
-0.28564
-0.19043
-0.1001
-0.00732
0.08301
0.16846
0.25269
0.32349
0.39063
0.45532
0.50049
0.54688
0.57983
0.60913
0.63477
0.64819
0.6604
0.6604
0.6604
0.65552
0.64209
0.6311
0.61401
0.59937
0.57983
0.55786
0.53833
0.50903
0.48584
0.46143
0.43213
0.40527
0.3772
0.35156
0.32471
0.29297
0.26489
0.23682
0.21118
0.18799
0.16235
0.14282
0.11963
0.10254
0.08545
0.06592
0.05615
0.0415
0.03174
0.02319
0.01099
0.00977
0.00244
-0.00244
-0.00732
-0.01343
-0.01465
-0.02319
-0.02808
-0.03418
-0.0415
-0.04517
-0.05493
-0.06104
-0.07202
-0.07935
-0.08667
-0.10132
-0.11353
-0.12573
-0.14038
-0.15381
-0.1709
-0.18677
-0.20142
-0.21973
-0.23315
-0.25513
-0.27344
-0.28931
-0.31006
-0.32593
-0.34668
-0.36499
-0.38086
-0.40161
-0.41626
-0.43823
-0.45532
-0.47241
-0.49194
-0.50781
-0.52612
-0.54199
-0.55908
-0.57617
-0.5896
-0.60547
-0.62256
-0.63599
-0.65186
-0.66284
-0.67505
-0.68726
-0.69824
-0.71289
-0.72388
-0.73608
-0.74829
-0.75562
-0.76904
-0.77515
-0.78857
-0.79712
-0.80444
-0.81177
-0.80444
-0.79834
-0.77881
-0.74341
-0.70068
-0.64087
-0.57617
-0.50293
-0.42236
-0.33569
-0.24658
-0.15625
-0.06104
0.03418
0.12695
0.21484
0.29541
0.36987
0.43457
0.49438
0.5481
0.58838
0.62256
0.65674
0.67627
0.6958
0.70435
0.71533
0.71045
0.70435
0.69824
0.68237
0.67017
0.65674
0.63599
0.61768
0.59814
0.57129
0.54688
0.52002
0.49683
0.46997
0.44067
0.41626
0.38696
0.35889
0.33447
0.30762
0.28442
0.25757
0.24414
0.21606
0.19653
0.17944
0.16113
0.15015
0.13794
0.12939
0.12085
0.10864
0.10864
0.1001
0.09521
0.09277
0.08789
0.08545
0.07935
0.07568
0.07202
0.06592
0.06226
0.05127
0.04395
0.03296
0.02441
0.01709
0.00488
-0.0061
-0.01831
-0.03052
-0.04028
-0.05859
-0.07446
-0.09033
-0.10864
-0.12329
-0.14282
-0.16113
-0.17578
-0.19653
-0.21362
-0.23438
-0.25635
-0.271
-0.29419
-0.31006
-0.32959
-0.34668
-0.36133
-0.38086
-0.39429
-0.41382
-0.42969
-0.44434
-0.46265
-0.47729
-0.49438
-0.50659
-0.52246
-0.53955
-0.55176
-0.56396
-0.58105
-0.59204
-0.60913
-0.6189
-0.6311
-0.64209
-0.65308
-0.6665
-0.67627
-0.68115
-0.68237
-0.67505
-0.66284
-0.62866
-0.59692
-0.54932
-0.49072
-0.42847
-0.35156
-0.27832
-0.19653
-0.1062
-0.02075
0.07446
0.16113
0.2478
0.33203
0.40771
0.47485
0.53345
0.58594
0.63477
0.67383
0.70679
0.72876
0.74707
0.76294
0.76538
0.76782
0.76294
0.75562
0.75195
0.73853
0.72632
0.70923
0.6958
0.67139
0.64697
0.62744
0.60059
0.57861
0.55542
0.52856
0.50537
0.47485
0.44922
0.42358
0.39551
0.37231
0.34302
0.32104
0.30151
0.2771
0.26001
0.24048
0.22339
0.20874
0.19165
0.18066
0.16968
0.15869
0.15137
0.14282
0.13306
0.12695
0.12085
0.11475
0.10498
0.10132
0.09399
0.08545
0.08057
0.06714
0.0647
0.05127
0.04028
0.03052
0.01587
0.0061
-0.01099
-0.02441
-0.03784
-0.05615
-0.06714
-0.08667
-0.10498
-0.12207
-0.14282
-0.15991
-0.18188
-0.20142
-0.21973
-0.2417
-0.26001
-0.28198
-0.30151
-0.31616
-0.33936
-0.35645
-0.37842
-0.39673
-0.41138
-0.43213
-0.44678
-0.46631
-0.48462
-0.49561
-0.51392
-0.52612
-0.54443
-0.5542
-0.57129
-0.58838
-0.60059
-0.61646
-0.62744
-0.63965
-0.6543
-0.66284
-0.68115
-0.68848
-0.69702
-0.71167
-0.71655
-0.72266
-0.72144
-0.71289
-0.6958
-0.66162
-0.61768
-0.56519
-0.50049
-0.43457
-0.35889
-0.2771
-0.19165
-0.1001
-0.01221
0.08423
0.17334
0.25879
0.3418
0.41138
0.48218
0.53955
0.59082
0.63721
0.67017
0.70557
0.72754
0.74341
0.75562
0.76172
0.7666
0.7605
0.75317
0.74951
0.72998
0.71899
0.69946
0.67993
0.66406
0.63843
0.62012
0.5957
0.56885
0.5481
0.5188
0.49316
0.46143
0.43701
0.41016
0.37964
0.35767
0.33203
0.31006
0.29053
0.26733
0.25146
0.22705
0.21362
0.20142
0.18555
0.17578
0.16602
0.15503
0.14893
0.13794
0.13306
0.12451
0.11475
0.10986
0.09766
0.09155
0.08667
0.08057
0.07446
0.0647
0.05493
0.04761
0.03662
0.02686
0.01221
0.00366
-0.00977
-0.02319
-0.0354
-0.05249
-0.0647
-0.08179
-0.1001
-0.11353
-0.13672
-0.14893
-0.16968
-0.18921
-0.2063
-0.22827
-0.24292
-0.26489
-0.28564
-0.30273
-0.32349
-0.33936
-0.36011
-0.37842
-0.39429
-0.41382
-0.42847
-0.448
-0.46631
-0.48096
-0.50049
-0.51392
-0.53101
-0.54688
-0.55908
-0.57617
-0.58838
-0.60303
-0.61768
-0.625
-0.64087
-0.64941
-0.66284
-0.67017
-0.68481
-0.69824
-0.70557
-0.71533
-0.72021
-0.71655
-0.71045
-0.68726
-0.65796
-0.61157
-0.5542
-0.49438
-0.42114
-0.34302
-0.26733
-0.18066
-0.09521
-0.00244
0.09033
0.17822
0.26611
0.34058
0.41626
0.48096
0.53955
0.59204
0.6311
0.67139
0.69824
0.72021
0.73975
0.74707
0.75928
0.75928
0.75562
0.75195
0.73853
0.72876
0.71289
0.69458
0.67505
0.65674
0.63721
0.61279
0.5896
0.56763
0.53955
0.51636
0.48706
0.45898
0.43579
0.40527
0.38208
0.354
0.32959
0.30884
0.2832
0.26489
0.24414
0.23193
0.21362
0.19531
0.18433
0.16968
0.16235
0.15381
0.14282
0.13672
0.12451
0.12207
0.11597
0.10742
0.10132
0.09033
0.08301
0.07568
0.0647
0.05493
0.04517
0.03296
0.02441
0.00977
-0.00244
-0.01587
-0.02808
-0.03906
-0.05615
-0.0708
-0.08545
-0.10132
-0.11719
-0.13916
-0.15503
-0.17456
-0.19653
-0.2124
-0.2356
-0.25024
-0.271
-0.29053
-0.30762
-0.33203
-0.34546
-0.36499
-0.3833
-0.39917
-0.41382
-0.43335
-0.45044
-0.46753
-0.4834
-0.49927
-0.51392
-0.53101
-0.5481
-0.56519
-0.57739
-0.58838
-0.60303
-0.61646
-0.62012
-0.63965
-0.64941
-0.66284
-0.67627
-0.68115
-0.6958
-0.70435
-0.71655
-0.72876
-0.73486
-0.74585
-0.75562
-0.76538
-0.77637
-0.77393
-0.77271
-0.75928
-0.73608
-0.69946
-0.64819
-0.5896
-0.51514
-0.44312
-0.36011
-0.27344
-0.19043
-0.09888
-0.00977
0.08423
0.17822
0.26001
0.34058
0.4126
0.47852
0.53711
0.5835
0.62866
0.66284
0.69092
0.71533
0.72876
0.74463
0.75195
0.75317
0.75317
0.74707
0.73608
0.72266
0.70557
0.6897
0.66772
0.64819
0.62134
0.59814
0.57251
0.5481
0.52368
0.49438
0.46509
0.44556
0.4126
0.38818
0.36133
0.33691
0.3186
0.29419
0.27588
0.25757
0.23682
0.22949
0.21606
0.20874
0.19775
0.19287
0.18433
0.17456
0.16968
0.16235
0.15747
0.15381
0.14648
0.1416
0.13062
0.12695
0.12207
0.10986
0.10254
0.08911
0.08057
0.07324
0.06104
0.05005
0.03906
0.02441
0.01343
-0.0061
-0.02075
-0.0354
-0.05249
-0.06714
-0.08667
-0.10498
-0.12207
-0.1416
-0.15869
-0.18188
-0.19897
-0.21606
-0.23315
-0.24902
-0.26978
-0.2832
-0.30273
-0.32104
-0.33691
-0.35645
-0.36987
-0.38696
-0.40405
-0.41748
-0.43335
-0.44556
-0.46143
-0.47607
-0.48706
-0.50171
-0.51147
-0.52246
-0.53467
-0.54443
-0.5542
-0.56274
-0.57251
-0.58472
-0.58594
-0.60425
-0.61279
-0.62378
-0.63477
-0.63965
-0.64575
-0.64453
-0.63843
-0.62744
-0.59204
-0.55664
-0.50415
-0.44312
-0.37476
-0.30273
-0.22827
-0.14648
-0.06226
0.02441
0.11841
0.2063
0.29541
0.37231
0.45166
0.52124
0.57983
0.63599
0.68359
0.72144
0.75806
0.78247
0.80322
0.82153
0.83008
0.8374
0.83496
0.83374
0.8252
0.81543
0.80688
0.78857
0.77393
0.75684
0.73486
0.71655
0.69336
0.67139
0.64697
0.62134
0.59814
0.57129
0.5481
0.52368
0.49683
0.47119
0.44678
0.42603
0.40405
0.38208
0.37109
0.34546
0.32959
0.31494
0.29785
0.28931
0.27588
0.26855
0.25879
0.24536
0.24536
0.23438
0.22827
0.22095
0.21729
0.20996
0.20142
0.19531
0.18433
0.17456
0.16724
0.15259
0.14038
0.12695
0.11475
0.10376
0.08667
0.07324
0.05615
0.04028
0.02686
0.0061
-0.01099
-0.02686
-0.04761
-0.06226
-0.08423
-0.10254
-0.12085
-0.14038
-0.15747
-0.18066
-0.20142
-0.21729
-0.23804
-0.25391
-0.27588
-0.29419
-0.31372
-0.33325
-0.34668
-0.36865
-0.3833
-0.39795
-0.41626
-0.42847
-0.44556
-0.45898
-0.47485
-0.49072
-0.50171
-0.51636
-0.53101
-0.54199
-0.55542
-0.56641
-0.57861
-0.5896
-0.60059
-0.61279
-0.62256
-0.63232
-0.64087
-0.64453
-0.64575
-0.62866
-0.61523
-0.5835
-0.54077
-0.4895
-0.42114
-0.35522
-0.28076
-0.20142
-0.12085
-0.02808
0.06104
0.15137
0.24048
0.32715
0.40649
0.47729
0.54321
0.60181
0.65308
0.70068
0.7373
0.76904
0.80078
0.81299
0.83008
0.83496
0.83862
0.84229
0.83862
0.83496
0.82397
0.81299
0.79834
0.78247
0.76782
0.74463
0.72876
0.70801
0.68481
0.66406
0.63843
0.61646
0.59204
0.56396
0.54077
0.51147
0.48828
0.46387
0.43945
0.41748
0.39429
0.37476
0.354
0.33447
0.31982
0.30151
0.28687
0.27466
0.26001
0.25146
0.23804
0.22949
0.22095
0.20874
0.20508
0.19409
0.18677
0.17822
0.16479
0.15991
0.14771
0.13916
0.12817
0.11963
0.1062
0.09033
0.0769
0.06226
0.04639
0.03296
0.01465
0
-0.02197
-0.03662
-0.05249
-0.07446
-0.09277
-0.1062
-0.13062
-0.14771
-0.16968
-0.18799
-0.2063
-0.22827
-0.24658
-0.26978
-0.29053
-0.3064
-0.32593
-0.3418
-0.36255
-0.38208
-0.39795
-0.41626
-0.43091
-0.45044
-0.46631
-0.48096
-0.49805
-0.5127
-0.52979
-0.54077
-0.5542
-0.57129
-0.58105
-0.60181
-0.61157
-0.62256
-0.63599
-0.64453
-0.65796
-0.6665
-0.67627
-0.6897
-0.69336
-0.69824
-0.69458
-0.68115
-0.65918
-0.62256
-0.57495
-0.51636
-0.45044
-0.38086
-0.29541
-0.22339
-0.13672
-0.04761
0.03906
0.1355
0.22217
0.3064
0.38574
0.45532
0.52246
0.57617
0.62622
0.67017
0.70557
0.73608
0.75806
0.77515
0.78613
0.79346
0.80078
0.79712
0.79346
0.79102
0.77881
0.77026
0.75562
0.73975
0.72388
0.70313
0.68604
0.66162
0.63843
0.6189
0.59204
0.57129
0.54199
0.52002
0.49438
0.46753
0.44556
0.41748
0.39673
0.37598
0.354
0.33569
0.32227
0.30029
0.28442
0.26611
0.25635
0.24048
0.22705
0.21729
0.20508
0.19287
0.18433
0.17456
0.16602
0.15259
0.14282
0.13306
0.12451
0.11475
0.10132
0.09277
0.08057
0.06958
0.05615
0.03906
0.03052
0.01343
-0.00244
-0.01465
-0.03662
-0.04761
-0.06592
-0.08301
-0.1001
-0.12085
-0.13794
-0.16113
-0.18188
-0.20264
-0.22461
-0.2417
-0.26367
-0.28442
-0.3064
-0.32349
-0.34058
-0.36255
-0.38208
-0.39917
-0.4187
-0.43335
-0.45288
-0.46875
-0.48218
-0.50049
-0.51392
-0.53467
-0.55054
-0.56519
-0.58472
-0.59814
-0.61646
-0.6311
-0.64453
-0.6604
-0.67017
-0.68604
-0.6958
-0.70679
-0.72021
-0.72876
-0.74463
-0.75073
-0.76172
-0.76904
-0.76782
-0.75928
-0.74829
-0.71899
-0.67993
-0.62378
-0.55908
-0.48584
-0.40649
-0.32837
-0.24414
-0.15991
-0.07202
0.01953
0.10498
0.20142
0.27466
0.35034
0.4187
0.47729
0.53589
0.57983
0.6189
0.6543
0.67993
0.70313
0.71655
0.72632
0.7312
0.7312
0.73242
0.72388
0.71289
0.70313
0.68481
0.67017
0.64697
0.62744
0.60791
0.5835
0.56152
0.53345
0.50171
0.48218
0.45288
0.42847
0.39917
0.37354
0.34912
0.32349
0.30151
0.2771
0.25757
0.24048
0.21973
0.20508
0.18677
0.17334
0.16235
0.15015
0.14282
0.13184
0.12451
0.11841
0.10742
0.1001
0.09399
0.08179
0.07446
0.06226
0.05615
0.04517
0.0354
0.02686
0.01465
0.00244
-0.00977
-0.02197
-0.03296
-0.04761
-0.06226
-0.07568
-0.09033
-0.10376
-0.12451
-0.14038
-0.16113
-0.18066
-0.2002
-0.22461
-0.24048
-0.26489
-0.28564
-0.30273
-0.32471
-0.34058
-0.36011
-0.37842
-0.39551
-0.41016
-0.42969
-0.45044
-0.46875
-0.4834
-0.50049
-0.51392
-0.53345
-0.5481
-0.56519
-0.57861
-0.59082
-0.60791
-0.62134
-0.63232
-0.64819
-0.65552
-0.67139
-0.68237
-0.69214
-0.70679
-0.71655
-0.73242
-0.74585
-0.75073
-0.75806
-0.75684
-0.75073
-0.73608
-0.70313
-0.66284
-0.60547
-0.54199
-0.46753
-0.38574
-0.3064
-0.21973
-0.13916
-0.04883
0.04272
0.12817
0.21729
0.29297
0.37231
0.44189
0.50171
0.55786
0.60425
0.64575
0.67993
0.70557
0.7312
0.74463
0.75439
0.76416
0.76172
0.76294
0.75806
0.75073
0.74097
0.7251
0.71411
0.69458
0.67505
0.65674
0.63354
0.61279
0.58838
0.56274
0.53833
0.51147
0.48828
0.45898
0.43213
0.40649
0.38208
0.36011
0.33569
0.31372
0.29419
0.27466
0.26001
0.2417
0.22705
0.21973
0.20508
0.19775
0.18555
0.177
0.17334
0.16357
0.16113
0.15015
0.14526
0.13794
0.12695
0.12085
0.10986
0.10132
0.09399
0.08057
0.0708
0.05371
0.04395
0.03174
0.01343
0.00122
-0.01221
-0.03174
-0.04639
-0.06592
-0.08301
-0.1001
-0.12085
-0.13794
-0.15991
-0.18066
-0.19775
-0.21729
-0.23438
-0.25513
-0.27222
-0.29053
-0.30884
-0.32349
-0.34424
-0.35889
-0.37476
-0.39185
-0.40527
-0.42358
-0.43579
-0.45288
-0.46997
-0.4834
-0.50537
-0.51514
-0.53101
-0.54565
-0.55786
-0.57251
-0.5835
-0.59814
-0.61157
-0.62012
-0.6311
-0.63354
-0.63232
-0.62378
-0.60303
-0.57129
-0.5249
-0.46997
-0.40771
-0.33569
-0.26367
-0.18677
-0.10742
-0.02686
0.06592
0.14648
0.23682
0.31738
0.39307
0.46997
0.53101
0.59204
0.64087
0.68848
0.72388
0.75317
0.77881
0.79712
0.81299
0.8252
0.82642
0.8313
0.83008
0.82397
0.81787
0.80444
0.79224
0.77759
0.7605
0.74463
0.72388
0.70557
0.68359
0.6604
0.63721
0.61035
0.58838
0.55908
0.53345
0.51025
0.48096
0.46143
0.43701
0.41504
0.39673
0.37109
0.35767
0.33936
0.32349
0.30884
0.29541
0.27954
0.26733
0.25513
0.24536
0.23438
0.22339
0.21118
0.19897
0.18921
0.17822
0.16968
0.15869
0.14771
0.13428
0.12329
0.11353
0.09888
0.08301
0.0708
0.05371
0.0415
0.02441
0.0061
-0.00732
-0.02686
-0.04272
-0.06226
-0.08423
-0.09644
-0.11963
-0.13672
-0.15625
-0.16968
-0.19287
-0.21362
-0.23071
-0.25146
-0.26855
-0.28687
-0.30884
-0.32593
-0.3479
-0.36255
-0.37598
-0.39673
-0.41016
-0.42969
-0.44434
-0.45776
-0.47607
-0.49072
-0.50293
-0.5188
-0.53101
-0.5481
-0.56152
-0.57373
-0.58838
-0.59814
-0.61279
-0.62134
-0.62134
-0.61768
-0.60303
-0.58105
-0.54321
-0.49683
-0.44189
-0.37476
-0.31128
-0.23438
-0.15869
-0.08057
0.0061
0.09033
0.17944
0.26489
0.34424
0.42236
0.49072
0.55298
0.60913
0.65674
0.70068
0.73608
0.7666
0.79102
0.80811
0.82642
0.8313
0.83618
0.83618
0.83008
0.83252
0.82275
0.81421
0.80078
0.78491
0.77026
0.75073
0.73486
0.71411
0.69458
0.67627
0.65186
0.6311
0.60669
0.5835
0.56274
0.53467
0.51147
0.4895
0.46753
0.448
0.42725
0.40771
0.39063
0.37231
0.36011
0.34302
0.32593
0.3186
0.30396
0.29663
0.28442
0.27588
0.26611
0.25513
0.2478
0.23438
0.22461
0.21606
0.20386
0.19653
0.18188
0.17578
0.16357
0.15015
0.14038
0.12329
0.11108
0.09521
0.07813
0.06226
0.05005
0.02808
0.00977
-0.01099
-0.02686
-0.04639
-0.0647
-0.08423
-0.10498
-0.12329
-0.14038
-0.15869
-0.177
-0.19897
-0.21606
-0.2356
-0.25146
-0.26855
-0.28809
-0.30396
-0.32349
-0.33936
-0.35522
-0.37598
-0.38696
-0.40649
-0.42114
-0.43701
-0.4541
-0.46387
-0.47974
-0.49194
-0.50537
-0.51392
-0.52856
-0.54443
-0.55664
-0.56763
-0.57373
-0.57495
-0.57129
-0.55664
-0.53467
-0.49683
-0.44678
-0.39795
-0.33691
-0.271
-0.19775
-0.11719
-0.03662
0.05005
0.14038
0.21973
0.30396
0.3772
0.448
0.51514
0.57129
0.625
0.66772
0.71045
0.73975
0.76416
0.78735
0.79834
0.81055
0.81909
0.81787
0.81909
0.81543
0.80688
0.79712
0.78369
0.77271
0.75562
0.73853
0.72144
0.70068
0.68115
0.65918
0.63721
0.61401
0.58716
0.56885
0.53833
0.51392
0.49072
0.46387
0.44312
0.42114
0.40161
0.38208
0.35889
0.3479
0.32959
0.31372
0.30029
0.28442
0.2771
0.26367
0.25391
0.24292
0.23071
0.22339
0.20996
0.19897
0.18921
0.17944
0.16846
0.15381
0.14282
0.12817
0.11719
0.10742
0.09033
0.0769
0.06226
0.04639
0.03418
0.01587
-0.00122
-0.01587
-0.03662
-0.05127
-0.07324
-0.09277
-0.11108
-0.13184
-0.15015
-0.17334
-0.18677
-0.20996
-0.23193
-0.24902
-0.27222
-0.29053
-0.3064
-0.32715
-0.34424
-0.36865
-0.38086
-0.39673
-0.41626
-0.43091
-0.45166
-0.46631
-0.48096
-0.49927
-0.5127
-0.53101
-0.54443
-0.55908
-0.57373
-0.58472
-0.60059
-0.61401
-0.62744
-0.64087
-0.64941
-0.65918
-0.66162
-0.65796
-0.64941
-0.6189
-0.5957
-0.55298
-0.50049
-0.44434
-0.37598
-0.30884
-0.23315
-0.15015
-0.0708
0.02075
0.10376
0.18555
0.26611
0.33813
0.40649
0.46387
0.51636
0.56274
0.60059
0.63599
0.65796
0.67871
0.69824
0.70557
0.71411
0.71533
0.71289
0.71045
0.70068
0.69458
0.67871
0.66528
0.65186
0.6311
0.61279
0.59082
0.56885
0.54932
0.52368
0.50171
0.47363
0.45044
0.42725
0.40161
0.38086
0.354
0.33447
0.31494
0.29297
0.2771
0.26123
0.2417
0.22827
0.21118
0.20142
0.18799
0.17822
0.16968
0.15869
0.15259
0.14404
0.13672
0.13062
0.12085
0.11353
0.10376
0.09399
0.08545
0.07202
0.0708
0.05127
0.03906
0.02686
0.01099
0.00122
-0.01709
-0.03174
-0.04639
-0.06714
-0.0769
-0.09644
-0.11475
-0.13184
-0.15503
-0.16846
-0.18799
-0.2063
-0.22461
-0.24658
-0.26123
-0.2832
-0.30273
-0.31982
-0.34058
-0.35522
-0.37476
-0.39307
-0.40894
-0.42725
-0.44067
-0.46021
-0.47607
-0.48462
-0.50903
-0.52246
-0.53955
-0.5542
-0.56641
-0.58228
-0.59326
-0.60791
-0.625
-0.62988
-0.64331
-0.65186
-0.66406
-0.67139
-0.67627
-0.67993
-0.67139
-0.6604
-0.63354
-0.59448
-0.55176
-0.49438
-0.43701
-0.36865
-0.29541
-0.21973
-0.13306
-0.05371
0.03784
0.12573
0.20752
0.28931
0.35889
0.42603
0.48584
0.53345
0.57739
0.61523
0.64697
0.67383
0.69092
0.70679
0.71533
0.71899
0.71899
0.71289
0.71289
0.70313
0.69336
0.68359
0.66895
0.65552
0.63721
0.61768
0.59814
0.57617
0.55664
0.52979
0.50537
0.48096
0.45654
0.43579
0.41016
0.38696
0.36377
0.3418
0.32471
0.30273
0.2832
0.26855
0.25024
0.23804
0.22217
0.20996
0.20142
0.18921
0.18311
0.17334
0.16235
0.16235
0.15137
0.14771
0.13794
0.13428
0.12451
0.11353
0.1062
0.09399
0.08423
0.07446
0.06104
0.05005
0.03418
0.02075
0.00732
-0.01099
-0.02441
-0.04639
-0.06104
-0.07446
-0.09521
-0.11108
-0.13184
-0.15015
-0.16724
-0.19043
-0.20752
-0.22827
-0.24902
-0.26489
-0.28687
-0.3064
-0.32349
-0.34058
-0.35522
-0.37476
-0.38452
-0.40649
-0.42236
-0.43579
-0.45532
-0.46631
-0.48584
-0.50293
-0.51514
-0.53467
-0.54321
-0.55908
-0.57373
-0.58472
-0.60181
-0.60791
-0.61768
-0.62256
-0.6189
-0.61035
-0.58716
-0.55908
-0.5188
-0.46753
-0.41382
-0.3479
-0.27954
-0.20386
-0.12451
-0.03906
0.04883
0.13062
0.2124
0.29907
0.36499
0.43457
0.49316
0.54565
0.5957
0.63354
0.66895
0.69336
0.71899
0.73242
0.73853
0.74707
0.74463
0.74341
0.73975
0.72998
0.72144
0.71411
0.69458
0.68115
0.66162
0.64575
0.62744
0.60669
0.58838
0.56519
0.54199
0.52002
0.49561
0.47363
0.44556
0.42114
0.39917
0.37476
0.35522
0.33325
0.31372
0.29419
0.27588
0.26123
0.24292
0.23193
0.21851
0.2063
0.19653
0.18188
0.17578
0.16357
0.15381
0.14648
0.13916
0.12817
0.11719
0.10498
0.09521
0.08545
0.07568
0.06348
0.05005
0.0354
0.02197
0.00977
-0.00732
-0.02319
-0.04028
-0.05737
-0.07324
-0.09277
-0.1123
-0.12939
-0.15015
-0.16724
-0.18799
-0.20874
-0.22461
-0.24658
-0.26489
-0.28564
-0.30762
-0.32104
-0.3418
-0.35767
-0.37598
-0.3894
-0.41016
-0.43091
-0.44678
-0.46509
-0.48218
-0.49805
-0.5188
-0.53345
-0.55176
-0.56519
-0.57617
-0.59326
-0.60547
-0.62378
-0.63721
-0.64819
-0.66284
-0.67383
-0.68115
-0.68359
-0.67627
-0.66406
-0.63843
-0.60303
-0.55908
-0.50293
-0.44312
-0.37598
-0.29297
-0.20996
-0.11963
-0.03296
0.05737
0.14282
0.22583
0.3064
0.37598
0.44434
0.50293
0.55298
0.59692
0.6311
0.6665
0.6897
0.70679
0.72266
0.72876
0.73486
0.73364
0.72998
0.72754
0.71655
0.70923
0.6958
0.67993
0.66528
0.64575
0.62866
0.60791
0.58472
0.56763
0.54321
0.52002
0.49438
0.46753
0.44556
0.41992
0.39673
0.37231
0.35278
0.32837
0.30396
0.28442
0.26245
0.24414
0.22827
0.20752
0.19165
0.177
0.16479
0.15625
0.1416
0.13306
0.11963
0.11353
0.10864
0.09766
0.08789
0.07568
0.0647
0.05493
0.03906
0.02808
0.01587
0.00488
-0.00854
-0.02563
-0.04272
-0.05249
-0.06836
-0.08057
-0.09888
-0.11108
-0.13184
-0.15137
-0.16846
-0.18921
-0.2063
-0.22583
-0.24536
-0.26367
-0.28687
-0.30273
-0.32471
-0.34546
-0.36133
-0.3833
-0.39795
-0.41626
-0.43457
-0.44922
-0.46753
-0.48462
-0.50293
-0.52124
-0.53589
-0.55298
-0.56885
-0.5835
-0.59937
-0.61646
-0.62866
-0.64331
-0.65918
-0.67749
-0.68604
-0.70557
-0.71533
-0.72266
-0.72632
-0.72021
-0.70923
-0.68604
-0.6543
-0.61401
-0.55786
-0.49927
-0.42969
-0.354
-0.271
-0.18188
-0.09399
-0.00366
0.08423
0.17212
0.25269
0.32471
0.39307
0.45166
0.50537
0.5542
0.59204
0.625
0.65308
0.6665
0.68237
0.68726
0.6897
0.69092
0.68481
0.67993
0.6665
0.65796
0.64331
0.62744
0.61279
0.59082
0.57373
0.55298
0.52979
0.50781
0.47729
0.45532
0.42847
0.40039
0.37598
0.3479
0.32349
0.29907
0.27466
0.25391
0.23193
0.21362
0.19409
0.17456
0.15991
0.14282
0.12695
0.11353
0.09888
0.08789
0.07568
0.0647
0.05371
0.0415
0.04028
0.02197
0.01221
0.00244
-0.00977
-0.01587
-0.0293
-0.04028
-0.05249
-0.06958
-0.07568
-0.09277
-0.1062
-0.12085
-0.1416
-0.15015
-0.16968
-0.18555
-0.20508
-0.22705
-0.2417
-0.26611
-0.28564
-0.3064
-0.32593
-0.34424
-0.36499
-0.38452
-0.40649
-0.42603
-0.44312
-0.46631
-0.48706
-0.50171
-0.52734
-0.54443
-0.56519
-0.58472
-0.60059
-0.62134
-0.63599
-0.65552
-0.67627
-0.68604
-0.70435
-0.71777
-0.73486
-0.74707
-0.76294
-0.78003
-0.79102
-0.80811
-0.81909
-0.8313
-0.84473
-0.85449
-0.86792
-0.87036
-0.87036
-0.8667
-0.84717
-0.82153
-0.78003
-0.72632
-0.6665
-0.59326
-0.51758
-0.43335
-0.34546
-0.25513
-0.15747
-0.0647
0.02808
0.11963
0.2002
0.28076
0.3479
0.40894
0.46509
0.50903
0.55176
0.57861
0.60303
0.62256
0.63721
0.64087
0.64087
0.63843
0.63232
0.62012
0.61035
0.59082
0.57251
0.55298
0.53101
0.51147
0.48706
0.46265
0.43945
0.41016
0.38574
0.354
0.32471
0.29907
0.26978
0.24658
0.21851
0.19531
0.17334
0.14893
0.13062
0.10742
0.09521
0.07568
0.05859
0.04761
0.03296
0.02319
0.01221
0
-0.00732
-0.02197
-0.02808
-0.0354
-0.04639
-0.05127
-0.06226
-0.06836
-0.07813
-0.09155
-0.1001
-0.10986
-0.12573
-0.13794
-0.15381
-0.16602
-0.17944
-0.19287
-0.20874
-0.22583
-0.24292
-0.26001
-0.2771
-0.29297
-0.31372
-0.33081
-0.34912
-0.36865
-0.38574
-0.40894
-0.4187
-0.44434
-0.46265
-0.47852
-0.49927
-0.5127
-0.53467
-0.55176
-0.57007
-0.59204
-0.60303
-0.62378
-0.63965
-0.65674
-0.67505
-0.68726
-0.70557
-0.71899
-0.73364
-0.74707
-0.75928
-0.77515
-0.78735
-0.79712
-0.80811
-0.81787
-0.8313
-0.84229
-0.85571
-0.86182
-0.86182
-0.85815
-0.84229
-0.81421
-0.77026
-0.71289
-0.64941
-0.57617
-0.49561
-0.4126
-0.32104
-0.23193
-0.1355
-0.0354
0.05737
0.15015
0.23315
0.30884
0.38208
0.44067
0.49927
0.54077
0.57983
0.61279
0.63721
0.65796
0.66772
0.67993
0.68237
0.67749
0.67505
0.66284
0.65063
0.63599
0.61523
0.59814
0.57739
0.55542
0.53101
0.50171
0.48462
0.44922
0.42114
0.39429
0.36377
0.3418
0.3125
0.28809
0.26367
0.23682
0.21729
0.19287
0.17212
0.15259
0.13306
0.11963
0.10254
0.09033
0.08057
0.0708
0.0647
0.05249
0.04517
0.04028
0.03296
0.02808
0.01953
0.01221
0.00366
-0.00244
-0.0061
-0.01709
-0.02686
-0.03906
-0.05005
-0.05859
-0.07568
-0.08911
-0.10254
-0.11841
-0.13062
-0.14893
-0.16602
-0.17822
-0.19775
-0.21362
-0.23315
-0.25635
-0.26855
-0.29053
-0.30884
-0.33203
-0.35522
-0.36987
-0.3894
-0.40649
-0.42725
-0.44556
-0.46265
-0.48218
-0.49561
-0.51636
-0.53223
-0.5481
-0.56885
-0.58228
-0.60547
-0.61768
-0.63354
-0.65186
-0.66528
-0.68481
-0.6958
-0.70679
-0.72144
-0.73242
-0.74585
-0.75317
-0.75684
-0.75928
-0.74829
-0.72998
-0.69702
-0.65063
-0.5957
-0.52979
-0.45776
-0.38086
-0.29541
-0.20752
-0.10986
-0.01831
0.07813
0.17334
0.26001
0.3479
0.42236
0.49072
0.5542
0.60181
0.65308
0.68726
0.71655
0.74219
0.75684
0.77026
0.77393
0.77393
0.76782
0.7605
0.75317
0.73608
0.72021
0.70679
0.68237
0.66406
0.63843
0.61157
0.59204
0.56396
0.53955
0.50903
0.47729
0.45288
0.42114
0.39551
0.36377
0.33813
0.31494
0.28687
0.26611
0.24048
0.22095
0.20386
0.18311
0.16846
0.14893
0.13916
0.12939
0.11841
0.10986
0.09644
0.09033
0.08301
0.0708
0.0647
0.05493
0.04761
0.0415
0.03052
0.02319
0.01221
0.00244
-0.00854
-0.02441
-0.03784
-0.05249
-0.06714
-0.08301
-0.1001
-0.11108
-0.13306
-0.15137
-0.16846
-0.19043
-0.20874
-0.23193
-0.25391
-0.27222
-0.29419
-0.30762
-0.32593
-0.34302
-0.35645
-0.37842
-0.3894
-0.41138
-0.43701
-0.46143
-0.49561
-0.52124
-0.54932
-0.57251
-0.58838
-0.60669
-0.61523
-0.62622
-0.63354
-0.63965
-0.64819
-0.65674
-0.67139
-0.68726
-0.70435
-0.71899
-0.7312
-0.74585
-0.75317
-0.75317
-0.74341
-0.71899
-0.68481
-0.63721
-0.57373
-0.50415
-0.42236
-0.33813
-0.24658
-0.14526
-0.05005
0.05127
0.14648
0.23682
0.32959
0.40649
0.48096
0.54321
0.59692
0.64697
0.68604
0.72144
0.74463
0.76904
0.78979
0.79834
0.80566
0.80688
0.802
0.79468
0.78003
0.76538
0.74707
0.7251
0.70435
0.67627
0.64819
0.62256
0.59326
0.56641
0.53467
0.50903
0.47607
0.44434
0.41748
0.38452
0.36133
0.33325
0.3064
0.2832
0.25391
0.2356
0.21118
0.19043
0.17334
0.15015
0.13916
0.12451
0.11108
0.1001
0.08789
0.07935
0.06714
0.05615
0.05005
0.04028
0.03174
0.02075
0.01099
0.00122
-0.00732
-0.01587
-0.0293
-0.04272
-0.05615
-0.06958
-0.08057
-0.09521
-0.1123
-0.12329
-0.14038
-0.15381
-0.17334
-0.19165
-0.20752
-0.23193
-0.25146
-0.27344
-0.29785
-0.31494
-0.33691
-0.35645
-0.37964
-0.40161
-0.4187
-0.44189
-0.45898
-0.47974
-0.49316
-0.5127
-0.53345
-0.54932
-0.56885
-0.58472
-0.59814
-0.61646
-0.6311
-0.64941
-0.66406
-0.67871
-0.69824
-0.71411
-0.73364
-0.74707
-0.75928
-0.77515
-0.78125
-0.78125
-0.78491
-0.77148
-0.75439
-0.71899
-0.67261
-0.61646
-0.54443
-0.47241
-0.38818
-0.29907
-0.2063
-0.10742
-0.01099
0.08911
0.18799
0.27832
0.36499
0.43823
0.51025
0.57251
0.62622
0.67383
0.70557
0.74219
0.76294
0.77637
0.78857
0.78857
0.78735
0.77881
0.7666
0.75195
0.73608
0.71899
0.6958
0.67017
0.64453
0.61768
0.59326
0.56396
0.53345
0.50903
0.47119
0.43945
0.40405
0.36865
0.3418
0.3064
0.2771
0.24902
0.22095
0.2002
0.17578
0.15747
0.13672
0.11963
0.10864
0.09033
0.07935
0.06592
0.05493
0.04517
0.03418
0.02563
0.01465
0.00366
-0.00366
-0.01587
-0.02563
-0.03662
-0.04639
-0.05615
-0.0708
-0.08057
-0.09766
-0.1062
-0.11719
-0.13428
-0.14893
-0.16724
-0.18188
-0.19775
-0.21729
-0.23682
-0.25269
-0.2771
-0.29419
-0.31616
-0.33325
-0.35156
-0.37231
-0.39063
-0.41504
-0.43457
-0.4541
-0.47607
-0.49072
-0.5127
-0.53467
-0.54932
-0.56885
-0.58594
-0.60669
-0.62866
-0.64575
-0.66772
-0.68237
-0.70435
-0.71899
-0.73242
-0.74829
-0.75928
-0.77515
-0.78735
-0.802
-0.81787
-0.82764
-0.84351
-0.84229
-0.83496
-0.82031
-0.78735
-0.74585
-0.68237
-0.61157
-0.53345
-0.44434
-0.354
-0.26367
-0.16724
-0.06836
0.03418
0.13306
0.22949
0.31616
0.39307
0.46387
0.5249
0.58105
0.62744
0.66162
0.6958
0.71777
0.73486
0.74463
0.74829
0.75073
0.74097
0.7312
0.71777
0.69946
0.68359
0.65918
0.63599
0.60791
0.57983
0.55298
0.5188
0.48706
0.45044
0.41748
0.38452
0.35034
0.3186
0.28564
0.25879
0.23315
0.20264
0.17822
0.15381
0.13184
0.11353
0.09155
0.07446
0.06226
0.04761
0.03906
0.02441
0.01221
0.00732
-0.00366
-0.00977
-0.01953
-0.02686
-0.03052
-0.03784
-0.04272
-0.05615
-0.06226
-0.07202
-0.08423
-0.09521
-0.10864
-0.11719
-0.13062
-0.14648
-0.15869
-0.17822
-0.18921
-0.20508
-0.22217
-0.23804
-0.25879
-0.27344
-0.29175
-0.3125
-0.32959
-0.34546
-0.36987
-0.38696
-0.40771
-0.42358
-0.44189
-0.46021
-0.47852
-0.49805
-0.51514
-0.53345
-0.55054
-0.56763
-0.58716
-0.60181
-0.6189
-0.63599
-0.65186
-0.67017
-0.67749
-0.70068
-0.71655
-0.72998
-0.74707
-0.75806
-0.77148
-0.77881
-0.78369
-0.78125
-0.7605
-0.73486
-0.6897
-0.62744
-0.55786
-0.46875
-0.38086
-0.28809
-0.19409
-0.09888
0.0061
0.10376
0.20142
0.29541
0.38086
0.46265
0.53223
0.59692
0.65186
0.69702
0.73975
0.76904
0.79346
0.81299
0.82153
0.83008
0.82764
0.82031
0.81787
0.80322
0.79346
0.77026
0.75195
0.72632
0.69946
0.67383
0.64209
0.61401
0.58228
0.5481
0.51758
0.47974
0.448
0.41626
0.38086
0.354
0.31982
0.29663
0.27344
0.25146
0.23315
0.20874
0.19653
0.18311
0.16724
0.15625
0.14648
0.1355
0.12695
0.11597
0.11108
0.10376
0.09521
0.08911
0.07935
0.07202
0.06348
0.05615
0.04761
0.0354
0.02441
0.01221
0.00122
-0.01099
-0.02686
-0.04028
-0.05615
-0.0708
-0.08545
-0.10376
-0.11719
-0.13794
-0.15625
-0.17334
-0.19653
-0.2124
-0.23438
-0.25269
-0.271
-0.29175
-0.30273
-0.32593
-0.34424
-0.36133
-0.3833
-0.39795
-0.41748
-0.43335
-0.45166
-0.46631
-0.48462
-0.50415
-0.52124
-0.53711
-0.5542
-0.56885
-0.58838
-0.60425
-0.62134
-0.63721
-0.64819
-0.65918
-0.6604
-0.65308
-0.63354
-0.59937
-0.55664
-0.49805
-0.42847
-0.354
-0.26733
-0.18555
-0.09521
0.0061
0.09766
0.2002
0.29541
0.38818
0.47607
0.55298
0.625
0.68359
0.74097
0.78369
0.82031
0.85327
0.87402
0.89355
0.90454
0.90576
0.9082
0.896
0.89111
0.87891
0.8606
0.84229
0.81909
0.79468
0.76904
0.74097
0.71533
0.68604
0.65674
0.62744
0.59204
0.55908
0.52612
0.49438
0.46265
0.42969
0.40039
0.37231
0.34546
0.32349
0.29785
0.28076
0.26245
0.24658
0.23193
0.21484
0.20508
0.18677
0.17334
0.16357
0.15015
0.14771
0.13794
0.13184
0.12573
0.11597
0.11108
0.09521
0.08301
0.0708
0.06104
0.04517
0.03052
0.01587
0.00244
-0.01709
-0.02808
-0.04883
-0.06592
-0.08423
-0.10498
-0.12207
-0.14404
-0.16235
-0.18188
-0.20142
-0.21729
-0.24048
-0.26123
-0.27832
-0.30029
-0.31494
-0.33569
-0.35522
-0.36865
-0.39429
-0.4126
-0.43579
-0.45532
-0.47241
-0.49561
-0.5127
-0.53223
-0.55054
-0.56152
-0.57983
-0.59204
-0.60913
-0.625
-0.63599
-0.65308
-0.66284
-0.67505
-0.67139
-0.6665
-0.64941
-0.61157
-0.56519
-0.50171
-0.42603
-0.3479
-0.26123
-0.17578
-0.07935
0.01953
0.11719
0.21973
0.31494
0.40771
0.49561
0.57007
0.64087
0.69824
0.74707
0.79102
0.82275
0.84961
0.87158
0.88623
0.896
0.896
0.896
0.88867
0.87769
0.86426
0.83984
0.82642
0.80078
0.77515
0.75073
0.71899
0.69702
0.66528
0.63232
0.59937
0.57007
0.53955
0.50781
0.48218
0.45898
0.43091
0.40039
0.36011
0.31982
0.2832
0.25269
0.2356
0.22339
0.21973
0.21606
0.20996
0.19775
0.177
0.15381
0.13306
0.1123
0.10132
0.08911
0.08545
0.08789
0.08423
0.08179
0.06958
0.05371
0.03784
0.01465
-0.00244
-0.02075
-0.0354
-0.0415
-0.05249
-0.05981
-0.07446
-0.08911
-0.10498
-0.12939
-0.15137
-0.177
-0.19409
-0.21729
-0.23804
-0.25146
-0.26855
-0.28442
-0.30029
-0.32349
-0.34302
-0.36865
-0.3894
-0.40771
-0.42969
-0.44678
-0.47119
-0.48462
-0.49927
-0.51758
-0.52979
-0.55054
-0.56274
-0.57861
-0.59937
-0.61523
-0.6311
-0.64941
-0.66284
-0.67871
-0.68848
-0.69946
-0.70923
-0.70923
-0.70801
-0.69092
-0.66284
-0.6189
-0.55908
-0.49194
-0.41138
-0.32715
-0.23804
-0.14282
-0.05005
0.05005
0.15137
0.2478
0.3418
0.4248
0.50903
0.57617
0.63843
0.6958
0.7373
0.78003
0.80811
0.83252
0.84961
0.85693
0.86304
0.86182
0.85571
0.84595
0.83374
0.82031
0.79956
0.77515
0.75317
0.72266
0.6958
0.66406
0.63232
0.60181
0.56763
0.53711
0.50171
0.46997
0.44067
0.40771
0.38208
0.35156
0.32104
0.30029
0.27222
0.25146
0.22827
0.20874
0.19531
0.177
0.16602
0.15015
0.14404
0.13062
0.11719
0.11108
0.10132
0.09277
0.08667
0.07568
0.06836
0.05737
0.04761
0.03906
0.02441
0.01465
-0.00366
-0.01221
-0.02441
-0.04028
-0.05371
-0.07446
-0.08789
-0.10132
-0.12085
-0.1355
-0.15137
-0.17334
-0.19165
-0.21362
-0.23071
-0.25024
-0.27222
-0.28931
-0.31372
-0.33325
-0.35278
-0.37354
-0.39307
-0.41504
-0.43579
-0.4541
-0.47485
-0.49194
-0.51392
-0.52856
-0.54932
-0.56641
-0.58105
-0.60059
-0.61401
-0.62988
-0.64575
-0.65918
-0.67871
-0.69092
-0.70679
-0.72266
-0.73364
-0.75073
-0.75439
-0.7605
-0.75684
-0.74097
-0.71777
-0.67383
-0.62012
-0.5542
-0.47607
-0.39185
-0.30762
-0.21729
-0.12329
-0.02075
0.07568
0.17944
0.27466
0.36255
0.44312
0.5188
0.58716
0.64209
0.6897
0.73486
0.75684
0.78125
0.7959
0.80322
0.81177
0.80811
0.80566
0.7959
0.78491
0.77393
0.75439
0.73486
0.71167
0.68726
0.66162
0.6311
0.59937
0.56396
0.53223
0.50049
0.46387
0.43213
0.39551
0.36743
0.33813
0.3064
0.27954
0.25146
0.23071
0.21118
0.18799
0.17212
0.15503
0.13794
0.12451
0.10864
0.09766
0.08667
0.07324
0.0647
0.05249
0.04395
0.03662
0.02686
0.01953
0.00854
0.00122
-0.00854
-0.01953
-0.02808
-0.04517
-0.05127
-0.06958
-0.08545
-0.1001
-0.11963
-0.13428
-0.15137
-0.16968
-0.18433
-0.20508
-0.21973
-0.23804
-0.25635
-0.27222
-0.29663
-0.31006
-0.32959
-0.35034
-0.36743
-0.39185
-0.40771
-0.42725
-0.44678
-0.46387
-0.47974
-0.50171
-0.52246
-0.54199
-0.55664
-0.57739
-0.59082
-0.60669
-0.62378
-0.63843
-0.65308
-0.6665
-0.68359
-0.69946
-0.71655
-0.72998
-0.74341
-0.75684
-0.77026
-0.77881
-0.78003
-0.77026
-0.75195
-0.72144
-0.6665
-0.60669
-0.53223
-0.448
-0.36255
-0.26733
-0.17944
-0.08301
0.01099
0.10254
0.20264
0.28931
0.37476
0.45166
0.52368
0.58105
0.6311
0.67627
0.70923
0.73853
0.76294
0.77393
0.78491
0.78979
0.78491
0.78125
0.7666
0.75439
0.73853
0.71655
0.6958
0.6665
0.63843
0.61157
0.57861
0.54932
0.51392
0.48218
0.45166
0.41626
0.38696
0.35156
0.32104
0.29297
0.26367
0.24048
0.2124
0.19165
0.1709
0.15137
0.13794
0.11963
0.11108
0.1001
0.08911
0.08301
0.0708
0.06836
0.06104
0.05127
0.04761
0.03662
0.03174
0.02319
0.01343
0.00732
-0.00244
-0.01343
-0.02563
-0.03906
-0.04883
-0.06592
-0.0769
-0.09033
-0.10742
-0.12085
-0.13672
-0.15259
-0.1709
-0.19043
-0.20752
-0.22705
-0.24414
-0.26245
-0.2832
-0.30029
-0.32104
-0.33936
-0.35767
-0.37842
-0.39429
-0.41748
-0.43579
-0.45288
-0.47363
-0.48828
-0.50537
-0.52002
-0.53467
-0.55298
-0.56396
-0.58472
-0.60059
-0.61523
-0.63354
-0.64331
-0.6604
-0.67139
-0.68604
-0.69946
-0.70313
-0.70923
-0.70435
-0.6897
-0.66162
-0.6189
-0.56641
-0.49805
-0.42358
-0.34302
-0.25391
-0.16846
-0.07446
0.02197
0.11963
0.21729
0.31006
0.39917
0.48096
0.55176
0.62012
0.67261
0.72144
0.76416
0.79468
0.82153
0.8374
0.84717
0.85693
0.85571
0.85571
0.84351
0.83496
0.81909
0.79956
0.78125
0.75562
0.73486
0.70923
0.68237
0.65796
0.62622
0.60059
0.57251
0.53955
0.51025
0.47485
0.44556
0.41382
0.38086
0.354
0.32349
0.30029
0.27954
0.25879
0.2417
0.22095
0.20508
0.18555
0.16602
0.15259
0.13794
0.12817
0.12085
0.11108
0.1062
0.09888
0.09155
0.08057
0.06714
0.05493
0.04395
0.03174
0.02075
0.00732
-0.00366
-0.01709
-0.02808
-0.04395
-0.06226
-0.0708
-0.09644
-0.1123
-0.13062
-0.15137
-0.16724
-0.18555
-0.20264
-0.22095
-0.24292
-0.25757
-0.28198
-0.30273
-0.32349
-0.3479
-0.36255
-0.38208
-0.39917
-0.41626
-0.43579
-0.448
-0.46875
-0.48462
-0.50171
-0.5188
-0.53589
-0.55542
-0.57251
-0.5896
-0.61035
-0.62134
-0.63965
-0.65552
-0.67017
-0.68481
-0.69336
-0.70313
-0.70313
-0.69702
-0.67749
-0.64209
-0.59814
-0.53833
-0.46875
-0.39185
-0.30762
-0.22461
-0.13428
-0.0415
0.05249
0.15503
0.2478
0.34058
0.42847
0.50537
0.57739
0.63843
0.69092
0.73853
0.77393
0.80688
0.8252
0.84595
0.85327
0.85449
0.85693
0.84961
0.84351
0.83374
0.81787
0.80444
0.78125
0.7605
0.73853
0.71289
0.6897
0.66406
0.63721
0.60791
0.57617
0.54688
0.51147
0.47974
0.448
0.41382
0.38574
0.35767
0.33203
0.30762
0.2832
0.26367
0.2417
0.22461
0.20752
0.19043
0.17456
0.16357
0.15015
0.13794
0.12451
0.11475
0.10376
0.09399
0.08423
0.07202
0.06714
0.05127
0.0415
0.03052
0.01587
0.00854
-0.00732
-0.02319
-0.03418
-0.05249
-0.0647
-0.08301
-0.1001
-0.11719
-0.14038
-0.15381
-0.17578
-0.19531
-0.21484
-0.23804
-0.25391
-0.27588
-0.29541
-0.31494
-0.32837
-0.35034
-0.37231
-0.39063
-0.40771
-0.42847
-0.44556
-0.46631
-0.4834
-0.50049
-0.51758
-0.53101
-0.55176
-0.56885
-0.58472
-0.60059
-0.61279
-0.62866
-0.64087
-0.65308
-0.66772
-0.67749
-0.69458
-0.70679
-0.71411
-0.71899
-0.70801
-0.69214
-0.65918
-0.61035
-0.55054
-0.47729
-0.40405
-0.32227
-0.23193
-0.14404
-0.04761
0.04883
0.14648
0.24536
0.33569
0.42358
0.49805
0.56641
0.62988
0.67993
0.72632
0.75928
0.79102
0.81299
0.8252
0.8374
0.83618
0.83862
0.83618
0.82397
0.81421
0.7959
0.77881
0.75928
0.73486
0.71411
0.68726
0.66162
0.63599
0.60425
0.57373
0.54321
0.51392
0.4834
0.45044
0.42358
0.39185
0.36377
0.33813
0.30884
0.28564
0.26367
0.24414
0.22583
0.20508
0.19775
0.17578
0.15991
0.14771
0.13306
0.12329
0.1123
0.10132
0.09033
0.0769
0.0708
0.05615
0.04395
0.03418
0.01831
0.01221
-0.00366
-0.01709
-0.02808
-0.04761
-0.05493
-0.07324
-0.09033
-0.10498
-0.12329
-0.13672
-0.15625
-0.17456
-0.19287
-0.21118
-0.23071
-0.25513
-0.27588
-0.29419
-0.31616
-0.33325
-0.354
-0.37354
-0.39063
-0.40894
-0.4248
-0.44678
-0.46509
-0.4834
-0.50293
-0.5188
-0.53955
-0.55786
-0.57739
-0.59326
-0.60547
-0.625
-0.64331
-0.65918
-0.67383
-0.68604
-0.70313
-0.71655
-0.72144
-0.73853
-0.73975
-0.74341
-0.73242
-0.70801
-0.67627
-0.62378
-0.56519
-0.49561
-0.41626
-0.33569
-0.2478
-0.15991
-0.06958
0.03052
0.12329
0.21973
0.30518
0.38696
0.46387
0.52734
0.58838
0.63599
0.67871
0.71533
0.73975
0.76294
0.77271
0.78369
0.78735
0.78247
0.77759
0.76294
0.74951
0.73608
0.71411
0.69458
0.67017
0.64453
0.6189
0.59082
0.56152
0.53345
0.50293
0.47363
0.43823
0.40771
0.37598
0.34424
0.31494
0.28198
0.25757
0.22705
0.20142
0.17944
0.15625
0.14038
0.12085
0.10376
0.08911
0.07202
0.06348
0.04761
0.0354
0.02563
0.01221
0.00488
-0.00854
-0.01831
-0.02808
-0.04517
-0.05127
-0.06348
-0.07813
-0.08911
-0.1062
-0.11353
-0.13062
-0.14404
-0.15747
-0.17578
-0.18921
-0.20874
-0.22705
-0.24292
-0.26001
-0.27832
-0.30029
-0.31738
-0.33569
-0.35522
-0.37354
-0.39551
-0.4187
-0.43823
-0.45898
-0.47485
-0.49561
-0.5127
-0.53223
-0.5481
-0.56274
-0.5835
-0.60059
-0.61768
-0.63721
-0.65186
-0.67261
-0.69092
-0.7019
-0.7251
-0.7373
-0.75562
-0.77026
-0.78369
-0.79956
-0.81055
-0.82642
-0.83862
-0.84351
-0.84717
-0.83862
-0.82397
-0.7959
-0.74463
-0.68848
-0.61401
-0.53467
-0.44922
-0.35522
-0.26611
-0.16968
-0.07568
0.01953
0.11963
0.20874
0.29785
0.37598
0.44922
0.51392
0.56641
0.61646
0.65186
0.68604
0.71167
0.7251
0.73853
0.74219
0.74219
0.73975
0.72876
0.71777
0.70313
0.68237
0.66406
0.63599
0.61157
0.58228
0.5542
0.5249
0.49072
0.45898
0.42603
0.39307
0.36133
0.32471
0.29907
0.26245
0.23315
0.2063
0.177
0.15747
0.13306
0.11108
0.09399
0.07324
0.06226
0.04761
0.03418
0.02686
0.01221
0.01099
0.00244
-0.0061
-0.01221
-0.02441
-0.02808
-0.03906
-0.04639
-0.05493
-0.06714
-0.07202
-0.08423
-0.09521
-0.1062
-0.11963
-0.13428
-0.15137
-0.16724
-0.18066
-0.19653
-0.20996
-0.22949
-0.2478
-0.26611
-0.28687
-0.3064
-0.32837
-0.34668
-0.36743
-0.3833
-0.39795
-0.41748
-0.43579
-0.45044
-0.47241
-0.48828
-0.51025
-0.52979
-0.54321
-0.56519
-0.57983
-0.59814
-0.61523
-0.62988
-0.64819
-0.6604
-0.67871
-0.69458
-0.70557
-0.72144
-0.73242
-0.74829
-0.76416
-0.77148
-0.78613
-0.79224
-0.79956
-0.79956
-0.78247
-0.7605
-0.72144
-0.67139
-0.60547
-0.52124
-0.43579
-0.3418
-0.25146
-0.15259
-0.05981
0.03296
0.13062
0.22095
0.31006
0.39673
0.46875
0.53955
0.59448
0.64941
0.69458
0.72632
0.75806
0.77881
0.79224
0.80444
0.80566
0.80322
0.802
0.79224
0.78125
0.7605
0.75073
0.72144
0.6958
0.67383
0.64331
0.61768
0.58838
0.55786
0.52856
0.49438
0.46509
0.43091
0.39795
0.36865
0.33447
0.31006
0.28198
0.25635
0.23682
0.21118
0.19531
0.17456
0.15625
0.1416
0.12207
0.11475
0.10132
0.09033
0.08179
0.07202
0.0647
0.05493
0.04517
0.04028
0.0293
0.02197
0.01099
0
-0.00854
-0.02197
-0.03296
-0.05005
-0.0647
-0.08179
-0.09399
-0.1062
-0.12451
-0.1416
-0.15991
-0.177
-0.19043
-0.2124
-0.23193
-0.2417
-0.26978
-0.28564
-0.3064
-0.32837
-0.34668
-0.36865
-0.38696
-0.40771
-0.42847
-0.44189
-0.46265
-0.47852
-0.49561
-0.51514
-0.52612
-0.54565
-0.5603
-0.57983
-0.60181
-0.61279
-0.63354
-0.64697
-0.66406
-0.68359
-0.69214
-0.70923
-0.72144
-0.7373
-0.74707
-0.7605
-0.77148
-0.77148
-0.76782
-0.75195
-0.72144
-0.68359
-0.62622
-0.5603
-0.47974
-0.3894
-0.30029
-0.20508
-0.1123
-0.01587
0.08301
0.177
0.27222
0.35767
0.44189
0.52124
0.58716
0.64941
0.70068
0.74341
0.78125
0.80566
0.82642
0.84473
0.85327
0.86182
0.85693
0.85571
0.84717
0.83496
0.82275
0.80566
0.78857
0.76416
0.74097
0.71899
0.68848
0.66528
0.63477
0.60303
0.57495
0.53589
0.51025
0.47485
0.44189
0.4126
0.3772
0.354
0.32837
0.30151
0.28198
0.26367
0.2417
0.22339
0.20508
0.19165
0.17334
0.16357
0.15015
0.13672
0.12817
0.11475
0.10498
0.09277
0.08179
0.07324
0.06226
0.05249
0.04028
0.02808
0.01587
0.00488
-0.00732
-0.02441
-0.04028
-0.05737
-0.07446
-0.08789
-0.10498
-0.12329
-0.13428
-0.16113
-0.17944
-0.20142
-0.22583
-0.24536
-0.26855
-0.28687
-0.3064
-0.32471
-0.33813
-0.35889
-0.37476
-0.39795
-0.41992
-0.43579
-0.46143
-0.47974
-0.49927
-0.52124
-0.53223
-0.55176
-0.56763
-0.58594
-0.60669
-0.62012
-0.64087
-0.65674
-0.67261
-0.68726
-0.69824
-0.71289
-0.72388
-0.73608
-0.75073
-0.76172
-0.77637
-0.78369
-0.78735
-0.78125
-0.76172
-0.73486
-0.68726
-0.63354
-0.55786
-0.47119
-0.3833
-0.28809
-0.19775
-0.1001
-0.00122
0.09399
0.19165
0.28564
0.37109
0.45654
0.52979
0.59814
0.65796
0.70923
0.75317
0.78369
0.81177
0.83252
0.84717
0.85938
0.85815
0.86182
0.85571
0.84595
0.8374
0.81665
0.80444
0.78369
0.7605
0.73975
0.71045
0.68604
0.65674
0.625
0.5957
0.5603
0.53101
0.49683
0.46143
0.43457
0.40405
0.37598
0.3479
0.31982
0.29785
0.27344
0.25391
0.23193
0.21362
0.19897
0.18188
0.16968
0.15381
0.1416
0.12939
0.11841
0.10986
0.09766
0.08423
0.07568
0.06226
0.05127
0.04028
0.02686
0.01709
0.00244
-0.00732
-0.02319
-0.04028
-0.05127
-0.07202
-0.08545
-0.10132
-0.11963
-0.13428
-0.15503
-0.17334
-0.19531
-0.21729
-0.23193
-0.25635
-0.27466
-0.29663
-0.31982
-0.33569
-0.35767
-0.3772
-0.39795
-0.41992
-0.43701
-0.46143
-0.48096
-0.50171
-0.52246
-0.53711
-0.55664
-0.57251
-0.59204
-0.60791
-0.62378
-0.64575
-0.6604
-0.67749
-0.69336
-0.70801
-0.72754
-0.74219
-0.7605
-0.77515
-0.78979
-0.80688
-0.81787
-0.82886
-0.83008
-0.82031
-0.80688
-0.77515
-0.7312
-0.67261
-0.5957
-0.5127
-0.41748
-0.32349
-0.22461
-0.12451
-0.03296
0.06104
0.15015
0.2356
0.31982
0.39307
0.46387
0.52979
0.58472
0.63721
0.67749
0.71411
0.74097
0.7605
0.77759
0.78247
0.78857
0.78369
0.77515
0.76782
0.74951
0.73608
0.71411
0.6897
0.6665
0.63599
0.61035
0.58105
0.54932
0.52002
0.48462
0.4541
0.42114
0.38696
0.35767
0.32959
0.29419
0.26489
0.2356
0.21118
0.18555
0.16724
0.14648
0.12817
0.11475
0.1001
0.08789
0.07568
0.0647
0.05737
0.04761
0.04272
0.03296
0.02441
0.01709
0.00854
0.00244
-0.00732
-0.01953
-0.0293
-0.03906
-0.04883
-0.06226
-0.07568
-0.08423
-0.1001
-0.1123
-0.12695
-0.14526
-0.15625
-0.17944
-0.19287
-0.2124
-0.23315
-0.24902
-0.27344
-0.29297
-0.31494
-0.33691
-0.354
-0.37598
-0.39429
-0.41382
-0.43335
-0.44678
-0.47119
-0.48828
-0.50781
-0.52856
-0.54443
-0.56641
-0.5835
-0.60425
-0.62744
-0.63843
-0.65918
-0.67627
-0.69336
-0.71411
-0.72266
-0.74097
-0.75439
-0.76904
-0.78735
-0.7959
-0.80933
-0.81299
-0.81177
-0.79956
-0.77637
-0.74219
-0.69092
-0.62744
-0.54688
-0.4541
-0.35889
-0.25513
-0.15503
-0.05493
0.04517
0.13794
0.22827
0.30884
0.3894
0.46509
0.52856
0.58838
0.64209
0.68604
0.72388
0.75195
0.77637
0.79468
0.80322
0.81299
0.80933
0.80566
0.80444
0.79346
0.78369
0.76538
0.74463
0.7251
0.69824
0.67505
0.64087
0.61523
0.57861
0.54321
0.51025
0.47363
0.44067
0.40771
0.37476
0.34912
0.31982
0.29907
0.27466
0.25024
0.23071
0.20752
0.19287
0.17578
0.16113
0.15259
0.13916
0.13306
0.12695
0.11841
0.1123
0.10132
0.09766
0.08911
0.08057
0.0769
0.06348
0.06226
0.05615
0.04639
0.03784
0.02319
0.01221
-0.00366
-0.02075
-0.03296
-0.05615
-0.06836
-0.08423
-0.10498
-0.12085
-0.13794
-0.15991
-0.17822
-0.19897
-0.21606
-0.23682
-0.25635
-0.27466
-0.29541
-0.3125
-0.33447
-0.34912
-0.36865
-0.3894
-0.40771
-0.42969
-0.45044
-0.46875
-0.49072
-0.50781
-0.52612
-0.54321
-0.56152
-0.57983
-0.59814
-0.61523
-0.63232
-0.64819
-0.6665
-0.67993
-0.69458
-0.70557
-0.71167
-0.71289
-0.7019
-0.68237
-0.64819
-0.59937
-0.53955
-0.45654
-0.3772
-0.28442
-0.19043
-0.09888
-0.00366
0.08423
0.17334
0.25879
0.33813
0.41992
0.49072
0.55786
0.61768
0.6665
0.71899
0.75684
0.78857
0.81543
0.83374
0.85083
0.85693
0.86182
0.85815
0.85571
0.85083
0.83618
0.82153
0.80078
0.78125
0.7605
0.73364
0.70679
0.68359
0.64697
0.6189
0.58472
0.5542
0.52124
0.48828
0.45776
0.42603
0.39673
0.36865
0.33813
0.31616
0.28687
0.26489
0.24658
0.22705
0.21118
0.19409
0.17944
0.16846
0.15381
0.14771
0.13428
0.12207
0.11841
0.10742
0.1001
0.09033
0.07813
0.0708
0.05737
0.04883
0.03418
0.02075
0.01099
-0.00366
-0.01587
-0.03296
-0.04883
-0.0647
-0.08179
-0.09521
-0.11719
-0.12939
-0.15137
-0.17334
-0.19043
-0.21362
-0.23315
-0.25146
-0.27344
-0.29175
-0.31616
-0.33447
-0.35522
-0.37842
-0.39673
-0.4187
-0.43457
-0.4541
-0.47607
-0.49194
-0.51514
-0.53101
-0.5481
-0.56763
-0.58472
-0.60791
-0.62012
-0.63721
-0.65674
-0.67017
-0.69092
-0.70435
-0.71533
-0.7251
-0.7251
-0.72388
-0.70435
-0.67505
-0.63477
-0.57495
-0.50293
-0.4248
-0.33569
-0.24292
-0.14893
-0.05615
0.03418
0.12207
0.20752
0.29175
0.36987
0.44556
0.51514
0.57739
0.63721
0.68604
0.72998
0.7666
0.79346
0.82031
0.83252
0.84229
0.84717
0.84473
0.84229
0.83252
0.82153
0.80566
0.78491
0.76782
0.73975
0.71655
0.69214
0.65918
0.63599
0.60181
0.57129
0.53833
0.50659
0.47119
0.43335
0.40039
0.36865
0.33569
0.31006
0.28198
0.26001
0.23682
0.21729
0.20142
0.18188
0.16724
0.15381
0.1416
0.13184
0.11963
0.10986
0.09888
0.09033
0.08789
0.07568
0.06836
0.05981
0.05249
0.04517
0.03174
0.02197
0.00854
-0.00488
-0.01587
-0.03296
-0.04761
-0.06226
-0.07813
-0.09155
-0.11108
-0.12695
-0.14038
-0.16357
-0.17944
-0.20142
-0.22095
-0.23804
-0.26001
-0.2771
-0.29785
-0.31616
-0.33447
-0.35522
-0.37109
-0.39429
-0.41382
-0.42969
-0.45166
-0.46997
-0.49194
-0.5127
-0.52979
-0.55054
-0.56519
-0.58838
-0.60791
-0.62012
-0.63965
-0.6543
-0.67261
-0.68848
-0.70313
-0.72021
-0.72998
-0.74097
-0.74341
-0.73242
-0.71655
-0.68237
-0.63965
-0.57373
-0.50171
-0.41992
-0.32227
-0.23071
-0.13306
-0.03784
0.05127
0.14282
0.22583
0.30762
0.3833
0.45044
0.51758
0.57129
0.62256
0.66895
0.70435
0.7373
0.75928
0.78125
0.7959
0.80078
0.80566
0.802
0.79712
0.78979
0.77393
0.75562
0.73608
0.71411
0.68848
0.65674
0.63232
0.59692
0.56396
0.53223
0.49438
0.46509
0.42725
0.39429
0.36133
0.32837
0.30029
0.26855
0.24292
0.21851
0.19165
0.17212
0.15015
0.13184
0.11597
0.09888
0.09033
0.07446
0.06348
0.05371
0.0415
0.03784
0.02808
0.02197
0.01709
0.00488
0.00366
-0.00977
-0.01953
-0.02808
-0.04272
-0.05127
-0.06714
-0.07935
-0.09155
-0.11108
-0.11963
-0.13916
-0.15625
-0.17212
-0.18921
-0.20752
-0.22705
-0.24536
-0.26367
-0.28076
-0.30029
-0.32349
-0.34424
-0.36255
-0.38574
-0.40161
-0.42358
-0.44312
-0.46143
-0.48096
-0.49683
-0.52002
-0.53711
-0.5542
-0.57251
-0.5896
-0.61035
-0.62866
-0.64697
-0.66406
-0.67993
-0.7019
-0.71899
-0.73853
-0.75562
-0.77026
-0.78857
-0.79956
-0.80444
-0.802
-0.78491
-0.76416
-0.72632
-0.67383
-0.60913
-0.52979
-0.44312
-0.34912
-0.25269
-0.15381
-0.05371
0.03418
0.12207
0.20508
0.27954
0.35278
0.41382
0.47119
0.5249
0.56641
0.60791
0.63599
0.66284
0.68604
0.69702
0.70801
0.70923
0.70679
0.70313
0.69214
0.68237
0.6604
0.64209
0.62012
0.59204
0.56763
0.53589
0.50903
0.47852
0.44434
0.41382
0.37354
0.34424
0.31372
0.27832
0.24902
0.21729
0.19043
0.16602
0.14038
0.12207
0.09888
0.08423
0.07202
0.05615
0.05005
0.03906
0.03296
0.02808
0.02197
0.01953
0.01709
0.00977
0.0061
-0.00244
-0.0061
-0.01465
-0.02075
-0.02686
-0.03662
-0.04028
-0.04883
-0.05981
-0.06958
-0.08423
-0.09521
-0.10742
-0.12085
-0.13428
-0.15137
-0.16602
-0.18188
-0.19897
-0.21484
-0.23438
-0.25269
-0.26855
-0.28564
-0.30151
-0.32104
-0.33447
-0.354
-0.37109
-0.38696
-0.40649
-0.4248
-0.44189
-0.45898
-0.47729
-0.49805
-0.51025
-0.53223
-0.5481
-0.56274
-0.5835
-0.59204
-0.61523
-0.6311
-0.64575
-0.66284
-0.67505
-0.68848
-0.6958
-0.69458
-0.6897
-0.66528
-0.63721
-0.59204
-0.53223
-0.46265
-0.37476
-0.28564
-0.18921
-0.09155
-0.00122
0.09521
0.18188
0.26611
0.34668
0.41626
0.49072
0.55176
0.60913
0.66162
0.70435
0.74585
0.77759
0.80322
0.82397
0.83984
0.85327
0.85571
0.85571
0.85205
0.84717
0.84106
0.8252
0.80933
0.78979
0.76782
0.74463
0.71411
0.68359
0.65552
0.62134
0.59204
0.55908
0.52612
0.49805
0.46509
0.43945
0.40771
0.38208
0.36133
0.33813
0.3186
0.29663
0.27832
0.26733
0.25024
0.24048
0.22583
0.21118
0.20874
0.19775
0.19287
0.18311
0.177
0.1709
0.15991
0.15381
0.1416
0.12817
0.12329
0.11108
0.10254
0.08789
0.07813
0.06348
0.04761
0.03418
0.01343
0
-0.01709
-0.03662
-0.05249
-0.07202
-0.09155
-0.10742
-0.12817
-0.14404
-0.16846
-0.18677
-0.20508
-0.22827
-0.24414
-0.26611
-0.28198
-0.30151
-0.32227
-0.33936
-0.36255
-0.3772
-0.39429
-0.41504
-0.42969
-0.45288
-0.46631
-0.4834
-0.50293
-0.51636
-0.53589
-0.55298
-0.56763
-0.58472
-0.5957
-0.60913
-0.60913
-0.60181
-0.58594
-0.5542
-0.50659
-0.4541
-0.38086
-0.30396
-0.21362
-0.12573
-0.04028
0.04761
0.13062
0.21729
0.29785
0.37476
0.45044
0.51636
0.57983
0.63965
0.69092
0.73853
0.77393
0.81299
0.8374
0.85693
0.87402
0.88135
0.88867
0.88623
0.88257
0.87646
0.8606
0.85571
0.83618
0.81787
0.80078
0.77148
0.75195
0.72266
0.69458
0.6665
0.63232
0.60669
0.57129
0.53955
0.51025
0.47485
0.45044
0.42114
0.39429
0.36987
0.34912
0.32349
0.30029
0.27954
0.26367
0.24536
0.23438
0.21973
0.20752
0.19775
0.18433
0.177
0.16357
0.15137
0.14282
0.13062
0.12085
0.1062
0.09399
0.08423
0.06836
0.05615
0.04028
0.02563
0.01099
-0.00488
-0.01953
-0.03906
-0.05737
-0.0769
-0.09521
-0.1123
-0.13428
-0.15503
-0.17578
-0.19531
-0.2124
-0.23438
-0.25635
-0.27588
-0.29785
-0.31616
-0.33813
-0.35767
-0.3772
-0.39429
-0.40894
-0.43091
-0.44922
-0.46265
-0.48828
-0.50415
-0.52612
-0.54565
-0.55542
-0.58105
-0.5957
-0.61523
-0.63232
-0.64697
-0.66284
-0.67261
-0.68604
-0.69092
-0.68481
-0.67505
-0.64941
-0.61523
-0.56641
-0.50049
-0.42847
-0.34424
-0.25879
-0.17334
-0.08179
0.00122
0.08911
0.17212
0.24902
0.33081
0.39917
0.46875
0.52612
0.58228
0.6311
0.67017
0.70801
0.73486
0.75806
0.77637
0.78491
0.79468
0.79102
0.79224
0.78857
0.77759
0.76782
0.74829
0.73364
0.71411
0.68848
0.66284
0.63354
0.60425
0.57739
0.54321
0.5127
0.48462
0.44556
0.41626
0.3833
0.354
0.32593
0.29541
0.27222
0.24658
0.22705
0.20508
0.18799
0.17334
0.15503
0.1416
0.12695
0.11353
0.10376
0.09033
0.08179
0.0708
0.05859
0.05127
0.03906
0.03052
0.01953
0.00732
-0.00244
-0.01831
-0.03052
-0.04272
-0.05615
-0.06958
-0.08789
-0.10498
-0.12085
-0.13794
-0.15259
-0.17456
-0.19043
-0.20874
-0.22705
-0.24414
-0.26733
-0.2832
-0.30518
-0.32349
-0.34058
-0.36377
-0.3833
-0.40405
-0.4248
-0.44312
-0.46631
-0.47729
-0.50537
-0.52612
-0.54199
-0.56519
-0.58228
-0.60181
-0.62256
-0.64087
-0.66284
-0.67627
-0.69702
-0.71411
-0.72998
-0.75195
-0.7666
-0.78735
-0.80688
-0.82153
-0.8374
-0.83984
-0.84229
-0.83252
-0.80811
-0.77881
-0.72388
-0.66284
-0.58716
-0.49805
-0.41138
-0.3064
-0.2124
-0.11963
-0.02808
0.05127
0.13672
0.20996
0.27832
0.34302
0.39673
0.45044
0.49316
0.53223
0.56519
0.59326
0.61768
0.63232
0.64209
0.65063
0.64941
0.64941
0.63965
0.62744
0.61646
0.59448
0.57617
0.55176
0.52612
0.50293
0.47241
0.44434
0.41138
0.37842
0.35156
0.31494
0.28442
0.25269
0.21973
0.19531
0.16602
0.14038
0.11353
0.08545
0.07202
0.04883
0.03418
0.01709
0.00244
-0.0061
-0.01953
-0.02686
-0.03784
-0.04761
-0.05005
-0.06104
-0.06592
-0.07446
-0.08057
-0.08789
-0.09766
-0.10498
-0.11719
-0.12451
-0.13306
-0.14771
-0.15747
-0.1709
-0.18433
-0.19653
-0.21484
-0.22827
-0.25024
-0.26611
-0.2832
-0.30396
-0.32104
-0.3418
-0.36011
-0.37842
-0.40039
-0.4187
-0.44189
-0.46021
-0.47607
-0.49805
-0.51392
-0.53711
-0.55298
-0.57007
-0.59204
-0.61035
-0.63354
-0.65063
-0.66772
-0.69092
-0.70801
-0.72876
-0.74585
-0.76294
-0.78369
-0.80078
-0.81909
-0.8374
-0.85083
-0.86914
-0.88257
-0.89111
-0.9021
-0.9021
-0.89722
-0.87769
-0.84961
-0.80811
-0.74951
-0.68237
-0.59937
-0.50781
-0.41138
-0.3064
-0.20508
-0.10132
-0.0061
0.08301
0.16724
0.23804
0.30273
0.36133
0.41138
0.45654
0.49072
0.52368
0.54932
0.56641
0.5835
0.58838
0.5957
0.59692
0.59204
0.58716
0.57129
0.56274
0.54443
0.52368
0.50293
0.48096
0.45044
0.42114
0.39063
0.35889
0.32593
0.29541
0.26123
0.22827
0.2002
0.16724
0.14282
0.11475
0.09033
0.06958
0.05005
0.03296
0.01587
0.00244
-0.00732
-0.01709
-0.02441
-0.03296
-0.03906
-0.04272
-0.04639
-0.04761
-0.05249
-0.05615
-0.05615
-0.05615
-0.05615
-0.05859
-0.06226
-0.06958
-0.07324
-0.07935
-0.08789
-0.09888
-0.10742
-0.11719
-0.12695
-0.13916
-0.15259
-0.16479
-0.18066
-0.19409
-0.2124
-0.22949
-0.2478
-0.26367
-0.27832
-0.29541
-0.31372
-0.32593
-0.34912
-0.36621
-0.38696
-0.40771
-0.41992
-0.44434
-0.46143
-0.48096
-0.50171
-0.51758
-0.53711
-0.5542
-0.57373
-0.59204
-0.60303
-0.62378
-0.63843
-0.6543
-0.67139
-0.68359
-0.7019
-0.71533
-0.72876
-0.73975
-0.73242
-0.72632
-0.70435
-0.67139
-0.62744
-0.5603
-0.48828
-0.40161
-0.3064
-0.20752
-0.10132
-0.00366
0.09399
0.18555
0.27222
0.34912
0.41748
0.48218
0.53833
0.59082
0.63721
0.67261
0.70679
0.72998
0.75562
0.77515
0.78613
0.7959
0.80322
0.79712
0.7959
0.78491
0.77515
0.76172
0.74219
0.72266
0.6958
0.67017
0.64453
0.61401
0.58716
0.55298
0.52368
0.49683
0.46631
0.43945
0.40894
0.38086
0.35767
0.33203
0.3125
0.28687
0.26489
0.25024
0.23438
0.22095
0.2063
0.19531
0.18555
0.17578
0.1709
0.16113
0.15381
0.14893
0.1416
0.13794
0.12939
0.12329
0.11841
0.10864
0.10254
0.08789
0.08423
0.06592
0.05371
0.0415
0.02563
0.01587
-0.00244
-0.02075
-0.0354
-0.05615
-0.07446
-0.09155
-0.1123
-0.13062
-0.15381
-0.16968
-0.19043
-0.2124
-0.22949
-0.25269
-0.26855
-0.28809
-0.30884
-0.32593
-0.34912
-0.36621
-0.38696
-0.40894
-0.42603
-0.45044
-0.46631
-0.48584
-0.50537
-0.52246
-0.5481
-0.56152
-0.58105
-0.60303
-0.61768
-0.63843
-0.64819
-0.65674
-0.65918
-0.64819
-0.63232
-0.5957
-0.55176
-0.49194
-0.41748
-0.34058
-0.24536
-0.14648
-0.05005
0.04883
0.14526
0.22827
0.30762
0.38208
0.45532
0.51758
0.57739
0.62988
0.67505
0.71533
0.75195
0.78247
0.80444
0.82031
0.83984
0.84106
0.84473
0.84351
0.83618
0.83252
0.81909
0.80688
0.78979
0.76782
0.75195
0.7251
0.7019
0.67505
0.64331
0.61768
0.58472
0.5542
0.52124
0.48462
0.45898
0.42358
0.39429
0.36621
0.33691
0.31494
0.29053
0.26978
0.25024
0.23071
0.22095
0.2063
0.19287
0.18066
0.16602
0.16113
0.14893
0.1416
0.13062
0.11963
0.11353
0.10254
0.09399
0.08423
0.07935
0.06592
0.05249
0.04395
0.03052
0.01709
0.00854
-0.00732
-0.02075
-0.0354
-0.05249
-0.06836
-0.08911
-0.10742
-0.12817
-0.14648
-0.16357
-0.18799
-0.20752
-0.22827
-0.24902
-0.26611
-0.28809
-0.30518
-0.32593
-0.34546
-0.36255
-0.38574
-0.40527
-0.4248
-0.44434
-0.46143
-0.4834
-0.50293
-0.52734
-0.54443
-0.5603
-0.58228
-0.59937
-0.61768
-0.63354
-0.64941
-0.66895
-0.68481
-0.7019
-0.71411
-0.71777
-0.72021
-0.71045
-0.68604
-0.65674
-0.60547
-0.54688
-0.47241
-0.38086
-0.29175
-0.18921
-0.09155
0.00854
0.1062
0.19653
0.2832
0.35889
0.43091
0.49805
0.5542
0.60791
0.65063
0.68726
0.72632
0.75317
0.77759
0.79468
0.81055
0.81787
0.82153
0.8252
0.81665
0.81299
0.80322
0.78735
0.77148
0.74829
0.72754
0.70313
0.67505
0.64697
0.61157
0.5835
0.55298
0.5188
0.49072
0.46265
0.42847
0.40039
0.36987
0.3479
0.32104
0.29907
0.27832
0.25757
0.24048
0.22461
0.21118
0.19897
0.18677
0.17822
0.16724
0.15747
0.14893
0.13916
0.13306
0.12329
0.11719
0.10864
0.09766
0.09033
0.07813
0.06592
0.05493
0.0415
0.02686
0.01587
0.00244
-0.01343
-0.03052
-0.04883
-0.0647
-0.08057
-0.09766
-0.12085
-0.13672
-0.15625
-0.17578
-0.19653
-0.21606
-0.2356
-0.25757
-0.2771
-0.29663
-0.3186
-0.33936
-0.35889
-0.37842
-0.39795
-0.41992
-0.43335
-0.45776
-0.47607
-0.49438
-0.51514
-0.52734
-0.55054
-0.56763
-0.58594
-0.60669
-0.62134
-0.63965
-0.65796
-0.67383
-0.69214
-0.70557
-0.71899
-0.72754
-0.72876
-0.7251
-0.7019
-0.67627
-0.63232
-0.57251
-0.50415
-0.41748
-0.32593
-0.22705
-0.12695
-0.03052
0.07324
0.16113
0.24536
0.32593
0.39429
0.46631
0.52612
0.58105
0.62988
0.67017
0.71045
0.7373
0.76172
0.78125
0.79346
0.80444
0.80444
0.80566
0.80078
0.79346
0.78491
0.76782
0.74951
0.73486
0.70679
0.68481
0.65674
0.62988
0.59937
0.56885
0.54077
0.50537
0.47363
0.44434
0.41016
0.3833
0.35278
0.32593
0.30273
0.27832
0.26001
0.23926
0.22095
0.20752
0.19165
0.18188
0.16846
0.15747
0.15015
0.14038
0.13428
0.12329
0.11108
0.10864
0.09766
0.09155
0.07813
0.06714
0.06226
0.05005
0.0415
0.02686
0.01587
0.00488
-0.01221
-0.02319
-0.04028
-0.05859
-0.07202
-0.09033
-0.10376
-0.12695
-0.14038
-0.16357
-0.18677
-0.20386
-0.22705
-0.24414
-0.26611
-0.28931
-0.3064
-0.33203
-0.35278
-0.36987
-0.39185
-0.40894
-0.43091
-0.448
-0.46753
-0.49072
-0.50781
-0.53223
-0.55176
-0.57129
-0.59326
-0.61035
-0.63232
-0.64697
-0.66284
-0.68237
-0.69702
-0.71899
-0.73242
-0.74707
-0.76416
-0.77393
-0.78735
-0.78247
-0.77148
-0.75195
-0.71655
-0.67505
-0.61157
-0.53589
-0.45166
-0.35522
-0.25757
-0.15137
-0.04761
0.05127
0.14648
0.23315
0.30884
0.3833
0.44556
0.50537
0.55664
0.60059
0.64087
0.67139
0.7019
0.72021
0.73608
0.74707
0.74951
0.75195
0.74829
0.74219
0.73364
0.71899
0.70679
0.68359
0.6604
0.63843
0.60791
0.58472
0.55298
0.52368
0.49194
0.45532
0.42847
0.39307
0.36255
0.33447
0.30151
0.2832
0.25635
0.23438
0.21362
0.19287
0.18066
0.16357
0.15015
0.14038
0.12817
0.12451
0.11597
0.10986
0.10498
0.09399
0.09644
0.08789
0.08423
0.08057
0.07568
0.0708
0.06104
0.05371
0.04517
0.03784
0.02563
0.01099
-0.00244
-0.01343
-0.0293
-0.03906
-0.05615
-0.07202
-0.08911
-0.10742
-0.12207
-0.14404
-0.16235
-0.17944
-0.2002
-0.21729
-0.23926
-0.25879
-0.27832
-0.29785
-0.31616
-0.33936
-0.35889
-0.37842
-0.39917
-0.41504
-0.43701
-0.45654
-0.47607
-0.49438
-0.51025
-0.53101
-0.5481
-0.56641
-0.58105
-0.5957
-0.61523
-0.63354
-0.65308
-0.6665
-0.67749
-0.69214
-0.69946
-0.70313
-0.6958
-0.67627
-0.64819
-0.60669
-0.5481
-0.48096
-0.39673
-0.30762
-0.20996
-0.1062
-0.0061
0.09277
0.18311
0.26855
0.35278
0.41992
0.4895
0.54688
0.59937
0.65063
0.6897
0.72876
0.75684
0.77881
0.80566
0.81787
0.83252
0.83374
0.83862
0.83374
0.8252
0.81787
0.80322
0.78857
0.77026
0.74707
0.72632
0.69824
0.67383
0.64941
0.61768
0.59204
0.55786
0.52979
0.50049
0.46631
0.43701
0.40405
0.37964
0.35889
0.33447
0.31616
0.29541
0.28076
0.26733
0.25146
0.24292
0.22705
0.22095
0.21484
0.2063
0.20264
0.19897
0.19043
0.18677
0.177
0.17212
0.16602
0.15381
0.14771
0.1355
0.12695
0.11353
0.1001
0.08911
0.07202
0.06104
0.04395
0.02686
0.01221
-0.00732
-0.02319
-0.04028
-0.05981
-0.07813
-0.1001
-0.11841
-0.14038
-0.16113
-0.17822
-0.20142
-0.21973
-0.23804
-0.25757
-0.27466
-0.29663
-0.31616
-0.33447
-0.35156
-0.36743
-0.38818
-0.40771
-0.42358
-0.44189
-0.45898
-0.48096
-0.49561
-0.51392
-0.53345
-0.5481
-0.56763
-0.5835
-0.59692
-0.60913
-0.61157
-0.61279
-0.59326
-0.57495
-0.53833
-0.48706
-0.42603
-0.34668
-0.26245
-0.1709
-0.07568
0.01465
0.1062
0.19287
0.2771
0.36011
0.43213
0.50781
0.57251
0.63232
0.69214
0.7373
0.78857
0.82642
0.85815
0.88745
0.90454
0.92529
0.9314
0.9375
0.93872
0.93506
0.9314
0.92041
0.9082
0.89233
0.87524
0.85693
0.83252
0.80933
0.78491
0.75439
0.72754
0.6958
0.66528
0.63477
0.60425
0.57861
0.5481
0.5188
0.49072
0.46265
0.44067
0.41504
0.39307
0.38086
0.35645
0.34302
0.32471
0.30762
0.29907
0.27954
0.26978
0.25513
0.2417
0.23315
0.21973
0.21118
0.19897
0.18677
0.177
0.16235
0.15137
0.13428
0.12085
0.10986
0.09033
0.0769
0.05981
0.0415
0.02808
0.00732
-0.00854
-0.0293
-0.05127
-0.06592
-0.09155
-0.10864
-0.13184
-0.15503
-0.17212
-0.19287
-0.2124
-0.23315
-0.26001
-0.27344
-0.29541
-0.31128
-0.33447
-0.35522
-0.37354
-0.39795
-0.41504
-0.43701
-0.46021
-0.47363
-0.49438
-0.51025
-0.52856
-0.54321
-0.55786
-0.57861
-0.59326
-0.61401
-0.625
-0.64209
-0.65674
-0.6604
-0.66162
-0.64697
-0.62378
-0.59204
-0.53955
-0.47852
-0.40527
-0.31494
-0.22705
-0.13306
-0.04272
0.04639
0.13794
0.22095
0.3064
0.38208
0.45532
0.52734
0.58838
0.64941
0.69946
0.74585
0.78735
0.81787
0.84717
0.86548
0.88013
0.89478
0.896
0.89966
0.89722
0.89111
0.88379
0.8667
0.85205
0.83374
0.81177
0.79102
0.76294
0.7312
0.70435
0.67261
0.64209
0.60791
0.57495
0.54565
0.51392
0.48706
0.4541
0.42847
0.40161
0.37598
0.354
0.32837
0.30762
0.28931
0.271
0.25879
0.24048
0.22705
0.21729
0.20508
0.19531
0.18188
0.177
0.15991
0.14771
0.13916
0.12451
0.11963
0.1001
0.08667
0.07446
0.05615
0.04395
0.02808
0.01099
-0.00366
-0.02319
-0.03662
-0.05615
-0.07568
-0.09277
-0.11597
-0.13184
-0.15381
-0.17456
-0.19287
-0.21606
-0.23193
-0.25391
-0.27466
-0.29297
-0.31616
-0.33325
-0.35522
-0.37598
-0.39551
-0.42114
-0.43579
-0.45654
-0.47729
-0.49561
-0.52002
-0.53345
-0.55298
-0.57373
-0.58838
-0.61035
-0.62134
-0.63843
-0.65552
-0.66895
-0.68726
-0.69946
-0.71533
-0.72876
-0.73486
-0.74341
-0.7312
-0.71411
-0.68359
-0.63843
-0.57617
-0.50781
-0.42725
-0.33936
-0.24536
-0.15259
-0.06592
0.02197
0.10742
0.19531
0.27466
0.35278
0.4248
0.49194
0.55298
0.60791
0.6604
0.70068
0.73608
0.76538
0.78979
0.80933
0.81909
0.8252
0.83252
0.82642
0.82397
0.81299
0.79834
0.78735
0.7666
0.74585
0.72266
0.69214
0.67139
0.63843
0.61035
0.57739
0.54077
0.51636
0.4834
0.4541
0.42236
0.39185
0.36743
0.33813
0.31494
0.28809
0.26489
0.24658
0.22339
0.20752
0.18921
0.1709
0.16235
0.14526
0.13306
0.12085
0.10498
0.1001
0.08789
0.07813
0.06592
0.05493
0.04517
0.03052
0.01831
0.00244
-0.0061
-0.02319
-0.0415
-0.05493
-0.07324
-0.09033
-0.10742
-0.12817
-0.14648
-0.16724
-0.18799
-0.20508
-0.22705
-0.24658
-0.26855
-0.29053
-0.30884
-0.33447
-0.354
-0.37476
-0.39429
-0.41382
-0.43701
-0.45776
-0.47974
-0.50049
-0.51758
-0.54199
-0.5603
-0.58228
-0.60059
-0.61768
-0.63843
-0.65552
-0.67749
-0.69214
-0.70679
-0.72632
-0.74097
-0.75806
-0.77393
-0.78857
-0.80688
-0.82153
-0.84106
-0.85205
-0.85815
-0.8667
-0.86182
-0.84473
-0.8252
-0.78491
-0.73364
-0.66528
-0.5835
-0.49561
-0.39551
-0.30029
-0.2002
-0.10498
-0.01343
0.07935
0.16235
0.2417
0.31738
0.38452
0.44922
0.50171
0.55176
0.59814
0.63477
0.6665
0.68848
0.71167
0.72388
0.72998
0.73608
0.72998
0.72876
0.72144
0.70801
0.69214
0.67017
0.65063
0.62622
0.59692
0.57129
0.53589
0.50781
0.47485
0.44067
0.40894
0.37964
0.34302
0.31006
0.27832
0.25269
0.22583
0.20142
0.17822
0.15625
0.13916
0.11963
0.1062
0.09277
0.07935
0.06958
0.05859
0.04883
0.0415
0.03174
0.02563
0.01587
0.00854
-0.00122
-0.01221
-0.01709
-0.0293
-0.03784
-0.04883
-0.06226
-0.07324
-0.08789
-0.1001
-0.11597
-0.13306
-0.14771
-0.16602
-0.18188
-0.19897
-0.21851
-0.2356
-0.25269
-0.26978
-0.29053
-0.31128
-0.33325
-0.35156
-0.36987
-0.3894
-0.41138
-0.42969
-0.448
-0.46631
-0.48706
-0.50781
-0.52368
-0.54565
-0.56396
-0.5835
-0.60425
-0.62256
-0.63965
-0.65552
-0.67261
-0.69092
-0.70557
-0.72632
-0.74097
-0.75806
-0.77637
-0.78857
-0.81055
-0.82397
-0.83618
-0.84473
-0.83984
-0.83008
-0.80322
-0.76172
-0.70679
-0.63354
-0.55176
-0.45532
-0.35522
-0.25513
-0.15015
-0.05615
0.03906
0.12939
0.21118
0.29541
0.36987
0.43945
0.50293
0.55542
0.61157
0.65308
0.69092
0.72144
0.74341
0.76538
0.77759
0.78735
0.78857
0.78857
0.78857
0.77759
0.76538
0.75073
0.73242
0.71289
0.68726
0.66284
0.63599
0.60669
0.57861
0.54443
0.5127
0.47974
0.45044
0.42114
0.38818
0.36011
0.32959
0.30518
0.28442
0.25879
0.23926
0.22461
0.20386
0.19165
0.17578
0.16479
0.15869
0.14282
0.13916
0.12695
0.11963
0.11353
0.10498
0.09888
0.08789
0.07935
0.06836
0.05859
0.05127
0.03662
0.02441
0.01343
-0.00244
-0.01465
-0.03296
-0.04761
-0.06226
-0.08179
-0.09644
-0.11719
-0.1355
-0.15259
-0.17334
-0.19287
-0.21362
-0.23315
-0.25269
-0.27466
-0.29175
-0.31616
-0.33569
-0.35278
-0.37476
-0.39063
-0.41138
-0.42847
-0.44434
-0.46387
-0.48096
-0.50415
-0.52612
-0.53833
-0.55908
-0.57373
-0.59326
-0.61035
-0.625
-0.64331
-0.65674
-0.67627
-0.69092
-0.7019
-0.71289
-0.71655
-0.71655
-0.70679
-0.67993
-0.64453
-0.58838
-0.52612
-0.44312
-0.35645
-0.26245
-0.16846
-0.07935
0.01953
0.10376
0.18921
0.27954
0.35889
0.44067
0.51514
0.57983
0.64331
0.69336
0.74585
0.78613
0.81787
0.84717
0.86548
0.88257
0.89478
0.89722
0.90088
0.89722
0.89111
0.88135
0.86548
0.85083
0.83008
0.80811
0.78613
0.75684
0.72998
0.7019
0.67139
0.63965
0.60425
0.57251
0.53833
0.50537
0.47485
0.44312
0.4126
0.38574
0.36011
0.33569
0.31128
0.28931
0.271
0.25513
0.24048
0.22217
0.20874
0.19775
0.18677
0.17456
0.16235
0.15137
0.14038
0.13062
0.12085
0.10742
0.09766
0.08423
0.0708
0.05615
0.04028
0.02563
0.00854
-0.00732
-0.02319
-0.04395
-0.06104
-0.08057
-0.09766
-0.11719
-0.13916
-0.15259
-0.18066
-0.20142
-0.22095
-0.24536
-0.25879
-0.28564
-0.30518
-0.32715
-0.35034
-0.36743
-0.39063
-0.41138
-0.42969
-0.45288
-0.46997
-0.4895
-0.50903
-0.52856
-0.55054
-0.56396
-0.58838
-0.60547
-0.62256
-0.64209
-0.65552
-0.67383
-0.6897
-0.70557
-0.72266
-0.73242
-0.74951
-0.75684
-0.75928
-0.75684
-0.73608
-0.70801
-0.66162
-0.60181
-0.53467
-0.44312
-0.35522
-0.26245
-0.16846
-0.08179
0.01831
0.10864
0.20142
0.29053
0.3772
0.45654
0.52734
0.59326
0.65308
0.70557
0.74951
0.78369
0.81543
0.83618
0.85571
0.87036
0.87402
0.87646
0.87646
0.86914
0.86182
0.84595
0.83008
0.80933
0.78735
0.76538
0.73608
0.71045
0.68237
0.65186
0.62256
0.58838
0.55664
0.52368
0.4895
0.46021
0.42603
0.39551
0.36987
0.33813
0.31738
0.28931
0.26733
0.2478
0.22705
0.21118
0.19165
0.17456
0.16357
0.14771
0.13672
0.12207
0.10864
0.1001
0.08667
0.07813
0.06348
0.05005
0.0415
0.02808
0.01709
0.00122
-0.01343
-0.02563
-0.04272
-0.05493
-0.07446
-0.09521
-0.1062
-0.12695
-0.14282
-0.16357
-0.18433
-0.2002
-0.22217
-0.23804
-0.26245
-0.28442
-0.30029
-0.32349
-0.34058
-0.36499
-0.3833
-0.40283
-0.4248
-0.44189
-0.46631
-0.48462
-0.50049
-0.52246
-0.53833
-0.55908
-0.57861
-0.59326
-0.61279
-0.62622
-0.64697
-0.66406
-0.67627
-0.69336
-0.70679
-0.7251
-0.7373
-0.75317
-0.76904
-0.77637
-0.78735
-0.78003
-0.77515
-0.75684
-0.71899
-0.67261
-0.60425
-0.52979
-0.44556
-0.35156
-0.26245
-0.16479
-0.07568
0.01343
0.10742
0.19531
0.28564
0.36743
0.44312
0.51758
0.57373
0.63599
0.68726
0.72754
0.76538
0.78857
0.81421
0.83252
0.83862
0.84595
0.84229
0.8374
0.8313
0.81665
0.80322
0.78369
0.76172
0.73853
0.71045
0.68481
0.65552
0.625
0.59448
0.55786
0.52734
0.49438
0.46021
0.42603
0.39063
0.35889
0.32715
0.29785
0.27222
0.24414
0.22095
0.20142
0.18311
0.16479
0.14648
0.13306
0.11719
0.10376
0.09277
0.07813
0.06958
0.05737
0.04639
0.0354
0.02197
0.00977
-0.00366
-0.01587
-0.02808
-0.04395
-0.05859
-0.07446
-0.08911
-0.10376
-0.12329
-0.13428
-0.15869
-0.177
-0.19287
-0.21362
-0.22461
-0.25146
-0.27222
-0.29175
-0.31616
-0.33325
-0.35767
-0.37964
-0.40039
-0.4248
-0.44434
-0.46631
-0.48706
-0.50659
-0.52856
-0.54443
-0.56763
-0.58716
-0.60547
-0.62744
-0.64087
-0.66284
-0.68115
-0.70068
-0.72144
-0.73486
-0.75562
-0.77393
-0.78857
-0.80811
-0.81909
-0.83618
-0.85205
-0.86426
-0.88257
-0.88989
-0.9021
-0.90576
-0.9021
-0.89233
-0.85815
-0.81909
-0.7605
-0.68726
-0.60425
-0.50537
-0.40649
-0.30518
-0.20142
-0.10498
-0.0061
0.08667
0.177
0.26367
0.34302
0.42236
0.48828
0.55054
0.60425
0.65063
0.69214
0.72144
0.74829
0.7666
0.77759
0.78857
0.78613
0.78247
0.77881
0.76538
0.75439
0.73364
0.71167
0.6897
0.6604
0.63477
0.60059
0.56763
0.53833
0.49927
0.46509
0.42725
0.39307
0.36011
0.32471
0.29541
0.26245
0.23438
0.21118
0.18555
0.16357
0.1416
0.12207
0.10864
0.09155
0.08179
0.06714
0.05371
0.04883
0.03784
0.03174
0.02197
0.01099
0.00854
-0.00244
-0.00732
-0.01953
-0.0293
-0.03662
-0.04883
-0.05859
-0.07446
-0.08789
-0.1001
-0.11963
-0.13428
-0.15625
-0.17822
-0.19165
-0.2124
-0.22583
-0.24292
-0.26245
-0.27588
-0.29663
-0.31494
-0.34058
-0.36011
-0.37842
-0.40161
-0.41748
-0.43701
-0.45044
-0.47119
-0.49194
-0.50781
-0.53101
-0.54443
-0.56641
-0.58838
-0.60303
-0.62378
-0.64209
-0.65674
-0.67627
-0.69092
-0.71045
-0.72754
-0.73853
-0.75684
-0.77148
-0.78979
-0.80322
-0.81299
-0.82275
-0.82275
-0.82153
-0.80322
-0.77271
-0.7312
-0.66895
-0.59692
-0.50781
-0.41138
-0.31494
-0.2124
-0.11719
-0.01831
0.08057
0.17212
0.26489
0.34546
0.43091
0.51025
0.57739
0.64209
0.69458
0.74097
0.78491
0.81299
0.84106
0.85693
0.87036
0.87891
0.87891
0.88013
0.87158
0.86182
0.84961
0.83008
0.80811
0.78613
0.7605
0.73486
0.70313
0.67261
0.64087
0.60669
0.57373
0.53589
0.49927
0.46631
0.43213
0.40039
0.36621
0.33569
0.30884
0.2832
0.26123
0.23804
0.21851
0.20386
0.19043
0.17822
0.16357
0.15381
0.14526
0.1355
0.13062
0.11963
0.11353
0.10254
0.09399
0.08423
0.07324
0.06592
0.05371
0.0415
0.03052
0.01343
0.00244
-0.01221
-0.0293
-0.04517
-0.0647
-0.08179
-0.1001
-0.11841
-0.13428
-0.15869
-0.17578
-0.19775
-0.21851
-0.23804
-0.26123
-0.27588
-0.30396
-0.32593
-0.34424
-0.36621
-0.37842
-0.40527
-0.42358
-0.44189
-0.46265
-0.47607
-0.50049
-0.52002
-0.53589
-0.55664
-0.57251
-0.59204
-0.60913
-0.62378
-0.64087
-0.6543
-0.67139
-0.68726
-0.70068
-0.71777
-0.72754
-0.74341
-0.75317
-0.75684
-0.75806
-0.74097
-0.71899
-0.67993
-0.62256
-0.55542
-0.46875
-0.38086
-0.28687
-0.19043
-0.09766
0
0.09155
0.18555
0.27954
0.36499
0.45288
0.52856
0.59937
0.66406
0.72266
0.76782
0.80566
0.8374
0.86548
0.88379
0.89966
0.90454
0.90698
0.90332
0.89722
0.89111
0.87524
0.85693
0.83618
0.81665
0.79712
0.76904
0.74097
0.71167
0.68115
0.65063
0.61523
0.57983
0.54443
0.50903
0.47607
0.44067
0.40771
0.37842
0.34668
0.31982
0.29053
0.26489
0.24536
0.22217
0.2063
0.18799
0.17212
0.15747
0.14282
0.13306
0.11841
0.10742
0.09766
0.08545
0.0769
0.0647
0.05127
0.04028
0.0293
0.02075
0.00488
-0.01099
-0.02686
-0.04028
-0.05249
-0.0708
-0.08667
-0.1062
-0.12329
-0.14038
-0.16235
-0.18433
-0.2063
-0.22461
-0.24414
-0.26733
-0.28809
-0.30762
-0.33203
-0.35156
-0.37598
-0.39795
-0.41382
-0.43823
-0.45654
-0.47852
-0.49927
-0.51147
-0.53711
-0.5542
-0.57495
-0.59448
-0.60425
-0.6311
-0.64575
-0.66406
-0.67993
-0.68726
-0.70923
-0.72266
-0.74341
-0.7605
-0.77271
-0.79346
-0.80688
-0.82275
-0.83374
-0.8374
-0.8374
-0.8252
-0.80566
-0.77026
-0.71655
-0.65063
-0.56519
-0.47607
-0.37842
-0.27954
-0.17944
-0.07813
0.01953
0.11719
0.21729
0.30518
0.39673
0.47607
0.54688
0.61768
0.67383
0.72632
0.7666
0.80444
0.8313
0.84961
0.8667
0.87158
0.87646
0.87524
0.86548
0.85693
0.83984
0.8252
0.80688
0.77881
0.75562
0.7251
0.69824
0.66895
0.63354
0.60303
0.56519
0.53467
0.50293
0.46509
0.43335
0.39429
0.36499
0.33691
0.30518
0.27954
0.2478
0.22827
0.20874
0.18677
0.16968
0.14893
0.1355
0.12329
0.1062
0.09644
0.08179
0.0708
0.06226
0.04761
0.03906
0.02686
0.01709
0.00854
-0.00732
-0.01587
-0.03052
-0.04272
-0.05493
-0.07324
-0.08667
-0.10376
-0.11963
-0.13428
-0.15503
-0.17212
-0.19287
-0.21118
-0.22827
-0.25146
-0.26978
-0.29175
-0.3125
-0.33203
-0.35522
-0.37231
-0.39429
-0.41626
-0.43457
-0.45898
-0.47974
-0.50293
-0.52124
-0.54077
-0.56152
-0.57983
-0.60059
-0.61768
-0.63354
-0.6543
-0.67017
-0.69214
-0.70557
-0.72021
-0.73853
-0.75195
-0.77026
-0.78491
-0.79834
-0.81665
-0.8313
-0.84595
-0.85938
-0.86548
-0.86792
-0.85693
-0.83374
-0.80688
-0.75684
-0.69702
-0.61523
-0.52246
-0.42847
-0.32593
-0.22827
-0.12573
-0.02686
0.06836
0.16602
0.25391
0.3418
0.42358
0.49805
0.56763
0.625
0.67627
0.72266
0.75806
0.78979
0.80811
0.82642
0.83374
0.83862
0.83862
0.82886
0.82153
0.80444
0.78613
0.76538
0.7373
0.71533
0.68359
0.65186
0.62134
0.5835
0.55176
0.51147
0.47363
0.43823
0.39795
0.36621
0.32837
0.29297
0.26123
0.22827
0.20508
0.17578
0.14893
0.12817
0.10498
0.09033
0.07324
0.05859
0.04883
0.03418
0.02808
0.01709
0.00732
0.00244
-0.01099
-0.01465
-0.02441
-0.03418
-0.04272
-0.05737
-0.06348
-0.07446
-0.08789
-0.09766
-0.11475
-0.12451
-0.14038
-0.15503
-0.16968
-0.18921
-0.20264
-0.22339
-0.2417
-0.25757
-0.28198
-0.29541
-0.3186
-0.33936
-0.36011
-0.38574
-0.40283
-0.42725
-0.44922
-0.46997
-0.49561
-0.51025
-0.53223
-0.55298
-0.57129
-0.59448
-0.60913
-0.62988
-0.64941
-0.66528
-0.6897
-0.70068
-0.71777
-0.73608
-0.75195
-0.77515
-0.78369
-0.802
-0.82031
-0.83496
-0.85938
-0.87036
-0.88745
-0.9021
-0.91064
-0.91675
-0.90942
-0.896
-0.86792
-0.81909
-0.7605
-0.67871
-0.58838
-0.48706
-0.37842
-0.27344
-0.16235
-0.06104
0.03784
0.13672
0.23071
0.31372
0.39307
0.46631
0.53711
0.5957
0.65186
0.69336
0.72876
0.75684
0.77759
0.7959
0.80322
0.80688
0.80444
0.80078
0.79468
0.77881
0.75806
0.74585
0.71289
0.68848
0.65796
0.625
0.59937
0.5603
0.52979
0.49194
0.4541
0.42236
0.38086
0.34912
0.31372
0.28076
0.25391
0.22461
0.2002
0.17578
0.15259
0.13916
0.12207
0.11108
0.09888
0.08911
0.08179
0.07446
0.06958
0.06104
0.05493
0.05249
0.04883
0.04761
0.0415
0.0354
0.03174
0.02197
0.01465
0.00244
-0.00977
-0.01831
-0.03296
-0.04272
-0.05615
-0.0708
-0.08057
-0.10132
-0.11597
-0.1355
-0.15503
-0.16968
-0.19287
-0.20874
-0.22949
-0.25024
-0.26489
-0.28687
-0.30273
-0.32227
-0.34302
-0.35767
-0.38086
-0.39673
-0.41748
-0.43823
-0.45288
-0.47607
-0.49194
-0.51147
-0.53101
-0.54443
-0.56763
-0.58228
-0.59937
-0.61768
-0.62988
-0.64819
-0.66162
-0.67993
-0.6958
-0.70435
-0.71899
-0.7251
-0.72754
-0.72144
-0.69824
-0.67017
-0.6189
-0.55664
-0.47729
-0.38086
-0.28687
-0.18311
-0.08423
0.01343
0.11597
0.20996
0.3064
0.39673
0.48096
0.56763
0.63965
0.70923
0.76782
0.81665
0.86548
0.89966
0.93384
0.95337
0.9668
0.979
0.979
0.98022
0.97168
0.96313
0.95093
0.93018
0.91187
0.88501
0.86182
0.83862
0.80688
0.77759
0.74341
0.71167
0.67871
0.63843
0.60547
0.56641
0.53345
0.50171
0.46753
0.43945
0.40771
0.3833
0.36133
0.33691
0.3186
0.29541
0.27954
0.26611
0.24902
0.23804
0.22217
0.21362
0.20508
0.19165
0.18555
0.17212
0.16357
0.15625
0.14282
0.13306
0.11841
0.10986
0.09888
0.08423
0.07324
0.05493
0.04395
0.03052
0.01099
-0.0061
-0.0293
-0.04395
-0.06104
-0.08179
-0.10132
-0.12817
-0.14526
-0.16357
-0.18677
-0.20386
-0.22827
-0.24292
-0.26001
-0.2832
-0.30029
-0.32593
-0.34302
-0.36011
-0.3833
-0.40161
-0.4248
-0.43945
-0.45532
-0.47729
-0.49438
-0.51636
-0.53345
-0.5481
-0.57007
-0.58472
-0.60059
-0.61646
-0.62988
-0.64697
-0.65552
-0.66284
-0.66162
-0.64575
-0.62256
-0.58105
-0.52612
-0.45654
-0.37598
-0.29053
-0.19897
-0.10864
-0.01709
0.08301
0.177
0.27466
0.37231
0.45898
0.54688
0.62134
0.69336
0.75562
0.80811
0.85571
0.89111
0.92163
0.94727
0.96436
0.97656
0.979
0.98145
0.97656
0.96802
0.95947
0.93994
0.92773
0.9021
0.88013
0.85693
0.83008
0.80688
0.77026
0.73853
0.70801
0.67139
0.64575
0.60669
0.57251
0.54077
0.50415
0.47974
0.44189
0.41138
0.38696
0.35645
0.33691
0.31006
0.28687
0.26978
0.25024
0.24048
0.21973
0.20386
0.19531
0.17822
0.17212
0.15625
0.14282
0.13306
0.11963
0.11475
0.09766
0.08301
0.07324
0.05615
0.04761
0.03052
0.01343
0
-0.02075
-0.03418
-0.05249
-0.07202
-0.08667
-0.10864
-0.12695
-0.14526
-0.16846
-0.18555
-0.20874
-0.22705
-0.24902
-0.271
-0.28809
-0.31128
-0.33081
-0.35034
-0.36987
-0.38818
-0.41016
-0.42603
-0.44434
-0.46265
-0.47974
-0.50293
-0.52002
-0.53955
-0.55908
-0.57495
-0.5957
-0.60913
-0.62744
-0.64575
-0.65796
-0.67749
-0.68848
-0.70313
-0.71289
-0.71411
-0.71167
-0.69214
-0.66406
-0.6189
-0.55664
-0.48828
-0.40405
-0.31982
-0.23071
-0.13672
-0.04639
0.05493
0.15015
0.24658
0.34424
0.42603
0.51514
0.58838
0.6543
0.71411
0.76172
0.80566
0.83862
0.86426
0.88623
0.89966
0.9082
0.91064
0.90576
0.90088
0.89111
0.88013
0.86182
0.84106
0.81787
0.79468
0.77026
0.74219
0.71167
0.67993
0.64941
0.61646
0.57983
0.54321
0.50903
0.47607
0.44434
0.4126
0.38208
0.354
0.32959
0.30518
0.28076
0.25635
0.2356
0.21973
0.20264
0.18799
0.17212
0.15625
0.14404
0.13306
0.11963
0.1062
0.09277
0.08179
0.07324
0.06104
0.04883
0.0354
0.02563
0.01343
-0.00122
-0.01709
-0.03174
-0.04761
-0.06226
-0.07935
-0.09644
-0.11353
-0.13184
-0.14893
-0.16846
-0.18921
-0.20874
-0.22949
-0.24902
-0.26978
-0.29175
-0.31128
-0.32959
-0.34668
-0.36865
-0.3894
-0.40771
-0.42725
-0.44556
-0.46509
-0.48462
-0.50293
-0.52124
-0.53833
-0.55786
-0.57739
-0.59448
-0.61401
-0.62988
-0.64697
-0.66406
-0.67871
-0.6958
-0.71045
-0.72632
-0.74097
-0.74951
-0.75806
-0.75684
-0.74951
-0.7312
-0.6958
-0.64819
-0.58472
-0.51147
-0.43091
-0.34302
-0.25635
-0.16479
-0.0708
0.02441
0.12085
0.21606
0.30884
0.39307
0.47119
0.54443
0.60547
0.66284
0.70801
0.74585
0.78369
0.79834
0.81787
0.82764
0.83252
0.83496
0.82764
0.82031
0.80566
0.78613
0.77026
0.74341
0.71899
0.69092
0.6604
0.63477
0.59814
0.56641
0.53101
0.49438
0.46143
0.42358
0.39063
0.35522
0.31982
0.29297
0.25757
0.23071
0.20508
0.17822
0.16113
0.13672
0.11963
0.1001
0.08301
0.07202
0.05615
0.04517
0.03418
0.02319
0.01587
0.00488
-0.00366
-0.01465
-0.02563
-0.03418
-0.04639
-0.05615
-0.06836
-0.08301
-0.09399
-0.10986
-0.12207
-0.13794
-0.15503
-0.16846
-0.19043
-0.2063
-0.22461
-0.24536
-0.25879
-0.2832
-0.30029
-0.31982
-0.34058
-0.35278
-0.38086
-0.39917
-0.41992
-0.44312
-0.4541
-0.48218
-0.49927
-0.5188
-0.53955
-0.55054
-0.57617
-0.59082
-0.60791
-0.62744
-0.63599
-0.65918
-0.67383
-0.69092
-0.70801
-0.71533
-0.7373
-0.74951
-0.76538
-0.78125
-0.78857
-0.80933
-0.81787
-0.82397
-0.82764
-0.81543
-0.79956
-0.76416
-0.71533
-0.65186
-0.57373
-0.48706
-0.39429
-0.30029
-0.20508
-0.1062
-0.01099
0.08911
0.18433
0.27466
0.37109
0.44312
0.51758
0.58105
0.63721
0.68848
0.72388
0.75806
0.78369
0.79956
0.81543
0.82031
0.82031
0.81421
0.80322
0.79468
0.77515
0.75806
0.73608
0.70923
0.68604
0.65308
0.62256
0.58838
0.55176
0.52246
0.48462
0.45044
0.41626
0.38086
0.35034
0.31616
0.28687
0.25635
0.22827
0.20752
0.18188
0.16235
0.14404
0.12451
0.11475
0.09888
0.08911
0.0769
0.06348
0.06104
0.04761
0.04028
0.03174
0.01709
0.01587
0.00488
-0.00366
-0.01343
-0.02808
-0.03174
-0.04639
-0.05981
-0.07568
-0.09644
-0.10742
-0.12573
-0.14282
-0.16235
-0.18433
-0.19653
-0.21729
-0.23315
-0.25269
-0.27588
-0.29053
-0.3125
-0.32959
-0.35034
-0.37231
-0.38452
-0.40649
-0.42358
-0.44189
-0.46265
-0.47729
-0.49805
-0.51514
-0.53345
-0.55298
-0.56274
-0.58228
-0.59692
-0.61157
-0.62988
-0.64087
-0.65918
-0.67139
-0.68848
-0.70435
-0.71411
-0.73364
-0.74463
-0.75562
-0.76416
-0.76172
-0.75562
-0.73364
-0.70068
-0.6543
-0.58594
-0.51392
-0.42847
-0.33936
-0.24902
-0.15015
-0.05615
0.04517
0.14282
0.23804
0.33691
0.42114
0.50415
0.57861
0.64087
0.70435
0.75073
0.79346
0.8252
0.85083
0.87158
0.88135
0.88745
0.88989
0.88501
0.88013
0.8667
0.85327
0.83252
0.81421
0.79346
0.7666
0.74097
0.71289
0.68359
0.6543
0.6189
0.58838
0.55542
0.52246
0.49194
0.45532
0.42603
0.39429
0.36499
0.33813
0.30884
0.28564
0.26245
0.24048
0.22461
0.20386
0.18799
0.17334
0.15869
0.15015
0.13794
0.12817
0.11719
0.10742
0.1001
0.08423
0.07446
0.06226
0.05249
0.03906
0.02441
0.01099
-0.00488
-0.01343
-0.0293
-0.04761
-0.0647
-0.08057
-0.09399
-0.11475
-0.13428
-0.15259
-0.17334
-0.19043
-0.21118
-0.23315
-0.25391
-0.27344
-0.29907
-0.31372
-0.33691
-0.35645
-0.3772
-0.40039
-0.41382
-0.43701
-0.4541
-0.47241
-0.49194
-0.50659
-0.52734
-0.54443
-0.56274
-0.58228
-0.59448
-0.61401
-0.62988
-0.64453
-0.66162
-0.67383
-0.69092
-0.70435
-0.71777
-0.7312
-0.72876
-0.72876
-0.71411
-0.68848
-0.6543
-0.5957
-0.53101
-0.45288
-0.36987
-0.28809
-0.19043
-0.10132
-0.00366
0.09766
0.19287
0.29785
0.38696
0.47241
0.54932
0.61768
0.68359
0.73364
0.78003
0.81665
0.84351
0.86914
0.88257
0.89478
0.89722
0.896
0.89478
0.88379
0.87158
0.85571
0.83984
0.82153
0.79712
0.77271
0.74341
0.71777
0.69214
0.65674
0.62622
0.59082
0.56152
0.52856
0.49316
0.46143
0.42725
0.39795
0.37354
0.34302
0.3186
0.29175
0.271
0.25146
0.22949
0.21118
0.19165
0.177
0.16479
0.14648
0.13428
0.12085
0.10864
0.09888
0.08423
0.07324
0.05981
0.04639
0.03784
0.02075
0.00732
-0.00732
-0.02197
-0.0354
-0.05371
-0.06958
-0.08911
-0.1062
-0.12207
-0.14526
-0.16479
-0.18433
-0.20386
-0.22217
-0.24292
-0.26367
-0.28687
-0.30884
-0.32837
-0.354
-0.37476
-0.39673
-0.41748
-0.43701
-0.45898
-0.47729
-0.49683
-0.51636
-0.53223
-0.55542
-0.57495
-0.59326
-0.61279
-0.62744
-0.64697
-0.66162
-0.67749
-0.69458
-0.70435
-0.72266
-0.73486
-0.74707
-0.76172
-0.77271
-0.78857
-0.79712
-0.80444
-0.80444
-0.78857
-0.76782
-0.72876
-0.67627
-0.61157
-0.52979
-0.44678
-0.35522
-0.26245
-0.16357
-0.06104
0.03784
0.14282
0.24414
0.33936
0.42969
0.50903
0.58105
0.64453
0.69946
0.74951
0.78491
0.81665
0.84106
0.85815
0.87158
0.87524
0.87524
0.87524
0.86304
0.85449
0.83496
0.81665
0.79834
0.77026
0.74707
0.71899
0.69092
0.66772
0.62866
0.59937
0.5603
0.52612
0.49683
0.45776
0.42847
0.39307
0.36377
0.33203
0.30396
0.27954
0.25024
0.22705
0.20264
