-0.16235
-0.16479
-0.16479
-0.16846
-0.16968
-0.16968
-0.17334
-0.17212
-0.17456
-0.17334
-0.17822
-0.17822
-0.17578
-0.17944
-0.17944
-0.18066
-0.18188
-0.17944
-0.18188
-0.18188
-0.18066
-0.18188
-0.18066
-0.18311
-0.18555
-0.18311
-0.18311
-0.18188
-0.18311
-0.18433
-0.18433
-0.18799
-0.18433
-0.18188
-0.18921
-0.18555
-0.18433
-0.17944
-0.17822
-0.16846
-0.15625
-0.14282
-0.11841
-0.09399
-0.04761
0.00488
0.05981
0.11841
0.16724
0.21729
0.26245
0.30151
0.34302
0.36987
0.39795
0.42114
0.43701
0.45166
0.45532
0.46265
0.46387
0.46143
0.46021
0.45044
0.44678
0.44067
0.42969
0.42358
0.41016
0.40283
0.39429
0.3833
0.37476
0.35767
0.34912
0.33813
0.32837
0.32104
0.31006
0.30273
0.29541
0.28687
0.28198
0.271
0.26489
0.25635
0.2478
0.23926
0.22339
0.21851
0.20874
0.19775
0.18921
0.17334
0.16724
0.15991
0.14893
0.14282
0.13062
0.12817
0.12207
0.11475
0.11353
0.10498
0.10498
0.10254
0.09888
0.09766
0.09155
0.09155
0.09033
0.08545
0.08545
0.0769
0.07446
0.06958
0.06348
0.05859
0.05005
0.04395
0.03662
0.02808
0.02441
0.01587
0.00977
0.00366
-0.00366
-0.00977
-0.01709
-0.02197
-0.02686
-0.03418
-0.0354
-0.04761
-0.05371
-0.06104
-0.06714
-0.06592
-0.07935
-0.08179
-0.08911
-0.09644
-0.09766
-0.1062
-0.10864
-0.1123
-0.11719
-0.12207
-0.12573
-0.12695
-0.13184
-0.13672
-0.1416
-0.14526
-0.14648
-0.15015
-0.15259
-0.15503
-0.15747
-0.15747
-0.15991
-0.16235
-0.16235
-0.16602
-0.16479
-0.16602
-0.16724
-0.16724
-0.16968
-0.16846
-0.16968
-0.17212
-0.17578
-0.177
-0.177
-0.17578
-0.17822
-0.18066
-0.18066
-0.17822
-0.17944
-0.18066
-0.18066
-0.18311
-0.18188
-0.18311
-0.18311
-0.18433
-0.18677
-0.18677
-0.18799
-0.18921
-0.18921
-0.19409
-0.19409
-0.19653
-0.19897
-0.2002
-0.20264
-0.20264
-0.20508
-0.20874
-0.20752
-0.21118
-0.20996
-0.20996
-0.20996
-0.20996
-0.21118
-0.20996
-0.20996
-0.2063
-0.20996
-0.2124
-0.21118
-0.2124
-0.20752
-0.20874
-0.20874
-0.20508
-0.20264
-0.2002
-0.19043
-0.18555
-0.17334
-0.15991
-0.14648
-0.11963
-0.09033
-0.05005
-0.00488
0.04395
0.09888
0.14282
0.18799
0.22583
0.25757
0.29175
0.3186
0.3418
0.35889
0.36865
0.3833
0.38696
0.39063
0.39063
0.39063
0.38452
0.3772
0.36987
0.35889
0.34912
0.33813
0.32593
0.31494
0.30151
0.28931
0.27466
0.26001
0.24902
0.2356
0.22217
0.20996
0.19775
0.18799
0.17822
0.16479
0.15259
0.1416
0.13184
0.11963
0.10986
0.10132
0.08911
0.08057
0.07202
0.06226
0.05493
0.04639
0.04272
0.03662
0.03052
0.02808
0.02197
0.01953
0.01709
0.01343
0.01343
0.01099
0.01221
0.00854
0.00732
0.00732
0.00244
0.00244
0
-0.00122
-0.00732
-0.01099
-0.01221
-0.01709
-0.01709
-0.02563
-0.03174
-0.03418
-0.03906
-0.04272
-0.04761
-0.05493
-0.05737
-0.06348
-0.07202
-0.0708
-0.0769
-0.07935
-0.08301
-0.08911
-0.09033
-0.09521
-0.09644
-0.10132
-0.10864
-0.10864
-0.11475
-0.11597
-0.12207
-0.12817
-0.12695
-0.13184
-0.13428
-0.13916
-0.14648
-0.14404
-0.15015
-0.15137
-0.15503
-0.16235
-0.15991
-0.16357
-0.16602
-0.16968
-0.17456
-0.17334
-0.17822
-0.17822
-0.18066
-0.18433
-0.18311
-0.18555
-0.18311
-0.18555
-0.18799
-0.18555
-0.19043
-0.18921
-0.18921
-0.19287
-0.19165
-0.19409
-0.19287
-0.19531
-0.19775
-0.19531
-0.19775
-0.19531
-0.19897
-0.19897
-0.19653
-0.19775
-0.19409
-0.19409
-0.19653
-0.19287
-0.19531
-0.19287
-0.18799
-0.19287
-0.19165
-0.19287
-0.19043
-0.18921
-0.19287
-0.18799
-0.18921
-0.18677
-0.18921
-0.18799
-0.18311
-0.18311
-0.17822
-0.17822
-0.17578
-0.17212
-0.1709
-0.16724
-0.1709
-0.16479
-0.16235
-0.16235
-0.15869
-0.16235
-0.15869
-0.15381
-0.15381
-0.14893
-0.14404
-0.1355
-0.12085
-0.10986
-0.09155
-0.0769
-0.05371
-0.02319
0.00732
0.04639
0.08057
0.11719
0.15259
0.17822
0.20386
0.22217
0.24048
0.25513
0.26123
0.26978
0.271
0.271
0.27222
0.26855
0.26611
0.25635
0.25146
0.24658
0.23804
0.23193
0.22217
0.21606
0.21118
0.20142
0.19653
0.18555
0.18066
0.17456
0.16602
0.16113
0.15259
0.14648
0.14404
0.13794
0.1355
0.12451
0.12329
0.11841
0.10986
0.10498
0.09399
0.09277
0.08911
0.08301
0.08057
0.07202
0.06958
0.06836
0.06226
0.06226
0.05737
0.05859
0.05981
0.05737
0.05981
0.05737
0.05737
0.05981
0.05615
0.05981
0.05615
0.05737
0.05859
0.05493
0.05493
0.05249
0.05127
0.05005
0.04517
0.04272
0.03784
0.03418
0.03174
0.02441
0.02686
0.01343
0.00854
0.00488
-0.00366
-0.00244
-0.01343
-0.01831
-0.02197
-0.02808
-0.03296
-0.03662
-0.0415
-0.04395
-0.05005
-0.05371
-0.05737
-0.06104
-0.06226
-0.06592
-0.06836
-0.07202
-0.07446
-0.07568
-0.08057
-0.08423
-0.08301
-0.08545
-0.08667
-0.09033
-0.09155
-0.09277
-0.09399
-0.09399
-0.09766
-0.09888
-0.1001
-0.10132
-0.10132
-0.10376
-0.10498
-0.1062
-0.10742
-0.1062
-0.10742
-0.10864
-0.10986
-0.10986
-0.10864
-0.1123
-0.10986
-0.11353
-0.1123
-0.11108
-0.11353
-0.11108
-0.11353
-0.1123
-0.11108
-0.10864
-0.1123
-0.11597
-0.11719
-0.11597
-0.11841
-0.11719
-0.11963
-0.12085
-0.11963
-0.12695
-0.12207
-0.12451
-0.12451
-0.12329
-0.12573
-0.12451
-0.12451
-0.12451
-0.12207
-0.12695
-0.11841
-0.11597
-0.10986
-0.10132
-0.09521
-0.07935
-0.06226
-0.04028
-0.00732
0.02686
0.07446
0.12085
0.16724
0.21362
0.24902
0.28687
0.3186
0.3479
0.37476
0.39063
0.40894
0.41748
0.42603
0.43213
0.42847
0.43213
0.42847
0.4248
0.41992
0.41016
0.40527
0.39429
0.38452
0.3772
0.36011
0.35522
0.34302
0.32959
0.31738
0.29907
0.29175
0.2771
0.26489
0.25391
0.23926
0.22827
0.21484
0.20264
0.19287
0.177
0.16968
0.15625
0.14526
0.1355
0.12085
0.11719
0.10864
0.10132
0.09766
0.08667
0.08667
0.08057
0.07813
0.07568
0.06958
0.0708
0.06836
0.06714
0.06714
0.06348
0.0647
0.06104
0.05981
0.05981
0.05249
0.05249
0.04883
0.04639
0.04395
0.03784
0.03662
0.0293
0.02441
0.02075
0.01587
0.01343
0.00732
0.00366
0.00122
-0.0061
-0.00977
-0.01587
-0.02075
-0.01953
-0.03296
-0.0354
-0.0415
-0.04639
-0.05005
-0.05615
-0.05737
-0.0647
-0.06714
-0.07324
-0.0769
-0.0769
-0.08179
-0.08423
-0.08545
-0.09033
-0.09033
-0.09644
-0.09888
-0.10498
-0.1062
-0.10742
-0.11108
-0.11353
-0.11841
-0.11841
-0.11841
-0.12207
-0.12329
-0.12573
-0.12939
-0.12817
-0.13062
-0.13062
-0.13428
-0.13672
-0.1355
-0.14038
-0.1416
-0.14404
-0.14648
-0.14526
-0.14648
-0.14648
-0.14893
-0.15015
-0.14893
-0.15137
-0.15381
-0.15503
-0.15869
-0.15747
-0.15991
-0.15991
-0.16235
-0.16357
-0.16113
-0.16357
-0.16357
-0.16357
-0.16479
-0.16357
-0.16357
-0.16479
-0.16235
-0.16357
-0.15991
-0.16357
-0.16235
-0.16113
-0.16113
-0.15747
-0.15503
-0.14526
-0.14404
-0.13672
-0.12451
-0.11108
-0.08789
-0.05737
-0.01587
0.04028
0.09766
0.15625
0.21606
0.26855
0.31982
0.36377
0.40283
0.44189
0.46997
0.49561
0.5127
0.53101
0.53467
0.53955
0.54443
0.54077
0.53833
0.53589
0.52979
0.5249
0.51758
0.51025
0.50293
0.49438
0.4895
0.47852
0.46997
0.45898
0.44922
0.44189
0.43335
0.42603
0.4187
0.41138
0.40771
0.39795
0.39185
0.38574
0.37842
0.37354
0.36499
0.35645
0.34668
0.33691
0.32959
0.31738
0.3064
0.29663
0.28564
0.27832
0.26978
0.26367
0.25513
0.2478
0.24536
0.23804
0.23315
0.22949
0.22339
0.22095
0.21729
0.21362
0.21118
0.2063
0.20508
0.19775
0.19409
0.18799
0.18066
0.17456
0.16602
0.16235
0.14893
0.14038
0.13306
0.11963
0.11475
0.1001
0.08911
0.08057
0.06836
0.06226
0.04883
0.03784
0.03174
0.01953
0.01099
0.00244
-0.00732
-0.01465
-0.02441
-0.0354
-0.03784
-0.04639
-0.05127
-0.06104
-0.0708
-0.07202
-0.08057
-0.08545
-0.09033
-0.09644
-0.1001
-0.1062
-0.10986
-0.11719
-0.12451
-0.12451
-0.13062
-0.13062
-0.1355
-0.14282
-0.14038
-0.14404
-0.14404
-0.14893
-0.15381
-0.15381
-0.15747
-0.15869
-0.16113
-0.16602
-0.16602
-0.16968
-0.1709
-0.17578
-0.18066
-0.18188
-0.18555
-0.18555
-0.18921
-0.19165
-0.19287
-0.19653
-0.19653
-0.2002
-0.20264
-0.20264
-0.2063
-0.2063
-0.20996
-0.21118
-0.2124
-0.21606
-0.21484
-0.22095
-0.22217
-0.22217
-0.22339
-0.22339
-0.22095
-0.22827
-0.22705
-0.22949
-0.22827
-0.23193
-0.23438
-0.23193
-0.23315
-0.22827
-0.22949
-0.21973
-0.20874
-0.19775
-0.17578
-0.15381
-0.11719
-0.06836
-0.01465
0.04517
0.09644
0.15625
0.20752
0.25513
0.30029
0.33081
0.36621
0.39185
0.40894
0.4248
0.43213
0.43945
0.44434
0.44312
0.44312
0.43579
0.43335
0.42847
0.42114
0.41626
0.40894
0.40039
0.39307
0.3833
0.3772
0.36621
0.35645
0.34912
0.33813
0.33081
0.31982
0.31494
0.30884
0.30151
0.29785
0.28931
0.27954
0.27344
0.26245
0.25635
0.25024
0.23438
0.22583
0.21362
0.20874
0.19897
0.18677
0.18066
0.17212
0.16602
0.15503
0.15381
0.14893
0.14404
0.14404
0.1355
0.13428
0.13306
0.12939
0.12939
0.12329
0.12207
0.11841
0.11475
0.11353
0.1001
0.09888
0.09399
0.08667
0.08179
0.06958
0.0647
0.05615
0.04395
0.03784
0.02197
0.01343
0.0061
-0.0061
-0.01343
-0.02686
-0.03296
-0.04272
-0.05249
-0.05737
-0.0708
-0.0769
-0.08301
-0.09155
-0.09521
-0.1062
-0.11108
-0.11597
-0.12573
-0.12695
-0.13794
-0.1416
-0.14526
-0.15015
-0.15503
-0.16113
-0.16357
-0.16724
-0.17334
-0.17334
-0.18188
-0.18311
-0.18677
-0.19043
-0.18555
-0.19653
-0.19775
-0.19897
-0.20386
-0.20386
-0.20874
-0.20874
-0.20996
-0.21362
-0.21606
-0.21729
-0.21606
-0.21851
-0.21851
-0.21851
-0.22095
-0.22095
-0.22095
-0.22217
-0.22583
-0.22461
-0.22339
-0.22461
-0.22705
-0.22827
-0.23071
-0.22949
-0.23071
-0.23193
-0.23071
-0.23315
-0.23193
-0.23193
-0.23315
-0.23315
-0.23682
-0.23682
-0.23682
-0.23804
-0.23804
-0.24048
-0.23804
-0.23682
-0.23682
-0.23438
-0.23682
-0.23193
-0.22583
-0.22217
-0.20996
-0.19775
-0.17822
-0.15381
-0.12085
-0.07324
-0.02441
0.03296
0.08789
0.14038
0.19043
0.23438
0.2771
0.31494
0.34668
0.37109
0.38696
0.40039
0.41016
0.4126
0.41748
0.41748
0.41626
0.41138
0.40527
0.39795
0.38696
0.37842
0.36865
0.35767
0.34668
0.33691
0.32837
0.31738
0.30273
0.29053
0.27832
0.26855
0.25879
0.24658
0.23682
0.22705
0.21851
0.20752
0.19775
0.18677
0.17334
0.16235
0.15015
0.13672
0.12695
0.11353
0.10498
0.09521
0.08423
0.07813
0.06836
0.06348
0.05737
0.05737
0.04883
0.04395
0.04272
0.03906
0.0354
0.03662
0.03296
0.03296
0.03174
0.02563
0.02808
0.02441
0.02441
0.02197
0.01587
0.01221
0.00488
0
-0.0061
-0.01587
-0.01831
-0.02563
-0.03296
-0.03906
-0.05005
-0.05371
-0.06348
-0.0708
-0.0769
-0.08789
-0.09155
-0.09766
-0.10132
-0.1062
-0.11475
-0.11597
-0.12329
-0.12695
-0.12939
-0.1355
-0.13794
-0.14404
-0.14648
-0.15015
-0.15625
-0.15625
-0.16235
-0.16357
-0.16602
-0.16968
-0.16846
-0.17212
-0.17212
-0.17334
-0.17944
-0.177
-0.18188
-0.18311
-0.18188
-0.18799
-0.18677
-0.19043
-0.19043
-0.19653
-0.19653
-0.19409
-0.19897
-0.2002
-0.20264
-0.2063
-0.20508
-0.20752
-0.20752
-0.21484
-0.21362
-0.2124
-0.21729
-0.21729
-0.22217
-0.22339
-0.22217
-0.22461
-0.22583
-0.22949
-0.22949
-0.22827
-0.23071
-0.22949
-0.23193
-0.23315
-0.23193
-0.23438
-0.23315
-0.2356
-0.2356
-0.23193
-0.23193
-0.22705
-0.22217
-0.21362
-0.19897
-0.18311
-0.15137
-0.12329
-0.08057
-0.02808
0.02441
0.07446
0.12939
0.177
0.22217
0.26123
0.29663
0.32593
0.34912
0.36987
0.37964
0.39063
0.39307
0.39551
0.39673
0.39185
0.3894
0.37964
0.37354
0.36743
0.35522
0.3479
0.33447
0.32471
0.31616
0.30396
0.29541
0.28198
0.26978
0.26245
0.2478
0.24048
0.22827
0.21973
0.20996
0.19653
0.18677
0.17456
0.16235
0.15503
0.13916
0.12817
0.11597
0.10498
0.09644
0.08545
0.08301
0.06714
0.05859
0.05371
0.04395
0.03906
0.03174
0.02441
0.02197
0.01831
0.01709
0.01831
0.01831
0.01953
0.01709
0.01709
0.01465
0.01221
0.01099
0.0061
0.00122
-0.00244
-0.00854
-0.01221
-0.02075
-0.0293
-0.03174
-0.03784
-0.04272
-0.05005
-0.05615
-0.06226
-0.06714
-0.06958
-0.07813
-0.08301
-0.08911
-0.09521
-0.1001
-0.1062
-0.11108
-0.11719
-0.12085
-0.12207
-0.13062
-0.13306
-0.13672
-0.1416
-0.14404
-0.14771
-0.15137
-0.15503
-0.15991
-0.15991
-0.16113
-0.16846
-0.17212
-0.17822
-0.17822
-0.18677
-0.18555
-0.18921
-0.19287
-0.19287
-0.19775
-0.19897
-0.20142
-0.20264
-0.20264
-0.20996
-0.2063
-0.20874
-0.20996
-0.20752
-0.21362
-0.21118
-0.2124
-0.21362
-0.2124
-0.21729
-0.21484
-0.21729
-0.21973
-0.21851
-0.22583
-0.22339
-0.22583
-0.22583
-0.22461
-0.22827
-0.22705
-0.22827
-0.22949
-0.22705
-0.23315
-0.23071
-0.23193
-0.23193
-0.22705
-0.2356
-0.23438
-0.2356
-0.23682
-0.23682
-0.23438
-0.22583
-0.21851
-0.20874
-0.19287
-0.17334
-0.14282
-0.10742
-0.06226
-0.01343
0.0415
0.09521
0.1416
0.18677
0.22583
0.26001
0.29663
0.32349
0.34546
0.35889
0.37231
0.38208
0.3833
0.38452
0.38208
0.37842
0.37476
0.36621
0.35767
0.35645
0.34058
0.33447
0.32349
0.3125
0.30273
0.28931
0.27954
0.26611
0.25146
0.24658
0.22461
0.21484
0.20142
0.19043
0.18555
0.16724
0.15747
0.14282
0.13062
0.11841
0.10864
0.10132
0.08911
0.07935
0.07202
0.06226
0.05737
0.04761
0.0415
0.03296
0.03052
0.0293
0.02563
0.02197
0.01831
0.01709
0.01709
0.01465
0.01343
0.01343
0.01099
0.01221
0.00977
0.00854
0.0061
0.00366
0.00366
-0.00244
-0.00488
-0.00977
-0.01587
-0.01831
-0.02563
-0.03296
-0.0354
-0.04272
-0.04761
-0.05615
-0.05981
-0.06714
-0.07324
-0.0769
-0.08301
-0.08423
-0.09277
-0.1001
-0.10254
-0.10742
-0.11475
-0.11475
-0.11963
-0.12085
-0.12573
-0.12939
-0.13062
-0.1355
-0.13672
-0.14282
-0.15137
-0.15015
-0.15625
-0.15625
-0.16113
-0.16724
-0.16479
-0.16846
-0.16724
-0.1709
-0.17456
-0.17456
-0.17822
-0.177
-0.18066
-0.18311
-0.18311
-0.18433
-0.18311
-0.18677
-0.18921
-0.18799
-0.19043
-0.18799
-0.18799
-0.19165
-0.19043
-0.19287
-0.19165
-0.19043
-0.19653
-0.19653
-0.19897
-0.19775
-0.20264
-0.20142
-0.19897
-0.20264
-0.20142
-0.20508
-0.2063
-0.20508
-0.20752
-0.20508
-0.20996
-0.2063
-0.20386
-0.20752
-0.20264
-0.20508
-0.2002
-0.19287
-0.18677
-0.17212
-0.15869
-0.13428
-0.1001
-0.06104
-0.00977
0.04395
0.09766
0.15015
0.19531
0.24414
0.28076
0.3186
0.35156
0.37476
0.39673
0.41016
0.42114
0.42847
0.42847
0.43091
0.4248
0.41992
0.41626
0.40649
0.40161
0.38696
0.3772
0.36865
0.35522
0.34546
0.32837
0.3186
0.3064
0.29175
0.28198
0.26611
0.25391
0.24414
0.23071
0.22095
0.2063
0.19409
0.18433
0.16968
0.16113
0.14404
0.13428
0.12573
0.11353
0.1062
0.09644
0.08911
0.08301
0.07446
0.06958
0.06104
0.05615
0.05371
0.04883
0.05127
0.04272
0.0415
0.04028
0.03662
0.04028
0.03296
0.03174
0.03174
0.02686
0.02319
0.02197
0.02075
0.01831
0.01221
0.00977
0.00244
-0.00244
-0.0061
-0.01343
-0.01953
-0.02319
-0.0293
-0.03296
-0.04272
-0.04761
-0.05371
-0.05981
-0.0647
-0.07202
-0.0769
-0.08179
-0.08667
-0.09033
-0.09644
-0.1001
-0.1062
-0.11108
-0.1123
-0.11841
-0.12207
-0.12695
-0.12939
-0.13184
-0.13794
-0.13916
-0.14404
-0.14648
-0.14771
-0.15015
-0.15381
-0.15869
-0.15869
-0.15991
-0.15747
-0.16235
-0.16602
-0.16846
-0.16968
-0.17578
-0.1709
-0.17456
-0.17456
-0.17578
-0.18188
-0.17822
-0.18066
-0.18188
-0.18188
-0.18921
-0.18433
-0.18677
-0.18799
-0.18799
-0.19287
-0.19043
-0.19409
-0.19531
-0.19409
-0.19897
-0.19775
-0.2002
-0.19897
-0.2002
-0.20264
-0.19897
-0.20264
-0.20386
-0.19653
-0.2063
-0.20386
-0.2063
-0.2063
-0.20874
-0.20752
-0.2063
-0.20874
-0.20874
-0.20874
-0.20874
-0.2063
-0.20752
-0.20508
-0.20508
-0.19775
-0.18921
-0.18188
-0.16846
-0.14893
-0.12207
-0.08057
-0.03052
0.0293
0.09033
0.14893
0.20874
0.25757
0.31006
0.34912
0.38574
0.41748
0.44067
0.45654
0.47119
0.47974
0.48706
0.48828
0.4895
0.48584
0.47974
0.47729
0.46875
0.46143
0.45288
0.44312
0.43579
0.42358
0.41382
0.40161
0.39063
0.38086
0.36743
0.35889
0.3479
0.33813
0.33325
0.32349
0.3186
0.31006
0.30029
0.29541
0.28564
0.27588
0.26855
0.25635
0.25024
0.2356
0.23071
0.21606
0.20508
0.19775
0.18677
0.17822
0.16968
0.16113
0.15747
0.14771
0.14038
0.13794
0.13062
0.12817
0.12085
0.11353
0.1123
0.10742
0.10498
0.09644
0.09155
0.09033
0.08423
0.08057
0.07446
0.06836
0.0647
0.05493
0.05127
0.0415
0.03296
0.02686
0.01709
0.01221
0.00122
-0.0061
-0.01221
-0.02197
-0.02563
-0.03296
-0.04517
-0.05005
-0.05859
-0.0647
-0.07568
-0.08057
-0.08423
-0.09399
-0.09644
-0.10498
-0.11108
-0.11353
-0.11963
-0.12085
-0.13062
-0.12939
-0.13306
-0.13916
-0.13916
-0.15015
-0.15137
-0.15381
-0.15991
-0.16113
-0.16846
-0.16846
-0.1709
-0.17578
-0.17578
-0.18311
-0.18433
-0.18433
-0.18799
-0.18799
-0.18921
-0.18921
-0.19043
-0.19409
-0.18677
-0.19775
-0.19775
-0.19775
-0.20142
-0.20386
-0.20264
-0.20264
-0.20386
-0.20752
-0.20874
-0.21118
-0.21118
-0.21118
-0.21362
-0.21606
-0.21606
-0.21606
-0.21729
-0.21973
-0.21851
-0.22095
-0.22095
-0.21851
-0.22217
-0.22095
-0.22217
-0.22095
-0.22095
-0.22095
-0.22095
-0.22217
-0.22217
-0.22095
-0.22095
-0.21851
-0.22217
-0.22095
-0.22095
-0.22583
-0.22217
-0.22461
-0.22461
-0.22217
-0.22705
-0.21973
-0.21729
-0.21118
-0.20264
-0.19775
-0.17822
-0.16235
-0.13428
-0.09766
-0.05493
0.00244
0.05859
0.11475
0.16602
0.21118
0.25635
0.29175
0.32837
0.36011
0.38086
0.40161
0.4126
0.42236
0.42603
0.42358
0.42725
0.42114
0.41626
0.41016
0.39795
0.39307
0.38086
0.37231
0.36011
0.34424
0.33936
0.32593
0.31372
0.30151
0.28442
0.2771
0.26367
0.25513
0.24536
0.23071
0.22461
0.21118
0.2002
0.19165
0.17822
0.16846
0.15747
0.14648
0.1355
0.12329
0.11719
0.10498
0.09766
0.09277
0.08057
0.07568
0.06836
0.0647
0.06348
0.05249
0.05249
0.04517
0.0415
0.0354
0.0354
0.0354
0.03052
0.03052
0.02563
0.02197
0.02197
0.01465
0.01221
0.0061
0.00366
0.00244
-0.00488
-0.00732
-0.01465
-0.01953
-0.02197
-0.0293
-0.03296
-0.04028
-0.04639
-0.04883
-0.05737
-0.05859
-0.06714
-0.07324
-0.07446
-0.08301
-0.08545
-0.09155
-0.09766
-0.1001
-0.10498
-0.10498
-0.11353
-0.11841
-0.11963
-0.12573
-0.12817
-0.13062
-0.13428
-0.1355
-0.14038
-0.14404
-0.14404
-0.14771
-0.14771
-0.15137
-0.15503
-0.15381
-0.15625
-0.15625
-0.15991
-0.15991
-0.16235
-0.16479
-0.16235
-0.16724
-0.16846
-0.16846
-0.17212
-0.17212
-0.17334
-0.177
-0.17944
-0.18188
-0.17944
-0.18555
-0.18555
-0.18555
-0.18921
-0.18799
-0.19043
-0.18921
-0.19165
-0.19287
-0.19165
-0.19775
-0.19409
-0.19409
-0.19775
-0.19653
-0.20142
-0.19897
-0.2002
-0.20142
-0.19897
-0.20386
-0.20386
-0.20386
-0.20386
-0.20142
-0.20508
-0.20264
-0.20386
-0.2063
-0.20508
-0.20752
-0.2063
-0.20508
-0.2063
-0.20386
-0.20508
-0.20264
-0.20142
-0.19775
-0.19531
-0.18555
-0.17334
-0.16113
-0.14404
-0.11963
-0.08911
-0.04639
0
0.05005
0.1001
0.14404
0.18799
0.22339
0.25513
0.28809
0.3125
0.33447
0.35156
0.36377
0.37231
0.37598
0.37964
0.37842
0.37476
0.36865
0.36133
0.35522
0.34424
0.33325
0.31982
0.30762
0.29663
0.28442
0.271
0.25635
0.24536
0.23315
0.21973
0.2063
0.19287
0.18066
0.1709
0.15869
0.14893
0.13794
0.12573
0.11841
0.1062
0.09644
0.08911
0.0769
0.0708
0.06348
0.05737
0.05005
0.04395
0.04028
0.03418
0.03296
0.02808
0.02319
0.02197
0.01709
0.01465
0.01587
0.01221
0.01343
0.00977
0.00366
0.0061
0.00122
0
-0.00366
-0.00977
-0.00854
-0.01343
-0.01465
-0.01953
-0.02686
-0.02808
-0.03418
-0.03662
-0.0415
-0.04883
-0.05127
-0.05615
-0.05859
-0.06714
-0.0708
-0.07324
-0.07935
-0.08179
-0.08179
-0.09277
-0.09399
-0.09888
-0.10132
-0.10742
-0.11108
-0.11108
-0.11841
-0.11841
-0.12329
-0.12695
-0.12695
-0.13184
-0.13306
-0.1416
-0.14282
-0.1416
-0.14771
-0.14648
-0.15259
-0.15381
-0.15381
-0.15503
-0.15503
-0.15869
-0.15991
-0.15869
-0.16235
-0.15991
-0.16357
-0.16479
-0.16235
-0.16479
-0.16479
-0.16724
-0.16846
-0.16602
-0.1709
-0.16479
-0.1709
-0.1709
-0.16968
-0.17212
-0.1709
-0.17334
-0.17334
-0.17212
-0.17334
-0.17456
-0.17212
-0.17212
-0.1709
-0.17212
-0.1709
-0.17334
-0.17212
-0.1709
-0.17334
-0.17212
-0.17334
-0.17334
-0.1709
-0.17334
-0.1709
-0.17212
-0.17212
-0.16968
-0.16602
-0.16968
-0.16724
-0.16479
-0.16113
-0.16602
-0.15991
-0.16113
-0.16113
-0.15747
-0.16357
-0.15503
-0.15259
-0.14771
-0.13794
-0.13062
-0.11108
-0.09277
-0.06592
-0.02686
0.01831
0.07568
0.13062
0.18433
0.23438
0.27832
0.32227
0.35767
0.3894
0.41748
0.43823
0.45898
0.47241
0.48218
0.49072
0.4895
0.49194
0.48584
0.47974
0.47607
0.46265
0.45532
0.44434
0.43457
0.42358
0.41016
0.40283
0.3894
0.37598
0.36255
0.34668
0.33569
0.32349
0.3125
0.30151
0.28687
0.2771
0.26245
0.25024
0.23926
0.22461
0.21484
0.20264
0.19287
0.18677
0.1709
0.16602
0.15381
0.14526
0.13794
0.12695
0.12207
0.11475
0.10986
0.10498
0.09888
0.09766
0.09033
0.08545
0.08057
0.07813
0.07568
0.0708
0.06836
0.06348
0.06226
0.06104
0.05493
0.05249
0.05005
0.04272
0.04028
0.0354
0.03174
0.02686
0.02075
0.01709
0.00977
0.0061
0.00122
-0.0061
-0.01099
-0.01709
-0.02319
-0.02686
-0.03418
-0.03662
-0.04395
-0.04761
-0.05249
-0.05859
-0.06104
-0.06714
-0.06958
-0.07324
-0.07935
-0.07935
-0.08545
-0.09277
-0.09155
-0.09766
-0.09766
-0.10254
-0.1062
-0.10742
-0.1123
-0.1123
-0.11719
-0.12329
-0.12085
-0.12451
-0.12451
-0.12817
-0.13184
-0.13062
-0.13428
-0.13184
-0.13672
-0.14038
-0.13916
-0.14282
-0.14038
-0.1416
-0.14404
-0.14404
-0.14648
-0.14526
-0.15015
-0.15137
-0.15015
-0.15259
-0.15137
-0.15137
-0.15381
-0.15259
-0.15625
-0.15503
-0.15259
-0.15991
-0.15869
-0.16235
-0.16235
-0.16724
-0.16479
-0.16357
-0.16724
-0.16357
-0.16724
-0.16846
-0.16602
-0.16846
-0.16724
-0.17212
-0.16846
-0.16602
-0.16846
-0.16479
-0.1709
-0.16968
-0.16846
-0.1709
-0.16846
-0.1709
-0.16968
-0.16846
-0.16968
-0.16846
-0.16968
-0.16968
-0.16724
-0.16724
-0.15747
-0.15991
-0.15137
-0.13916
-0.12817
-0.10864
-0.08301
-0.04639
0.00366
0.05859
0.11597
0.17456
0.22827
0.2771
0.31982
0.36011
0.39551
0.42725
0.45532
0.47363
0.48584
0.49805
0.50415
0.50903
0.50537
0.50415
0.49683
0.49072
0.48462
0.47363
0.46387
0.4541
0.44434
0.43457
0.42236
0.41626
0.39551
0.3833
0.37231
0.35889
0.34668
0.33691
0.32715
0.3186
0.3064
0.29907
0.28687
0.27832
0.26978
0.25879
0.24658
0.23926
0.22827
0.21973
0.20752
0.19897
0.18799
0.17944
0.17212
0.16235
0.15625
0.14893
0.14404
0.13916
0.13306
0.13184
0.12573
0.12329
0.12085
0.11475
0.11353
0.10986
0.10742
0.10498
0.10376
0.09888
0.09277
0.08911
0.08545
0.07446
0.07202
0.06592
0.06104
0.05493
0.04272
0.04028
0.03052
0.02441
0.01831
0.00732
0.00488
-0.00244
-0.00854
-0.01465
-0.02563
-0.02686
-0.03662
-0.04272
-0.04639
-0.05615
-0.05859
-0.0647
-0.06714
-0.07324
-0.08057
-0.08057
-0.08667
-0.09033
-0.09155
-0.1001
-0.10132
-0.10498
-0.1062
-0.11353
-0.11597
-0.11597
-0.12329
-0.12573
-0.13184
-0.13306
-0.13428
-0.13916
-0.14038
-0.14526
-0.14648
-0.14526
-0.14893
-0.15015
-0.15137
-0.15503
-0.15381
-0.15625
-0.15503
-0.15747
-0.16113
-0.15991
-0.16479
-0.16724
-0.16846
-0.16968
-0.16968
-0.17334
-0.16846
-0.17578
-0.17944
-0.177
-0.18188
-0.18555
-0.18311
-0.18311
-0.18311
-0.18555
-0.18799
-0.18677
-0.18799
-0.18677
-0.19043
-0.19287
-0.19043
-0.19287
-0.19043
-0.19165
-0.19165
-0.18921
-0.19043
-0.18677
-0.18921
-0.18921
-0.18921
-0.18921
-0.18677
-0.18921
-0.18799
-0.18677
-0.18799
-0.18433
-0.18555
-0.18799
-0.18677
-0.18799
-0.18433
-0.18555
-0.18188
-0.18066
-0.17944
-0.17212
-0.1709
-0.15747
-0.14404
-0.12939
-0.10376
-0.07568
-0.03296
0.01709
0.06958
0.12573
0.17334
0.22095
0.26245
0.30029
0.34058
0.36743
0.39551
0.41626
0.43091
0.44556
0.45166
0.45654
0.45898
0.45654
0.4541
0.44678
0.44189
0.43335
0.42236
0.41626
0.40039
0.3894
0.37964
0.36743
0.35645
0.33936
0.32837
0.31494
0.30151
0.29175
0.27588
0.26611
0.25391
0.2417
0.23071
0.21851
0.20874
0.19653
0.18188
0.17212
0.15869
0.14893
0.13916
0.12817
0.11841
0.11108
0.1062
0.09888
0.09277
0.08911
0.08179
0.07935
0.07446
0.07202
0.06958
0.06592
0.06592
0.0647
0.06226
0.06226
0.05737
0.05737
0.05615
0.05493
0.05127
0.04639
0.04517
0.04028
0.03296
0.03418
0.02686
0.02319
0.01831
0.00854
0.0061
0
-0.00488
-0.01221
-0.02197
-0.02319
-0.03174
-0.03662
-0.04272
-0.05005
-0.05127
-0.05737
-0.06104
-0.06592
-0.07324
-0.07446
-0.08179
-0.08423
-0.09033
-0.09521
-0.09521
-0.10132
-0.10376
-0.10376
-0.11475
-0.11353
-0.11963
-0.12085
-0.12695
-0.12939
-0.12939
-0.13428
-0.13428
-0.13916
-0.14282
-0.1416
-0.14648
-0.14648
-0.15381
-0.15137
-0.15015
-0.15381
-0.15381
-0.15869
-0.15991
-0.15869
-0.16357
-0.16357
-0.16724
-0.16968
-0.16846
-0.17212
-0.17212
-0.177
-0.17944
-0.177
-0.18188
-0.18311
-0.18311
-0.18433
-0.18311
-0.18555
-0.18066
-0.18677
-0.18799
-0.18555
-0.18799
-0.18799
-0.18799
-0.18799
-0.18677
-0.18799
-0.19165
-0.18921
-0.18921
-0.18677
-0.18921
-0.18921
-0.18921
-0.18921
-0.18677
-0.18921
-0.18799
-0.18921
-0.19043
-0.18799
-0.18677
-0.18921
-0.18799
-0.18677
-0.18188
-0.18433
-0.17334
-0.16846
-0.15747
-0.1416
-0.13062
-0.10132
-0.06958
-0.0293
0.02441
0.07324
0.12939
0.17822
0.22217
0.26245
0.29663
0.33203
0.35767
0.37964
0.40161
0.41138
0.42358
0.42969
0.43213
0.43457
0.42725
0.4248
0.41748
0.41016
0.40283
0.38696
0.37964
0.36621
0.354
0.34424
0.32593
0.31616
0.30029
0.28564
0.27466
0.25757
0.2478
0.23315
0.21973
0.21118
0.19409
0.18433
0.1709
0.15869
0.15015
0.1355
0.12817
0.11719
0.1062
0.09766
0.08789
0.08301
0.07568
0.0708
0.06592
0.06104
0.05981
0.05493
0.05249
0.05005
0.04883
0.04883
0.04639
0.04639
0.04517
0.0415
0.04272
0.03906
0.0354
0.0354
0.03052
0.0293
0.02563
0.02441
0.02075
0.01465
0.01221
0.00488
0.00122
-0.00366
-0.01221
-0.01343
-0.02075
-0.02686
-0.0293
-0.03662
-0.04028
-0.04761
-0.05615
-0.05493
-0.06348
-0.06592
-0.07202
-0.0769
-0.07813
-0.08423
-0.08667
-0.09155
-0.09644
-0.09766
-0.10376
-0.10498
-0.10864
-0.11353
-0.11475
-0.11963
-0.11963
-0.12329
-0.12939
-0.12939
-0.13428
-0.13428
-0.13916
-0.14038
-0.13916
-0.14282
-0.14282
-0.15015
-0.14893
-0.14648
-0.15015
-0.14893
-0.15259
-0.15259
-0.15259
-0.15625
-0.15503
-0.16113
-0.16235
-0.15991
-0.16357
-0.16235
-0.16479
-0.16479
-0.16479
-0.16724
-0.15991
-0.16846
-0.16968
-0.16846
-0.1709
-0.17212
-0.17212
-0.17212
-0.1709
-0.17334
-0.17456
-0.17456
-0.17334
-0.1709
-0.17334
-0.17334
-0.17456
-0.17334
-0.1709
-0.1709
-0.1709
-0.17212
-0.17212
-0.1709
-0.17334
-0.17212
-0.17212
-0.17334
-0.1709
-0.17578
-0.1709
-0.17334
-0.17334
-0.1709
-0.17456
-0.1709
-0.17212
-0.16846
-0.16357
-0.16357
-0.15137
-0.14282
-0.12695
-0.10376
-0.0769
-0.03418
0.01587
0.07568
0.1355
0.19287
0.25024
0.29663
0.3418
0.38574
0.41748
0.45166
0.47485
0.49561
0.51514
0.51758
0.5249
0.5249
0.5249
0.52734
0.51758
0.51392
0.50659
0.49927
0.4895
0.47974
0.47241
0.46021
0.44922
0.44067
0.42725
0.4187
0.40649
0.39795
0.39307
0.37598
0.36987
0.35889
0.35156
0.34424
0.33447
0.32837
0.3186
0.31128
0.29663
0.28931
0.28076
0.26855
0.25879
0.24658
0.2356
0.22827
0.21851
0.21118
0.20386
0.19653
0.19409
0.18555
0.18066
0.177
0.17212
0.17212
0.16846
0.16846
0.16357
0.15991
0.15991
0.15381
0.14893
0.14771
0.1416
0.13916
0.13184
0.11963
0.11963
0.11108
0.10498
0.09521
0.08423
0.07935
0.06958
0.06348
0.05493
0.04517
0.03784
0.02808
0.02197
0.01099
0.00366
-0.00244
-0.01099
-0.01465
-0.01709
-0.0293
-0.03418
-0.04272
-0.04517
-0.05615
-0.05981
-0.06348
-0.06958
-0.07324
-0.08301
-0.08179
-0.08423
-0.09033
-0.09033
-0.1001
-0.10254
-0.1062
-0.11108
-0.1123
-0.11841
-0.11963
-0.12085
-0.12573
-0.12695
-0.13184
-0.13306
-0.13306
-0.13672
-0.13184
-0.13916
-0.13916
-0.14038
-0.14404
-0.14648
-0.14648
-0.14771
-0.14893
-0.15137
-0.15137
-0.15259
-0.15259
-0.15381
-0.15625
-0.15747
-0.15869
-0.15869
-0.15991
-0.16235
-0.16235
-0.16357
-0.16235
-0.16235
-0.16479
-0.16357
-0.16602
-0.16724
-0.16602
-0.16235
-0.16602
-0.16724
-0.16602
-0.16724
-0.1709
-0.16724
-0.16968
-0.16968
-0.16846
-0.17578
-0.1709
-0.17334
-0.17334
-0.17334
-0.17822
-0.17456
-0.17944
-0.17822
-0.17578
-0.17944
-0.177
-0.177
-0.17578
-0.17578
-0.17456
-0.1709
-0.1709
-0.16968
-0.16235
-0.16479
-0.15625
-0.14893
-0.13672
-0.12695
-0.10864
-0.08301
-0.05371
-0.01343
0.03296
0.09155
0.14771
0.19653
0.24414
0.28564
0.32349
0.36011
0.38696
0.41138
0.42969
0.44434
0.45654
0.46265
0.46753
0.46509
0.46509
0.46387
0.45532
0.44922
0.43701
0.42969
0.42114
0.41016
0.40039
0.3894
0.3772
0.36865
0.354
0.34302
0.32837
0.32104
0.31372
0.30396
0.29785
0.29053
0.28442
0.28076
0.271
0.26489
0.25513
0.24658
0.23804
0.22705
0.21973
0.20996
0.20142
0.19653
0.18677
0.18555
0.17578
0.1709
0.16846
0.16357
0.15991
0.15991
0.15747
0.15869
0.15625
0.15381
0.15625
0.15381
0.15625
0.15381
0.15015
0.15015
0.14526
0.14404
0.13794
0.13184
0.12817
0.12085
0.11597
0.10742
0.09766
0.09033
0.07935
0.07202
0.06104
0.05127
0.04272
0.03174
0.02319
0.01709
0.00244
-0.00488
-0.01465
-0.02197
-0.03662
-0.04028
-0.04761
-0.05371
-0.05737
-0.06836
-0.07202
-0.0769
-0.08301
-0.08545
-0.09766
-0.1001
-0.10498
-0.10986
-0.1123
-0.11719
-0.11475
-0.11597
-0.11963
-0.11963
-0.12573
-0.12695
-0.12939
-0.13184
-0.13306
-0.13794
-0.13916
-0.14282
-0.14771
-0.14526
-0.15503
-0.15625
-0.15991
-0.16357
-0.16724
-0.16968
-0.16968
-0.17212
-0.17578
-0.17944
-0.18066
-0.18066
-0.18066
-0.18311
-0.18555
-0.18799
-0.18555
-0.18677
-0.18921
-0.19043
-0.19409
-0.19653
-0.19653
-0.20142
-0.2002
-0.20386
-0.20264
-0.20508
-0.20508
-0.2063
-0.20874
-0.20874
-0.20996
-0.2124
-0.2124
-0.21484
-0.2124
-0.21362
-0.21973
-0.21606
-0.21851
-0.21851
-0.21729
-0.21973
-0.21729
-0.21851
-0.21729
-0.21973
-0.21973
-0.21606
-0.21729
-0.21606
-0.21729
-0.21606
-0.21484
-0.21606
-0.21484
-0.21973
-0.21973
-0.21606
-0.21973
-0.21851
-0.21973
-0.21851
-0.21362
-0.20996
-0.20264
-0.19531
-0.18311
-0.16357
-0.14038
-0.10376
-0.05859
-0.0061
0.05493
0.10986
0.16357
0.2124
0.25757
0.30151
0.33813
0.36865
0.39673
0.41748
0.43457
0.44434
0.45166
0.45288
0.45288
0.45288
0.44678
0.44067
0.43457
0.42603
0.41992
0.41016
0.39917
0.39063
0.37964
0.37231
0.35889
0.34668
0.33813
0.32715
0.32104
0.30884
0.29907
0.29297
0.2832
0.2771
0.26611
0.25513
0.24536
0.23315
0.22339
0.21118
0.2002
0.18921
0.177
0.16968
0.15991
0.15015
0.14282
0.13428
0.13062
0.12207
0.12207
0.11719
0.11475
0.11597
0.1123
0.11475
0.11475
0.11475
0.11841
0.11475
0.11963
0.11963
0.11963
0.12207
0.11719
0.11719
0.11353
0.10864
0.10498
0.09766
0.09277
0.08423
0.0769
0.07202
0.05859
0.05371
0.04395
0.03418
0.02808
0.01831
0.01221
0.00244
-0.00732
-0.01465
-0.02441
-0.0293
-0.03662
-0.04517
-0.05371
-0.05615
-0.06104
-0.06714
-0.07324
-0.07935
-0.08423
-0.08667
-0.09155
-0.09521
-0.1001
-0.10498
-0.1062
-0.11108
-0.11719
-0.11597
-0.11963
-0.11963
-0.12329
-0.12207
-0.12695
-0.12939
-0.12939
-0.13306
-0.13794
-0.13672
-0.14038
-0.14038
-0.14404
-0.15015
-0.14771
-0.15137
-0.15137
-0.15625
-0.16113
-0.15991
-0.16602
-0.16724
-0.16968
-0.17334
-0.17334
-0.177
-0.17578
-0.18066
-0.18188
-0.18188
-0.18677
-0.18433
-0.18555
-0.19043
-0.18921
-0.19165
-0.19165
-0.19531
-0.19775
-0.19531
-0.19897
-0.19775
-0.20264
-0.20142
-0.2002
-0.20142
-0.19897
-0.20264
-0.20264
-0.20142
-0.20386
-0.20264
-0.20386
-0.20386
-0.20386
-0.2063
-0.20386
-0.20996
-0.21118
-0.20996
-0.21118
-0.20996
-0.20996
-0.20874
-0.20386
-0.2002
-0.19531
-0.18555
-0.17456
-0.15869
-0.13916
-0.10986
-0.07324
-0.02686
0.02686
0.0769
0.12939
0.17456
0.21606
0.25513
0.29053
0.31738
0.3418
0.36255
0.37964
0.38818
0.39795
0.39795
0.39917
0.39673
0.39185
0.38574
0.37842
0.37109
0.36255
0.35156
0.34058
0.32837
0.31616
0.30518
0.29053
0.2771
0.26245
0.2478
0.23682
0.22339
0.21362
0.2002
0.18799
0.17822
0.16235
0.15015
0.13794
0.12695
0.11597
0.10498
0.09399
0.08301
0.07446
0.06958
0.05981
0.05615
0.04883
0.04395
0.04028
0.03052
0.03174
0.02808
0.02686
0.02808
0.02197
0.02563
0.02563
0.02686
0.03052
0.02686
0.03052
0.02808
0.02808
0.03052
0.02686
0.02686
0.02441
0.02197
0.01831
0.01221
0.00977
0.00244
-0.00366
-0.0061
-0.01831
-0.02197
-0.02808
-0.03418
-0.04272
-0.04761
-0.05127
-0.05981
-0.06714
-0.07568
-0.07935
-0.08179
-0.08911
-0.09399
-0.09888
-0.10254
-0.10376
-0.10864
-0.11108
-0.1123
-0.11841
-0.11963
-0.12329
-0.12573
-0.12939
-0.13428
-0.13428
-0.13916
-0.14526
-0.14526
-0.14893
-0.15015
-0.15259
-0.15747
-0.15747
-0.16113
-0.15991
-0.16479
-0.16724
-0.16479
-0.16846
-0.16724
-0.16968
-0.17334
-0.17334
-0.177
-0.177
-0.18433
-0.18677
-0.18677
-0.18921
-0.19043
-0.18921
-0.19531
-0.19653
-0.19897
-0.19775
-0.20142
-0.20264
-0.20264
-0.20508
-0.20508
-0.20874
-0.20752
-0.2063
-0.20752
-0.20386
-0.20996
-0.20874
-0.2063
-0.20874
-0.20752
-0.20874
-0.20752
-0.20752
-0.20874
-0.20996
-0.21118
-0.20996
-0.20996
-0.21118
-0.21118
-0.20996
-0.20874
-0.20874
-0.21118
-0.21118
-0.2124
-0.20996
-0.20752
-0.20752
-0.20386
-0.2002
-0.19165
-0.17944
-0.16602
-0.14038
-0.10986
-0.06592
-0.00977
0.04639
0.11108
0.16968
0.22339
0.27466
0.31616
0.36377
0.39917
0.42969
0.45532
0.47119
0.48462
0.49438
0.49927
0.50171
0.49927
0.50049
0.49438
0.49072
0.48462
0.47363
0.46875
0.45898
0.45044
0.44189
0.43335
0.42114
0.40771
0.39673
0.38696
0.3772
0.37109
0.36377
0.35889
0.354
0.33936
0.34058
0.33203
0.32349
0.3186
0.3064
0.30151
0.29297
0.28442
0.27466
0.26123
0.25513
0.24414
0.23682
0.22827
0.22095
0.21606
0.20996
0.2063
0.20874
0.19775
0.19897
0.19287
0.19165
0.19043
0.18921
0.18921
0.18799
0.18677
0.18188
0.18311
0.18311
0.177
0.17212
0.16602
0.15991
0.15381
0.14771
0.14038
0.12939
0.12085
0.11353
0.1001
0.08789
0.07935
0.06714
0.05981
0.04883
0.04517
0.0293
0.01831
0.01099
-0.00122
-0.01465
-0.01831
-0.0293
-0.0354
-0.04395
-0.05249
-0.05615
-0.06226
-0.06592
-0.07568
-0.08423
-0.08545
-0.09399
-0.09644
-0.10132
-0.1062
-0.10864
-0.11475
-0.11597
-0.12207
-0.12573
-0.12695
-0.13184
-0.13428
-0.13672
-0.1416
-0.14404
-0.14893
-0.14893
-0.15503
-0.15747
-0.15869
-0.16235
-0.16235
-0.16602
-0.16724
-0.16846
-0.17212
-0.17212
-0.18066
-0.17822
-0.17944
-0.18311
-0.18433
-0.18921
-0.18921
-0.19043
-0.19409
-0.19287
-0.19775
-0.19897
-0.19897
-0.20264
-0.19897
-0.20264
-0.20264
-0.20386
-0.2063
-0.20874
-0.20996
-0.2124
-0.2124
-0.21484
-0.21606
-0.21729
-0.21729
-0.21851
-0.22095
-0.22217
-0.22339
-0.22339
-0.22339
-0.22583
-0.22583
-0.22705
-0.22705
-0.22827
-0.23193
-0.22949
-0.23193
-0.23193
-0.23193
-0.22827
-0.23315
-0.23438
-0.23315
-0.23071
-0.23315
-0.22217
-0.21729
-0.20386
-0.18677
-0.16602
-0.12451
-0.07568
-0.01587
0.05005
0.1123
0.177
0.23071
0.28564
0.33447
0.37354
0.4126
0.43945
0.46265
0.47974
0.4895
0.50171
0.50415
0.50659
0.50659
0.50049
0.50171
0.49561
0.4895
0.48218
0.47119
0.46997
0.45898
0.45166
0.44678
0.43701
0.43213
0.42358
0.4187
0.41138
0.40161
0.40161
0.39551
0.39307
0.39185
0.38574
0.38574
0.38086
0.3772
0.37231
0.36377
0.36011
0.34912
0.34058
0.33813
0.32593
0.32227
0.3125
0.3064
0.29663
0.29297
0.29297
0.28564
0.2832
0.2771
0.27466
0.27344
0.271
0.26733
0.26245
0.26001
0.26001
0.25513
0.25269
0.2478
0.2417
0.24048
0.23315
0.22827
0.22217
0.21606
0.20996
0.2002
0.19165
0.18188
0.1709
0.16235
0.14893
0.13794
0.12573
0.11353
0.10376
0.08911
0.07446
0.0647
0.05249
0.04395
0.03052
0.01953
0.00854
-0.00244
-0.00854
-0.02075
-0.03052
-0.03906
-0.04883
-0.05493
-0.06226
-0.07202
-0.08057
-0.08911
-0.09277
-0.10498
-0.10864
-0.11475
-0.12085
-0.12451
-0.13306
-0.13672
-0.1416
-0.14648
-0.14893
-0.15869
-0.15869
-0.16113
-0.16602
-0.16724
-0.17334
-0.17456
-0.177
-0.18066
-0.18311
-0.18677
-0.18799
-0.19043
-0.19287
-0.18921
-0.19897
-0.2002
-0.20264
-0.20874
-0.20752
-0.2124
-0.21362
-0.21484
-0.21851
-0.22217
-0.22217
-0.22217
-0.22461
-0.22583
-0.22827
-0.23193
-0.23193
-0.23315
-0.23682
-0.23438
-0.23804
-0.23804
-0.24048
-0.24292
-0.24414
-0.2478
-0.24658
-0.24658
-0.24902
-0.24902
-0.25146
-0.24902
-0.25146
-0.25513
-0.25146
-0.25513
-0.25635
-0.25635
-0.26123
-0.25879
-0.26001
-0.25879
-0.26001
-0.26245
-0.26123
-0.26367
-0.26245
-0.25879
-0.26611
-0.26245
-0.26245
-0.25757
-0.25757
-0.25146
-0.24292
-0.23315
-0.21606
-0.19287
-0.15991
-0.11108
-0.05737
0.00732
0.06714
0.13062
0.19043
0.24048
0.28931
0.32837
0.36255
0.39185
0.4126
0.43213
0.44067
0.44922
0.45532
0.4541
0.45532
0.44678
0.44434
0.44067
0.43213
0.42725
0.41382
0.40894
0.40405
0.39307
0.38696
0.37354
0.36865
0.36377
0.35522
0.35034
0.34058
0.33691
0.33447
0.32837
0.32837
0.32227
0.31738
0.31616
0.31006
0.3064
0.29663
0.28931
0.2832
0.27222
0.26611
0.25757
0.25024
0.24658
0.23926
0.2356
0.23071
0.22705
0.22583
0.22095
0.21729
0.21606
0.21362
0.2124
0.20996
0.20874
0.2063
0.20508
0.20386
0.19775
0.19531
0.19165
0.18799
0.18311
0.18188
0.1709
0.16235
0.15259
0.14526
0.13184
0.12695
0.11597
0.10498
0.09644
0.07813
0.07202
0.05737
0.04761
0.03906
0.02319
0.01587
0.00366
-0.00732
-0.01465
-0.02808
-0.03418
-0.04517
-0.05249
-0.05981
-0.07202
-0.0769
-0.08667
-0.09521
-0.10132
-0.10742
-0.1123
-0.12085
-0.12817
-0.13428
-0.14038
-0.14282
-0.14893
-0.15259
-0.15869
-0.16235
-0.16602
-0.1709
-0.17456
-0.17822
-0.18311
-0.18311
-0.18555
-0.18677
-0.18921
-0.19287
-0.19287
-0.19897
-0.20508
-0.20142
-0.2063
-0.20508
-0.20874
-0.21484
-0.2124
-0.21606
-0.21606
-0.22095
-0.22461
-0.22339
-0.22827
-0.22827
-0.23315
-0.23438
-0.23438
-0.23926
-0.23804
-0.23682
-0.24414
-0.24292
-0.24658
-0.24536
-0.24902
-0.25024
-0.24902
-0.25146
-0.25024
-0.25635
-0.25513
-0.25391
-0.25635
-0.25269
-0.25513
-0.25635
-0.25513
-0.25757
-0.25757
-0.26001
-0.26123
-0.26001
-0.26367
-0.25757
-0.26489
-0.26489
-0.26245
-0.26367
-0.26611
-0.26367
-0.26245
-0.26123
-0.26245
-0.26367
-0.26367
-0.26367
-0.26123
-0.26245
-0.26245
-0.26245
-0.26367
-0.26001
-0.25879
-0.25269
-0.24658
-0.2356
-0.21973
-0.20264
-0.17334
-0.13794
-0.09033
-0.03296
0.0293
0.08179
0.13306
0.18311
0.23071
0.26611
0.3064
0.33447
0.35645
0.37598
0.3833
0.39429
0.39917
0.40161
0.40283
0.40405
0.39551
0.38696
0.37964
0.37354
0.36133
0.35522
0.34424
0.33569
0.32715
0.31372
0.30518
0.29053
0.27832
0.26855
0.25879
0.24658
0.2356
0.22583
0.21851
0.2063
0.19897
0.18677
0.177
0.16724
0.15015
0.14526
0.13306
0.12207
0.11475
0.1001
0.09399
0.08423
0.07813
0.07202
0.06592
0.06348
0.05737
0.05493
0.05981
0.05127
0.05493
0.05249
0.05371
0.05493
0.05615
0.06104
0.06104
0.06348
0.05981
0.06104
0.06226
0.05615
0.05371
0.04883
0.04395
0.04028
0.03174
0.02563
0.01831
0.00854
0.00366
-0.00732
-0.01587
-0.02075
-0.02808
-0.03296
-0.0415
-0.04517
-0.05371
-0.06226
-0.06592
-0.07446
-0.08179
-0.08545
-0.09277
-0.09521
-0.10376
-0.11108
-0.1123
-0.11841
-0.11963
-0.12695
-0.13306
-0.13428
-0.13916
-0.13916
-0.14282
-0.14648
-0.14771
-0.15259
-0.15137
-0.15503
-0.15991
-0.15869
-0.16235
-0.16235
-0.1709
-0.16846
-0.16846
-0.1709
-0.16968
-0.177
-0.17456
-0.17456
-0.17944
-0.17822
-0.18311
-0.18311
-0.18311
-0.18433
-0.18188
-0.18921
-0.19043
-0.19043
-0.19531
-0.19287
-0.19897
-0.19897
-0.2002
-0.20264
-0.20386
-0.20508
-0.2063
-0.20386
-0.2063
-0.20996
-0.20874
-0.20996
-0.21118
-0.21362
-0.2124
-0.21606
-0.21606
-0.21606
-0.21729
-0.21729
-0.21851
-0.21973
-0.21851
-0.21851
-0.21973
-0.22339
-0.22339
-0.22339
-0.23071
-0.22705
-0.22949
-0.22949
-0.22949
-0.23804
-0.23193
-0.23438
-0.23315
-0.23071
-0.23193
-0.22339
-0.21973
-0.20996
-0.19775
-0.18555
-0.16113
-0.13428
-0.09644
-0.04395
0.00366
0.06104
0.1123
0.16113
0.20508
0.24414
0.28442
0.31372
0.34058
0.36133
0.37598
0.3894
0.39429
0.39917
0.39795
0.39795
0.39673
0.38818
0.38086
0.36987
0.36255
0.35645
0.34546
0.33569
0.32715
0.31494
0.30762
0.29297
0.28076
0.26855
0.25513
0.24658
0.23438
0.22461
0.2124
0.2002
0.19165
0.177
0.16724
0.15381
0.14282
0.13428
0.12329
0.1123
0.10376
0.09399
0.08911
0.07813
0.0769
0.0647
0.05737
0.05371
0.04761
0.04395
0.0415
0.03662
0.03784
0.03296
0.02686
0.03052
0.02808
0.02808
0.02563
0.02441
0.02563
0.02319
0.02441
0.02197
0.01709
0.01587
0.01221
0.00977
0.00244
0
-0.00488
-0.01221
-0.01343
-0.01709
-0.02808
-0.03296
-0.0415
-0.04517
-0.05249
-0.05615
-0.06104
-0.06714
-0.0708
-0.08423
-0.08545
-0.08911
-0.09521
-0.09766
-0.10498
-0.10742
-0.11108
-0.11597
-0.11597
-0.12451
-0.12695
-0.12939
-0.13306
-0.13184
-0.13916
-0.14038
-0.14282
-0.14771
-0.15137
-0.15381
-0.15503
-0.15625
-0.15991
-0.16357
-0.16357
-0.16235
-0.16357
-0.16479
-0.16479
-0.16846
-0.16846
-0.16968
-0.1709
-0.17212
-0.17456
-0.17578
-0.177
-0.177
-0.18066
-0.18433
-0.18433
-0.18555
-0.19043
-0.18799
-0.18921
-0.19043
-0.19165
-0.19775
-0.19287
-0.19531
-0.19653
-0.19653
-0.2002
-0.19897
-0.19897
-0.19897
-0.2002
-0.20142
-0.19897
-0.20142
-0.20142
-0.20386
-0.20264
-0.20264
-0.20264
-0.20142
-0.2063
-0.20508
-0.20264
-0.2063
-0.20508
-0.20752
-0.20874
-0.20752
-0.20874
-0.20874
-0.20874
-0.20874
-0.20508
-0.2063
-0.2002
-0.19653
-0.18799
-0.17456
-0.15747
-0.13184
-0.09888
-0.05249
0.00244
0.05615
0.11475
0.17212
0.22339
0.27222
0.31738
0.354
0.38574
0.41016
0.43091
0.44189
0.45166
0.45898
0.46021
0.46143
0.45776
0.4541
0.44678
0.44067
0.43457
0.4248
0.41382
0.40649
0.39673
0.38696
0.3772
0.36499
0.35522
0.34302
0.33447
0.32104
0.3125
0.30518
0.29541
0.28931
0.28687
0.27588
0.26855
0.26001
0.25513
0.24048
0.23438
0.22583
0.21606
0.20752
0.19287
0.18799
0.17944
0.16968
0.16479
0.15259
0.14893
0.14282
0.1355
0.13306
0.12695
0.12573
0.12329
0.11963
0.12573
0.11353
0.11353
0.11353
0.11108
0.10986
0.10864
0.10864
0.10498
0.10132
0.09644
0.09155
0.08789
0.08301
0.07568
0.06958
0.06104
0.05493
0.04517
0.0354
0.0293
0.01831
0.00977
0.00244
-0.00366
-0.01587
-0.02441
-0.03174
-0.03906
-0.04761
-0.05249
-0.06348
-0.06714
-0.07202
-0.08179
-0.08423
-0.09033
-0.09277
-0.1001
-0.10498
-0.1062
-0.1123
-0.11475
-0.12085
-0.12695
-0.12817
-0.13428
-0.13672
-0.14038
-0.14526
-0.14526
-0.15137
-0.15259
-0.15625
-0.15869
-0.15747
-0.16235
-0.16235
-0.16724
-0.16724
-0.16724
-0.17212
-0.17334
-0.177
-0.17944
-0.17822
-0.18188
-0.18311
-0.18433
-0.18677
-0.18433
-0.18799
-0.18799
-0.19043
-0.19287
-0.19287
-0.19775
-0.2002
-0.20142
-0.20264
-0.20264
-0.20752
-0.20996
-0.20996
-0.20996
-0.20874
-0.20996
-0.20996
-0.21118
-0.21362
-0.20996
-0.21362
-0.21484
-0.21484
-0.21606
-0.21484
-0.22217
-0.21729
-0.21851
-0.21973
-0.21729
-0.22461
-0.21973
-0.22217
-0.22095
-0.21851
-0.22217
-0.22095
-0.22095
-0.22217
-0.22217
-0.22461
-0.22217
-0.22095
-0.21851
-0.20752
-0.20752
-0.19653
-0.18311
-0.16357
-0.13184
-0.09277
-0.03662
0.02319
0.08545
0.14648
0.2063
0.26245
0.30884
0.35034
0.38574
0.41138
0.43579
0.45166
0.46265
0.46997
0.47241
0.47607
0.47363
0.46997
0.46509
0.45654
0.45166
0.44312
0.43335
0.42358
0.41382
0.40527
0.39673
0.38696
0.37842
0.36499
0.35767
0.34912
0.33936
0.33447
0.32593
0.32471
0.3186
0.31738
0.31006
0.30396
0.30151
0.29663
0.28931
0.28687
0.27954
0.27466
0.26489
0.25391
0.25146
0.24048
0.2356
0.22949
0.22095
0.21729
0.21118
0.20874
0.20142
0.19653
0.19653
0.19043
0.18921
0.18433
0.18188
0.18066
0.177
0.17578
0.16968
0.16724
0.16602
0.15869
0.15625
0.14771
0.14282
0.13916
0.13062
0.12573
0.11475
0.1062
0.1001
0.08911
0.08057
0.0708
0.06104
0.05371
0.04272
0.03906
0.02441
0.01465
0.00854
-0.00366
-0.01099
-0.02075
-0.02808
-0.0354
-0.04517
-0.05371
-0.05981
-0.06836
-0.07202
-0.08179
-0.08789
-0.09399
-0.1001
-0.10376
-0.1123
-0.11353
-0.12085
-0.12451
-0.12695
-0.13062
-0.1355
-0.14038
-0.14526
-0.14526
-0.15137
-0.15015
-0.15259
-0.15381
-0.15503
-0.16113
-0.15869
-0.15991
-0.16235
-0.16235
-0.16724
-0.16846
-0.16968
-0.17334
-0.17456
-0.17822
-0.177
-0.17944
-0.18188
-0.17822
-0.18433
-0.18433
-0.18799
-0.19043
-0.19287
-0.19653
-0.19653
-0.2002
-0.20142
-0.20264
-0.20508
-0.20386
-0.2063
-0.2063
-0.20752
-0.20996
-0.20752
-0.20874
-0.20508
-0.20874
-0.2124
-0.21118
-0.21484
-0.21973
-0.21606
-0.21973
-0.21851
-0.22095
-0.22583
-0.22217
-0.22461
-0.22217
-0.22461
-0.22705
-0.22461
-0.22827
-0.22705
-0.22827
-0.22827
-0.22705
-0.22827
-0.22705
-0.22583
-0.23071
-0.22705
-0.22827
-0.22217
-0.21851
-0.20996
-0.19653
-0.18188
-0.15625
-0.12695
-0.08057
-0.02319
0.03418
0.09888
0.15381
0.20752
0.25879
0.29907
0.34058
0.36743
0.39063
0.41138
0.42114
0.43091
0.43335
0.43579
0.43701
0.43091
0.42725
0.4187
0.41138
0.40405
0.39185
0.38452
0.37354
0.36499
0.35645
0.34424
0.33447
0.32227
0.31006
0.30151
0.29053
0.28076
0.27344
0.26733
0.26123
0.25391
0.24658
0.24292
0.23682
0.23193
0.22339
0.21729
0.20874
0.20142
0.19531
0.18188
0.177
0.16724
0.15869
0.15381
0.15015
0.14282
0.13794
0.13306
0.13184
0.12573
0.12451
0.11963
0.11597
0.11475
0.10864
0.10986
0.1062
0.10498
0.10498
0.09766
0.09766
0.09277
0.08789
0.08179
0.07446
0.07202
0.0647
0.05981
0.05371
0.04517
0.04028
0.0293
0.02075
0.01099
0.00244
-0.00366
-0.01099
-0.01709
-0.02563
-0.03296
-0.03784
-0.04883
-0.05493
-0.06226
-0.0708
-0.07324
-0.08057
-0.08301
-0.09033
-0.09766
-0.09888
-0.10742
-0.11475
-0.11475
-0.12085
-0.12207
-0.12695
-0.1355
-0.13428
-0.13916
-0.13916
-0.14526
-0.15015
-0.15137
-0.15747
-0.15869
-0.16235
-0.16479
-0.16602
-0.16968
-0.16968
-0.17334
-0.177
-0.177
-0.17944
-0.17944
-0.18677
-0.18433
-0.18555
-0.18921
-0.18799
-0.19653
-0.19531
-0.19531
-0.2002
-0.2002
-0.20264
-0.20386
-0.20264
-0.20508
-0.20508
-0.20874
-0.20874
-0.20874
-0.2124
-0.21484
-0.21484
-0.21606
-0.21606
-0.22095
-0.22339
-0.22461
-0.22705
-0.22583
-0.22827
-0.22949
-0.22949
-0.22827
-0.22705
-0.22827
-0.22827
-0.23071
-0.23071
-0.23071
-0.22827
-0.23315
-0.23438
-0.23438
-0.23438
-0.23804
-0.2356
-0.23804
-0.23926
-0.23682
-0.2417
-0.23682
-0.23804
-0.23682
-0.23438
-0.2356
-0.23071
-0.23071
-0.22583
-0.21729
-0.21362
-0.19897
-0.18433
-0.16357
-0.1355
-0.09521
-0.04272
0.00854
0.0647
0.11597
0.16724
0.21606
0.25635
0.29297
0.32227
0.34546
0.36621
0.37598
0.38696
0.39063
0.39185
0.39307
0.38818
0.3833
0.37598
0.36865
0.36377
0.35034
0.34058
0.32959
0.31738
0.30518
0.29297
0.28076
0.26855
0.25391
0.24536
0.23071
0.21851
0.20874
0.19775
0.19043
0.17944
0.16724
0.16113
0.14893
0.14282
0.13184
0.11841
0.11475
0.10376
0.09766
0.08911
0.08057
0.07446
0.06592
0.06348
0.05371
0.05005
0.04883
0.04395
0.0415
0.0415
0.03662
0.03418
0.03052
0.03174
0.02563
0.02441
0.02319
0.01953
0.01953
0.01587
0.01709
0.01587
0.01099
0.01099
0.00122
-0.00366
-0.0061
-0.01343
-0.01831
-0.02319
-0.02686
-0.03174
-0.03906
-0.04272
-0.05005
-0.05371
-0.05859
-0.06348
-0.06958
-0.07202
-0.07446
-0.07813
-0.08301
-0.08423
-0.09033
-0.09277
-0.09521
-0.10132
-0.1062
-0.10986
-0.11108
-0.11475
-0.1123
-0.11719
-0.12329
-0.12451
-0.12573
-0.13062
-0.12939
-0.13306
-0.13428
-0.13428
-0.14038
-0.13916
-0.14282
-0.14404
-0.14282
-0.14771
-0.14526
-0.14648
-0.14893
-0.15015
-0.15259
-0.15137
-0.15381
-0.15381
-0.15259
-0.15747
-0.15503
-0.15747
-0.15625
-0.15747
-0.15991
-0.15625
-0.16113
-0.16113
-0.16357
-0.16357
-0.16113
-0.16113
-0.15991
-0.16113
-0.16235
-0.15991
-0.16235
-0.15991
-0.16235
-0.16357
-0.16235
-0.16479
-0.16724
-0.16479
-0.16724
-0.16357
-0.16846
-0.1709
-0.16602
-0.16724
-0.16357
-0.16479
-0.16602
-0.16479
-0.16724
-0.16479
-0.16968
-0.1709
-0.16846
-0.17212
-0.16968
-0.17578
-0.17334
-0.17334
-0.17578
-0.17212
-0.17822
-0.1709
-0.16479
-0.16113
-0.14893
-0.14038
-0.12451
-0.10498
-0.08423
-0.05493
-0.02563
0.01587
0.05981
0.1001
0.1416
0.177
0.20996
0.23926
0.26245
0.2832
0.29785
0.31006
0.31982
0.32349
0.32593
0.32837
0.32715
0.32471
0.31738
0.30884
0.30029
0.29297
0.28442
0.27222
0.26001
0.25024
0.2417
0.23193
0.21973
0.20874
0.19409
0.18433
0.17578
0.16602
0.15747
0.14893
0.14038
0.13062
0.11963
0.11108
0.09888
0.09033
0.08301
0.07446
0.06836
0.06104
0.05615
0.05127
0.04272
0.04395
0.03784
0.0354
0.03418
0.0293
0.03296
0.03174
0.03174
0.03174
0.02686
0.0293
0.02686
0.02563
0.02686
0.02319
0.02441
0.02197
0.02197
0.01953
0.01587
0.01709
0.01221
0.00977
0.0061
0.00122
-0.00122
-0.0061
-0.00854
-0.01465
-0.02075
-0.02197
-0.0293
-0.03296
-0.03784
-0.04028
-0.0415
-0.04639
-0.05005
-0.05493
-0.05981
-0.05981
-0.06714
-0.0708
-0.07324
-0.0769
-0.07935
-0.08301
-0.08789
-0.08789
-0.09277
-0.09155
-0.09766
-0.10498
-0.10376
-0.10864
-0.10864
-0.1123
-0.11597
-0.11719
-0.12085
-0.12085
-0.12451
-0.12695
-0.12695
-0.12939
-0.13062
-0.12939
-0.13306
-0.13428
-0.1355
-0.13306
-0.13916
-0.13794
-0.13794
-0.14038
-0.13916
-0.14404
-0.14282
-0.14282
-0.14404
-0.1416
-0.14648
-0.14648
-0.14648
-0.14648
-0.14282
-0.15015
-0.14771
-0.14893
-0.15137
-0.15137
-0.15259
-0.15137
-0.15015
-0.15137
-0.15503
-0.15381
-0.15381
-0.15503
-0.15747
-0.15625
-0.15991
-0.15869
-0.15991
-0.16235
-0.15991
-0.16113
-0.15869
-0.15869
-0.15747
-0.15137
-0.14893
-0.13916
-0.12939
-0.12085
-0.09644
-0.07324
-0.04028
0
0.0415
0.09521
0.1416
0.18921
0.23315
0.26855
0.30884
0.33936
0.36987
0.39429
0.40527
0.41992
0.42603
0.43213
0.43457
0.42847
0.42603
0.4187
0.4126
0.40283
0.39185
0.3833
0.36865
0.35889
0.3479
0.33447
0.32593
0.31372
0.30151
0.29175
0.27222
0.26367
0.24902
0.24048
0.22583
0.21606
0.20874
0.19653
0.18677
0.17334
0.16357
0.15747
0.14526
0.13794
0.12939
0.12085
0.11597
0.10742
0.10864
0.09766
0.09155
0.09033
0.08423
0.08057
0.07935
0.0769
0.0769
0.07324
0.07202
0.06958
0.06714
0.06836
0.0647
0.06348
0.06104
0.05737
0.05737
0.05859
0.05127
0.04761
0.04395
0.0415
0.03418
0.03174
0.02563
0.02197
0.01831
0.00854
0.00732
0.00244
-0.00488
-0.0061
-0.01709
-0.02075
-0.02563
-0.03296
-0.03662
-0.04272
-0.04517
-0.05005
-0.05615
-0.05981
-0.0647
-0.06592
-0.06958
-0.07324
-0.07813
-0.07935
-0.07935
-0.08423
-0.08667
-0.08911
-0.09399
-0.09399
-0.09766
-0.1001
-0.10132
-0.10498
-0.10376
-0.10742
-0.11353
-0.10986
-0.11475
-0.11353
-0.11475
-0.12329
-0.11597
-0.11963
-0.11841
-0.12207
-0.12695
-0.12573
-0.13062
-0.13062
-0.13428
-0.13428
-0.13428
-0.1355
-0.13428
-0.13428
-0.13916
-0.13428
-0.13794
-0.1355
-0.13794
-0.13916
-0.13794
-0.14038
-0.14038
-0.14404
-0.14404
-0.14282
-0.14648
-0.14282
-0.14648
-0.14648
-0.14648
-0.14893
-0.14282
-0.15015
-0.15381
-0.15259
-0.15625
-0.15869
-0.15747
-0.15747
-0.15503
-0.15625
-0.15625
-0.15015
-0.14526
-0.13306
-0.12207
-0.10132
-0.07324
-0.03418
0.01709
0.07202
0.13428
0.19287
0.2478
0.30151
0.34302
0.38452
0.41626
0.44189
0.46509
0.47729
0.49072
0.49683
0.50049
0.50415
0.49927
0.49683
0.4895
0.48462
0.47974
0.46875
0.46143
0.45166
0.44312
0.43701
0.42358
0.41626
0.40649
0.39673
0.3894
0.3772
0.37231
0.36377
0.354
0.34912
0.33813
0.33447
0.32593
0.3186
0.3186
0.30396
0.29907
0.28809
0.2771
0.26978
0.25879
0.25269
0.24536
0.23804
0.23193
0.22705
0.22339
0.21484
0.20874
0.20508
0.19897
0.2002
0.19653
0.19775
0.19531
0.19287
0.19287
0.19043
0.18433
0.18921
0.18433
0.18555
0.18188
0.17334
0.17334
0.16846
0.16479
0.15625
0.14771
0.1416
0.13062
0.12329
0.11108
0.10254
0.09399
0.08301
0.07446
0.06226
0.05127
0.04517
0.03418
0.02808
0.01343
0.00854
0.00244
-0.00732
-0.01465
-0.02563
-0.03296
-0.03784
-0.04761
-0.05249
-0.05981
-0.0647
-0.06836
-0.0769
-0.08423
-0.08789
-0.09277
-0.09521
-0.10254
-0.10986
-0.11108
-0.11597
-0.11475
-0.12085
-0.12207
-0.12695
-0.13062
-0.13062
-0.13794
-0.13672
-0.14038
-0.14282
-0.14404
-0.14771
-0.14771
-0.15137
-0.15381
-0.15381
-0.16357
-0.15991
-0.16357
-0.16479
-0.16479
-0.16968
-0.16846
-0.17212
-0.17334
-0.17334
-0.17822
-0.17822
-0.17944
-0.18311
-0.18677
-0.18799
-0.18677
-0.19043
-0.19287
-0.19775
-0.19653
-0.19653
-0.19897
-0.19897
-0.2002
-0.20264
-0.2002
-0.20264
-0.2063
-0.2063
-0.20874
-0.20752
-0.20996
-0.2124
-0.21118
-0.21362
-0.21118
-0.2124
-0.2124
-0.2063
-0.20142
-0.18921
-0.17578
-0.15625
-0.12329
-0.08057
-0.02319
0.04272
0.1001
0.16357
0.21729
0.26978
0.30762
0.34912
0.3833
0.40649
0.42969
0.43579
0.44922
0.45654
0.45654
0.46021
0.4541
0.45288
0.44922
0.44189
0.43701
0.4248
0.4187
0.4126
0.40527
0.39795
0.38696
0.38086
0.37354
0.36255
0.35767
0.34668
0.34058
0.33691
0.32837
0.33081
0.32227
0.3186
0.31494
0.30884
0.30396
0.29907
0.29419
0.29053
0.28076
0.27466
0.26611
0.25879
0.25146
0.24292
0.24048
0.23315
0.22827
0.22461
0.21606
0.21851
0.21484
0.21362
0.2124
0.20508
0.20874
0.20508
0.20264
0.20386
0.19775
0.19775
0.19409
0.19165
0.18677
0.18066
0.17822
0.16968
0.16235
0.15259
0.14648
0.14038
0.13062
0.12207
0.10986
0.10132
0.09399
0.08057
0.0708
0.06104
0.05005
0.0415
0.0293
0.01953
0.01221
0
-0.0061
-0.01831
-0.02686
-0.03418
-0.04395
-0.05005
-0.05859
-0.0708
-0.07324
-0.08179
-0.08667
-0.09521
-0.10254
-0.1062
-0.11353
-0.11719
-0.12329
-0.12817
-0.13062
-0.13672
-0.13794
-0.14648
-0.15015
-0.15259
-0.15869
-0.15991
-0.16846
-0.16724
-0.16968
-0.17456
-0.17334
-0.18066
-0.18311
-0.18311
-0.18921
-0.18921
-0.19287
-0.19287
-0.19409
-0.19897
-0.19653
-0.20264
-0.20508
-0.2063
-0.20874
-0.21362
-0.21362
-0.21484
-0.21606
-0.21973
-0.22095
-0.22461
-0.22583
-0.22461
-0.22949
-0.22827
-0.23193
-0.23315
-0.23315
-0.23926
-0.23438
-0.23804
-0.23926
-0.23804
-0.24536
-0.2417
-0.2417
-0.2417
-0.2417
-0.24658
-0.24536
-0.2478
-0.2478
-0.24536
-0.24902
-0.2478
-0.25024
-0.25024
-0.25269
-0.25146
-0.24536
-0.24414
-0.23682
-0.22705
-0.20996
-0.18433
-0.15015
-0.10254
-0.04639
0.01343
0.07813
0.13428
0.19287
0.2356
0.27588
0.31494
0.34302
0.36987
0.38452
0.39551
0.40527
0.40649
0.41382
0.40771
0.40405
0.40039
0.39307
0.39185
0.37964
0.37109
0.36621
0.354
0.34912
0.33447
0.32471
0.31616
0.30518
0.29541
0.28687
0.27588
0.271
0.26001
0.25146
0.24902
0.2417
0.23804
0.23071
0.22217
0.21729
0.20752
0.20264
0.19531
0.18188
0.17456
0.16479
0.15869
0.15137
0.14526
0.14038
0.13428
0.13306
0.12451
0.12451
0.12329
0.12085
0.12329
0.11963
0.12085
0.12085
0.11841
0.12451
0.11719
0.11597
0.11475
0.11108
0.10986
0.10376
0.1001
0.09521
0.08667
0.08179
0.07202
0.0647
0.05737
0.04761
0.04028
0.0293
0.02197
0.01343
0.00732
-0.00488
-0.01587
-0.02319
-0.03052
-0.04272
-0.04761
-0.05615
-0.06226
-0.06958
-0.07813
-0.08179
-0.09155
-0.09766
-0.10376
-0.11108
-0.11475
-0.12085
-0.12451
-0.13306
-0.1355
-0.13672
-0.14404
-0.14771
-0.15625
-0.15747
-0.15991
-0.16357
-0.16479
-0.16968
-0.17456
-0.17334
-0.18066
-0.18433
-0.18433
-0.18799
-0.18799
-0.19043
-0.19531
-0.19409
-0.19653
-0.19653
-0.20264
-0.20752
-0.20386
-0.2063
-0.2063
-0.20752
-0.20996
-0.20996
-0.2124
-0.21118
-0.21729
-0.21729
-0.21606
-0.21851
-0.21729
-0.22217
-0.22095
-0.22217
-0.22583
-0.22217
-0.22827
-0.22705
-0.22705
-0.23071
-0.22827
-0.23193
-0.23193
-0.23315
-0.2356
-0.23193
-0.23804
-0.23804
-0.23804
-0.24048
-0.23926
-0.23926
-0.23682
-0.23682
-0.23804
-0.23804
-0.23926
-0.24048
-0.24048
-0.2417
-0.24048
-0.24292
-0.24048
-0.2417
-0.24292
-0.23804
-0.2356
-0.22949
-0.21973
-0.2124
-0.18921
-0.16846
-0.1355
-0.09521
-0.05249
0.00854
0.05981
0.11353
0.16235
0.20264
0.24658
0.27954
0.31128
0.33447
0.3479
0.36377
0.36865
0.37476
0.37842
0.37476
0.37476
0.36743
0.36377
0.35645
0.34424
0.33936
0.32593
0.31616
0.30518
0.29175
0.2832
0.26978
0.26001
0.24658
0.23193
0.22461
0.20874
0.19897
0.19165
0.17578
0.16602
0.15259
0.1416
0.12939
0.11719
0.10986
0.09521
0.08545
0.07446
0.06592
0.05981
0.05127
0.04761
0.03906
0.03296
0.03296
0.02686
0.02808
0.02197
0.02075
0.02075
0.01709
0.01587
0.01465
0.01221
0.01465
0.00977
0.00732
0.00977
0.00732
0.00732
0.00488
0.00122
-0.00244
-0.0061
-0.00854
-0.01709
-0.02197
-0.02686
-0.03296
-0.0354
-0.04639
-0.04639
-0.05371
-0.06104
-0.06348
-0.07813
-0.0769
-0.08179
-0.08667
-0.09033
-0.09644
-0.09644
-0.10132
-0.1062
-0.10742
-0.11353
-0.11475
-0.11963
-0.12451
-0.12939
-0.13184
-0.13428
-0.13916
-0.14282
-0.14526
-0.14771
-0.14893
-0.15259
-0.15625
-0.15747
-0.15991
-0.15869
-0.15991
-0.16235
-0.16235
-0.16602
-0.16479
-0.16602
-0.16968
-0.16724
-0.16968
-0.16968
-0.1709
-0.17456
-0.17334
-0.17578
-0.17456
-0.177
-0.17944
-0.17822
-0.17944
-0.17822
-0.177
-0.18311
-0.18066
-0.18433
-0.18311
-0.18799
-0.18555
-0.18555
-0.18677
-0.18555
-0.18921
-0.18921
-0.18555
-0.18799
-0.18555
-0.18677
-0.18677
-0.18433
-0.18677
-0.18799
-0.19043
-0.19409
-0.19287
-0.19775
-0.20264
-0.20142
-0.20386
-0.20386
-0.20508
-0.20508
-0.20752
-0.20874
-0.2063
-0.20386
-0.20508
-0.20264
-0.19775
-0.18677
-0.18188
-0.16235
-0.14526
-0.12207
-0.08789
-0.05249
-0.00366
0.04395
0.09033
0.14038
0.17456
0.21484
0.24658
0.27588
0.29907
0.3186
0.33813
0.34912
0.35889
0.36377
0.36499
0.36743
0.36255
0.35767
0.35034
0.34302
0.33691
0.32593
0.31494
0.30273
0.29297
0.28442
0.271
0.26001
0.24902
0.23193
0.22217
0.20996
0.19775
0.18677
0.17456
0.16479
0.15137
0.14038
0.12939
0.11597
0.10864
0.09766
0.09399
0.08057
0.07202
0.06714
0.05859
0.05127
0.04639
0.03906
0.0354
0.03052
0.02319
0.02441
0.01953
0.01953
0.01587
0.01221
0.01343
0.00977
0.01099
0.01343
0.0061
0.00732
0.00366
0.00488
-0.00122
-0.00488
-0.00488
-0.00854
-0.00977
-0.01709
-0.01953
-0.02075
-0.02686
-0.02808
-0.03662
-0.04272
-0.04517
-0.05249
-0.05005
-0.06104
-0.06592
-0.06958
-0.07568
-0.07935
-0.08545
-0.09033
-0.09155
-0.09766
-0.10132
-0.1062
-0.11108
-0.1123
-0.11719
-0.11963
-0.12451
-0.12695
-0.12817
-0.12695
-0.13306
-0.13672
-0.14038
-0.14038
-0.14648
-0.14404
-0.14893
-0.15137
-0.15137
-0.15747
-0.15503
-0.15869
-0.15991
-0.15991
-0.16479
-0.16357
-0.16724
-0.16846
-0.16479
-0.1709
-0.16968
-0.1709
-0.1709
-0.17334
-0.17334
-0.17212
-0.17578
-0.177
-0.177
-0.177
-0.177
-0.17944
-0.18188
-0.17944
-0.18311
-0.18066
-0.18188
-0.18555
-0.18188
-0.18311
-0.18188
-0.18311
-0.18677
-0.18433
-0.18677
-0.18433
-0.18677
-0.19043
-0.18921
-0.19287
-0.19165
-0.18677
-0.19287
-0.19165
-0.19287
-0.18921
-0.18921
-0.18433
-0.17456
-0.16724
-0.15015
-0.13428
-0.10864
-0.07324
-0.03296
0.01831
0.07202
0.12695
0.18066
0.22583
0.26978
0.30762
0.34424
0.3772
0.39917
0.4187
0.42969
0.43945
0.44556
0.44678
0.44678
0.44312
0.43945
0.43579
0.42725
0.41992
0.4126
0.40283
0.39673
0.3833
0.37109
0.36255
0.35156
0.33936
0.32593
0.31494
0.30151
0.29053
0.28198
0.26855
0.26123
0.24902
0.23926
0.22949
0.21362
0.20874
0.19653
0.18555
0.17456
0.15747
0.15137
0.13916
0.12939
0.12207
0.10986
0.1062
0.09766
0.09033
0.08667
0.07935
0.0769
0.07324
0.07202
0.06836
0.06592
0.06714
0.06226
0.05981
0.05493
0.05493
0.05493
0.05127
0.04883
0.04517
0.03906
0.03906
0.03174
0.02563
0.02197
0.01587
0.01221
0.00488
0.00122
-0.00488
-0.01221
-0.01465
-0.02319
-0.03174
-0.03418
-0.0415
-0.04517
-0.05127
-0.05737
-0.05981
-0.06592
-0.06836
-0.07568
-0.08179
-0.08545
-0.09155
-0.09399
-0.09277
-0.10132
-0.10254
-0.10742
-0.10742
-0.11597
-0.11963
-0.12085
-0.12573
-0.12695
-0.13306
-0.1355
-0.13672
-0.14038
-0.14038
-0.14648
-0.14893
-0.14893
-0.15137
-0.15137
-0.15503
-0.15503
-0.15503
-0.15991
-0.16235
-0.16235
-0.16479
-0.16479
-0.16846
-0.17212
-0.1709
-0.1709
-0.1709
-0.17334
-0.17334
-0.177
-0.17944
-0.17822
-0.17944
-0.18066
-0.18311
-0.18433
-0.18555
-0.19043
-0.18677
-0.19043
-0.19043
-0.18921
-0.19531
-0.19043
-0.19287
-0.19287
-0.19287
-0.19653
-0.19287
-0.19653
-0.19653
-0.19409
-0.19897
-0.19653
-0.19775
-0.19775
-0.19775
-0.19897
-0.19653
-0.2002
-0.2002
-0.19897
-0.19775
-0.18921
-0.18188
-0.16968
-0.15015
-0.12573
-0.08423
-0.03784
0.01953
0.08667
0.14771
0.20996
0.26489
0.31372
0.36133
0.39673
0.43091
0.45166
0.46997
0.48584
0.49316
0.50049
0.50415
0.50415
0.50415
0.49927
0.49805
0.48828
0.48096
0.47485
0.46631
0.46021
0.45044
0.43945
0.43335
0.42236
0.41504
0.40405
0.39307
0.38696
0.37842
0.37354
0.37354
0.36377
0.35889
0.35278
0.35156
0.3418
0.33691
0.33081
0.32227
0.31738
0.3064
0.29907
0.29175
0.28076
0.27588
0.26245
0.25513
0.25024
0.24048
0.2417
0.22827
0.22461
0.21973
0.21362
0.21118
0.20386
0.20142
0.19897
0.19531
0.19165
0.19043
0.18921
0.18799
0.18311
0.18066
0.17456
0.16968
0.16602
0.16235
0.15259
0.14404
0.1355
0.12817
0.11597
0.11108
0.09888
0.08789
0.07935
0.0647
0.05737
0.04883
0.03784
0.0293
0.01587
0.00854
-0.00366
-0.01221
-0.01709
-0.03052
-0.03662
-0.04517
-0.05127
-0.06104
-0.06714
-0.07202
-0.08179
-0.08667
-0.09521
-0.10132
-0.10376
-0.10986
-0.11475
-0.12085
-0.12695
-0.12817
-0.1355
-0.13428
-0.14404
-0.14771
-0.15015
-0.15381
-0.15747
-0.15991
-0.16357
-0.16357
-0.16968
-0.17456
-0.17578
-0.18066
-0.18066
-0.18311
-0.18555
-0.18677
-0.19043
-0.18921
-0.18921
-0.19653
-0.19775
-0.20142
-0.20142
-0.20752
-0.20752
-0.20996
-0.21362
-0.2124
-0.21973
-0.21973
-0.22095
-0.22339
-0.22461
-0.22705
-0.22705
-0.22705
-0.22949
-0.23193
-0.23438
-0.23682
-0.23682
-0.23926
-0.2417
-0.24048
-0.24048
-0.2417
-0.2417
-0.2417
-0.24414
-0.24414
-0.24414
-0.2417
-0.24658
-0.24658
-0.24536
-0.24536
-0.24902
-0.24536
-0.2478
-0.2478
-0.24658
-0.25024
-0.2478
-0.2478
-0.24536
-0.24414
-0.24048
-0.22949
-0.22217
-0.20508
-0.18311
-0.14771
-0.09766
-0.04028
0.02686
0.09033
0.15625
0.21973
0.271
0.32104
0.35889
0.39185
0.4187
0.43701
0.45288
0.46143
0.46509
0.46997
0.46631
0.46509
0.46143
0.45532
0.45044
0.44312
0.43579
0.42603
0.41626
0.41138
0.40039
0.39063
0.3833
0.37354
0.36499
0.35522
0.34546
0.33936
0.33325
0.33081
0.32227
0.3186
0.31738
0.3125
0.31006
0.30518
0.29907
0.29297
0.28442
0.28076
0.27588
0.26489
0.25879
0.25146
0.24658
0.23682
0.23438
0.22827
0.22217
0.22095
0.21118
0.20874
0.20508
0.2002
0.19775
0.19287
0.19287
0.19043
0.18677
0.18799
0.18066
0.17822
0.17456
0.16968
0.16602
0.15869
0.15381
0.14893
0.13916
0.13306
0.12329
0.11597
0.10742
0.09644
0.08545
0.07568
0.06714
0.05737
0.04883
0.03662
0.02319
0.01587
0.0061
-0.00732
-0.01343
-0.02441
-0.03174
-0.04028
-0.05249
-0.05493
-0.06592
-0.0708
-0.0769
-0.08545
-0.08911
-0.09521
-0.1001
-0.1062
-0.1123
-0.11475
-0.12451
-0.12573
-0.1355
-0.13672
-0.13916
-0.14526
-0.14771
-0.15381
-0.15869
-0.15991
-0.16479
-0.16846
-0.1709
-0.17334
-0.17456
-0.17822
-0.18311
-0.18311
-0.18799
-0.18799
-0.19287
-0.19653
-0.19653
-0.19897
-0.19897
-0.20142
-0.20386
-0.2063
-0.20874
-0.20874
-0.20874
-0.21484
-0.21729
-0.22095
-0.21973
-0.22583
-0.22339
-0.22461
-0.22827
-0.22705
-0.23193
-0.23193
-0.23193
-0.23438
-0.2356
-0.23804
-0.23682
-0.23926
-0.24292
-0.24536
-0.24658
-0.24658
-0.2478
-0.24902
-0.25146
-0.25024
-0.24902
-0.24902
-0.25024
-0.24902
-0.25269
-0.25146
-0.25146
-0.25024
-0.25269
-0.25391
-0.25269
-0.25391
-0.25757
-0.25635
-0.25879
-0.25879
-0.25757
-0.26123
-0.25757
-0.25879
-0.25757
-0.25757
-0.26001
-0.25757
-0.25879
-0.25635
-0.25024
-0.25146
-0.24292
-0.23682
-0.22339
-0.20874
-0.18433
-0.14648
-0.10254
-0.04272
0.01953
0.08301
0.14648
0.20142
0.25391
0.29907
0.33936
0.37598
0.39795
0.4187
0.43457
0.44556
0.4541
0.45532
0.45532
0.4541
0.448
0.44312
0.43457
0.42847
0.41748
0.40894
0.40039
0.38696
0.38208
0.36499
0.35278
0.34424
0.32837
0.31616
0.30518
0.29419
0.28687
0.27588
0.26855
0.26123
0.25391
0.24902
0.23926
0.23193
0.22339
0.21484
0.20874
0.20386
0.18921
0.17944
0.1709
0.16357
0.14893
0.14404
0.13794
0.12939
0.12695
0.11841
0.11597
0.1123
0.10742
0.1062
0.1001
0.1001
0.09644
0.09399
0.09155
0.08911
0.08789
0.08179
0.07568
0.0708
0.06592
0.06348
0.05615
0.05005
0.04517
0.03662
0.03174
0.02197
0.01465
0.00854
0
-0.00732
-0.01587
-0.02686
-0.03174
-0.04028
-0.04272
-0.05005
-0.05737
-0.06104
-0.06836
-0.07324
-0.07935
-0.08667
-0.09033
-0.09644
-0.1001
-0.10132
-0.11108
-0.11353
-0.12085
-0.12451
-0.13062
-0.13428
-0.1355
-0.1416
-0.14404
-0.15015
-0.15259
-0.15381
-0.15991
-0.15869
-0.16602
-0.16846
-0.16968
-0.17334
-0.16968
-0.17822
-0.18066
-0.18188
-0.18555
-0.18799
-0.19043
-0.19287
-0.19165
-0.19409
-0.19775
-0.19775
-0.20142
-0.19897
-0.20386
-0.20386
-0.20752
-0.20874
-0.20874
-0.20996
-0.2124
-0.21484
-0.21729
-0.21729
-0.22217
-0.22217
-0.22339
-0.22583
-0.22339
-0.22827
-0.22461
-0.22461
-0.22583
-0.22217
-0.22705
-0.22705
-0.22705
-0.22705
-0.22095
-0.22827
-0.22583
-0.22705
-0.22705
-0.22705
-0.22949
-0.22705
-0.22827
-0.22827
-0.22949
-0.22827
-0.22583
-0.22827
-0.23071
-0.22949
-0.23193
-0.22949
-0.23193
-0.23315
-0.23193
-0.23315
-0.22949
-0.23193
-0.2356
-0.22949
-0.23071
-0.22827
-0.22705
-0.22705
-0.22461
-0.22583
-0.22339
-0.22339
-0.21973
-0.21362
-0.2063
-0.19531
-0.18555
-0.16479
-0.13672
-0.10742
-0.06226
-0.01587
0.04272
0.1001
0.15015
0.19897
0.23926
0.27832
0.31616
0.34424
0.37231
0.38696
0.40039
0.41138
0.41504
0.4187
0.41504
0.4126
0.40771
0.39673
0.39063
0.3772
0.36377
0.354
0.33691
0.32593
0.31006
0.29785
0.28564
0.26978
0.25635
0.24048
0.22705
0.21851
0.20386
0.19043
0.18188
0.17212
0.16357
0.15259
0.13916
0.13306
0.12329
0.11597
0.10498
0.09521
0.08911
0.08057
0.07568
0.0647
0.05981
0.05127
0.04639
0.04395
0.03418
0.0354
0.03296
0.03052
0.03174
0.02563
0.0293
0.02686
0.02563
0.02686
0.02197
0.02319
0.02075
0.01831
0.01831
0.01221
0.01221
0.00488
0.00122
-0.00488
-0.00732
-0.01099
-0.01709
-0.02197
-0.02686
-0.03052
-0.03174
-0.03906
-0.04272
-0.04639
-0.05249
-0.05493
-0.06104
-0.05981
-0.06836
-0.07446
-0.07568
-0.08179
-0.09033
-0.08911
-0.09521
-0.09644
-0.1001
-0.10376
-0.1062
-0.10986
-0.10864
-0.11597
-0.11719
-0.11719
-0.12207
-0.12329
-0.12939
-0.12939
-0.12939
-0.13428
-0.13428
-0.14038
-0.14038
-0.14038
-0.14404
-0.14404
-0.14893
-0.14893
-0.14893
-0.15259
-0.14648
-0.15503
-0.15625
-0.15625
-0.15991
-0.16113
-0.16235
-0.16357
-0.16357
-0.16602
-0.16724
-0.16846
-0.16724
-0.16724
-0.16846
-0.1709
-0.16968
-0.16968
-0.16846
-0.16602
-0.16846
-0.16968
-0.1709
-0.16968
-0.17578
-0.16968
-0.1709
-0.1709
-0.16968
-0.17212
-0.16968
-0.17212
-0.1709
-0.16602
-0.17334
-0.16968
-0.17212
-0.17212
-0.17334
-0.17334
-0.1709
-0.17212
-0.17212
-0.1709
-0.17212
-0.16968
-0.16968
-0.1709
-0.16968
-0.1709
-0.16846
-0.17212
-0.17334
-0.16968
-0.17212
-0.16846
-0.16846
-0.16724
-0.15869
-0.15503
-0.14282
-0.13428
-0.12207
-0.10254
-0.08545
-0.05859
-0.03296
0.0061
0.04883
0.08789
0.13062
0.16113
0.19165
0.21973
0.24048
0.26245
0.27466
0.28564
0.29419
0.29541
0.29907
0.29297
0.28931
0.28564
0.27588
0.26978
0.26001
0.25024
0.24292
0.23193
0.22217
0.20996
0.2002
0.19287
0.18188
0.177
0.16113
0.15137
0.14404
0.13306
0.12573
0.11597
0.10742
0.10254
0.09155
0.08545
0.07813
0.0708
0.06836
0.05981
0.05615
0.04883
0.04517
0.0415
0.0354
0.0354
0.03174
0.03052
0.03052
0.02197
0.02686
0.02319
0.02197
0.02319
0.01953
0.02319
0.02197
0.02319
0.02441
0.02197
0.02563
0.02319
0.02319
0.02319
0.02075
0.02075
0.01831
0.01587
0.01221
0.01099
0.01099
0.0061
0.00244
0
-0.0061
-0.00732
-0.01099
-0.01709
-0.01831
-0.02563
-0.02563
-0.03296
-0.03784
-0.03784
-0.04272
-0.04517
-0.04883
-0.05493
-0.05249
-0.05737
-0.05737
-0.06226
-0.06592
-0.06714
-0.07202
-0.07202
-0.0708
-0.07935
-0.07813
-0.08179
-0.08057
-0.08789
-0.08667
-0.08667
-0.09033
-0.09033
-0.09521
-0.09521
-0.09644
-0.09888
-0.09766
-0.10254
-0.10376
-0.10376
-0.1062
-0.10498
-0.10742
-0.10742
-0.10742
-0.10986
-0.10986
-0.1123
-0.1123
-0.11108
-0.11475
-0.1123
-0.11353
-0.11475
-0.11475
-0.11719
-0.11353
-0.11719
-0.11719
-0.11719
-0.12451
-0.12085
-0.12207
-0.12207
-0.12085
-0.12573
-0.12207
-0.12573
-0.12573
-0.12207
-0.12939
-0.12695
-0.12817
-0.12817
-0.12817
-0.13062
-0.12817
-0.13184
-0.13306
-0.13428
-0.1355
-0.13306
-0.1355
-0.13306
-0.13306
-0.13184
-0.12695
-0.12451
-0.1123
-0.10864
-0.09888
-0.08179
-0.06226
-0.03906
-0.0061
0.03052
0.07568
0.11719
0.16113
0.20264
0.23682
0.26978
0.29541
0.3186
0.33936
0.354
0.36743
0.37598
0.3772
0.38086
0.37964
0.37964
0.38086
0.36987
0.36621
0.35767
0.35034
0.34424
0.32715
0.31982
0.30884
0.29907
0.29419
0.2771
0.26733
0.25269
0.24414
0.22827
0.21973
0.21118
0.2002
0.19165
0.18066
0.1709
0.16357
0.15137
0.14526
0.13306
0.12573
0.12207
0.11353
0.1062
0.10254
0.09888
0.09399
0.08789
0.08423
0.08057
0.07813
0.07813
0.07446
0.07324
0.07202
0.07202
0.07202
0.07446
0.0708
0.06714
0.06714
0.06714
0.06226
0.06348
0.06104
0.05737
0.05615
0.05005
0.05127
0.04395
0.04028
0.0354
0.03052
0.0293
0.02441
0.01953
0.01465
0.00854
0.00732
0
-0.0061
-0.01343
-0.01709
-0.02075
-0.02441
-0.02808
-0.03296
-0.03906
-0.04028
-0.04761
-0.05249
-0.05371
-0.05859
-0.05981
-0.0647
-0.06958
-0.06836
-0.07324
-0.07202
-0.07813
-0.08545
-0.08301
-0.08545
-0.08545
-0.08911
-0.09155
-0.09277
-0.09521
-0.09521
-0.09644
-0.10132
-0.1001
-0.10376
-0.10376
-0.10742
-0.1062
-0.10498
-0.10864
-0.10742
-0.11475
-0.1123
-0.1123
-0.11475
-0.11353
-0.11719
-0.11719
-0.11597
-0.11963
-0.1123
-0.11963
-0.12085
-0.12085
-0.12207
-0.12207
-0.12451
-0.12573
-0.12451
-0.12573
-0.12573
-0.12817
-0.12939
-0.12817
-0.13062
-0.13062
-0.13184
-0.13062
-0.13062
-0.12939
-0.13062
-0.13428
-0.13428
-0.13306
-0.14038
-0.13672
-0.13794
-0.13916
-0.13916
-0.1416
-0.13916
-0.14038
-0.13794
-0.13428
-0.13062
-0.11963
-0.10864
-0.09155
-0.07202
-0.03784
0.00732
0.05859
0.11719
0.17578
0.23193
0.28687
0.33569
0.38086
0.42114
0.45288
0.48462
0.50293
0.51758
0.52979
0.53467
0.53955
0.53955
0.53833
0.53589
0.53101
0.52734
0.5188
0.51025
0.50293
0.49316
0.48584
0.47485
0.46387
0.45532
0.44189
0.43457
0.41992
0.40771
0.40283
0.39429
0.38818
0.37964
0.37109
0.36499
0.35767
0.35278
0.34302
0.33325
0.32593
0.31616
0.30762
0.30273
0.28687
0.28076
0.26978
0.26367
0.24902
0.24414
0.23926
0.23071
0.22827
0.22217
0.22095
0.21851
0.21362
0.21606
0.20874
0.2063
0.2063
0.20264
0.20264
0.19897
0.19897
0.19775
0.19409
0.19165
0.18433
0.18066
0.17578
0.16602
0.16113
0.15259
0.14404
0.1355
0.12207
0.11719
0.10376
0.09399
0.08545
0.0708
0.06714
0.05737
0.05005
0.0415
0.0293
0.02319
0.01221
0.00488
0.00244
-0.01221
-0.01709
-0.02441
-0.0293
-0.03662
-0.04272
-0.04639
-0.05371
-0.05981
-0.0647
-0.0708
-0.07324
-0.07935
-0.08423
-0.08789
-0.09277
-0.09521
-0.10132
-0.10742
-0.10742
-0.11108
-0.1123
-0.11719
-0.12207
-0.12085
-0.12451
-0.12451
-0.12817
-0.13428
-0.13428
-0.13794
-0.13916
-0.13916
-0.14404
-0.14404
-0.14893
-0.14893
-0.15503
-0.15625
-0.15503
-0.15747
-0.15747
-0.16235
-0.15991
-0.16113
-0.16479
-0.16357
-0.16724
-0.16846
-0.16846
-0.17212
-0.17456
-0.17578
-0.17578
-0.177
-0.17944
-0.18066
-0.18188
-0.18311
-0.18311
-0.18555
-0.18677
-0.18921
-0.18921
-0.19043
-0.18799
-0.19165
-0.19531
-0.19653
-0.19531
-0.2002
-0.19897
-0.19897
-0.2002
-0.19897
-0.20142
-0.19409
-0.19287
-0.18433
-0.17212
-0.15503
-0.12451
-0.08423
-0.03052
0.03052
0.09399
0.16113
0.21851
0.27344
0.32104
0.36133
0.39917
0.42725
0.45044
0.46753
0.47974
0.49072
0.49316
0.49561
0.49438
0.49194
0.4895
0.4834
0.47729
0.46997
0.46143
0.45532
0.44312
0.43579
0.42725
0.41748
0.41016
0.40039
0.39063
0.3833
0.37476
0.36987
0.36255
0.354
0.35522
0.35156
0.35034
0.34546
0.34058
0.33936
0.33325
0.33081
0.32227
0.31494
0.30762
0.30029
0.29297
0.2832
0.27832
0.271
0.26489
0.26245
0.25635
0.25513
0.25635
0.25269
0.25391
0.24902
0.25024
0.2478
0.24414
0.24536
0.23804
0.23682
0.2356
0.22949
0.23193
0.22217
0.21851
0.21362
0.2063
0.2002
0.19165
0.18555
0.17944
0.16968
0.16113
0.15137
0.14282
0.13306
0.12085
0.1123
0.09888
0.08789
0.0769
0.06714
0.05249
0.0415
0.03174
0.02319
0.01221
0.00488
-0.0061
-0.01587
-0.02319
-0.0354
-0.04028
-0.04761
-0.05493
-0.06226
-0.07202
-0.07446
-0.08301
-0.08911
-0.09155
-0.10254
-0.10742
-0.11475
-0.11963
-0.12817
-0.13184
-0.13306
-0.13916
-0.14404
-0.14771
-0.15259
-0.15381
-0.15869
-0.16235
-0.16479
-0.16846
-0.16724
-0.17334
-0.17944
-0.17822
-0.18188
-0.18311
-0.18555
-0.19043
-0.19043
-0.19409
-0.19409
-0.19897
-0.20264
-0.20264
-0.20752
-0.20874
-0.2063
-0.2124
-0.21362
-0.21851
-0.21729
-0.22095
-0.22217
-0.22461
-0.22583
-0.22583
-0.23071
-0.23071
-0.23071
-0.23438
-0.23315
-0.23804
-0.23804
-0.23804
-0.24048
-0.24292
-0.2417
-0.2417
-0.2417
-0.24536
-0.2478
-0.24658
-0.24658
-0.2478
-0.25024
-0.25146
-0.25269
-0.25269
-0.25146
-0.25513
-0.25269
-0.25513
-0.25513
-0.25269
-0.25391
-0.24536
-0.23804
-0.22583
-0.20874
-0.18921
-0.14648
-0.10132
-0.04272
0.02319
0.08423
0.14648
0.20142
0.25269
0.30273
0.33325
0.36743
0.3894
0.40649
0.42236
0.42847
0.43701
0.43823
0.43823
0.43213
0.42725
0.4248
0.41626
0.40894
0.39917
0.39063
0.3833
0.37476
0.36743
0.35645
0.3479
0.3418
0.33203
0.32227
0.31372
0.3064
0.30273
0.29541
0.29175
0.28687
0.28076
0.28076
0.27344
0.26733
0.26123
0.25269
0.24536
0.2356
0.22339
0.21973
0.21118
0.20752
0.19775
0.19165
0.18799
0.18433
0.18311
0.18188
0.177
0.177
0.17334
0.177
0.17212
0.1709
0.17212
0.16846
0.16968
0.16357
0.16479
0.16235
0.15625
0.15259
0.14404
0.13916
0.13184
0.12451
0.11475
0.10864
0.1001
0.09155
0.08057
0.06836
0.05981
0.05005
0.04028
0.02808
0.01831
0.00732
-0.00244
-0.01221
-0.01831
-0.03174
-0.04395
-0.05249
-0.05859
-0.0708
-0.07568
-0.08423
-0.09155
-0.09888
-0.1062
-0.11108
-0.11963
-0.12451
-0.13062
-0.13672
-0.13916
-0.14526
-0.14893
-0.15747
-0.15991
-0.16113
-0.16846
-0.17212
-0.177
-0.17944
-0.18188
-0.18433
-0.18555
-0.19043
-0.19287
-0.19287
-0.19897
-0.19653
-0.20386
-0.20752
-0.20752
-0.21118
-0.21606
-0.21484
-0.21851
-0.21851
-0.22217
-0.22461
-0.22461
-0.22827
-0.22705
-0.22949
-0.22949
-0.23193
-0.23315
-0.23315
-0.23926
-0.24048
-0.24048
-0.24414
-0.24292
-0.2478
-0.2478
-0.24902
-0.25146
-0.24902
-0.25513
-0.25513
-0.25513
-0.25635
-0.25146
-0.25757
-0.25757
-0.25879
-0.26001
-0.26123
-0.26123
-0.25879
-0.25879
-0.26001
-0.26123
-0.26245
-0.26123
-0.26123
-0.26489
-0.26245
-0.26489
-0.26489
-0.26489
-0.26733
-0.26611
-0.26733
-0.26733
-0.26733
-0.27344
-0.26733
-0.271
-0.26855
-0.26611
-0.26367
-0.25635
-0.24902
-0.23438
-0.22095
-0.19897
-0.16479
-0.12451
-0.07202
-0.01709
0.04517
0.10376
0.15503
0.20508
0.24658
0.28564
0.32349
0.3479
0.36865
0.38208
0.39307
0.40161
0.40283
0.40649
0.40283
0.39917
0.39673
0.38696
0.38086
0.36987
0.36011
0.35278
0.34058
0.33081
0.3186
0.3064
0.29907
0.2832
0.27222
0.26245
0.25146
0.24414
0.23193
0.22095
0.21362
0.20386
0.19775
0.18433
0.17212
0.16602
0.15381
0.14526
0.13428
0.12329
0.11475
0.10498
0.1001
0.09399
0.08423
0.07935
0.07324
0.07202
0.06592
0.06348
0.06226
0.05981
0.0647
0.06226
0.06592
0.06958
0.0708
0.07324
0.07446
0.0769
0.0769
0.07446
0.0708
0.06592
0.06226
0.05737
0.05127
0.0415
0.03784
0.03296
0.02686
0.01831
0.01221
0.00244
-0.00366
-0.00977
-0.02075
-0.02441
-0.03296
-0.03784
-0.04639
-0.05615
-0.05859
-0.06836
-0.07446
-0.08057
-0.09155
-0.09155
-0.09766
-0.10132
-0.10498
-0.1123
-0.11475
-0.12207
-0.12573
-0.12451
-0.1355
-0.13672
-0.14038
-0.14404
-0.14648
-0.15137
-0.15137
-0.15625
-0.15625
-0.16113
-0.16235
-0.16235
-0.16357
-0.16479
-0.16724
-0.1709
-0.16968
-0.17456
-0.17456
-0.17822
-0.18066
-0.18066
-0.18311
-0.18799
-0.18677
-0.18921
-0.18799
-0.19287
-0.19531
-0.19653
-0.19897
-0.19775
-0.19531
-0.2002
-0.20142
-0.20386
-0.20142
-0.20752
-0.20508
-0.2063
-0.20752
-0.20508
-0.20874
-0.20874
-0.20874
-0.20996
-0.20752
-0.2124
-0.21118
-0.2124
-0.21362
-0.21362
-0.21606
-0.21606
-0.21606
-0.21851
-0.21729
-0.22095
-0.22095
-0.22095
-0.22217
-0.22095
-0.22217
-0.21973
-0.22095
-0.22339
-0.22095
-0.22217
-0.21851
-0.21606
-0.21606
-0.20874
-0.20264
-0.18921
-0.177
-0.15991
-0.13062
-0.1001
-0.05737
-0.00977
0.0415
0.09155
0.13672
0.17944
0.21484
0.25024
0.2832
0.3064
0.33081
0.34668
0.35767
0.36743
0.36987
0.37354
0.36987
0.36499
0.36255
0.35278
0.34546
0.33447
0.32471
0.31494
0.30151
0.29053
0.27954
0.26611
0.25513
0.23926
0.23071
0.21362
0.20142
0.19165
0.17822
0.16235
0.15259
0.1416
0.13062
0.11719
0.1062
0.09521
0.08423
0.07568
0.06592
0.05737
0.05005
0.04028
0.03662
0.02686
0.02441
0.02075
0.01709
0.01709
0.01221
0.01465
0.01221
0.01099
0.01221
0.00854
0.00977
0.00977
0.00732
0.01221
0.0061
0.0061
0.00488
0.00122
-0.00488
-0.00732
-0.00854
-0.01221
-0.01831
-0.02197
-0.02686
-0.03052
-0.03662
-0.0415
-0.04517
-0.05127
-0.05493
-0.06104
-0.06714
-0.06958
-0.07568
-0.07813
-0.08423
-0.09277
-0.09399
-0.10132
-0.10376
-0.10742
-0.11475
-0.11597
-0.12085
-0.12329
-0.12451
-0.13062
-0.13062
-0.13672
-0.13916
-0.14771
-0.14771
-0.14771
-0.15259
-0.15259
-0.15869
-0.16113
-0.15991
-0.16357
-0.16235
-0.16724
-0.16968
-0.1709
-0.17334
-0.17456
-0.17578
-0.177
-0.17578
-0.17944
-0.18066
-0.18188
-0.18433
-0.18311
-0.18677
-0.18677
-0.18799
-0.19043
-0.18921
-0.19409
-0.19287
-0.19287
-0.19287
-0.19165
-0.19653
-0.19287
-0.19409
-0.19653
-0.19531
-0.19775
-0.19531
-0.19531
-0.19653
-0.19531
-0.19531
-0.19287
-0.19531
-0.19653
-0.19531
-0.19775
-0.19653
-0.19653
-0.19897
-0.19653
-0.19775
-0.19531
-0.19653
-0.19775
-0.19531
-0.19775
-0.19775
-0.19897
-0.20264
-0.2002
-0.20264
-0.20264
-0.20386
-0.20264
-0.19897
-0.19897
-0.19165
-0.18555
-0.17334
-0.15503
-0.13428
-0.10254
-0.06714
-0.01831
0.03784
0.09155
0.15015
0.19775
0.24414
0.28687
0.32349
0.35645
0.38574
0.40649
0.42603
0.43579
0.44556
0.44922
0.45044
0.45166
0.44556
0.43945
0.43457
0.42725
0.42114
0.41016
0.39917
0.39185
0.37964
0.37109
0.35889
0.34668
0.33325
0.3186
0.30884
0.29541
0.2832
0.27222
0.26001
0.25146
0.23804
0.22949
0.21851
0.2063
0.19775
0.18066
0.17212
0.16113
0.14893
0.13916
0.12817
0.12329
0.11475
0.10498
0.09766
0.09155
0.08789
0.08179
0.07568
0.0708
0.06592
0.06592
0.06104
0.05981
0.05737
0.05493
0.05371
0.05249
0.05127
0.04883
0.04639
0.04639
0.04395
0.0354
0.03906
0.03296
0.03052
0.02441
0.01709
0.01465
0.00732
0.00366
0
-0.01221
-0.01465
-0.02319
-0.02563
-0.0354
-0.0415
-0.04395
-0.05249
-0.05615
-0.06348
-0.06958
-0.0708
-0.07813
-0.07935
-0.08789
-0.09155
-0.09399
-0.09888
-0.10254
-0.1062
-0.11108
-0.11108
-0.11719
-0.12085
-0.12451
-0.12695
-0.12817
-0.13306
-0.13428
-0.13794
-0.14038
-0.1416
-0.14771
-0.14771
-0.15015
-0.15137
-0.15015
-0.15503
-0.15503
-0.15747
-0.15869
-0.15869
-0.16113
-0.15991
-0.16235
-0.16479
-0.16846
-0.16846
-0.16846
-0.1709
-0.17334
-0.17334
-0.177
-0.17578
-0.17944
-0.17944
-0.17944
-0.18188
-0.18311
-0.18433
-0.18799
-0.18555
-0.18799
-0.18677
-0.18921
-0.19165
-0.18921
-0.19165
-0.19043
-0.18799
-0.19409
-0.19409
-0.19653
-0.19653
-0.20142
-0.19897
-0.19775
-0.20142
-0.19897
-0.20264
-0.20264
-0.20142
-0.20386
-0.19653
-0.20386
-0.20508
-0.20264
-0.20386
-0.2063
-0.20508
-0.2063
-0.20264
-0.20508
-0.20386
-0.20142
-0.19775
-0.18921
-0.17944
-0.16968
-0.15381
-0.13062
-0.09644
-0.05737
0.00244
0.0647
0.12695
0.19043
0.2417
0.29541
0.34058
0.3833
0.41992
0.44678
0.47119
0.48706
0.49927
0.51392
0.51392
0.51758
0.51514
0.5127
0.51392
0.50049
0.49561
0.48828
0.47852
0.47241
0.45898
0.45166
0.44067
0.42969
0.42114
0.40771
0.39795
0.38818
0.37842
0.37109
0.36255
0.35767
0.34912
0.34058
0.33691
0.32837
0.32349
0.31494
0.30396
0.29907
0.28931
0.28198
0.271
0.25879
0.25146
0.23926
0.23193
0.22095
0.21362
0.20996
0.20142
0.19653
0.18799
0.18311
0.18066
0.17334
0.17212
0.16724
0.16602
0.16479
0.15869
0.15625
0.15137
0.14771
0.14526
0.13916
0.13428
0.12939
0.12207
0.11841
0.10864
0.10254
0.09399
0.08423
0.07935
0.06714
0.06104
0.05127
0.04272
0.03418
0.02197
0.01587
0.0061
-0.00366
-0.00977
-0.02197
-0.02563
-0.03296
-0.04272
-0.04761
-0.05615
-0.05981
-0.06714
-0.07324
-0.08057
-0.08423
-0.08789
-0.09277
-0.09766
-0.10376
-0.10742
-0.10986
-0.11475
-0.12085
-0.12451
-0.13062
-0.13306
-0.13672
-0.14282
-0.14282
-0.14648
-0.14648
-0.15015
-0.15747
-0.15503
-0.15991
-0.15991
-0.16357
-0.16846
-0.16724
-0.17212
-0.17212
-0.1709
-0.17944
-0.17944
-0.18433
-0.18433
-0.18921
-0.18799
-0.18921
-0.19287
-0.19165
-0.19775
-0.19897
-0.19897
-0.20264
-0.2002
-0.2063
-0.20752
-0.20752
-0.21118
-0.2124
-0.2124
-0.21484
-0.21362
-0.21729
-0.21851
-0.21851
-0.21851
-0.21851
-0.21973
-0.22095
-0.22217
-0.22217
-0.22217
-0.22461
-0.22339
-0.22461
-0.22583
-0.22339
-0.22705
-0.22461
-0.22705
-0.22705
-0.22339
-0.22949
-0.22827
-0.22949
-0.22949
-0.23071
-0.23071
-0.22705
-0.22827
-0.22827
-0.22949
-0.22949
-0.22705
-0.22705
-0.22339
-0.22461
-0.22339
-0.21851
-0.21606
-0.2124
-0.19775
-0.18433
-0.16235
-0.13062
-0.09155
-0.0354
0.02563
0.09277
0.15015
0.2124
0.26733
0.31494
0.36133
0.39307
0.42603
0.45166
0.46631
0.48218
0.48828
0.49438
0.49927
0.49683
0.49561
0.48706
0.48218
0.47607
0.46631
0.46143
0.44678
0.43701
0.42969
0.41748
0.40771
0.39307
0.38086
0.37109
0.35767
0.34546
0.33691
0.32837
0.32104
0.31128
0.30518
0.29907
0.29541
0.28931
0.28076
0.27588
0.26611
0.25757
0.25024
0.23682
0.23071
0.22095
0.21118
0.20264
0.18799
0.18433
0.17456
0.16724
0.16235
0.15381
0.15015
0.14526
0.13916
0.13184
0.12817
0.12573
0.11841
0.11353
0.10986
0.10376
0.10254
0.09644
0.09033
0.08789
0.08057
0.07568
0.06714
0.05737
0.05371
0.04395
0.03906
0.0293
0.01831
0.01465
0.00488
0
-0.01099
-0.02075
-0.02563
-0.03418
-0.04028
-0.05127
-0.05615
-0.05981
-0.06836
-0.07202
-0.08423
-0.08789
-0.09155
-0.09888
-0.10254
-0.10986
-0.11475
-0.11719
-0.12329
-0.12207
-0.13306
-0.13794
-0.14038
-0.14648
-0.15137
-0.15259
-0.15503
-0.15625
-0.16113
-0.16235
-0.16846
-0.16968
-0.1709
-0.1709
-0.177
-0.17944
-0.18066
-0.18188
-0.18921
-0.18555
-0.18921
-0.19043
-0.19043
-0.19653
-0.19653
-0.19897
-0.20142
-0.19775
-0.20508
-0.2063
-0.20874
-0.21118
-0.21484
-0.21484
-0.21362
-0.21729
-0.21729
-0.21851
-0.22095
-0.21851
-0.22095
-0.21729
-0.22217
-0.22461
-0.22339
-0.22461
-0.22827
-0.22339
-0.22583
-0.22339
-0.22461
-0.22705
-0.22461
-0.22705
-0.22461
-0.22095
-0.22827
-0.22705
-0.22949
-0.22705
-0.23193
-0.23193
-0.22827
-0.23071
-0.22705
-0.22827
-0.22705
-0.22583
-0.22705
-0.21973
-0.22583
-0.22339
-0.22217
-0.22217
-0.22217
-0.22095
-0.21973
-0.21851
-0.21973
-0.21729
-0.21729
-0.21851
-0.21729
-0.21362
-0.21606
-0.21362
-0.20752
-0.19775
-0.19409
-0.17456
-0.15625
-0.12695
-0.08667
-0.03906
0.01953
0.07813
0.1355
0.19165
0.2356
0.2832
0.32104
0.35645
0.38696
0.40894
0.42969
0.44312
0.45166
0.45532
0.45654
0.45776
0.44922
0.44312
0.43335
0.4248
0.41626
0.40405
0.39307
0.38086
0.36743
0.35767
0.34302
0.32837
0.31372
0.29785
0.28564
0.271
0.25635
0.2478
0.23438
0.22705
0.2124
0.2002
0.19165
0.18066
0.17212
0.16113
0.14893
0.1416
0.12939
0.12329
0.10864
0.10254
0.09644
0.08667
0.08179
0.07202
0.06958
0.0647
0.05981
0.05981
0.05249
0.05005
0.04883
0.04395
0.0415
0.03906
0.03662
0.03662
0.03174
0.0293
0.02563
0.02319
0.02075
0.01587
0.01221
0.00732
0.00366
0
-0.0061
-0.01099
-0.01831
-0.02319
-0.02686
-0.03662
-0.03784
-0.04272
-0.04761
-0.05127
-0.05981
-0.06226
-0.06958
-0.07568
-0.08057
-0.08545
-0.08789
-0.09277
-0.09644
-0.10254
-0.1062
-0.10742
-0.1123
-0.11719
-0.12085
-0.12573
-0.12817
-0.13184
-0.13306
-0.13916
-0.14404
-0.14404
-0.15015
-0.15747
-0.15381
-0.15869
-0.15991
-0.16235
-0.16479
-0.16479
-0.16846
-0.16724
-0.16602
-0.17334
-0.17212
-0.17456
-0.17578
-0.18188
-0.17822
-0.17944
-0.18188
-0.17944
-0.18555
-0.18433
-0.18311
-0.18555
-0.18066
-0.18799
-0.18799
-0.18677
-0.18799
-0.18921
-0.18921
-0.18921
-0.18799
-0.18921
-0.18921
-0.18921
-0.18921
-0.18921
-0.18921
-0.18921
-0.19165
-0.19287
-0.19165
-0.19653
-0.19165
-0.19287
-0.19165
-0.18921
-0.19165
-0.18799
-0.18921
-0.18799
-0.18799
-0.18799
-0.18555
-0.18555
-0.18555
-0.18799
-0.18677
-0.18311
-0.18555
-0.18433
-0.18311
-0.18311
-0.17944
-0.17944
-0.18066
-0.177
-0.177
-0.17334
-0.17578
-0.17578
-0.17334
-0.17456
-0.17334
-0.17456
-0.17578
-0.17334
-0.17456
-0.1709
-0.177
-0.1709
-0.16479
-0.15991
-0.14893
-0.14038
-0.12451
-0.10498
-0.08423
-0.05249
-0.01953
0.02441
0.07324
0.11841
0.16357
0.20142
0.23682
0.26855
0.29297
0.31738
0.33325
0.34546
0.354
0.35767
0.35889
0.35767
0.35645
0.35278
0.34424
0.33691
0.32593
0.31494
0.30518
0.29053
0.28076
0.26855
0.25757
0.24658
0.23804
0.22339
0.20874
0.19775
0.18799
0.17212
0.16724
0.15747
0.14893
0.14282
0.13062
0.12573
0.11475
0.1062
0.10376
0.09033
0.08545
0.07813
0.07202
0.06104
0.05737
0.05615
0.04883
0.04517
0.04272
0.03906
0.03906
0.03662
0.04028
0.0354
0.03296
0.0354
0.03174
0.02686
0.03174
0.03052
0.03174
0.03174
0.03052
0.0293
0.02563
0.02686
0.02563
0.01831
0.01587
0.01221
0.01099
0.00488
0.00244
-0.00244
-0.00732
-0.00854
-0.01709
-0.02197
-0.02441
-0.03052
-0.03418
-0.04028
-0.04272
-0.04639
-0.05249
-0.05493
-0.06226
-0.0647
-0.06836
-0.07202
-0.07568
-0.07935
-0.08179
-0.08301
-0.08911
-0.08789
-0.09277
-0.09644
-0.09766
-0.10254
-0.10254
-0.10498
-0.10742
-0.10864
-0.11475
-0.1123
-0.11719
-0.11841
-0.12085
-0.12207
-0.12207
-0.12329
-0.12451
-0.12817
-0.12817
-0.12573
-0.12939
-0.13062
-0.13184
-0.13306
-0.13184
-0.13184
-0.13184
-0.13184
-0.13428
-0.13062
-0.13306
-0.13794
-0.13306
-0.13672
-0.13672
-0.14038
-0.14282
-0.13916
-0.14282
-0.13916
-0.1416
-0.14282
-0.1416
-0.14282
-0.1416
-0.1416
-0.14282
-0.14038
-0.1416
-0.13916
-0.14404
-0.1416
-0.13916
-0.14038
-0.13794
-0.13916
-0.13794
-0.13672
-0.13794
-0.13184
-0.13794
-0.13672
-0.1355
-0.13672
-0.13916
-0.1355
-0.13428
-0.13306
-0.13428
-0.13184
-0.13306
-0.13062
-0.12695
-0.11963
-0.11963
-0.11353
-0.10254
-0.09033
-0.08179
-0.05737
-0.0354
-0.00732
0.0293
0.06714
0.1123
0.15503
0.19653
0.22827
0.26001
0.28931
0.30884
0.32715
0.33936
0.34912
0.35767
0.35889
0.35889
0.35278
0.34912
0.34546
0.33447
0.32593
0.31494
0.30518
0.29541
0.28442
0.27588
0.26367
0.25146
0.24414
0.23071
0.21973
0.20752
0.19531
0.18677
0.177
0.16479
0.15869
0.14893
0.14282
0.13184
0.12207
0.11597
0.10742
0.10254
0.09399
0.08789
0.08423
0.0769
0.07446
0.0647
0.06348
0.06104
0.05859
0.05737
0.05371
0.05371
0.05493
0.05127
0.05493
0.05005
0.05127
0.05127
0.04883
0.05005
0.04883
0.04883
0.04761
0.04517
0.0415
0.0415
0.03906
0.03906
0.0354
0.03296
0.0293
0.02808
0.02441
0.02319
0.01587
0.00977
0.00488
0.00244
-0.00732
-0.00732
-0.01221
-0.01587
-0.02075
-0.02686
-0.02808
-0.0354
-0.03906
-0.04272
-0.04883
-0.05005
-0.05371
-0.05615
-0.05859
-0.06226
-0.06226
-0.06714
-0.06836
-0.0708
-0.07446
-0.07568
-0.07935
-0.07935
-0.08179
-0.08423
-0.08301
-0.08789
-0.08911
-0.08789
-0.09033
-0.08911
-0.09033
-0.09277
-0.09155
-0.09521
-0.09277
-0.09766
-0.09888
-0.09766
-0.09888
-0.09766
-0.1001
-0.10132
-0.10132
-0.10376
-0.10132
-0.10498
-0.10376
-0.10132
-0.10254
-0.10254
-0.10132
-0.1001
-0.09888
-0.1001
-0.09888
-0.10132
-0.10132
-0.1001
-0.10132
-0.10132
-0.10132
-0.1001
-0.1001
-0.10254
-0.1001
-0.10254
-0.10254
-0.10132
-0.10376
-0.10132
-0.10132
-0.1001
-0.09888
-0.10254
-0.09888
-0.10132
-0.10376
-0.10132
-0.10498
-0.10132
-0.10132
-0.09888
-0.09521
-0.09155
-0.08179
-0.07568
-0.06104
-0.0415
-0.01953
0.01465
0.05493
0.1062
0.15747
0.20874
0.26001
0.30151
0.33691
0.3772
0.40649
0.43457
0.4541
0.46875
0.48096
0.48828
0.49683
0.49805
0.49805
0.49683
0.49438
0.49194
0.48462
0.47729
0.46997
0.45776
0.45044
0.43701
0.4248
0.41504
0.40039
0.38818
0.37842
0.36011
0.3479
0.33447
0.32715
0.30762
0.29907
0.28931
0.27588
0.26611
0.25269
0.24292
0.23315
0.21973
0.21729
0.19897
0.19043
0.18311
0.17334
0.16235
0.15869
0.15625
0.15015
0.14526
0.14282
0.13672
0.13428
0.13062
0.12451
0.12207
0.11841
0.11719
0.11719
0.11108
0.11597
0.11108
0.10986
0.10986
0.1062
0.10498
0.10132
0.09888
0.09399
0.08911
0.08789
0.07935
0.07324
0.06592
0.06226
0.05859
0.05249
0.04761
0.03906
0.03052
0.02686
0.01709
0.00977
0.00488
-0.00366
-0.0061
-0.01221
-0.02075
-0.02197
-0.02686
-0.02441
-0.02563
-0.02441
-0.02197
-0.02441
-0.02319
-0.02808
-0.02686
-0.0293
-0.03418
-0.03418
-0.04272
-0.04395
-0.04639
-0.05615
-0.06592
-0.0769
-0.08423
-0.09033
-0.09888
-0.1001
-0.10742
-0.11108
-0.11353
-0.11719
-0.11963
-0.12085
-0.12085
-0.12207
-0.12207
-0.12451
-0.12817
-0.12939
-0.12939
-0.1355
-0.13428
-0.13672
-0.13794
-0.13916
-0.14404
-0.1416
-0.14526
-0.14526
-0.14038
-0.14771
-0.14526
-0.14648
-0.14648
-0.15015
-0.15015
-0.14893
-0.15259
-0.15259
-0.15381
-0.15503
-0.15503
-0.15503
-0.15137
-0.15625
-0.15747
-0.15625
-0.15869
-0.16113
-0.15869
-0.15991
-0.15991
-0.15991
-0.16113
-0.16113
-0.16357
-0.16113
-0.15869
-0.16235
-0.15747
-0.15381
-0.14404
-0.13916
-0.11963
-0.09888
-0.0708
-0.02441
0.02441
0.08789
0.15259
0.21362
0.26978
0.32349
0.37354
0.4187
0.45532
0.4895
0.51392
0.53467
0.54932
0.55908
0.56396
0.56885
0.57007
0.56885
0.56519
0.56274
0.55542
0.54932
0.54321
0.53467
0.52856
0.51758
0.51025
0.50049
0.49316
0.47852
0.46753
0.45898
0.45166
0.43945
0.43701
0.43091
0.42603
0.42114
0.4126
0.41138
0.40405
0.39917
0.39063
0.38452
0.37842
0.36865
0.36011
0.34912
0.33936
0.33325
0.31982
0.31128
0.30518
0.29785
0.29419
0.28809
0.28442
0.27954
0.27588
0.27466
0.26978
0.26611
0.26611
0.26123
0.26123
0.26123
0.25391
0.25024
0.24414
0.2417
0.22949
0.22827
0.22217
0.21362
0.20752
0.19653
0.18677
0.177
0.16357
0.15381
0.1416
0.12939
0.11841
0.10498
0.09155
0.08057
0.0708
0.05981
0.04761
0.03906
0.02563
0.01709
0.00732
-0.00732
-0.01221
-0.02197
-0.0293
-0.03662
-0.04883
-0.05249
-0.06226
-0.06836
-0.07568
-0.08179
-0.08545
-0.09277
-0.09644
-0.10376
-0.10986
-0.11108
-0.11719
-0.12207
-0.12695
-0.13306
-0.1355
-0.1416
-0.14404
-0.14893
-0.15259
-0.15381
-0.15869
-0.16113
-0.16357
-0.16724
-0.16846
-0.1709
-0.17334
-0.17578
-0.17944
-0.17944
-0.18311
-0.18799
-0.18921
-0.19165
-0.19165
-0.19897
-0.19775
-0.19897
-0.20264
-0.20142
-0.2063
-0.20874
-0.20874
-0.21118
-0.20874
-0.21606
-0.21606
-0.21729
-0.21973
-0.22095
-0.22339
-0.22339
-0.22461
-0.22705
-0.22705
-0.22949
-0.22949
-0.23193
-0.2356
-0.23315
-0.2356
-0.2356
-0.23438
-0.23804
-0.2356
-0.23804
-0.23804
-0.24048
-0.2417
-0.23804
-0.2417
-0.2417
-0.2417
-0.2417
-0.23804
-0.23804
-0.23315
-0.22827
-0.21973
-0.20386
-0.18677
-0.15625
-0.11841
-0.06592
-0.00244
0.06348
0.12329
0.18799
0.24292
0.29785
0.34424
0.38452
0.41992
0.44556
0.46631
0.48096
0.49316
0.50049
0.50293
0.50781
0.50415
0.49927
0.49561
0.48828
0.4834
0.47485
0.46875
0.46021
0.45044
0.44434
0.43091
0.42236
0.41504
0.40283
0.39673
0.38574
0.38208
0.3772
0.37109
0.36987
0.36255
0.35889
0.35522
0.34912
0.34546
0.33813
0.33203
0.32349
0.3125
0.30396
0.29175
0.28442
0.27588
0.271
0.26123
0.25391
0.2478
0.24414
0.23315
0.2356
0.22949
0.22949
0.22949
0.22339
0.22461
0.22217
0.22095
0.21606
0.21606
0.21606
0.20874
0.20752
0.2002
0.19653
0.19287
0.18555
0.17822
0.16968
0.16235
0.15503
0.14282
0.12939
0.12207
0.10986
0.09888
0.08545
0.07324
0.06104
0.04761
0.03784
0.02563
0.01221
0.00122
-0.00977
-0.01953
-0.03418
-0.04028
-0.04883
-0.05981
-0.0647
-0.07813
-0.08423
-0.09155
-0.1001
-0.10132
-0.1123
-0.11597
-0.12329
-0.12939
-0.13428
-0.14038
-0.14526
-0.15015
-0.15747
-0.16113
-0.16602
-0.16968
-0.17456
-0.18311
-0.18433
-0.19043
-0.19287
-0.19531
-0.20142
-0.20142
-0.20508
-0.2063
-0.21118
-0.21484
-0.21484
-0.21851
-0.21851
-0.22095
-0.22339
-0.22339
-0.22583
-0.22705
-0.22949
-0.23315
-0.23193
-0.23682
-0.23315
-0.23926
-0.2417
-0.24292
-0.24658
-0.24902
-0.24902
-0.25146
-0.25146
-0.25635
-0.25879
-0.26001
-0.26123
-0.26123
-0.25879
-0.26367
-0.26611
-0.26855
-0.26611
-0.27344
-0.26978
-0.26978
-0.271
-0.26855
-0.271
-0.26978
-0.26978
-0.271
-0.26611
-0.27222
-0.271
-0.271
-0.27344
-0.2771
-0.27466
-0.27344
-0.27344
-0.27344
-0.27344
-0.27588
-0.27466
-0.27344
-0.26855
-0.26978
-0.26733
-0.26001
-0.25146
-0.24536
-0.22217
-0.20142
-0.16968
-0.12207
-0.06958
-0.00488
0.05859
0.12085
0.17212
0.22705
0.2771
0.3186
0.35645
0.38208
0.40649
0.42603
0.43579
0.44678
0.44678
0.45044
0.45166
0.44556
0.44312
0.43579
0.42847
0.42358
0.41504
0.40649
0.39673
0.38696
0.38208
0.36743
0.36377
0.34546
0.33447
0.32715
0.3186
0.30518
0.30029
0.29419
0.28931
0.28076
0.27466
0.26611
0.25879
0.25146
0.2417
0.23315
0.22339
0.2124
0.2063
0.19165
0.18677
0.17822
0.1709
0.16724
0.15991
0.16235
0.16479
0.16602
0.16968
0.17334
0.177
0.17822
0.17822
0.17944
0.18066
0.18066
0.17944
0.177
0.177
0.1709
0.16724
0.16235
0.15381
0.15015
0.1416
0.1355
0.12573
0.11353
0.10742
0.09399
0.08423
0.07324
0.06104
0.05249
0.04028
0.03174
0.01831
0.0061
-0.00122
-0.01343
-0.02319
-0.03418
-0.04395
-0.05127
-0.06104
-0.06226
-0.0769
-0.08423
-0.08789
-0.09766
-0.1062
-0.10864
-0.11353
-0.11719
-0.12451
-0.12939
-0.1355
-0.13916
-0.1416
-0.14771
-0.15015
-0.15381
-0.15869
-0.15991
-0.16846
-0.16846
-0.17212
-0.177
-0.17822
-0.18433
-0.18433
-0.18677
-0.18921
-0.19409
-0.19409
-0.19531
-0.19775
-0.20142
-0.20142
-0.20508
-0.20508
-0.2063
-0.20874
-0.20874
-0.21118
-0.21118
-0.21362
-0.22095
-0.21729
-0.22217
-0.22217
-0.22461
-0.22827
-0.22827
-0.23071
-0.22949
-0.23438
-0.23682
-0.2356
-0.23926
-0.23926
-0.24292
-0.24414
-0.24292
-0.24536
-0.24536
-0.2478
-0.2478
-0.24536
-0.24902
-0.24902
-0.2478
-0.2478
-0.24536
-0.24658
-0.24658
-0.24658
-0.2478
-0.24414
-0.2478
-0.24536
-0.24536
-0.24658
-0.24414
-0.24658
-0.24536
-0.24658
-0.24658
-0.24414
-0.24902
-0.24658
-0.24536
-0.24292
-0.23804
-0.23804
-0.23071
-0.22583
-0.21729
-0.2063
-0.18921
-0.16357
-0.13428
-0.09521
-0.04517
0.00732
0.0647
0.11475
0.15747
0.20508
0.2417
0.27832
0.30884
0.32959
0.35767
0.37354
0.3894
0.39673
0.39917
0.40649
0.40283
0.40161
0.39551
0.38696
0.38208
0.36987
0.36255
0.35034
0.33691
0.32593
0.31128
0.30029
0.29175
0.271
0.26001
0.24536
0.23315
0.21606
0.20752
0.19653
0.18311
0.17334
0.15869
0.14648
0.1355
0.12207
0.11475
0.1001
0.08911
0.08057
0.06836
0.05981
0.05127
0.04639
0.04272
0.03662
0.03418
0.03052
0.02686
0.02686
0.01953
0.02319
0.02197
0.02075
0.02441
0.02075
0.02563
0.02563
0.02686
0.03052
0.02808
0.03052
0.0293
0.02686
0.02197
0.02075
0.01831
0.01221
0.0061
0
-0.00732
-0.01343
-0.02075
-0.02686
-0.03296
-0.0415
-0.04517
-0.05249
-0.0647
-0.06592
-0.07446
-0.07813
-0.08423
-0.09277
-0.09521
-0.10254
-0.10742
-0.11475
-0.12085
-0.12329
-0.13062
-0.13184
-0.1416
-0.14282
-0.14404
-0.14893
-0.15137
-0.15625
-0.15747
-0.15991
-0.16479
-0.16724
-0.16968
-0.1709
-0.17334
-0.177
-0.17822
-0.18188
-0.18433
-0.18311
-0.18799
-0.19287
-0.2002
-0.20874
-0.21362
-0.21729
-0.22461
-0.22827
-0.23315
-0.23315
-0.24292
-0.23926
-0.24048
-0.24292
-0.24048
-0.24414
-0.2417
-0.24292
-0.24536
-0.23804
-0.24658
-0.24536
-0.24658
-0.2478
-0.25146
-0.24902
-0.2478
-0.25024
-0.24902
-0.25024
-0.25146
-0.25146
-0.25146
-0.25391
-0.25024
-0.25024
-0.2478
-0.24902
-0.25146
-0.24536
-0.2478
-0.24414
-0.24536
-0.24414
-0.2417
-0.24292
-0.2417
-0.24536
-0.24292
-0.2417
-0.24414
-0.2417
-0.24292
-0.24048
-0.23438
-0.23193
-0.22461
-0.21729
-0.2063
-0.19043
-0.17456
-0.14893
-0.11597
-0.07324
-0.02075
0.03296
0.08789
0.1355
0.18066
0.22217
0.26123
0.28931
0.3186
0.34058
0.36255
0.37354
0.39063
0.39795
0.40527
0.41016
0.40527
0.40649
0.40283
0.39551
0.38818
0.37476
0.37109
0.35889
0.34668
0.33691
0.32104
0.31006
0.29419
0.27954
0.26855
0.25146
0.2417
0.22705
0.21484
0.2002
0.18799
0.177
0.16479
0.15137
0.14038
0.12695
0.11841
0.1062
0.10132
0.08667
0.07568
0.06958
0.06104
0.05005
0.05005
0.04395
0.0415
0.03662
0.03174
0.03174
0.02808
0.0293
0.02319
0.02441
0.02563
0.02441
0.02563
0.02197
0.02075
0.02319
0.01953
0.01831
0.01465
0.01221
0.01099
0.0061
0.00122
-0.00366
-0.00732
-0.01099
-0.01831
-0.02686
-0.03296
-0.0415
-0.04639
-0.05493
-0.06104
-0.06836
-0.07568
-0.07813
-0.09033
-0.09155
-0.09766
-0.10376
-0.1062
-0.11475
-0.11719
-0.12451
-0.12817
-0.13428
-0.13916
-0.14038
-0.14526
-0.14771
-0.15137
-0.15503
-0.15625
-0.16235
-0.16724
-0.16724
-0.1709
-0.1709
-0.17334
-0.17822
-0.177
-0.17944
-0.17944
-0.18311
-0.18799
-0.18555
-0.18921
-0.18799
-0.19043
-0.19043
-0.18799
-0.18921
-0.18799
-0.19287
-0.19287
-0.19287
-0.19409
-0.19531
-0.19775
-0.19775
-0.19653
-0.19897
-0.20142
-0.2002
-0.20142
-0.2002
-0.20264
-0.20264
-0.20386
-0.20386
-0.20264
-0.2063
-0.20264
-0.20142
-0.20264
-0.2002
-0.20386
-0.20142
-0.20264
-0.20264
-0.20142
-0.20386
-0.2002
-0.20142
-0.20142
-0.20264
-0.2002
-0.19775
-0.19897
-0.19775
-0.19775
-0.19775
-0.19409
-0.19775
-0.20142
-0.19653
-0.19775
-0.19409
-0.19287
-0.19043
-0.18311
-0.177
-0.16479
-0.14648
-0.13184
-0.10132
-0.06348
-0.01221
0.04272
0.10498
0.16724
0.21973
0.27222
0.31494
0.35645
0.39551
0.42603
0.45532
0.47363
0.49072
0.50415
0.51025
0.51514
0.51392
0.51025
0.50903
0.50171
0.49316
0.48828
0.47974
0.47119
0.45898
0.44922
0.43701
0.42603
0.41504
0.39917
0.39063
0.37842
0.36743
0.36011
0.3479
0.34302
0.33325
0.32471
0.31982
0.30884
0.30273
0.29297
0.28442
0.27954
0.26001
0.25146
0.23926
0.22827
0.21729
0.2063
0.19897
0.18921
0.18188
0.17578
0.16968
0.16724
0.15869
0.15381
0.15137
0.14771
0.14648
0.14404
0.1416
0.14404
0.14038
0.1416
0.13916
0.13428
0.1355
0.12939
0.12939
0.11963
0.11719
0.11353
0.10498
0.1001
0.08789
0.08057
0.07324
0.06226
0.05127
0.04395
0.03296
0.02441
0.01343
0.00488
-0.0061
-0.01343
-0.02075
-0.03174
-0.03784
-0.04517
-0.05249
-0.05859
-0.0708
-0.0708
-0.07813
-0.08423
-0.08667
-0.09521
-0.09888
-0.10376
-0.10986
-0.11108
-0.11963
-0.12207
-0.12939
-0.13428
-0.13916
-0.1416
-0.14282
-0.14648
-0.14893
-0.15015
-0.15503
-0.15381
-0.15991
-0.16479
-0.16357
-0.16846
-0.16846
-0.1709
-0.17456
-0.17456
-0.17822
-0.17944
-0.17822
-0.18555
-0.18433
-0.18799
-0.18799
-0.19531
-0.19287
-0.19409
-0.19653
-0.19653
-0.20264
-0.20264
-0.20264
-0.20508
-0.20996
-0.20874
-0.20874
-0.20874
-0.21118
-0.21118
-0.21362
-0.21362
-0.2124
-0.2124
-0.21484
-0.21729
-0.21729
-0.21606
-0.22217
-0.21729
-0.21973
-0.22095
-0.21851
-0.22339
-0.22095
-0.22217
-0.22217
-0.22339
-0.22339
-0.21973
-0.22217
-0.22217
-0.22217
-0.22339
-0.22217
-0.22217
-0.22095
-0.22095
-0.22217
-0.21851
-0.21973
-0.22217
-0.21484
-0.21118
-0.20142
-0.19043
-0.17578
-0.15137
-0.11841
-0.07202
-0.02075
0.04639
0.11353
0.17334
0.23193
0.28198
0.33081
0.3772
0.4126
0.44678
0.46875
0.48828
0.50415
0.5127
0.5249
0.52368
0.52612
0.52612
0.52124
0.5188
0.51025
0.50415
0.49683
0.48584
0.47852
0.46753
0.45776
0.45044
0.43823
0.42847
0.41748
0.40894
0.40283
0.39551
0.3894
0.38452
0.37842
0.3772
0.36865
0.36865
0.36255
0.35645
0.35278
0.34302
0.33691
0.32715
0.3186
0.31738
0.30029
0.29419
0.28442
0.27588
0.26733
0.26123
0.25757
0.25146
0.24658
0.24414
0.23804
0.23682
0.23071
0.22705
0.22461
0.21973
0.21729
0.21362
0.20874
0.20752
0.20142
0.19897
0.19531
0.18433
0.18066
0.16968
0.16357
0.14771
0.14282
0.13306
0.12207
0.11353
0.09888
0.08667
0.07813
0.06348
0.05005
0.04028
0.0293
0.02075
0.00854
0
-0.01221
-0.01953
-0.02808
-0.03784
-0.04639
-0.05493
-0.06226
-0.06714
-0.08057
-0.08057
-0.08789
-0.09399
-0.09888
-0.10864
-0.1123
-0.11963
-0.12451
-0.13062
-0.1355
-0.13672
-0.14404
-0.14771
-0.15259
-0.15747
-0.15991
-0.16479
-0.16846
-0.1709
-0.17456
-0.17456
-0.18066
-0.18311
-0.18555
-0.19043
-0.19043
-0.19409
-0.19775
-0.19775
-0.20264
-0.20264
-0.20264
-0.20996
-0.20996
-0.21362
-0.21362
-0.22095
-0.21851
-0.21851
-0.22339
-0.22217
-0.22827
-0.22949
-0.22949
-0.23438
-0.23682
-0.2356
-0.23682
-0.23438
-0.23804
-0.23804
-0.2417
-0.24292
-0.2417
-0.2417
-0.24414
-0.24536
-0.24536
-0.24536
-0.25146
-0.24658
-0.25024
-0.24902
-0.2478
-0.25146
-0.24902
-0.24902
-0.2478
-0.24292
-0.24902
-0.24658
-0.24902
-0.24902
-0.24902
-0.24902
-0.24658
-0.24658
-0.24658
-0.24536
-0.24536
-0.2417
-0.24414
-0.24536
-0.24048
-0.23804
-0.23071
-0.22339
-0.2124
-0.19409
-0.17334
-0.13794
-0.09399
-0.0415
0.02319
0.08423
0.14648
0.19897
0.25269
0.30029
0.34302
0.38208
0.40649
0.43213
0.45166
0.46265
0.47363
0.47729
0.48096
0.48096
0.47729
0.47729
0.46753
0.46265
0.45776
0.44678
0.44312
0.42847
0.4187
0.41016
0.39795
0.38818
0.37354
0.36133
0.35278
0.3418
0.33325
0.32349
0.31616
0.30762
0.30396
0.29297
0.2832
0.27588
0.26855
0.25391
0.2478
0.23682
0.22705
0.21851
0.20508
0.19897
0.18677
0.17822
0.16846
0.16235
0.15869
0.15015
0.14771
0.14404
0.1416
0.1416
0.1355
0.13306
0.13184
0.12939
0.12817
0.12451
0.11963
0.11963
0.11475
0.11353
0.10742
0.10132
0.09766
0.09033
0.08301
0.07568
0.06836
0.06104
0.05249
0.04761
0.0354
0.0293
0.02197
0.01099
0.00366
-0.00732
-0.01465
-0.02319
-0.03418
-0.04028
-0.04883
-0.05737
-0.06348
-0.07202
-0.07935
-0.08667
-0.09155
-0.09644
-0.1001
-0.10742
-0.11597
-0.12085
-0.12451
-0.13428
-0.13428
-0.13916
-0.1416
-0.14404
-0.15015
-0.15015
-0.15503
-0.15869
-0.16357
-0.16602
-0.16724
-0.16968
-0.17212
-0.177
-0.18066
-0.17944
-0.18555
-0.19043
-0.19165
-0.19653
-0.19653
-0.19897
-0.20264
-0.20142
-0.20386
-0.20264
-0.20752
-0.20996
-0.20874
-0.21118
-0.20996
-0.21118
-0.21484
-0.21362
-0.21729
-0.21484
-0.22095
-0.22095
-0.22095
-0.22339
-0.22583
-0.22705
-0.22827
-0.22827
-0.23071
-0.23071
-0.23438
-0.23438
-0.23315
-0.23682
-0.23682
-0.23804
-0.2356
-0.23438
-0.23193
-0.23315
-0.2356
-0.23438
-0.23438
-0.23804
-0.23315
-0.23438
-0.23315
-0.23193
-0.23315
-0.22949
-0.23193
-0.22949
-0.22949
-0.22949
-0.22583
-0.22705
-0.22461
-0.22583
-0.22705
-0.22339
-0.22583
-0.21973
-0.22461
-0.22461
-0.22217
-0.22217
-0.22217
-0.21484
-0.20996
-0.19897
-0.18921
-0.17334
-0.15137
-0.12451
-0.08545
-0.0415
0.01343
0.0708
0.12329
0.17334
0.2124
0.25391
0.29053
0.31982
0.34912
0.36865
0.38818
0.40161
0.41138
0.4248
0.41992
0.42236
0.42236
0.41504
0.40649
0.40039
0.39307
0.3833
0.36987
0.35889
0.34302
0.33081
0.3186
0.30273
0.28809
0.27344
0.26123
0.24902
0.23438
0.22705
0.2124
0.20264
0.19165
0.177
0.16846
0.15625
0.14526
0.1355
0.12207
0.11353
0.1001
0.09155
0.09033
0.07446
0.06958
0.06104
0.05737
0.05005
0.04883
0.04761
0.0415
0.0415
0.03784
0.0354
0.03662
0.03418
0.03296
0.03174
0.0293
0.03174
0.02563
0.02197
0.02319
0.01953
0.01953
0.01709
0.01343
0.01099
0.0061
0.00244
-0.0061
-0.00854
-0.01221
-0.01831
-0.02319
-0.03174
-0.03296
-0.03784
-0.04517
-0.04639
-0.05127
-0.05371
-0.05737
-0.06226
-0.06592
-0.0708
-0.07446
-0.08057
-0.08667
-0.09033
-0.09766
-0.10132
-0.10498
-0.10498
-0.1123
-0.11597
-0.11841
-0.12329
-0.13306
-0.12817
-0.13306
-0.13428
-0.13672
-0.1416
-0.1416
-0.14404
-0.14404
-0.14404
-0.15137
-0.15015
-0.15503
-0.15503
-0.15991
-0.15991
-0.15869
-0.16235
-0.16113
-0.16479
-0.16724
-0.16479
-0.16968
-0.17212
-0.1709
-0.17212
-0.17212
-0.17334
-0.17456
-0.17334
-0.17578
-0.17456
-0.18066
-0.17944
-0.17822
-0.17944
-0.177
-0.17944
-0.17822
-0.177
-0.17822
-0.17456
-0.17944
-0.17822
-0.17578
-0.177
-0.17212
-0.177
-0.17456
-0.17334
-0.17456
-0.17334
-0.17456
-0.17578
-0.17334
-0.17578
-0.17334
-0.17334
-0.1709
-0.1709
-0.17212
-0.1709
-0.17334
-0.1709
-0.17212
-0.17456
-0.17334
-0.17456
-0.17334
-0.16846
-0.17456
-0.1709
-0.17212
-0.16724
-0.16602
-0.15869
-0.14893
-0.13916
-0.12451
-0.10986
-0.09033
-0.06348
-0.0354
0
0.04517
0.08911
0.13306
0.1709
0.20386
0.23315
0.25635
0.28198
0.29419
0.30884
0.31982
0.32349
0.32837
0.33447
0.32715
0.32227
0.31494
0.30884
0.29419
0.28809
0.27832
0.26855
0.26001
0.24414
0.23682
0.22705
0.21484
0.2063
0.18799
0.17822
0.16724
0.15625
0.15259
0.13306
0.12573
0.11475
0.10498
0.09399
0.08423
0.0769
0.06836
0.05859
0.05249
0.04639
0.04028
0.03296
0.02197
0.02319
0.01709
0.01465
0.01221
0.0061
0.0061
0.00366
0.00244
0.00244
0
0.00244
-0.00244
0
-0.00366
-0.00366
0
-0.00244
0
-0.00244
-0.00488
-0.00366
-0.00854
-0.01099
-0.01465
-0.01831
-0.02197
-0.02686
-0.03052
-0.03296
-0.03784
-0.03906
-0.04761
-0.05005
-0.05249
-0.05981
-0.06104
-0.0708
-0.0708
-0.07446
-0.08179
-0.08179
-0.08911
-0.09155
-0.09399
-0.09888
-0.10498
-0.1062
-0.10742
-0.11108
-0.11475
-0.11719
-0.12085
-0.12329
-0.12451
-0.12939
-0.12817
-0.13062
-0.13184
-0.13184
-0.13428
-0.13306
-0.13916
-0.13672
-0.13794
-0.1416
-0.14038
-0.14404
-0.14282
-0.13916
-0.14648
-0.14404
-0.14893
-0.14771
-0.15137
-0.14893
-0.14648
-0.14771
-0.14648
-0.14893
-0.14893
-0.14648
-0.15015
-0.15259
-0.15015
-0.15015
-0.14648
-0.14893
-0.14771
-0.14771
-0.14893
-0.14648
-0.15015
-0.14771
-0.14771
-0.14771
-0.14404
-0.14526
-0.14404
-0.14282
-0.14282
-0.13916
-0.14404
-0.14038
-0.13916
-0.13916
-0.13062
-0.13672
-0.13428
-0.13428
-0.1355
-0.13672
-0.13672
-0.1355
-0.1355
-0.1355
-0.1355
-0.13672
-0.13428
-0.13184
-0.12451
-0.12207
-0.11597
-0.10498
-0.09155
-0.07813
-0.04883
-0.01709
0.02686
0.07813
0.12939
0.18799
0.23438
0.27954
0.32227
0.35645
0.39063
0.41626
0.43823
0.45166
0.46875
0.48096
0.48584
0.49072
0.49072
0.4895
0.4895
0.48218
0.47852
0.46997
0.46021
0.45288
0.44067
0.43091
0.4187
0.40527
0.39551
0.38086
0.36499
0.354
0.33936
0.32959
0.31494
0.30029
0.28931
0.27832
0.26855
0.25513
0.24414
0.23315
0.22095
0.21118
0.19653
0.18677
0.177
0.16724
0.15991
0.14893
0.14282
0.1355
0.12939
0.13184
0.11841
0.11475
0.10986
0.10742
0.10254
0.1001
0.10132
0.09644
0.09399
0.09399
0.09033
0.09033
0.08789
0.08423
0.08423
0.08057
0.07813
0.07446
0.06714
0.06714
0.05981
0.05493
0.05371
0.0415
0.03662
0.0293
0.02319
0.01099
0.00732
0.00244
-0.0061
-0.01099
-0.01831
-0.02441
-0.02808
-0.03662
-0.0415
-0.04639
-0.05249
-0.05493
-0.06348
-0.06836
-0.07202
-0.07568
-0.0769
-0.07935
-0.08667
-0.08911
-0.09277
-0.09399
-0.10498
-0.10254
-0.10498
-0.10986
-0.10986
-0.11597
-0.11597
-0.11963
-0.12207
-0.12695
-0.12817
-0.12817
-0.13062
-0.13428
-0.1355
-0.13794
-0.13794
-0.1416
-0.14526
-0.14404
-0.14893
-0.15015
-0.15015
-0.15381
-0.15259
-0.15503
-0.15259
-0.15381
-0.15869
-0.15503
-0.15991
-0.15747
-0.15381
-0.15991
-0.15869
-0.16235
-0.16113
-0.16602
-0.16479
-0.16357
-0.16602
-0.16479
-0.16724
-0.16602
-0.16602
-0.16846
-0.16724
-0.16968
-0.16968
-0.16846
-0.1709
-0.16968
-0.16968
-0.1709
-0.16846
-0.1709
-0.16724
-0.16724
-0.16846
-0.16479
-0.1709
-0.16724
-0.16846
-0.16968
-0.16235
-0.16968
-0.16602
-0.16724
-0.16724
-0.16479
-0.16113
-0.15259
-0.14282
-0.13062
-0.10864
-0.08057
-0.04028
0.01099
0.06592
0.1355
0.19653
0.25635
0.3064
0.35522
0.40161
0.44067
0.47607
0.50903
0.5249
0.54565
0.55542
0.56641
0.56763
0.56885
0.57129
0.56763
0.56396
0.55298
0.5481
0.54321
0.53223
0.5249
0.51392
0.50293
0.49561
0.48218
0.47363
0.46143
0.45044
0.44312
0.43213
0.4248
0.41626
0.41016
0.40527
0.39795
0.39185
0.38452
0.3772
0.37354
0.36133
0.35522
0.34424
0.33325
0.32471
0.30884
0.30151
0.29053
0.27954
0.271
0.26123
0.25635
0.25024
0.24292
0.23682
0.23315
0.23071
0.22583
0.22217
0.21973
0.21362
0.21118
0.20752
0.20142
0.20142
0.19531
0.19287
0.18677
0.17944
0.177
0.16846
0.16113
0.15015
0.14038
0.13306
0.12207
0.11475
0.10132
0.09033
0.08179
0.06836
0.06104
0.04883
0.03784
0.02808
0.01587
0.01221
-0.00366
-0.01343
-0.01953
-0.0293
-0.04028
-0.04395
-0.05127
-0.05615
-0.06348
-0.06958
-0.0769
-0.08423
-0.08789
-0.1001
-0.10132
-0.10742
-0.11475
-0.11841
-0.12817
-0.12939
-0.1355
-0.14038
-0.13916
-0.14893
-0.15015
-0.15381
-0.15747
-0.16357
-0.16479
-0.16602
-0.16968
-0.17212
-0.17456
-0.18066
-0.18066
-0.18311
-0.19043
-0.18799
-0.19165
-0.19165
-0.19531
-0.2002
-0.19775
-0.20142
-0.2002
-0.20386
-0.20752
-0.20752
-0.20996
-0.20996
-0.21484
-0.21362
-0.21118
-0.2124
-0.21118
-0.21484
-0.21484
-0.21362
-0.21484
-0.21851
-0.21729
-0.21851
-0.21606
-0.21973
-0.21973
-0.21973
-0.22095
-0.21973
-0.21606
-0.22095
-0.22095
-0.22095
-0.21851
-0.22583
-0.21851
-0.21973
-0.21973
-0.21729
-0.21973
-0.21729
-0.21729
-0.21729
-0.21729
-0.21729
-0.21606
-0.21606
-0.21606
-0.21484
-0.21484
-0.20874
-0.20508
-0.19531
-0.19409
-0.18799
-0.17456
-0.15991
-0.14038
-0.10376
-0.06226
-0.0061
0.05493
0.11841
0.18066
0.23438
0.28564
0.32959
0.37231
0.4126
0.44434
0.47241
0.48828
0.50415
0.51636
0.5188
0.52368
0.52002
0.5188
0.51758
0.51025
0.50659
0.49438
0.48584
0.47852
0.46509
0.45532
0.44189
0.43091
0.42114
0.40649
0.39429
0.3833
0.37231
0.36499
0.35278
0.34546
0.33813
0.32959
0.32471
0.31494
0.31006
0.29907
0.29053
0.2832
0.26855
0.26001
0.2478
0.23682
0.22949
0.21606
0.2063
0.19775
0.18799
0.18799
0.17456
0.1709
0.16479
0.15991
0.15503
0.15259
0.15137
0.14648
0.14282
0.13916
0.13306
0.13184
0.12695
0.11963
0.11963
0.1123
0.10986
0.10254
0.09277
0.08911
0.07813
0.0708
0.06104
0.05127
0.04517
0.03418
0.02686
0.01465
0.0061
0
-0.01343
-0.01953
-0.0293
-0.03784
-0.04272
-0.05127
-0.05127
-0.06592
-0.07324
-0.0769
-0.08545
-0.09399
-0.09766
-0.10376
-0.10742
-0.11597
-0.12085
-0.12817
-0.13306
-0.13672
-0.14771
-0.14648
-0.15137
-0.15747
-0.15869
-0.16602
-0.16602
-0.16968
-0.17334
-0.17456
-0.18066
-0.18066
-0.18433
-0.18799
-0.18921
-0.19287
-0.19165
-0.19409
-0.19653
-0.19775
-0.20264
-0.20386
-0.2063
-0.20874
-0.20874
-0.21118
-0.21118
-0.2124
-0.21729
-0.21484
-0.21851
-0.21851
-0.21973
-0.22217
-0.22095
-0.22339
-0.22339
-0.22949
-0.22827
-0.22827
-0.23193
-0.22949
-0.23315
-0.23315
-0.23193
-0.23315
-0.23438
-0.23438
-0.23438
-0.23193
-0.23315
-0.23315
-0.23193
-0.23193
-0.22949
-0.22461
-0.22949
-0.23071
-0.23071
-0.22827
-0.23315
-0.22949
-0.22827
-0.22949
-0.22827
-0.22827
-0.22583
-0.22705
-0.22705
-0.22583
-0.22705
-0.22217
-0.22339
-0.22095
-0.22095
-0.22095
-0.21729
-0.21851
-0.22217
-0.21729
-0.21851
-0.21606
-0.21362
-0.2124
-0.20264
-0.19531
-0.18066
-0.15991
-0.14404
-0.1123
-0.0769
-0.02686
0.02686
0.08545
0.14404
0.19287
0.24536
0.28198
0.3186
0.35522
0.37964
0.40039
0.42236
0.43701
0.44922
0.45532
0.45532
0.45776
0.45532
0.45166
0.44189
0.43335
0.42236
0.41138
0.40283
0.39063
0.3772
0.36255
0.3479
0.33447
0.31982
0.30273
0.28687
0.27222
0.26123
0.24536
0.23682
0.22339
0.21118
0.20142
0.18921
0.18066
0.16846
0.15625
0.14526
0.13306
0.12573
0.11475
0.1062
0.09766
0.08789
0.08423
0.0769
0.0708
0.06714
0.06348
0.06104
0.05615
0.05127
0.05249
0.04761
0.04883
0.04517
0.04517
0.04761
0.04639
0.04883
0.04639
0.04395
0.04517
0.03906
0.03906
0.03174
0.02808
0.02441
0.01831
0.01831
0.00366
-0.00122
-0.00488
-0.01343
-0.02075
-0.02563
-0.03174
-0.03662
-0.04395
-0.04883
-0.05493
-0.06226
-0.06592
-0.07324
-0.07568
-0.08301
-0.08911
-0.09277
-0.10132
-0.10376
-0.10986
-0.11475
-0.11475
-0.12451
-0.12573
-0.13062
-0.13428
-0.13672
-0.14038
-0.1416
-0.14648
-0.15015
-0.15015
-0.15381
-0.15259
-0.15625
-0.15991
-0.16113
-0.16357
-0.16357
-0.16724
-0.16968
-0.16968
-0.17334
-0.1709
-0.1709
-0.17578
-0.17578
-0.17822
-0.177
-0.18066
-0.17944
-0.17822
-0.18066
-0.18188
-0.18188
-0.18188
-0.18066
-0.18188
-0.18311
-0.18433
-0.18555
-0.18433
-0.18799
-0.18799
-0.18799
-0.18921
-0.18799
-0.18921
-0.18799
-0.18921
-0.19165
-0.18799
-0.19287
-0.18921
-0.18921
-0.18921
-0.18555
-0.18921
-0.18677
-0.18677
-0.18677
-0.18921
-0.18799
-0.18555
-0.18677
-0.18677
-0.18677
-0.18677
-0.18433
-0.18677
-0.18799
-0.18677
-0.18799
-0.18677
-0.18555
-0.18555
-0.18311
-0.18555
-0.18311
-0.18433
-0.18066
-0.17456
-0.17334
-0.16357
-0.15869
-0.14404
-0.12695
-0.10742
-0.07813
-0.04883
-0.00977
0.03906
0.08545
0.13062
0.17456
0.21118
0.24536
0.27222
0.29541
0.31372
0.32837
0.34058
0.35034
0.35278
0.35156
0.3479
0.34546
0.33325
0.32837
0.3186
0.3064
0.29785
0.2832
0.271
0.25879
0.24536
0.2356
0.21729
0.20874
0.19287
0.17944
0.16968
0.15381
0.14526
0.13184
0.11963
0.10864
0.09521
0.08789
0.0769
0.06714
0.05981
0.04883
0.04395
0.0354
0.03418
0.02441
0.01831
0.01587
0.00977
0.00244
0.00488
0
0.00122
-0.00122
-0.00488
-0.00366
-0.00366
0
0
-0.00122
0.00122
-0.00244
0
-0.00488
-0.00488
-0.00488
-0.00732
-0.00977
-0.01343
-0.01587
-0.01709
-0.02197
-0.02441
-0.0293
-0.03174
-0.0354
-0.04028
-0.04272
-0.04883
-0.05249
-0.05493
-0.05615
-0.0647
-0.0708
-0.07568
-0.08057
-0.08911
-0.08911
-0.09277
-0.09766
-0.1001
-0.1062
-0.1062
-0.11108
-0.11475
-0.11719
-0.12207
-0.12451
-0.12939
-0.13184
-0.13306
-0.13794
-0.1355
-0.13794
-0.13428
-0.13916
-0.1416
-0.1416
-0.14404
-0.14893
-0.14526
-0.14771
-0.14648
-0.14893
-0.15015
-0.14648
-0.14893
-0.14771
-0.15015
-0.14893
-0.14771
-0.14893
-0.14893
-0.15137
-0.15015
-0.15015
-0.15259
-0.14526
-0.15259
-0.15137
-0.14893
-0.15137
-0.15503
-0.15137
-0.15259
-0.15137
-0.15137
-0.15137
-0.15137
-0.15137
-0.14893
-0.15381
-0.14771
-0.14771
-0.14893
-0.14771
-0.15015
-0.14648
-0.14648
-0.14648
-0.14404
-0.14526
-0.1416
-0.1416
-0.14038
-0.14038
-0.14038
-0.13794
-0.13916
-0.13916
-0.13794
-0.14038
-0.13916
-0.14038
-0.13428
-0.13672
-0.13672
-0.13184
-0.12817
-0.12573
-0.10986
-0.1001
-0.08179
-0.06104
-0.0354
0.00244
0.04517
0.09644
0.14404
0.19775
0.24658
0.2832
0.32227
0.35034
0.37842
0.40161
0.41748
0.43335
0.43945
0.44312
0.44678
0.44434
0.44067
0.43335
0.42847
0.42114
0.41016
0.40405
0.38696
0.37354
0.36377
0.3479
0.33447
0.31982
0.30518
0.29175
0.27588
0.26489
0.25024
0.23926
0.22827
0.21729
0.20386
0.19165
0.17944
0.16968
0.15381
0.14893
0.13794
0.12817
0.12329
0.10986
0.10498
0.09766
0.08911
0.08057
0.07568
0.07324
0.06836
0.06226
0.05859
0.05249
0.05127
0.04761
0.04517
0.04761
0.04639
0.04883
0.04639
0.04395
0.04517
0.0415
0.04272
0.04028
0.0354
0.0354
0.03174
0.03052
0.0293
0.02075
0.01831
0.01221
0.00977
-0.00122
-0.00244
-0.00488
-0.01099
-0.01343
-0.02319
-0.02808
-0.03174
-0.03784
-0.0415
-0.04761
-0.05249
-0.05493
-0.06104
-0.0647
-0.06958
-0.07324
-0.07446
-0.08179
-0.08301
-0.08667
-0.09033
-0.09155
-0.09888
-0.09766
-0.10254
-0.10498
-0.1062
-0.11353
-0.1123
-0.11475
-0.11719
-0.11475
-0.12207
-0.12207
-0.12451
-0.12573
-0.12817
-0.12939
-0.12695
-0.12939
-0.12939
-0.12939
-0.13062
-0.12817
-0.13184
-0.13306
-0.13062
-0.13184
-0.13062
-0.13062
-0.13306
-0.13062
-0.13428
-0.13184
-0.13184
-0.1355
-0.13428
-0.13672
-0.13428
-0.13916
-0.1355
-0.13306
-0.1355
-0.13306
-0.13672
-0.1355
-0.13184
-0.13428
-0.13184
-0.13672
-0.13794
-0.13794
-0.14038
-0.1416
-0.14038
-0.14038
-0.13672
-0.13916
-0.13672
-0.13794
-0.13794
-0.13672
-0.14038
-0.13794
-0.13916
-0.14038
-0.13794
-0.14282
-0.13916
-0.14038
-0.13916
-0.13428
-0.13428
-0.12573
-0.11963
-0.11108
-0.09644
-0.07568
-0.04272
-0.00488
0.04639
0.10498
0.16357
0.22339
0.27466
0.3186
0.36499
0.40161
0.43701
0.46509
0.48462
0.50903
0.52124
0.53467
0.53955
0.54077
0.54565
0.54199
0.53833
0.53101
0.52002
0.5127
0.50049
0.49194
0.47974
0.46509
0.45532
0.43945
0.42725
0.41504
0.39673
0.38452
0.36865
0.35767
0.3418
0.33081
0.32104
0.3064
0.29663
0.28564
0.27466
0.26489
0.25269
0.24048
0.22949
0.21973
0.20996
0.19653
0.18677
0.177
0.16846
0.16235
0.15381
0.14526
0.13794
0.13306
0.13062
0.12207
0.12207
0.11963
0.11597
0.11719
0.11475
0.11597
0.11597
0.11597
0.11841
0.11597
0.11719
0.11475
0.11108
0.10742
0.1001
0.09766
0.09033
0.08789
0.07568
0.06592
0.05737
0.05005
0.03662
0.03296
0.02441
0.01709
0.00854
0
-0.0061
-0.01709
-0.02197
-0.03174
-0.03662
-0.0415
-0.04761
-0.05249
-0.05981
-0.06714
-0.06958
-0.07813
-0.0769
-0.08911
-0.09521
-0.09644
-0.10376
-0.11108
-0.1123
-0.11597
-0.11719
-0.12329
-0.12573
-0.12939
-0.13306
-0.13428
-0.1416
-0.13916
-0.14282
-0.14648
-0.14771
-0.15503
-0.15625
-0.16113
-0.16357
-0.16602
-0.16846
-0.16846
-0.1709
-0.17212
-0.17212
-0.17578
-0.17456
-0.17578
-0.177
-0.17822
-0.18066
-0.17944
-0.18188
-0.18188
-0.18188
-0.18555
-0.18555
-0.18921
-0.19287
-0.19165
-0.19287
-0.19165
-0.19409
-0.19531
-0.19287
-0.19531
-0.19409
-0.19897
-0.19775
-0.19409
-0.19287
-0.18921
-0.19287
-0.19165
-0.18799
-0.19043
-0.19287
-0.19043
-0.19043
-0.18799
-0.18921
-0.19043
-0.18921
-0.18921
-0.18799
-0.18311
-0.18555
-0.18555
-0.18677
-0.18433
-0.18921
-0.18433
-0.18433
-0.18555
-0.18188
-0.18066
-0.17456
-0.16846
-0.15991
-0.14648
-0.13062
-0.10376
-0.06958
-0.02319
0.0354
0.09766
0.16357
0.22217
0.271
0.32471
0.36865
0.41138
0.44556
0.47119
0.50171
0.5188
0.53345
0.54321
0.54443
0.55176
0.54932
0.54932
0.54321
0.53467
0.52979
0.51758
0.50781
0.49683
0.48462
0.47485
0.46143
0.45166
0.43701
0.42236
0.41138
0.39673
0.38696
0.37598
0.36865
0.36255
0.35278
0.3479
0.33936
0.33325
0.32837
0.31738
0.30518
0.29785
0.28564
0.2771
0.26611
0.25513
0.24292
0.23193
0.22339
0.20752
0.20386
0.19653
0.18799
0.18433
0.17456
0.17212
0.16602
0.16113
0.15869
0.15015
0.14893
0.14526
0.14038
0.1355
0.13306
0.13184
0.12695
0.12329
0.11841
0.10986
0.10376
0.09521
0.08667
0.08179
0.07324
0.06592
0.05615
0.04517
0.03906
0.02686
0.01953
0.01343
0
-0.00732
-0.01709
-0.02441
-0.0354
-0.04272
-0.04761
-0.05737
-0.0647
-0.07202
-0.07813
-0.08301
-0.09033
-0.09888
-0.1001
-0.1062
-0.10986
-0.11963
-0.12451
-0.12939
-0.13428
-0.13794
-0.14404
-0.14648
-0.15259
-0.15747
-0.15869
-0.16602
-0.16724
-0.16968
-0.17334
-0.17212
-0.18066
-0.18188
-0.18555
-0.18921
-0.19043
-0.19409
-0.19531
-0.19775
-0.19897
-0.20264
-0.20508
-0.20508
-0.20752
-0.21484
-0.20996
-0.21362
-0.21362
-0.21606
-0.21729
-0.21484
-0.21729
-0.21729
-0.22095
-0.22095
-0.21851
-0.22095
-0.21851
-0.22217
-0.22217
-0.22095
-0.22217
-0.22217
-0.22217
-0.22217
-0.22095
-0.22217
-0.22461
-0.22461
-0.22583
-0.22339
-0.22705
-0.22461
-0.22339
-0.22339
-0.22095
-0.22339
-0.22217
-0.22095
-0.22217
-0.21606
-0.22217
-0.22095
-0.22095
-0.22095
-0.22217
-0.22095
-0.21973
-0.21973
-0.22217
-0.21973
-0.21851
-0.21729
-0.21606
-0.21851
-0.21484
-0.21729
-0.21484
-0.2124
-0.21362
-0.20996
-0.20874
-0.20142
-0.19897
-0.18799
-0.1709
-0.15625
-0.12939
-0.09644
-0.05005
0.0061
0.0647
0.12817
0.18066
0.22949
0.27832
0.31738
0.35156
0.38574
0.4126
0.43701
0.4541
0.46631
0.47607
0.47974
0.48462
0.47852
0.47607
0.47119
0.46265
0.45532
0.44678
0.43091
0.41748
0.40283
0.39185
0.37231
0.35767
0.34302
0.32471
0.31006
0.29175
0.27954
0.26611
0.25146
0.24658
0.22705
0.21729
0.20752
0.19531
0.18311
0.17334
0.16479
0.15259
0.1416
0.13306
0.12085
0.1123
0.10498
0.09521
0.08911
0.08301
0.07935
0.07446
0.06714
0.0647
0.05859
0.05493
0.05493
0.04761
0.04639
0.04395
0.04395
0.04028
0.03906
0.04028
0.0354
0.0354
0.03174
0.02686
0.02563
0.02075
0.01587
0.01221
0.0061
0.00244
-0.0061
-0.01221
-0.01709
-0.02441
-0.02808
-0.03174
-0.04272
-0.04761
-0.05493
-0.05859
-0.07202
-0.07202
-0.0769
-0.08423
-0.08789
-0.09644
-0.1001
-0.10376
-0.11108
-0.11353
-0.12085
-0.12451
-0.12939
-0.13428
-0.13794
-0.14282
-0.14526
-0.14893
-0.14893
-0.15503
-0.16113
-0.16357
-0.16602
-0.17212
-0.1709
-0.17334
-0.17456
-0.177
-0.18188
-0.17944
-0.18433
-0.18555
-0.19043
-0.19043
-0.19043
-0.19165
-0.19165
-0.19287
-0.19653
-0.19409
-0.19775
-0.2002
-0.19897
-0.19897
-0.19775
-0.2002
-0.20142
-0.2002
-0.20142
-0.19897
-0.20264
-0.20264
-0.20264
-0.20386
-0.20264
-0.2063
-0.20508
-0.20508
-0.20752
-0.20142
-0.20874
-0.20752
-0.2063
-0.20874
-0.20874
-0.2063
-0.20386
-0.20264
-0.20386
-0.19897
-0.2002
-0.19897
-0.19653
-0.20142
-0.19531
-0.19287
-0.19043
-0.18799
-0.18799
-0.18311
-0.18555
-0.18433
-0.18433
-0.18311
-0.18066
-0.18188
-0.17944
-0.17944
-0.17944
-0.177
-0.17944
-0.18188
-0.17822
-0.177
-0.17212
-0.16968
-0.16357
-0.15503
-0.14526
-0.12939
-0.11841
-0.09277
-0.06226
-0.02319
0.02686
0.07813
0.13306
0.18433
0.22705
0.26611
0.30029
0.33325
0.36011
0.37964
0.39551
0.40649
0.41504
0.4187
0.41748
0.41626
0.41016
0.40283
0.39429
0.3833
0.36987
0.35522
0.34302
0.32837
0.31494
0.30151
0.28442
0.26855
0.25391
0.2356
0.22217
0.20752
0.19531
0.18433
0.16846
0.16235
0.14526
0.13306
0.12085
0.10986
0.10132
0.09033
0.08057
0.06958
0.05981
0.05493
0.04517
0.03906
0.03174
0.02563
0.02197
0.01709
0.01099
0.01221
0.00977
0.01221
0.00854
0.0061
0.00732
0.0061
0.00732
0.0061
0.00732
0.00732
0.0061
0.0061
0
0
0
-0.00488
-0.00732
-0.01099
-0.01221
-0.01465
-0.01953
-0.02319
-0.02808
-0.03174
-0.03418
-0.03906
-0.0415
-0.04517
-0.04761
-0.05005
-0.05981
-0.05737
-0.06592
-0.06958
-0.07324
-0.08057
-0.08179
-0.08667
-0.08911
-0.08667
-0.09766
-0.09644
-0.1001
-0.10254
-0.10742
-0.10986
-0.1123
-0.11597
-0.11963
-0.12085
-0.12451
-0.12329
-0.12695
-0.13062
-0.12939
-0.13184
-0.13184
-0.13184
-0.13428
-0.13428
-0.1355
-0.13306
-0.13916
-0.13794
-0.13672
-0.13916
-0.13794
-0.14038
-0.14038
-0.13916
-0.1416
-0.13428
-0.14282
-0.14282
-0.1416
-0.14282
-0.14526
-0.14404
-0.14282
-0.1416
-0.1416
-0.14038
-0.14282
-0.14282
-0.1416
-0.14648
-0.14404
-0.14404
-0.14404
-0.14404
-0.14771
-0.14282
-0.14648
-0.14648
-0.14282
-0.14893
-0.14648
-0.14526
-0.14404
-0.14648
-0.14404
-0.14038
-0.1416
-0.14038
-0.14038
-0.1416
-0.13916
-0.14038
-0.1416
-0.14038
-0.14282
-0.14038
-0.1416
-0.14282
-0.13672
-0.13428
-0.12573
-0.11719
-0.10498
-0.08789
-0.06836
-0.03906
-0.00854
0.03662
0.08911
0.1416
0.19531
0.24048
0.28076
0.31738
0.34668
0.37476
0.39551
0.41138
0.4248
0.43091
0.43457
0.43579
0.43335
0.42969
0.42114
0.4126
0.40039
0.3894
0.3772
0.36377
0.34912
0.33447
0.32104
0.30762
0.29053
0.27954
0.26245
0.2478
0.23438
0.21484
0.20752
0.19409
0.18311
0.17456
0.15991
0.15137
0.13794
0.12817
0.11841
0.1062
0.1001
0.09033
0.08301
0.07568
0.06714
0.0647
0.05615
0.05615
0.04883
0.04272
0.0415
0.03906
0.03418
0.0354
0.03418
0.0354
0.03174
0.03174
0.03296
0.03052
0.03174
0.0293
0.02563
0.02563
0.02197
0.02197
0.01343
0.01221
0.00977
0.00488
0.00732
-0.00244
-0.0061
-0.00977
-0.01709
-0.01953
-0.02686
-0.03174
-0.03662
-0.04395
-0.04639
-0.05005
-0.05615
-0.05859
-0.06714
-0.06836
-0.07324
-0.0769
-0.07935
-0.08545
-0.08667
-0.09155
-0.09399
-0.10132
-0.10254
-0.10376
-0.10986
-0.1123
-0.11597
-0.11963
-0.11963
-0.12329
-0.12085
-0.12451
-0.12573
-0.12451
-0.12817
-0.13184
-0.12817
-0.12939
-0.12695
-0.12817
-0.12939
-0.12695
-0.12939
-0.12817
-0.13306
-0.13062
-0.12939
-0.13062
-0.12939
-0.13062
-0.12939
-0.12817
-0.12939
-0.12085
-0.13062
-0.13062
-0.12939
-0.13062
-0.13184
-0.13062
-0.12939
-0.12817
-0.12939
-0.12817
-0.13062
-0.13062
-0.12939
-0.13184
-0.12939
-0.13062
-0.12939
-0.12817
-0.13062
-0.12695
-0.12939
-0.12817
-0.12085
-0.12817
-0.12573
-0.12695
-0.12695
-0.12817
-0.12573
-0.12207
-0.12207
-0.11963
-0.10986
-0.10254
-0.08667
-0.06958
-0.05005
-0.01465
0.02686
0.08179
0.13672
0.19165
0.24536
0.29053
0.33447
0.36987
0.40527
0.43579
0.45654
0.47729
0.48462
0.49927
0.50903
0.51025
0.5127
0.50903
0.50415
0.50171
0.49072
0.48462
0.46875
0.45532
0.44312
0.42847
0.41748
0.39795
0.3833
0.36743
0.34912
0.32959
0.31616
0.29907
0.28564
0.271
0.25879
0.24536
0.23315
0.22217
0.20752
0.19775
0.18311
0.1709
0.16113
0.14771
0.14038
0.13062
0.12207
0.11963
0.10498
0.1001
0.09277
0.08789
0.08301
0.07813
0.07813
0.07324
0.07202
0.07202
0.06836
0.06958
0.06592
0.05981
0.0647
0.05981
0.06104
0.05859
0.05493
0.05371
0.04883
0.04639
0.03662
0.03296
0.03052
0.02197
0.01831
0.00977
0.00488
0
-0.00732
-0.00977
-0.02075
-0.02686
-0.03052
-0.03784
-0.04761
-0.05127
-0.05615
-0.05981
-0.06836
-0.07324
-0.08179
-0.08911
-0.09155
-0.09888
-0.10132
-0.10742
-0.11108
-0.11353
-0.11963
-0.11963
-0.12451
-0.12573
-0.12573
-0.13184
-0.13062
-0.13306
-0.13428
-0.13672
-0.14038
-0.13916
-0.14282
-0.14526
-0.14404
-0.14648
-0.14526
-0.14648
-0.15137
-0.14648
-0.14771
-0.14404
-0.14648
-0.14771
-0.14526
-0.14771
-0.14648
-0.15137
-0.14771
-0.14526
-0.14771
-0.14526
-0.15015
-0.15015
-0.14893
-0.15015
-0.14893
-0.15015
-0.15015
-0.14893
-0.15015
-0.15259
-0.15015
-0.15015
-0.15015
-0.15137
-0.15137
-0.15259
-0.15137
-0.15015
-0.15381
-0.14771
-0.14893
-0.14771
-0.14404
-0.14648
-0.14282
-0.14404
-0.14282
-0.14038
-0.14282
-0.13916
-0.13794
-0.13428
-0.13428
-0.12695
-0.11475
-0.10376
-0.08667
-0.06592
-0.03784
0.00366
0.04883
0.09888
0.15381
0.20386
0.25024
0.29053
0.32593
0.36011
0.38452
0.41016
0.42358
0.43457
0.44434
0.44678
0.45166
0.45166
0.44678
0.44312
0.43335
0.42603
0.41016
0.40039
0.3894
0.37354
0.36255
0.34302
0.33081
0.31738
0.29907
0.28564
0.26733
0.25146
0.2417
0.22705
0.21973
0.20264
0.19165
0.18188
0.16724
0.15625
0.14404
0.13428
0.12695
0.11353
0.10742
0.09888
0.09033
0.08423
0.07446
0.0708
0.0647
0.05981
0.05737
0.05127
0.05249
0.05005
0.05005
0.05493
0.04761
0.05005
0.04883
0.04883
0.04761
0.04883
0.05127
0.05127
0.05127
0.05127
0.05005
0.05005
0.04639
0.0415
0.04028
0.03296
0.03052
0.02319
0.01587
0.01221
0.00366
0
-0.00366
-0.01587
-0.01953
-0.02808
-0.03174
-0.04395
-0.04517
-0.05005
-0.05493
-0.05615
-0.0647
-0.06836
-0.07202
-0.07813
-0.08179
-0.08423
-0.08789
-0.09033
-0.09644
-0.1001
-0.10498
-0.10864
-0.10986
-0.11108
-0.11597
-0.11963
-0.12207
-0.12207
-0.12817
-0.12451
-0.12695
