0.8313
0.79956
0.76904
0.73486
0.70313
0.6604
0.62256
0.58472
0.54443
0.50781
0.46509
0.42603
0.38696
0.34424
0.31006
0.27344
0.24048
0.21118
0.18066
0.15625
0.13184
0.11353
0.1001
0.08667
0.08057
0.06958
0.06226
0.05737
0.05249
0.04761
0.04028
0.03662
0.03052
0.02441
0.02319
0.01709
0.01465
0.01221
0.0061
0.00244
-0.00488
-0.01221
-0.01709
-0.02686
-0.03296
-0.04395
-0.05249
-0.06104
-0.07324
-0.08301
-0.09521
-0.10742
-0.11841
-0.13184
-0.14038
-0.15869
-0.1709
-0.18188
-0.19653
-0.20752
-0.22095
-0.23315
-0.24536
-0.26123
-0.27222
-0.28809
-0.30151
-0.31494
-0.32959
-0.34302
-0.35889
-0.37109
-0.38452
-0.39795
-0.40649
-0.42114
-0.43213
-0.44189
-0.45288
-0.46143
-0.46875
-0.47485
-0.47974
-0.48584
-0.48584
-0.49316
-0.49561
-0.49561
-0.50049
-0.50171
-0.50659
-0.51025
-0.51147
-0.51636
-0.51758
-0.5249
-0.52979
-0.53345
-0.53955
-0.53955
-0.54199
-0.54077
-0.53589
-0.53223
-0.52002
-0.50781
-0.48462
-0.4541
-0.42358
-0.37476
-0.32593
-0.27466
-0.21606
-0.15259
-0.08057
-0.01099
0.06348
0.14038
0.21606
0.29419
0.36865
0.44312
0.5127
0.57373
0.63354
0.68237
0.72876
0.77148
0.80322
0.83496
0.85693
0.87402
0.88745
0.89233
0.89722
0.89111
0.88135
0.87036
0.85327
0.8374
0.81543
0.79224
0.7666
0.73608
0.70801
0.67261
0.63721
0.60303
0.56396
0.52734
0.48584
0.44556
0.40527
0.36377
0.32837
0.28809
0.25635
0.22705
0.19531
0.1709
0.14526
0.12207
0.10376
0.08423
0.07202
0.05859
0.04761
0.04028
0.03052
0.02686
0.02197
0.01953
0.01953
0.01587
0.01831
0.01587
0.01587
0.01587
0.01465
0.01587
0.01343
0.01221
0.01099
0.0061
0.00244
-0.00732
-0.01465
-0.02197
-0.03418
-0.04272
-0.05493
-0.0647
-0.07202
-0.08423
-0.09277
-0.10864
-0.12085
-0.13306
-0.14893
-0.15991
-0.177
-0.19043
-0.2002
-0.21606
-0.22705
-0.24048
-0.25391
-0.26367
-0.28076
-0.29175
-0.30884
-0.32349
-0.33691
-0.35278
-0.36255
-0.3772
-0.38818
-0.39551
-0.40649
-0.41138
-0.42236
-0.42969
-0.43945
-0.45166
-0.46143
-0.47607
-0.48706
-0.49561
-0.50903
-0.51636
-0.52612
-0.53467
-0.53833
-0.54565
-0.54443
-0.5481
-0.5481
-0.54321
-0.54077
-0.52979
-0.51636
-0.49561
-0.46631
-0.43579
-0.39307
-0.35156
-0.30029
-0.2417
-0.18311
-0.11353
-0.04272
0.03052
0.10498
0.17578
0.25391
0.32227
0.38696
0.45166
0.50903
0.56763
0.61646
0.6604
0.70435
0.7373
0.77026
0.79224
0.80933
0.82642
0.83252
0.83984
0.83862
0.83496
0.8313
0.81909
0.80811
0.78857
0.7666
0.74463
0.71533
0.68848
0.65552
0.6189
0.5835
0.54077
0.50293
0.45898
0.41748
0.37964
0.33813
0.30029
0.26489
0.23071
0.19897
0.16846
0.14282
0.11719
0.09399
0.0769
0.05615
0.04517
0.03174
0.02197
0.01587
0.00854
0.0061
0
-0.0061
-0.00732
-0.01343
-0.01465
-0.01831
-0.02075
-0.01953
-0.02319
-0.02075
-0.02441
-0.0293
-0.03296
-0.04517
-0.05127
-0.06104
-0.06836
-0.07446
-0.08789
-0.09766
-0.10742
-0.11719
-0.12451
-0.13916
-0.15015
-0.16479
-0.18066
-0.19531
-0.21362
-0.22339
-0.23682
-0.24658
-0.25391
-0.271
-0.28442
-0.30273
-0.32349
-0.33813
-0.354
-0.36377
-0.37598
-0.38452
-0.3894
-0.40039
-0.40405
-0.4126
-0.42114
-0.42603
-0.43579
-0.44312
-0.45288
-0.46509
-0.47241
-0.48706
-0.49683
-0.51025
-0.52002
-0.52612
-0.53589
-0.53955
-0.54443
-0.54443
-0.53955
-0.53589
-0.52246
-0.50659
-0.48706
-0.45898
-0.42847
-0.38696
-0.34058
-0.28687
-0.22217
-0.15625
-0.08179
-0.00366
0.07813
0.16479
0.2478
0.33691
0.4187
0.50171
0.58228
0.65308
0.72388
0.78369
0.83862
0.89111
0.9314
0.96924
0.99731
1.01685
1.03516
1.04126
1.04858
1.05103
1.04858
1.04492
1.03271
1.02173
1.00342
0.98022
0.95703
0.92529
0.89722
0.86792
0.83618
0.80688
0.77271
0.74219
0.70801
0.67139
0.63965
0.60059
0.56519
0.52734
0.4895
0.4541
0.41748
0.3833
0.34912
0.31738
0.29297
0.26001
0.23193
0.21118
0.18921
0.1709
0.15869
0.15503
0.15137
0.14648
0.14404
0.13306
0.12573
0.11841
0.10986
0.10986
0.10498
0.10498
0.10376
0.1001
0.1001
0.09277
0.09033
0.08789
0.08423
0.08545
0.08057
0.07568
0.06714
0.05127
0.03662
0.01221
-0.01099
-0.03418
-0.05981
-0.08301
-0.10742
-0.12695
-0.14648
-0.16357
-0.177
-0.19653
-0.20996
-0.22583
-0.24414
-0.25757
-0.27466
-0.28931
-0.30273
-0.32227
-0.33569
-0.354
-0.36621
-0.37842
-0.39063
-0.39795
-0.40771
-0.41382
-0.42236
-0.43335
-0.44067
-0.45166
-0.45898
-0.46753
-0.47974
-0.4895
-0.49927
-0.51025
-0.5249
-0.53467
-0.54199
-0.55542
-0.55786
-0.55786
-0.55786
-0.54932
-0.54077
-0.5249
-0.50537
-0.4834
-0.44922
-0.41382
-0.36865
-0.31494
-0.25757
-0.18921
-0.11963
-0.0415
0.0415
0.12329
0.2124
0.29419
0.37964
0.46265
0.54199
0.6189
0.68848
0.75439
0.81421
0.86426
0.91187
0.94971
0.98633
1.01685
1.04126
1.06201
1.07422
1.08154
1.08276
1.07666
1.07056
1.05347
1.0376
1.01685
0.98999
0.96436
0.93262
0.90332
0.87158
0.83496
0.802
0.76172
0.7251
0.68848
0.64941
0.61157
0.57129
0.53223
0.49194
0.45044
0.40894
0.37109
0.33203
0.30029
0.26978
0.24414
0.21851
0.19409
0.17456
0.15259
0.13916
0.12085
0.10864
0.1001
0.09277
0.08911
0.08423
0.08057
0.07813
0.0708
0.06714
0.05737
0.05249
0.04639
0.03662
0.03052
0.02197
0.01465
0.00854
0
-0.00488
-0.01709
-0.02808
-0.04028
-0.05737
-0.07202
-0.09033
-0.10742
-0.12451
-0.14526
-0.16235
-0.18433
-0.20508
-0.22217
-0.2417
-0.26367
-0.27954
-0.29785
-0.31006
-0.32593
-0.33691
-0.354
-0.36865
-0.38086
-0.39795
-0.40894
-0.42358
-0.43701
-0.45044
-0.46753
-0.47974
-0.49561
-0.50781
-0.51758
-0.52979
-0.53467
-0.54199
-0.54565
-0.54932
-0.55542
-0.55786
-0.56641
-0.57129
-0.57739
-0.5835
-0.58716
-0.59326
-0.59814
-0.60181
-0.60791
-0.61035
-0.61768
-0.62012
-0.62012
-0.625
-0.625
-0.62866
-0.62012
-0.61646
-0.60181
-0.57983
-0.55298
-0.51636
-0.47241
-0.42725
-0.37231
-0.31494
-0.24902
-0.17456
-0.09888
-0.01221
0.07324
0.16235
0.25146
0.33569
0.42236
0.50293
0.57983
0.65308
0.71533
0.77759
0.82764
0.87524
0.91919
0.94971
0.97656
0.99121
1.00098
1.0083
1.00708
1.0083
1.0022
0.99609
0.98999
0.97656
0.96436
0.94238
0.91309
0.88013
0.84106
0.80688
0.77026
0.7373
0.70557
0.67139
0.64331
0.60425
0.56641
0.53101
0.4895
0.4541
0.41382
0.37476
0.33936
0.30151
0.26978
0.23682
0.20996
0.18555
0.16235
0.14526
0.12573
0.11108
0.10132
0.08789
0.08179
0.07202
0.06592
0.06226
0.05615
0.05493
0.05005
0.04761
0.04761
0.04272
0.04272
0.03784
0.03296
0.03052
0.02319
0.02319
0.00854
-0.00122
-0.01709
-0.03174
-0.04272
-0.05981
-0.07568
-0.09155
-0.1123
-0.12695
-0.14893
-0.16846
-0.18433
-0.20752
-0.22217
-0.2417
-0.25879
-0.27344
-0.29053
-0.30273
-0.32104
-0.33691
-0.35034
-0.36743
-0.37964
-0.39673
-0.41138
-0.42358
-0.43945
-0.44922
-0.46509
-0.47729
-0.48584
-0.50049
-0.50415
-0.52124
-0.53345
-0.53833
-0.54932
-0.5542
-0.56274
-0.57007
-0.57373
-0.58228
-0.58594
-0.59326
-0.59937
-0.60303
-0.61035
-0.61279
-0.6189
-0.62134
-0.62012
-0.62256
-0.6189
-0.61646
-0.60791
-0.59448
-0.57983
-0.55298
-0.52246
-0.48706
-0.43945
-0.38818
-0.32593
-0.26123
-0.19043
-0.11475
-0.03906
0.0415
0.12329
0.20386
0.28564
0.36133
0.43701
0.50293
0.56885
0.62744
0.67749
0.7251
0.76172
0.79224
0.82031
0.8374
0.85327
0.86182
0.86426
0.86548
0.85938
0.85327
0.83862
0.82275
0.80688
0.78003
0.75806
0.72876
0.69824
0.66895
0.63354
0.60059
0.56152
0.52368
0.48462
0.43945
0.40283
0.35522
0.30762
0.271
0.22949
0.19287
0.15747
0.12329
0.09521
0.06348
0.03906
0.01587
-0.00488
-0.01709
-0.03296
-0.04028
-0.04883
-0.05615
-0.05737
-0.06348
-0.06348
-0.06714
-0.06836
-0.06836
-0.07324
-0.07446
-0.07935
-0.08423
-0.08667
-0.09033
-0.09766
-0.10742
-0.1123
-0.11597
-0.12695
-0.13428
-0.14526
-0.15991
-0.16968
-0.18677
-0.20142
-0.21729
-0.23682
-0.25513
-0.27588
-0.29541
-0.31494
-0.33447
-0.35034
-0.37109
-0.3894
-0.40527
-0.4248
-0.43945
-0.45532
-0.46753
-0.48218
-0.49561
-0.50903
-0.52979
-0.53955
-0.5542
-0.57129
-0.58594
-0.60425
-0.61768
-0.63232
-0.64575
-0.65308
-0.66406
-0.66895
-0.67627
-0.68359
-0.68604
-0.69214
-0.69336
-0.69702
-0.70068
-0.70068
-0.70679
-0.70801
-0.71167
-0.71533
-0.71411
-0.71289
-0.71655
-0.71533
-0.71045
-0.6958
-0.68481
-0.66162
-0.63232
-0.5957
-0.54932
-0.50049
-0.44067
-0.37598
-0.3064
-0.22705
-0.15015
-0.06592
0.01831
0.10132
0.18921
0.27222
0.35645
0.43335
0.50537
0.57861
0.63843
0.69946
0.75195
0.79712
0.8374
0.8728
0.89478
0.91553
0.92285
0.9375
0.93872
0.94116
0.93994
0.93384
0.93018
0.91797
0.90698
0.89111
0.86914
0.85083
0.82031
0.78857
0.75317
0.71533
0.67627
0.63232
0.59204
0.54688
0.50171
0.46143
0.41382
0.36987
0.32593
0.28198
0.24658
0.20508
0.1709
0.14648
0.12329
0.10864
0.09033
0.07568
0.06348
0.04883
0.03662
0.02197
0.00854
-0.00366
-0.01709
-0.02563
-0.03784
-0.04517
-0.05127
-0.05859
-0.05981
-0.0647
-0.06836
-0.07324
-0.08057
-0.08423
-0.09277
-0.10498
-0.11719
-0.12939
-0.13916
-0.15381
-0.16724
-0.18311
-0.20142
-0.21729
-0.2356
-0.25269
-0.26855
-0.28687
-0.30273
-0.32104
-0.33813
-0.35522
-0.37476
-0.3894
-0.4126
-0.43213
-0.45166
-0.47363
-0.49316
-0.51392
-0.53101
-0.54565
-0.55786
-0.56152
-0.57373
-0.58228
-0.5896
-0.60059
-0.60547
-0.61401
-0.62012
-0.62988
-0.64087
-0.64453
-0.65552
-0.66162
-0.6665
-0.67505
-0.67871
-0.68604
-0.69092
-0.69702
-0.70557
-0.70557
-0.71777
-0.72632
-0.72754
-0.73242
-0.73486
-0.73975
-0.73975
-0.73975
-0.74219
-0.7373
-0.73853
-0.73364
-0.7251
-0.71411
-0.69458
-0.66895
-0.63721
-0.59326
-0.54321
-0.47852
-0.41138
-0.33569
-0.25269
-0.16968
-0.08179
0.00977
0.10254
0.19409
0.27954
0.36621
0.44067
0.51514
0.58472
0.64575
0.70557
0.75684
0.80322
0.84595
0.87769
0.90942
0.93018
0.94849
0.96069
0.96924
0.97412
0.97412
0.9729
0.9668
0.95459
0.94482
0.92285
0.9021
0.88135
0.85083
0.82275
0.79102
0.75806
0.72266
0.67993
0.64087
0.5957
0.5542
0.5127
0.46753
0.42725
0.38452
0.34424
0.30396
0.26245
0.22705
0.18799
0.15625
0.12695
0.09888
0.07935
0.05371
0.03296
0.02075
0.00488
-0.0061
-0.02075
-0.03052
-0.03906
-0.05005
-0.05371
-0.06104
-0.06348
-0.06592
-0.07202
-0.07324
-0.08301
-0.09033
-0.09888
-0.11108
-0.12085
-0.13428
-0.14771
-0.16235
-0.18188
-0.19409
-0.21118
-0.22827
-0.24292
-0.26123
-0.27832
-0.29907
-0.31738
-0.33569
-0.35522
-0.36987
-0.38818
-0.40405
-0.4187
-0.43823
-0.45044
-0.46875
-0.48462
-0.49805
-0.5188
-0.52979
-0.5542
-0.57251
-0.58472
-0.60181
-0.61157
-0.62744
-0.63721
-0.64575
-0.65796
-0.66406
-0.67627
-0.68604
-0.69336
-0.70557
-0.71411
-0.72388
-0.73242
-0.73853
-0.74585
-0.74829
-0.75439
-0.76172
-0.76538
-0.7666
-0.76538
-0.76904
-0.77026
-0.77148
-0.77637
-0.77515
-0.78125
-0.78369
-0.78491
-0.78979
-0.79102
-0.79712
-0.79956
-0.79834
-0.802
-0.79834
-0.7959
-0.78735
-0.76904
-0.75806
-0.73242
-0.69946
-0.65796
-0.60669
-0.55298
-0.48584
-0.4187
-0.34302
-0.26123
-0.18066
-0.09033
-0.00244
0.08911
0.18188
0.26978
0.36011
0.43945
0.51636
0.58838
0.65186
0.71533
0.75928
0.802
0.84473
0.87402
0.90088
0.91675
0.93018
0.93994
0.93994
0.94116
0.93262
0.92285
0.91064
0.88989
0.87036
0.84473
0.81787
0.79468
0.76538
0.7373
0.70313
0.6665
0.63232
0.58838
0.55176
0.51147
0.47363
0.43579
0.39429
0.35767
0.3186
0.28198
0.2478
0.2124
0.18311
0.15015
0.12085
0.09766
0.0708
0.05249
0.03174
0.01465
0.00488
-0.01465
-0.02441
-0.03296
-0.03784
-0.03784
-0.04395
-0.0415
-0.04395
-0.04517
-0.04395
-0.04761
-0.04883
-0.05615
-0.06226
-0.06592
-0.07568
-0.08179
-0.09155
-0.10376
-0.1123
-0.13062
-0.13672
-0.15015
-0.16357
-0.17578
-0.19287
-0.20508
-0.22095
-0.23804
-0.25269
-0.27222
-0.28809
-0.3064
-0.32593
-0.34058
-0.35889
-0.37476
-0.39429
-0.41382
-0.43091
-0.44556
-0.45898
-0.47607
-0.49194
-0.50415
-0.52124
-0.53223
-0.54443
-0.55786
-0.56519
-0.57739
-0.5835
-0.59448
-0.60303
-0.60669
-0.61646
-0.62012
-0.62866
-0.63599
-0.63477
-0.64209
-0.64453
-0.65063
-0.65674
-0.66284
-0.67139
-0.67749
-0.68481
-0.69092
-0.69214
-0.69824
-0.69824
-0.7019
-0.70435
-0.70313
-0.70313
-0.70313
-0.69946
-0.6897
-0.67261
-0.6543
-0.62622
-0.59448
-0.5542
-0.50293
-0.45044
-0.38696
-0.31982
-0.2478
-0.16846
-0.08911
-0.0061
0.0769
0.16235
0.24414
0.31982
0.40161
0.47485
0.54077
0.60425
0.65918
0.71167
0.75439
0.78857
0.82031
0.83984
0.85938
0.86914
0.87402
0.87646
0.87158
0.8667
0.85571
0.83984
0.8252
0.80078
0.77759
0.74341
0.71411
0.68359
0.64575
0.61157
0.57373
0.53345
0.49561
0.45044
0.40771
0.36499
0.31982
0.2771
0.23193
0.19409
0.15625
0.11963
0.08789
0.05493
0.03174
0.00732
-0.01465
-0.03174
-0.05005
-0.06104
-0.0708
-0.07813
-0.08179
-0.08911
-0.09033
-0.09277
-0.09521
-0.09277
-0.09399
-0.09033
-0.09155
-0.09521
-0.09033
-0.09521
-0.09888
-0.10376
-0.11108
-0.11475
-0.12451
-0.12939
-0.13916
-0.15015
-0.15991
-0.177
-0.18799
-0.20264
-0.21729
-0.23193
-0.25146
-0.26123
-0.27832
-0.29419
-0.3064
-0.32593
-0.34058
-0.35767
-0.37476
-0.38818
-0.40405
-0.41626
-0.43091
-0.448
-0.46021
-0.47974
-0.49194
-0.51147
-0.52856
-0.54077
-0.5542
-0.56519
-0.57617
-0.5896
-0.59692
-0.61035
-0.61768
-0.62378
-0.6311
-0.63477
-0.64209
-0.64331
-0.64819
-0.65308
-0.65552
-0.66406
-0.66528
-0.66895
-0.67505
-0.67749
-0.68359
-0.68726
-0.69092
-0.6958
-0.69702
-0.7019
-0.70313
-0.70068
-0.69702
-0.68604
-0.67505
-0.65308
-0.62988
-0.59204
-0.54199
-0.49316
-0.42969
-0.36255
-0.29053
-0.20874
-0.12573
-0.03662
0.05493
0.14404
0.23926
0.32715
0.41504
0.49927
0.57861
0.64697
0.70923
0.77026
0.82275
0.86548
0.90698
0.93506
0.96313
0.98389
0.99731
1.0083
1.01196
1.01563
1.01196
1.00342
0.99365
0.97656
0.95703
0.93506
0.91309
0.88623
0.8606
0.83374
0.80444
0.76904
0.7373
0.69458
0.65552
0.61157
0.56763
0.5249
0.48096
0.43945
0.39673
0.35522
0.32104
0.27832
0.24292
0.21362
0.18433
0.16113
0.13672
0.11841
0.10254
0.08545
0.0769
0.06348
0.05249
0.04639
0.03784
0.03418
0.0293
0.02197
0.01709
0.01343
0.01343
0.00488
0.00244
-0.00122
-0.00854
-0.01221
-0.01953
-0.02686
-0.03418
-0.04639
-0.05249
-0.06714
-0.07935
-0.09155
-0.11353
-0.12329
-0.13916
-0.15381
-0.16846
-0.18677
-0.2002
-0.22217
-0.23804
-0.25391
-0.27222
-0.28687
-0.30518
-0.31982
-0.33569
-0.34912
-0.36743
-0.38452
-0.39795
-0.41138
-0.42725
-0.43823
-0.45288
-0.46509
-0.47852
-0.49438
-0.50293
-0.5188
-0.52979
-0.53955
-0.55054
-0.55664
-0.57617
-0.57983
-0.58594
-0.59326
-0.59692
-0.60425
-0.61035
-0.61401
-0.62012
-0.62256
-0.62866
-0.6311
-0.63477
-0.64087
-0.63965
-0.64331
-0.65674
-0.65674
-0.66162
-0.66528
-0.66895
-0.67017
-0.67017
-0.67017
-0.66284
-0.65918
-0.64697
-0.62866
-0.60547
-0.57251
-0.53589
-0.4895
-0.43335
-0.36743
-0.29175
-0.21851
-0.1355
-0.04639
0.0415
0.13306
0.22461
0.3186
0.4126
0.50049
0.58838
0.66406
0.73853
0.81055
0.86304
0.91919
0.96313
1.00464
1.0376
1.06079
1.08398
1.09497
1.10107
1.10474
1.10107
1.09619
1.08521
1.07056
1.05347
1.02905
1.0083
0.98022
0.94116
0.91309
0.87769
0.84351
0.80688
0.76782
0.72998
0.68848
0.65063
0.60547
0.56519
0.52612
0.4834
0.44556
0.40771
0.36255
0.33081
0.29419
0.26733
0.2356
0.20874
0.18433
0.15869
0.13916
0.12085
0.10254
0.09033
0.07568
0.0708
0.05981
0.04517
0.04272
0.0354
0.03174
0.02563
0.02197
0.01831
0.01221
0.00977
0.00244
-0.00366
-0.00854
-0.01831
-0.02197
-0.03418
-0.04639
-0.05249
-0.06836
-0.07935
-0.09521
-0.11108
-0.12451
-0.14282
-0.15747
-0.17456
-0.19043
-0.2063
-0.22583
-0.2417
-0.26245
-0.2832
-0.29907
-0.31982
-0.33447
-0.35156
-0.36743
-0.38086
-0.39795
-0.40894
-0.4248
-0.43701
-0.448
-0.46021
-0.46509
-0.4895
-0.49927
-0.51025
-0.52612
-0.53589
-0.55054
-0.5603
-0.56885
-0.57861
-0.5835
-0.59082
-0.59937
-0.60547
-0.61401
-0.61646
-0.62744
-0.6311
-0.63232
-0.63965
-0.64087
-0.64331
-0.64453
-0.64453
-0.64697
-0.64453
-0.64575
-0.64575
-0.64331
-0.64575
-0.64331
-0.64697
-0.64819
-0.64941
-0.65552
-0.65552
-0.66284
-0.6665
-0.66772
-0.67261
-0.67017
-0.67261
-0.67261
-0.67017
-0.67139
-0.66162
-0.65186
-0.63354
-0.60547
-0.57495
-0.52979
-0.48218
-0.42358
-0.35645
-0.28564
-0.20264
-0.11841
-0.03052
0.06348
0.15381
0.25024
0.34424
0.43945
0.53223
0.61646
0.70068
0.77515
0.84473
0.9082
0.95947
1.00952
1.04736
1.07788
1.10474
1.11938
1.13403
1.14502
1.1499
1.1499
1.14014
1.13037
1.1145
1.09375
1.07178
1.04248
1.01563
0.98145
0.94727
0.91309
0.87646
0.83252
0.79468
0.75317
0.71289
0.66772
0.62744
0.5835
0.54199
0.50415
0.46265
0.42725
0.39185
0.35889
0.33447
0.29541
0.27588
0.25146
0.22949
0.2124
0.19165
0.17822
0.16357
0.15259
0.14526
0.13428
0.13184
0.12573
0.11963
0.11475
0.10986
0.10864
0.10376
0.10132
0.1001
0.09521
0.09521
0.09033
0.08545
0.07935
0.06836
0.06104
0.04761
0.0354
0.02563
0.01099
-0.00244
-0.01831
-0.03296
-0.04761
-0.06592
-0.08057
-0.09888
-0.11597
-0.13184
-0.15015
-0.16968
-0.18677
-0.20264
-0.21484
-0.23193
-0.24414
-0.26123
-0.27588
-0.28687
-0.30273
-0.31616
-0.32959
-0.34424
-0.354
-0.37354
-0.38086
-0.39307
-0.40405
-0.4126
-0.42358
-0.42969
-0.43823
-0.44678
-0.44922
-0.45776
-0.46143
-0.46631
-0.47363
-0.47729
-0.4834
-0.48584
-0.49316
-0.49927
-0.50171
-0.51025
-0.5127
-0.5188
-0.52368
-0.52612
-0.52734
-0.52856
-0.52856
-0.52246
-0.51392
-0.50659
-0.49194
-0.47485
-0.44922
-0.41626
-0.37964
-0.33203
-0.28198
-0.22461
-0.15381
-0.09399
-0.01343
0.0647
0.14526
0.22827
0.30762
0.3894
0.46753
0.54199
0.61646
0.67871
0.74097
0.79468
0.84351
0.88135
0.91431
0.94482
0.96924
0.98511
0.99731
0.99854
0.99854
0.99243
0.98145
0.97046
0.95093
0.9314
0.90576
0.87769
0.84595
0.81299
0.78125
0.74463
0.70435
0.66528
0.62134
0.57983
0.53467
0.49072
0.45044
0.40771
0.37231
0.32593
0.29053
0.25635
0.22095
0.19043
0.16113
0.13428
0.11353
0.09033
0.07568
0.06226
0.04883
0.04517
0.02808
0.0293
0.02563
0.02319
0.02563
0.02441
0.02686
0.02808
0.02808
0.03174
0.03052
0.03296
0.03418
0.02441
0.02808
0.02075
0.01709
0.01099
0.00244
-0.00488
-0.01709
-0.02563
-0.03906
-0.04883
-0.05737
-0.0708
-0.09155
-0.10376
-0.12085
-0.13428
-0.15137
-0.16602
-0.18311
-0.19897
-0.20996
-0.22705
-0.23926
-0.25146
-0.26855
-0.28442
-0.30029
-0.31616
-0.33203
-0.34912
-0.36255
-0.38086
-0.39673
-0.41138
-0.42847
-0.44067
-0.45288
-0.46143
-0.46997
-0.47974
-0.4834
-0.49194
-0.49683
-0.50415
-0.5127
-0.51636
-0.5249
-0.52856
-0.53467
-0.53589
-0.54688
-0.55298
-0.55786
-0.56274
-0.56763
-0.56763
-0.56885
-0.56763
-0.56519
-0.56152
-0.54688
-0.53467
-0.51147
-0.48218
-0.44434
-0.39673
-0.34546
-0.28442
-0.21851
-0.14771
-0.06836
0.00977
0.09521
0.18188
0.26611
0.354
0.43945
0.52368
0.60181
0.67261
0.74463
0.80566
0.86182
0.91187
0.95337
0.99243
1.01929
1.0437
1.05713
1.06689
1.07788
1.07544
1.073
1.06689
1.05225
1.0376
1.01685
0.99487
0.96924
0.9375
0.90942
0.87524
0.83252
0.7959
0.75317
0.71289
0.6665
0.62134
0.57495
0.52856
0.48584
0.44067
0.40039
0.36377
0.31738
0.28687
0.25269
0.22217
0.19409
0.16602
0.14771
0.12573
0.1062
0.09277
0.07935
0.07568
0.05737
0.05493
0.05005
0.04395
0.04395
0.03906
0.03784
0.03784
0.03662
0.03662
0.0354
0.0354
0.03052
0.02563
0.02441
0.01587
0.00732
0
-0.01221
-0.01953
-0.03174
-0.04028
-0.05249
-0.06714
-0.0769
-0.09521
-0.10864
-0.12329
-0.1416
-0.15991
-0.177
-0.19287
-0.20996
-0.22827
-0.24048
-0.25757
-0.27222
-0.28687
-0.30029
-0.31128
-0.32593
-0.33813
-0.35034
-0.36255
-0.37109
-0.3833
-0.39429
-0.40161
-0.41382
-0.41992
-0.42725
-0.43579
-0.44556
-0.45654
-0.46143
-0.47485
-0.48218
-0.49072
-0.49927
-0.50537
-0.51514
-0.52002
-0.5249
-0.53345
-0.53467
-0.54199
-0.54443
-0.54443
-0.54321
-0.53345
-0.52246
-0.50293
-0.4834
-0.44922
-0.40527
-0.36011
-0.30396
-0.23804
-0.17212
-0.09399
-0.01465
0.06836
0.15747
0.24414
0.33813
0.42847
0.52002
0.60791
0.69092
0.76904
0.84106
0.90576
0.96558
1.01685
1.06445
1.09985
1.13647
1.15601
1.17676
1.19385
1.20117
1.20728
1.20728
1.19751
1.19141
1.17188
1.15234
1.12915
1.09985
1.073
1.04004
1.00952
0.97534
0.93872
0.90454
0.86182
0.82153
0.77881
0.7312
0.68848
0.64209
0.60059
0.55908
0.51758
0.48218
0.44189
0.40771
0.37598
0.34424
0.3186
0.28931
0.26733
0.24536
0.22461
0.21118
0.19287
0.18188
0.17456
0.16602
0.16235
0.15625
0.15381
0.15137
0.14526
0.13916
0.1355
0.13306
0.13062
0.12329
0.12085
0.11353
0.10864
0.10254
0.09033
0.08179
0.06348
0.05127
0.04028
0.02319
0.00977
-0.00854
-0.02563
-0.04028
-0.06226
-0.0769
-0.09766
-0.11353
-0.13794
-0.15625
-0.17334
-0.19531
-0.21484
-0.23193
-0.25391
-0.26855
-0.28809
-0.30518
-0.3186
-0.33813
-0.34912
-0.36255
-0.37598
-0.38574
-0.40039
-0.4126
-0.42847
-0.44189
-0.45288
-0.46875
-0.47852
-0.49561
-0.50171
-0.50903
-0.5188
-0.52368
-0.53223
-0.53833
-0.54199
-0.55054
-0.5542
-0.55908
-0.56641
-0.56885
-0.57617
-0.57861
-0.58472
-0.59082
-0.59326
-0.60181
-0.60181
-0.60425
-0.60181
-0.59082
-0.59204
-0.57129
-0.55176
-0.52124
-0.48218
-0.43823
-0.38086
-0.32104
-0.25146
-0.17456
-0.09277
-0.00977
0.08301
0.17578
0.271
0.36255
0.45654
0.54688
0.63477
0.71777
0.79346
0.86548
0.92651
0.98389
1.03638
1.07666
1.11572
1.1438
1.16699
1.18408
1.19263
1.19873
1.19629
1.19141
1.1853
1.17065
1.15601
1.13403
1.11206
1.08765
1.05713
1.02905
0.99487
0.95825
0.92285
0.88013
0.84229
0.79712
0.75317
0.71289
0.6665
0.625
0.57861
0.53589
0.49805
0.45532
0.42114
0.3833
0.3479
0.3186
0.28809
0.26489
0.23804
0.21362
0.19653
0.17578
0.16235
0.14771
0.13794
0.12817
0.11963
0.11353
0.1062
0.09888
0.09521
0.08667
0.08545
0.07935
0.07446
0.07202
0.06104
0.05615
0.04761
0.03662
0.02686
0.01099
0
-0.01831
-0.03296
-0.04639
-0.06592
-0.08301
-0.1001
-0.11963
-0.13672
-0.15869
-0.17456
-0.19409
-0.2124
-0.22827
-0.24902
-0.26367
-0.28564
-0.30518
-0.32104
-0.3418
-0.35522
-0.37354
-0.39063
-0.40405
-0.41992
-0.43335
-0.448
-0.46631
-0.47974
-0.49683
-0.50659
-0.52002
-0.53345
-0.54321
-0.55542
-0.56274
-0.57129
-0.57983
-0.58716
-0.59326
-0.5957
-0.60181
-0.60791
-0.61035
-0.61768
-0.62012
-0.62744
-0.63354
-0.63354
-0.64819
-0.64941
-0.6543
-0.65918
-0.65918
-0.66284
-0.66162
-0.66284
-0.66284
-0.65552
-0.65063
-0.63843
-0.6189
-0.59326
-0.55664
-0.51636
-0.46265
-0.40405
-0.33813
-0.26123
-0.18433
-0.10132
-0.01221
0.07813
0.16968
0.26001
0.354
0.43945
0.52124
0.60181
0.67139
0.74097
0.80444
0.85083
0.90332
0.94238
0.979
1.00586
1.02661
1.04492
1.05103
1.05591
1.05469
1.04858
1.04126
1.02295
1.0083
0.98511
0.95947
0.93384
0.90088
0.87036
0.83618
0.79834
0.76416
0.7251
0.68115
0.63965
0.59448
0.55298
0.50537
0.46143
0.41748
0.37476
0.33691
0.29663
0.25879
0.22339
0.19287
0.16479
0.13428
0.11353
0.09033
0.07202
0.05859
0.04395
0.03418
0.02197
0.01465
0.01099
0.00244
0
-0.00488
-0.00977
-0.01099
-0.01709
-0.01709
-0.02319
-0.02563
-0.02563
-0.03296
-0.03662
-0.0415
-0.05127
-0.05859
-0.0708
-0.08057
-0.09644
-0.10986
-0.11963
-0.1355
-0.14893
-0.16479
-0.18188
-0.19775
-0.21729
-0.23315
-0.2478
-0.27344
-0.28564
-0.30518
-0.32104
-0.33691
-0.354
-0.36621
-0.3833
-0.39673
-0.41138
-0.42847
-0.43945
-0.45654
-0.46875
-0.47974
-0.49438
-0.50415
-0.51758
-0.52734
-0.53833
-0.54443
-0.55664
-0.56519
-0.57129
-0.57861
-0.58716
-0.59326
-0.60303
-0.60913
-0.61768
-0.62622
-0.63354
-0.64331
-0.64697
-0.65063
-0.65674
-0.65796
-0.66284
-0.6665
-0.6665
-0.67017
-0.66528
-0.66772
-0.65796
-0.64697
-0.63477
-0.61401
-0.5896
-0.55664
-0.51636
-0.46997
-0.41016
-0.35278
-0.27954
-0.20386
-0.12573
-0.03906
0.04517
0.13428
0.22217
0.30762
0.39673
0.47607
0.54932
0.625
0.69092
0.75317
0.80566
0.85327
0.89233
0.92407
0.95093
0.96802
0.98022
0.98999
0.98633
0.98755
0.979
0.9668
0.94849
0.92041
0.89478
0.8606
0.82764
0.79468
0.75806
0.71777
0.67749
0.63721
0.59204
0.54443
0.50171
0.45166
0.40771
0.36377
0.32227
0.27466
0.23682
0.2002
0.16602
0.13184
0.1062
0.0769
0.05371
0.03296
0.01465
-0.00366
-0.01465
-0.02319
-0.03052
-0.03784
-0.04028
-0.04639
-0.04761
-0.04761
-0.05005
-0.04883
-0.05127
-0.05127
-0.04883
-0.05005
-0.04883
-0.05371
-0.05615
-0.05859
-0.06592
-0.07202
-0.08179
-0.09155
-0.10132
-0.11475
-0.12329
-0.1416
-0.15747
-0.17212
-0.19043
-0.20874
-0.22827
-0.24414
-0.26123
-0.27954
-0.29297
-0.31128
-0.32715
-0.3418
-0.36133
-0.37964
-0.39673
-0.41138
-0.42725
-0.44434
-0.45776
-0.47607
-0.49194
-0.50537
-0.52124
-0.53345
-0.5481
-0.55786
-0.56763
-0.57983
-0.58838
-0.60181
-0.61157
-0.6189
-0.62866
-0.62988
-0.64575
-0.65063
-0.65674
-0.66772
-0.67017
-0.67749
-0.68115
-0.68237
-0.68604
-0.68359
-0.69092
-0.68726
-0.68115
-0.67627
-0.66162
-0.64819
-0.62134
-0.58716
-0.54565
-0.4895
-0.43823
-0.36865
-0.29541
-0.21973
-0.13428
-0.05249
0.03784
0.12817
0.21851
0.3125
0.39673
0.4834
0.56396
0.63599
0.70801
0.7666
0.82031
0.87036
0.90942
0.94849
0.979
0.99365
1.0144
1.02051
1.02905
1.02661
1.02173
1.01563
1.00098
0.98511
0.96313
0.94116
0.9082
0.87646
0.84595
0.80811
0.76904
0.72998
0.68604
0.64331
0.59692
0.55054
0.50415
0.45532
0.4126
0.36743
0.32349
0.28442
0.2417
0.2063
0.1709
0.13794
0.10986
0.08301
0.06104
0.03784
0.01831
0.0061
-0.00732
-0.01221
-0.01831
-0.02319
-0.02197
-0.02686
-0.02441
-0.0293
-0.03174
-0.03174
-0.03784
-0.03784
-0.0415
-0.05127
-0.05371
-0.06226
-0.06836
-0.07935
-0.08911
-0.09888
-0.11353
-0.12573
-0.14404
-0.15747
-0.1709
-0.18799
-0.19897
-0.21606
-0.23193
-0.24414
-0.26123
-0.27344
-0.28931
-0.30518
-0.31738
-0.33447
-0.34668
-0.36499
-0.38208
-0.39551
-0.41626
-0.42969
-0.45166
-0.46265
-0.47607
-0.49194
-0.50293
-0.5188
-0.53223
-0.54321
-0.55542
-0.56274
-0.57495
-0.58105
-0.58716
-0.5957
-0.59937
-0.60791
-0.61401
-0.61646
-0.625
-0.6311
-0.63599
-0.64209
-0.64575
-0.65308
-0.65552
-0.66162
-0.66772
-0.66895
-0.67139
-0.67749
-0.67749
-0.67383
-0.66406
-0.6543
-0.63354
-0.61157
-0.57739
-0.53345
-0.48706
-0.4248
-0.35889
-0.28076
-0.19653
-0.10986
-0.01099
0.08545
0.18555
0.28687
0.38452
0.48706
0.58228
0.67383
0.7605
0.83618
0.90942
0.97046
1.02539
1.07422
1.10962
1.14502
1.16943
1.18896
1.20605
1.21338
1.22192
1.2207
1.21704
1.21216
1.19873
1.1792
1.16089
1.13647
1.11084
1.0791
1.04858
1.01196
0.97534
0.9375
0.89111
0.84961
0.802
0.75684
0.71045
0.66162
0.61768
0.56885
0.52368
0.48462
0.43457
0.39917
0.35889
0.32227
0.28687
0.25146
0.22339
0.19409
0.16479
0.14404
0.12207
0.10864
0.09399
0.08179
0.07324
0.06226
0.05859
0.05371
0.04883
0.04517
0.04028
0.03906
0.03296
0.02808
0.02319
0.01221
0.0061
-0.00732
-0.02319
-0.03418
-0.05249
-0.06592
-0.08301
-0.1001
-0.11475
-0.13428
-0.15015
-0.16968
-0.19287
-0.20874
-0.23071
-0.2478
-0.26855
-0.29053
-0.30762
-0.33081
-0.34546
-0.36865
-0.3833
-0.39795
-0.41626
-0.42969
-0.44678
-0.46265
-0.47485
-0.4895
-0.50049
-0.51514
-0.52612
-0.53467
-0.54932
-0.55908
-0.57129
-0.5835
-0.59082
-0.60059
-0.60791
-0.61279
-0.6189
-0.62256
-0.63232
-0.63599
-0.64209
-0.64941
-0.65308
-0.66406
-0.66406
-0.67139
-0.67749
-0.67871
-0.68604
-0.68726
-0.6897
-0.69214
-0.69336
-0.69458
-0.68604
-0.67993
-0.66895
-0.64941
-0.62988
-0.59937
-0.56396
-0.52246
-0.46753
-0.40894
-0.33813
-0.26367
-0.18066
-0.08911
0
0.1001
0.19531
0.29419
0.39429
0.4895
0.58228
0.66772
0.74707
0.82275
0.88623
0.94727
0.99854
1.0376
1.07544
1.10229
1.12427
1.1377
1.14502
1.1499
1.14624
1.14014
1.12915
1.10718
1.09619
1.07178
1.04858
1.01685
0.98389
0.95215
0.91064
0.87524
0.8313
0.78735
0.74585
0.69946
0.65674
0.61157
0.56396
0.52246
0.47729
0.43457
0.39307
0.35156
0.31372
0.27222
0.23682
0.20142
0.16724
0.13794
0.10376
0.08057
0.05981
0.03906
0.02563
0.00854
-0.00244
-0.01465
-0.02563
-0.02686
-0.04028
-0.04395
-0.04883
-0.05371
-0.05615
-0.06226
-0.06592
-0.07324
-0.07813
-0.09033
-0.10132
-0.11108
-0.12329
-0.1355
-0.14648
-0.16235
-0.17456
-0.18677
-0.20752
-0.21851
-0.23682
-0.25146
-0.26978
-0.28809
-0.30518
-0.32593
-0.33936
-0.36499
-0.3833
-0.39917
-0.42114
-0.43823
-0.45654
-0.47485
-0.49072
-0.50659
-0.52368
-0.53833
-0.5542
-0.56519
-0.58228
-0.59204
-0.60425
-0.61523
-0.62256
-0.63721
-0.64331
-0.65186
-0.66284
-0.6665
-0.67749
-0.68237
-0.6897
-0.69336
-0.7019
-0.70435
-0.70557
-0.70923
-0.71289
-0.71289
-0.72021
-0.72266
-0.72388
-0.73486
-0.7373
-0.74341
-0.74707
-0.75195
-0.75684
-0.75562
-0.76172
-0.75684
-0.76172
-0.75928
-0.75195
-0.74341
-0.72876
-0.70923
-0.68359
-0.64575
-0.60303
-0.55664
-0.49561
-0.42725
-0.34912
-0.26733
-0.17822
-0.08423
0.00977
0.10986
0.20264
0.30151
0.39795
0.48828
0.57739
0.65674
0.73242
0.80078
0.85938
0.91187
0.95459
0.99365
1.02661
1.04736
1.06445
1.073
1.07788
1.07666
1.06934
1.05591
1.04126
1.02295
0.99854
0.96924
0.93994
0.90454
0.87158
0.83374
0.78979
0.75684
0.71289
0.67139
0.62988
0.58472
0.54199
0.49438
0.45166
0.40283
0.35767
0.31738
0.271
0.23193
0.19531
0.15869
0.13062
0.1001
0.0769
0.05615
0.03662
0.02441
0.00854
-0.00244
-0.01099
-0.01953
-0.02319
-0.0293
-0.0293
-0.03174
-0.03418
-0.03296
-0.03906
-0.04272
-0.04517
-0.05493
-0.05249
-0.05859
-0.06348
-0.0708
-0.08057
-0.08545
-0.09766
-0.10376
-0.11963
-0.13306
-0.14648
-0.16357
-0.17944
-0.19653
-0.21484
-0.22827
-0.25146
-0.26855
-0.28564
-0.30518
-0.32104
-0.34058
-0.35767
-0.37476
-0.39429
-0.4126
-0.43091
-0.44678
-0.46265
-0.47852
-0.49194
-0.50781
-0.52124
-0.53345
-0.55176
-0.55908
-0.57251
-0.58105
-0.5896
-0.59937
-0.60547
-0.61401
-0.61401
-0.62622
-0.63232
-0.63354
-0.64331
-0.64941
-0.6543
-0.66406
-0.6665
-0.67505
-0.68115
-0.68481
-0.69092
-0.69092
-0.69702
-0.69824
-0.6958
-0.69458
-0.68604
-0.67505
-0.65918
-0.64087
-0.62012
-0.58716
-0.55298
-0.50537
-0.448
-0.39063
-0.31616
-0.23926
-0.15625
-0.06958
0.01587
0.10864
0.19531
0.28687
0.37231
0.45532
0.53711
0.61035
0.67627
0.7373
0.78857
0.83618
0.8728
0.90332
0.92651
0.94116
0.95337
0.95947
0.95947
0.95581
0.94238
0.92896
0.91064
0.88257
0.8606
0.82764
0.79834
0.76172
0.72388
0.68604
0.64087
0.59692
0.54932
0.50293
0.45532
0.40649
0.36011
0.3125
0.26489
0.22095
0.17212
0.1355
0.09521
0.06104
0.03052
0
-0.02319
-0.04639
-0.06714
-0.08179
-0.09644
-0.10376
-0.11597
-0.12085
-0.12573
-0.13184
-0.13306
-0.13916
-0.13672
-0.1355
-0.13794
-0.13672
-0.13916
-0.14038
-0.13916
-0.14648
-0.14648
-0.15137
-0.15503
-0.15991
-0.16968
-0.17578
-0.18799
-0.19897
-0.21362
-0.22461
-0.2356
-0.25146
-0.26733
-0.28198
-0.30151
-0.31738
-0.33936
-0.35645
-0.37109
-0.3894
-0.40527
-0.42358
-0.43823
-0.45532
-0.47485
-0.49194
-0.50781
-0.5249
-0.53955
-0.55786
-0.57007
-0.5835
-0.59692
-0.60913
-0.62256
-0.62988
-0.64331
-0.65063
-0.65674
-0.66895
-0.67505
-0.68481
-0.6958
-0.70068
-0.70923
-0.71289
-0.72266
-0.72998
-0.73486
-0.74219
-0.74463
-0.75195
-0.75439
-0.75195
-0.74951
-0.74219
-0.73364
-0.71655
-0.6897
-0.66528
-0.62134
-0.57373
-0.51514
-0.44678
-0.37476
-0.29175
-0.20752
-0.12207
-0.02075
0.07446
0.17212
0.26855
0.36499
0.45776
0.54321
0.62988
0.69824
0.76904
0.8313
0.88257
0.93018
0.96802
0.99976
1.02783
1.04248
1.05347
1.05957
1.06079
1.05835
1.04736
1.0376
1.01807
0.99487
0.97046
0.9375
0.91064
0.87402
0.83618
0.79956
0.75684
0.71777
0.67139
0.62134
0.57617
0.52368
0.47485
0.42236
0.37231
0.32471
0.2771
0.23315
0.19409
0.15747
0.12451
0.09155
0.06592
0.0354
0.01099
-0.00488
-0.03296
-0.04639
-0.06104
-0.07202
-0.07813
-0.08667
-0.09033
-0.09521
-0.10132
-0.09766
-0.1001
-0.1001
-0.10132
-0.10132
-0.10132
-0.1062
-0.10986
-0.11719
-0.12451
-0.13062
-0.14404
-0.15381
-0.16724
-0.17822
-0.19165
-0.2063
-0.21729
-0.23438
-0.24902
-0.26245
-0.28076
-0.29419
-0.31006
-0.33203
-0.34668
-0.36621
-0.3833
-0.40405
-0.42236
-0.43945
-0.46021
-0.47852
-0.49438
-0.50903
-0.52246
-0.53955
-0.55176
-0.56519
-0.57861
-0.59082
-0.59937
-0.60669
-0.61523
-0.62256
-0.62866
-0.63843
-0.64331
-0.65674
-0.66772
-0.67383
-0.68604
-0.69336
-0.70313
-0.71045
-0.71289
-0.72144
-0.72021
-0.72144
-0.71899
-0.71045
-0.70068
-0.67871
-0.65552
-0.6189
-0.57861
-0.52734
-0.46387
-0.39429
-0.31982
-0.23315
-0.14648
-0.04761
0.04639
0.14648
0.24902
0.34668
0.44678
0.53955
0.62744
0.71289
0.78247
0.85449
0.91309
0.96436
1.01196
1.04736
1.0791
1.09985
1.11572
1.12549
1.13037
1.13281
1.12671
1.11816
1.10718
1.08765
1.06934
1.04492
1.01196
0.98633
0.95093
0.91797
0.88257
0.84229
0.802
0.75806
0.71167
0.66528
0.61768
0.57251
0.52124
0.47485
0.42603
0.37964
0.33325
0.29175
0.25391
0.21484
0.17822
0.14771
0.11475
0.09155
0.06226
0.03906
0.02075
0.00122
-0.01221
-0.02808
-0.04028
-0.04761
-0.06348
-0.06836
-0.0769
-0.08423
-0.08545
-0.09155
-0.09399
-0.09644
-0.1062
-0.10742
-0.11719
-0.12207
-0.13062
-0.14038
-0.15015
-0.16235
-0.17822
-0.19409
-0.20996
-0.22461
-0.24536
-0.26123
-0.28076
-0.29907
-0.32104
-0.34058
-0.35645
-0.37476
-0.39307
-0.40771
-0.42725
-0.43945
-0.46143
-0.47729
-0.49194
-0.50903
-0.52246
-0.53833
-0.5542
-0.56152
-0.5835
-0.59448
-0.60791
-0.62012
-0.6311
-0.64453
-0.65552
-0.6604
-0.67505
-0.67871
-0.6897
-0.69458
-0.69946
-0.70557
-0.70923
-0.71167
-0.72021
-0.7251
-0.72998
-0.73364
-0.74219
-0.74707
-0.75439
-0.75806
-0.76538
-0.76904
-0.77026
-0.77148
-0.77148
-0.76294
-0.75806
-0.73975
-0.72266
-0.69458
-0.6543
-0.60913
-0.55298
-0.48828
-0.41626
-0.33081
-0.25146
-0.15869
-0.06226
0.03662
0.13916
0.23804
0.33936
0.43457
0.5249
0.61646
0.69336
0.77026
0.84106
0.90576
0.96558
1.01685
1.05713
1.09375
1.11694
1.13403
1.13647
1.1377
1.13281
1.12183
1.11328
1.09131
1.07666
1.05469
1.02783
1.0022
0.9668
0.93384
0.9021
0.85938
0.82275
0.77881
0.73975
0.6958
0.65063
0.60669
0.55664
0.51025
0.46265
0.41626
0.37354
0.32837
0.28931
0.25024
0.21118
0.18066
0.14526
0.11963
0.09521
0.06958
0.05005
0.02808
0.0061
-0.00854
-0.02686
-0.03906
-0.05371
-0.06348
-0.06958
-0.07446
-0.07935
-0.08057
-0.08179
-0.08423
-0.08789
-0.08911
-0.09766
-0.1001
-0.10742
-0.11475
-0.12085
-0.13062
-0.13794
-0.14893
-0.16235
-0.17334
-0.19165
-0.20874
-0.22461
-0.24536
-0.26123
-0.28198
-0.29907
-0.32349
-0.33936
-0.354
-0.37598
-0.39429
-0.4126
-0.43335
-0.448
-0.47119
-0.48584
-0.50293
-0.5188
-0.53101
-0.54932
-0.56152
-0.57373
-0.58716
-0.5957
-0.60669
-0.61523
-0.62256
-0.63232
-0.63599
-0.64697
-0.65186
-0.65796
-0.66406
-0.66895
-0.67749
-0.68481
-0.69092
-0.70557
-0.70557
-0.71533
-0.72021
-0.7251
-0.72998
-0.7312
-0.73242
-0.73486
-0.73242
-0.73242
-0.72632
-0.72266
-0.71167
-0.6958
-0.67383
-0.64575
-0.60791
-0.55908
-0.50293
-0.44067
-0.36621
-0.29175
-0.20996
-0.11963
-0.0293
0.06714
0.15991
0.25391
0.3479
0.43701
0.52124
0.60059
0.67627
0.74463
0.80322
0.85938
0.90454
0.94482
0.97534
0.99731
1.01807
1.02539
1.02905
1.02783
1.02051
1.01318
0.99731
0.97656
0.95459
0.92407
0.89478
0.85693
0.82275
0.78613
0.74707
0.70313
0.65796
0.61401
0.57129
0.52246
0.47729
0.4248
0.37598
0.32959
0.28076
0.23926
0.19531
0.15869
0.12695
0.09766
0.07568
0.05493
0.0354
0.01709
-0.00732
-0.02563
-0.04639
-0.06592
-0.07568
-0.08667
-0.08545
-0.09033
-0.09155
-0.08911
-0.09277
-0.09644
-0.09888
-0.10132
-0.10132
-0.10498
-0.10498
-0.10986
-0.10986
-0.11353
-0.11841
-0.12085
-0.12817
-0.13306
-0.14038
-0.15015
-0.16235
-0.17456
-0.18921
-0.20386
-0.22339
-0.24048
-0.26123
-0.2771
-0.30151
-0.32227
-0.33813
-0.35645
-0.37354
-0.38818
-0.40649
-0.42358
-0.43701
-0.45288
-0.46387
-0.47974
-0.4895
-0.50537
-0.51514
-0.53101
-0.54565
-0.55542
-0.56763
-0.57617
-0.5835
-0.59326
-0.59937
-0.60669
-0.61279
-0.61646
-0.62378
-0.62866
-0.63721
-0.64209
-0.64941
-0.65674
-0.6604
-0.66895
-0.67383
-0.67627
-0.68115
-0.68359
-0.68726
-0.68726
-0.68604
-0.68726
-0.68237
-0.68115
-0.67017
-0.65796
-0.63843
-0.60669
-0.57129
-0.5249
-0.46753
-0.40405
-0.33569
-0.25635
-0.17334
-0.08179
0.00732
0.09888
0.18921
0.28076
0.37354
0.46143
0.54932
0.62256
0.69336
0.75684
0.80933
0.85571
0.896
0.92896
0.95703
0.9729
0.98999
0.99365
0.99609
0.99731
0.98389
0.97412
0.95703
0.93628
0.91309
0.88135
0.85205
0.81299
0.77515
0.7373
0.69214
0.65063
0.60181
0.5542
0.50659
0.45288
0.40771
0.35645
0.30762
0.26489
0.21851
0.18188
0.1416
0.10742
0.07813
0.04639
0.02197
-0.00366
-0.02441
-0.03784
-0.05737
-0.06348
-0.07324
-0.07935
-0.08179
-0.08667
-0.08423
-0.08911
-0.08667
-0.08179
-0.08179
-0.07813
-0.07813
-0.07813
-0.07202
-0.08179
-0.08057
-0.08789
-0.09521
-0.09888
-0.10986
-0.11597
-0.13184
-0.13916
-0.14771
-0.16113
-0.16968
-0.18311
-0.19775
-0.2124
-0.22949
-0.24414
-0.26367
-0.28198
-0.30029
-0.32104
-0.33447
-0.35522
-0.36865
-0.37842
-0.39429
-0.40405
-0.4187
-0.43335
-0.448
-0.46631
-0.47852
-0.49561
-0.51147
-0.52368
-0.53955
-0.54688
-0.56519
-0.57739
-0.58594
-0.59937
-0.60547
-0.61646
-0.62378
-0.63354
-0.64087
-0.64453
-0.64941
-0.6543
-0.65674
-0.66406
-0.66772
-0.67627
-0.67993
-0.68237
-0.68726
-0.68359
-0.67871
-0.66284
-0.64819
-0.62256
-0.58472
-0.54443
-0.49438
-0.43213
-0.36743
-0.29175
-0.2124
-0.12939
-0.0415
0.04395
0.13428
0.22217
0.30518
0.39795
0.47852
0.5603
0.6311
0.69702
0.75806
0.80688
0.85083
0.89111
0.92163
0.94971
0.9668
0.98267
0.98999
0.99243
0.99121
0.98389
0.97412
0.95581
0.9314
0.90698
0.8728
0.83984
0.80566
0.7666
0.72876
0.68237
0.63843
0.5896
0.54321
0.49316
0.44189
0.39551
0.3479
0.29907
0.25879
0.21606
0.177
0.14282
0.10864
0.08179
0.05127
0.0293
0.00732
-0.01465
-0.02686
-0.0415
-0.05249
-0.0647
-0.07446
-0.07935
-0.09155
-0.09033
-0.09521
-0.09888
-0.09766
-0.10254
-0.10376
-0.10986
-0.11475
-0.11719
-0.12573
-0.12939
-0.1355
-0.14282
-0.14648
-0.15869
-0.16479
-0.17456
-0.18555
-0.19531
-0.21118
-0.21973
-0.23804
-0.25146
-0.26367
-0.28198
-0.29785
-0.31494
-0.33081
-0.3479
-0.36255
-0.3772
-0.39429
-0.41138
-0.4248
-0.44312
-0.46143
-0.47729
-0.49316
-0.50537
-0.52124
-0.53101
-0.54077
-0.55664
-0.56152
-0.57495
-0.58472
-0.59692
-0.60669
-0.61157
-0.62256
-0.62256
-0.62744
-0.6311
-0.63232
-0.64087
-0.64697
-0.65796
-0.6665
-0.67139
-0.68115
-0.68726
-0.69092
-0.69336
-0.68848
-0.69092
-0.68115
-0.67261
-0.66162
-0.63843
-0.61523
-0.57373
-0.53223
-0.47974
-0.4126
-0.34058
-0.25879
-0.17212
-0.07935
0.01831
0.11475
0.21606
0.31616
0.41504
0.5127
0.60181
0.68481
0.76538
0.83618
0.90454
0.96191
1.01563
1.06079
1.09863
1.12671
1.14746
1.16455
1.17432
1.17676
1.17798
1.16943
1.15845
1.1438
1.12305
1.10107
1.07178
1.0437
1.01196
0.9729
0.94238
0.89966
0.85815
0.81299
0.76416
0.71655
0.66406
0.61523
0.56641
0.51758
0.47363
0.42358
0.38208
0.33936
0.30151
0.26733
0.23193
0.2002
0.16968
0.13794
0.11108
0.08423
0.06592
0.04639
0.03052
0.02197
0.01343
0.00854
0.00732
0.00366
0.0061
0
-0.00244
-0.00488
-0.01221
-0.01465
-0.02197
-0.02563
-0.03296
-0.0415
-0.04517
-0.05859
-0.06592
-0.0769
-0.09155
-0.10376
-0.12085
-0.13428
-0.15137
-0.16968
-0.18188
-0.2002
-0.21362
-0.22949
-0.24658
-0.26367
-0.27954
-0.29541
-0.31372
-0.33447
-0.34912
-0.36865
-0.38818
-0.40039
-0.41748
-0.43335
-0.45044
-0.46631
-0.48218
-0.50537
-0.51392
-0.53101
-0.54199
-0.55298
-0.56396
-0.56885
-0.58105
-0.5835
-0.58838
-0.5957
-0.59937
-0.61035
-0.61768
-0.6311
-0.63965
-0.64453
-0.65186
-0.65552
-0.65796
-0.66162
-0.66284
-0.6665
-0.6665
-0.66772
-0.66772
-0.66162
-0.65552
-0.64697
-0.62866
-0.60425
-0.56641
-0.52612
-0.47119
-0.40405
-0.33813
-0.25635
-0.17212
-0.08057
0.01465
0.10986
0.20752
0.29907
0.39795
0.49316
0.58105
0.66895
0.74707
0.82153
0.88623
0.94482
1.0022
1.0437
1.08154
1.1145
1.13647
1.15356
1.16333
1.16577
1.16455
1.15356
1.1438
1.12183
1.09863
1.06934
1.04004
1.0083
0.97412
0.93872
0.90332
0.8667
0.8252
0.78125
0.73853
0.6958
0.64819
0.60303
0.55298
0.50781
0.46265
0.41626
0.3772
0.33447
0.29419
0.25635
0.21973
0.18677
0.15625
0.12939
0.10742
0.08545
0.06592
0.05127
0.03784
0.02808
0.01587
0.00854
0
-0.01099
-0.01343
-0.02319
-0.02563
-0.03296
-0.03784
-0.03906
-0.04761
-0.05005
-0.05493
-0.06226
-0.06836
-0.07935
-0.08423
-0.09766
-0.10742
-0.11597
-0.12817
-0.13916
-0.15259
-0.16846
-0.18066
-0.19897
-0.2124
-0.23315
-0.25024
-0.26611
-0.28931
-0.29907
-0.31738
-0.33203
-0.34912
-0.36987
-0.38696
-0.41138
-0.43091
-0.44922
-0.46997
-0.48462
-0.50049
-0.51025
-0.52734
-0.54077
-0.5481
-0.56152
-0.57129
-0.57861
-0.59082
-0.59326
-0.60059
-0.60303
-0.60791
-0.61401
-0.61523
-0.62744
-0.6311
-0.63477
-0.64209
-0.64453
-0.64941
-0.65186
-0.65674
-0.6604
-0.6604
-0.66772
-0.67261
-0.67627
-0.68115
-0.6897
-0.6958
-0.7019
-0.70313
-0.70923
-0.70923
-0.71289
-0.71289
-0.70679
-0.70068
-0.68726
-0.67017
-0.64209
-0.61035
-0.56763
-0.5127
-0.45532
-0.38818
-0.30884
-0.22705
-0.14038
-0.05005
0.04639
0.14648
0.24292
0.3479
0.43945
0.53467
0.62622
0.70679
0.78491
0.85083
0.91064
0.9668
1.00342
1.0437
1.07056
1.09375
1.11328
1.12061
1.13037
1.12305
1.12061
1.11084
1.09375
1.07666
1.04858
1.02173
0.98877
0.95947
0.93018
0.89478
0.85815
0.82153
0.77881
0.73853
0.6958
0.65063
0.60791
0.55908
0.51392
0.46143
0.41748
0.37354
0.32837
0.29053
0.25024
0.21362
0.17944
0.14893
0.12451
0.1001
0.08057
0.06714
0.05493
0.04517
0.03662
0.03174
0.02808
0.02319
0.02441
0.02197
0.02197
0.02441
0.02197
0.02441
0.01953
0.01709
0.01221
0.00732
0.00366
-0.00366
-0.01343
-0.02075
-0.0354
-0.04639
-0.06104
-0.07568
-0.09033
-0.11108
-0.12939
-0.15381
-0.17212
-0.19043
-0.20996
-0.22339
-0.2417
-0.25269
-0.26978
-0.28198
-0.29175
-0.30762
-0.32349
-0.33691
-0.35278
-0.36865
-0.38696
-0.40283
-0.41626
-0.43213
-0.44312
-0.45776
-0.47119
-0.48096
-0.49438
-0.50415
-0.51758
-0.52856
-0.54077
-0.55298
-0.55908
-0.56885
-0.57617
-0.57983
-0.58716
-0.59692
-0.60547
-0.61157
-0.61401
-0.62256
-0.62256
-0.62866
-0.6311
-0.6311
-0.63599
-0.63599
-0.64087
-0.64819
-0.65186
-0.65796
-0.65796
-0.6604
-0.65796
-0.64941
-0.64209
-0.625
-0.60547
-0.57861
-0.53833
-0.49561
-0.43701
-0.37842
-0.3064
-0.22827
-0.14893
-0.06226
0.02441
0.11108
0.20508
0.29541
0.3894
0.47852
0.5603
0.63965
0.70557
0.77026
0.82397
0.87158
0.91431
0.94604
0.97534
0.99487
1.0083
1.02173
1.02417
1.02539
1.01685
1.00464
0.99609
0.9668
0.94482
0.91553
0.88501
0.85327
0.81421
0.77515
0.73242
0.68848
0.64575
0.59692
0.55176
0.50293
0.45288
0.40649
0.35645
0.31006
0.26489
0.22095
0.18311
0.14404
0.11353
0.08545
0.05981
0.04028
0.01831
0.00244
-0.01099
-0.02319
-0.03052
-0.0415
-0.04517
-0.04883
-0.05249
-0.05127
-0.05371
-0.05249
-0.05371
-0.05859
-0.05859
-0.0647
-0.06714
-0.0708
-0.07568
-0.07813
-0.08545
-0.09033
-0.09766
-0.1062
-0.1123
-0.12695
-0.1355
-0.14893
-0.15869
-0.16479
-0.17578
-0.18188
-0.18921
-0.20386
-0.20752
-0.22217
-0.23315
-0.2478
-0.26489
-0.27832
-0.30396
-0.32227
-0.3418
-0.36011
-0.3772
-0.39673
-0.41748
-0.43091
-0.44922
-0.46143
-0.47729
-0.48828
-0.49561
-0.51147
-0.51636
-0.52734
-0.53467
-0.54321
-0.55054
-0.55664
-0.55786
-0.55908
-0.5603
-0.56519
-0.56763
-0.57617
-0.5896
-0.59937
-0.60913
-0.61279
-0.6189
-0.62012
-0.62744
-0.62988
-0.63232
-0.64331
-0.65063
-0.65918
-0.66772
-0.67749
-0.68604
-0.68848
-0.69092
-0.69214
-0.68726
-0.69092
-0.68237
-0.67505
-0.66772
-0.65186
-0.63721
-0.61401
-0.5835
-0.54688
-0.49805
-0.448
-0.38818
-0.3186
-0.25024
-0.16968
-0.08789
0.00122
0.09155
0.18188
0.27588
0.36743
0.46387
0.55298
0.63477
0.71411
0.78247
0.84229
0.89966
0.94482
0.98755
1.01807
1.04614
1.06689
1.07544
1.08643
1.08887
1.08887
1.08276
1.07056
1.05835
1.03516
1.01196
0.98267
0.94482
0.90698
0.86548
0.81787
0.77637
0.72754
0.68237
0.6311
0.5835
0.53955
0.4895
0.44556
0.40161
0.35889
0.31982
0.28076
0.24658
0.21118
0.18188
0.15381
0.12817
0.10864
0.08789
0.07202
0.05859
0.04883
0.04272
0.03418
0.03174
0.02441
0.02075
0.01953
0.01831
0.01953
0.02563
0.02686
0.03906
0.04028
0.0415
0.0415
0.0354
0.02686
0.01831
0.01099
0.00122
-0.00854
-0.01221
-0.02197
-0.03052
-0.0354
-0.04639
-0.05493
-0.06836
-0.08179
-0.1001
-0.1123
-0.12451
-0.14282
-0.15869
-0.17212
-0.19287
-0.20264
-0.21851
-0.23071
-0.24292
-0.25879
-0.26855
-0.28809
-0.30029
-0.3125
-0.32959
-0.34058
-0.35522
-0.37231
-0.37964
-0.39307
-0.40039
-0.41382
-0.4248
-0.43579
-0.448
-0.4541
-0.46265
-0.46753
-0.47363
-0.48218
-0.48462
-0.49316
-0.50049
-0.50781
-0.5188
-0.5249
-0.53833
-0.54077
-0.54443
-0.55054
-0.54688
-0.5481
-0.54565
-0.53467
-0.5249
-0.50415
-0.48096
-0.44678
-0.40405
-0.36011
-0.30151
-0.24292
-0.177
-0.10498
-0.03296
0.04517
0.12451
0.20874
0.29419
0.3772
0.46143
0.53467
0.61035
0.67993
0.74097
0.80078
0.85083
0.89478
0.93018
0.95947
0.98389
0.99487
1.00342
1.00586
1.0022
0.99243
0.98145
0.9668
0.94849
0.92285
0.89722
0.86182
0.82886
0.7959
0.75439
0.71655
0.67383
0.62988
0.58228
0.53467
0.4895
0.44067
0.39429
0.35278
0.30273
0.26611
0.22583
0.18921
0.15625
0.12329
0.09399
0.06958
0.04761
0.03052
0.01221
0.00244
-0.00977
-0.01587
-0.01831
-0.02319
-0.01953
-0.01953
-0.01343
-0.01099
-0.00854
0
0.00122
0.00732
0.01099
0.00977
0.01221
0.00732
0.00244
0
-0.00977
-0.01831
-0.02563
-0.03418
-0.04517
-0.05859
-0.06714
-0.08301
-0.09644
-0.10864
-0.12573
-0.13794
-0.15381
-0.16968
-0.18188
-0.19775
-0.20752
-0.22217
-0.23682
-0.24658
-0.26733
-0.2771
-0.29297
-0.3064
-0.3186
-0.33325
-0.34546
-0.36011
-0.37109
-0.37964
-0.39429
-0.40405
-0.42114
-0.43213
-0.44189
-0.45776
-0.46753
-0.48096
-0.49561
-0.50171
-0.5127
-0.51636
-0.52368
-0.52734
-0.53101
-0.53467
-0.53345
-0.53589
-0.53589
-0.53101
-0.52368
-0.5127
-0.49683
-0.47119
-0.43701
-0.39917
-0.34546
-0.29175
-0.22705
-0.15137
-0.07568
0.00854
0.09399
0.17944
0.26978
0.35767
0.45166
0.53711
0.62134
0.69946
0.77515
0.84595
0.90576
0.96069
1.0083
1.04614
1.0791
1.10229
1.12061
1.13525
1.13892
1.14136
1.13403
1.12549
1.11084
1.08765
1.06689
1.03516
1.00464
0.97046
0.93262
0.89722
0.85449
0.81177
0.76782
0.71777
0.67139
0.62012
0.57007
0.52368
0.47241
0.42603
0.38208
0.33813
0.29907
0.25879
0.22705
0.19043
0.16357
0.14282
0.11963
0.10376
0.08667
0.0708
0.0647
0.05493
0.05127
0.04517
0.0415
0.03784
0.03784
0.03906
0.03784
0.03662
0.03906
0.03296
0.0354
0.03052
0.02563
0.02441
0.01587
0.01099
0.00244
-0.0061
-0.01343
-0.02563
-0.03418
-0.05005
-0.06348
-0.07324
-0.09033
-0.10254
-0.11719
-0.13306
-0.14648
-0.16235
-0.17456
-0.19043
-0.20752
-0.21851
-0.24292
-0.25757
-0.27588
-0.29419
-0.30884
-0.32593
-0.34424
-0.36011
-0.37598
-0.38574
-0.40283
-0.4126
-0.42603
-0.43701
-0.44312
-0.45532
-0.46265
-0.47119
-0.4834
-0.4895
-0.50171
-0.50903
-0.52002
-0.52979
-0.53711
-0.54565
-0.54565
-0.5481
-0.54688
-0.53711
-0.53345
-0.51392
-0.49072
-0.46021
-0.41992
-0.37476
-0.31738
-0.25146
-0.18066
-0.09644
-0.01343
0.08057
0.17334
0.271
0.37231
0.46997
0.56641
0.65796
0.74097
0.82764
0.89966
0.96924
1.02905
1.08276
1.12915
1.16455
1.19629
1.21826
1.23291
1.2439
1.24512
1.24146
1.23657
1.22437
1.21338
1.19263
1.1731
1.14624
1.11572
1.08643
1.05103
1.01685
0.979
0.93872
0.89966
0.85449
0.80933
0.76294
0.71289
0.66528
0.61401
0.56885
0.52124
0.47485
0.43579
0.39063
0.35889
0.32471
0.28931
0.26367
0.23315
0.2063
0.18677
0.16602
0.15137
0.13428
0.12695
0.11475
0.10864
0.10742
0.10132
0.10132
0.1001
0.09644
0.09888
0.09644
0.09644
0.09277
0.08911
0.08423
0.0769
0.0708
0.06226
0.05249
0.04517
0.0293
0.01953
0.0061
-0.01099
-0.02441
-0.04639
-0.0647
-0.08301
-0.10132
-0.11841
-0.13794
-0.15625
-0.177
-0.19653
-0.2124
-0.23315
-0.24902
-0.26367
-0.28564
-0.30029
-0.31982
-0.33447
-0.34912
-0.36011
-0.3772
-0.39429
-0.40649
-0.4187
-0.43091
-0.43945
-0.4541
-0.46143
-0.47119
-0.48218
-0.48706
-0.50049
-0.50537
-0.5127
-0.52124
-0.52856
-0.53833
-0.54932
-0.55664
-0.56641
-0.57129
-0.58105
-0.58594
-0.58838
-0.59326
-0.5896
-0.58594
-0.57495
-0.55908
-0.54199
-0.50537
-0.46997
-0.41992
-0.36255
-0.29663
-0.22339
-0.14038
-0.05127
0.0415
0.1355
0.23804
0.33325
0.43701
0.53833
0.63477
0.72754
0.81177
0.88623
0.95947
1.02173
1.08032
1.12549
1.16699
1.19751
1.2207
1.23901
1.24878
1.2561
1.25488
1.24634
1.23657
1.21704
1.19873
1.17676
1.14746
1.11938
1.08521
1.05469
1.02051
0.98267
0.94604
0.9021
0.85693
0.81299
0.76294
0.71655
0.6665
0.6189
0.56885
0.5188
0.47485
0.42603
0.38208
0.33936
0.29907
0.26489
0.23071
0.20142
0.17578
0.14526
0.13306
0.1123
0.09766
0.08789
0.07568
0.06592
0.05859
0.05493
0.04883
0.04272
0.0415
0.03296
0.03174
0.0293
0.02319
0.01953
0.01587
0.0061
-0.00122
-0.01343
-0.02075
-0.03784
-0.05249
-0.06592
-0.08301
-0.09766
-0.11597
-0.13428
-0.15137
-0.17334
-0.18799
-0.20996
-0.22827
-0.24536
-0.26733
-0.28076
-0.29785
-0.31616
-0.33325
-0.354
-0.37109
-0.39185
-0.40894
-0.42603
-0.44678
-0.45654
-0.47974
-0.49438
-0.50903
-0.5249
-0.53467
-0.55176
-0.56274
-0.57251
-0.58594
-0.59326
-0.60425
-0.61646
-0.6189
-0.62744
-0.62866
-0.63721
-0.64087
-0.64575
-0.65063
-0.65186
-0.65918
-0.66284
-0.6665
-0.67383
-0.67749
-0.68604
-0.69092
-0.69336
-0.70313
-0.70313
-0.70801
-0.71045
-0.71167
-0.71533
-0.71167
-0.70923
-0.70068
-0.68604
-0.6665
-0.63477
-0.60181
-0.55298
-0.49561
-0.43335
-0.35889
-0.28198
-0.19775
-0.10376
-0.00977
0.09277
0.19165
0.29175
0.39307
0.48706
0.58105
0.66162
0.73853
0.81421
0.86914
0.92529
0.97046
1.00952
1.04126
1.06323
1.08154
1.09009
1.09375
1.09253
1.08398
1.07422
1.05591
1.0376
1.01807
0.98877
0.96191
0.92529
0.88989
0.85693
0.81665
0.77881
0.73608
0.69458
0.64697
0.60059
0.55664
0.50781
0.45776
0.41382
0.36499
0.32104
0.27588
0.2356
0.19775
0.15625
0.12695
0.09399
0.06836
0.04517
0.02197
0.00244
-0.01587
-0.0293
-0.03906
-0.05005
-0.05493
-0.06226
-0.06714
-0.06958
-0.07568
-0.0769
-0.08423
-0.08545
-0.08545
-0.09155
-0.09521
-0.10376
-0.11108
-0.11719
-0.12817
-0.13672
-0.15015
-0.16479
-0.17456
-0.19043
-0.20264
-0.22217
-0.23804
-0.25635
-0.27344
-0.28809
-0.31006
-0.32959
-0.34546
-0.36743
-0.3833
-0.40405
-0.42236
-0.43945
-0.46265
-0.47729
-0.49683
-0.51147
-0.52734
-0.54443
-0.56152
-0.57251
-0.58594
-0.5957
-0.60913
-0.61768
-0.63232
-0.64209
-0.64941
-0.6604
-0.66528
-0.67505
-0.68237
-0.68726
-0.6958
-0.69946
-0.70679
-0.71777
-0.71655
-0.72144
-0.72266
-0.72754
-0.7312
-0.73486
-0.73853
-0.73853
-0.74097
-0.74463
-0.74219
-0.75317
-0.75439
-0.76172
-0.7666
-0.76904
-0.77759
-0.78003
-0.78491
-0.78857
-0.78857
-0.78979
-0.78735
-0.78003
-0.76904
-0.75195
-0.73364
-0.7019
-0.66895
-0.62378
-0.57007
-0.51147
-0.44067
-0.36987
-0.28687
-0.19775
-0.10986
-0.01221
0.08179
0.17456
0.271
0.36255
0.45044
0.53223
0.60669
0.67627
0.73853
0.79834
0.84595
0.88501
0.91797
0.93262
0.95459
0.96191
0.96313
0.96191
0.95337
0.93994
0.92896
0.91187
0.89355
0.8667
0.84229
0.80566
0.77393
0.7373
0.69458
0.65308
0.61035
0.56274
0.51758
0.46753
0.42236
0.37231
0.32227
0.2771
0.22705
0.18555
0.14282
0.10376
0.06958
0.0354
0.00977
-0.01831
-0.0415
-0.05615
-0.07813
-0.09155
-0.10498
-0.11475
-0.12085
-0.1355
-0.13428
-0.13916
-0.14282
-0.1416
-0.14404
-0.14282
-0.14282
-0.14282
-0.14038
-0.14526
-0.14648
-0.15137
-0.15747
-0.15991
-0.1709
-0.17578
-0.18921
-0.19775
-0.20752
-0.22217
-0.23438
-0.24658
-0.26611
-0.2771
-0.29297
-0.30762
-0.32471
-0.34546
-0.35522
-0.37354
-0.38696
-0.40527
-0.4248
-0.44189
-0.46265
-0.47974
-0.49805
-0.51392
-0.5249
-0.53955
-0.5481
-0.55908
-0.57129
-0.57861
-0.59448
-0.60059
-0.61035
-0.62012
-0.62744
-0.63965
-0.64575
-0.65552
-0.66284
-0.6665
-0.67261
-0.67871
-0.67993
-0.68359
-0.68481
-0.6897
-0.68726
-0.69458
-0.69946
-0.70068
-0.71045
-0.71411
-0.72388
-0.72876
-0.72998
-0.7373
-0.73975
-0.74341
-0.74707
-0.74585
-0.74707
-0.74097
-0.73486
-0.72754
-0.71289
-0.69702
-0.67505
-0.64819
-0.61401
-0.57129
-0.5249
-0.46631
-0.40161
-0.33203
-0.25146
-0.1709
-0.08545
0.00244
0.08911
0.18188
0.26489
0.354
0.43579
0.5127
0.5835
0.64941
0.70068
0.74951
0.78857
0.82397
0.84717
0.87036
0.87646
0.88257
0.88379
0.87769
0.87036
0.85693
0.8374
0.82031
0.79102
0.7605
0.72876
0.68481
0.65308
0.61035
0.56885
0.52612
0.48218
0.43701
0.38818
0.34302
0.29663
0.25024
0.20508
0.16602
0.12451
0.08423
0.04272
0.01099
-0.03174
-0.06226
-0.09033
-0.11475
-0.13306
-0.15503
-0.16357
-0.1709
-0.18066
-0.18188
-0.18433
-0.18799
-0.18433
-0.18311
-0.17822
-0.17578
-0.17822
-0.1709
-0.16968
-0.16479
-0.16724
-0.16357
-0.16968
-0.17212
-0.17334
-0.17822
-0.18311
-0.19409
-0.20264
-0.20874
-0.22339
-0.2356
-0.2478
-0.26367
-0.27588
-0.29053
-0.30273
-0.31738
-0.33447
-0.34424
-0.36377
-0.37842
-0.39307
-0.41138
-0.42358
-0.43823
-0.45044
-0.46265
-0.47852
-0.4895
-0.50415
-0.51514
-0.52734
-0.54077
-0.54932
-0.56396
-0.57495
-0.58228
-0.59326
-0.59692
-0.60913
-0.61279
-0.61646
-0.62256
-0.62744
-0.6311
-0.64209
-0.64941
-0.65918
-0.66406
-0.67383
-0.68604
-0.68726
-0.69458
-0.69702
-0.7019
-0.69946
-0.70435
-0.70435
-0.69946
-0.69946
-0.69458
-0.68848
-0.67505
-0.65674
-0.63477
-0.60303
-0.55908
-0.52002
-0.46143
-0.40161
-0.33325
-0.25635
-0.18188
-0.09521
-0.00977
0.07935
0.16968
0.25513
0.34546
0.42725
0.50781
0.5835
0.64941
0.70923
0.76538
0.81299
0.85327
0.88379
0.91064
0.92285
0.93506
0.9436
0.94238
0.93994
0.92896
0.91553
0.90088
0.87646
0.85449
0.82275
0.78735
0.75439
0.71411
0.67871
0.63721
0.59448
0.55176
0.50537
0.46265
0.41382
0.36865
0.32227
0.27954
0.23804
0.19287
0.15259
0.11597
0.07324
0.04272
0.00977
-0.01709
-0.0354
-0.05737
-0.0647
-0.07568
-0.08179
-0.08545
-0.09033
-0.09033
-0.09277
-0.09155
-0.08911
-0.09033
-0.08911
-0.08911
-0.08789
-0.08545
-0.08789
-0.08545
-0.08789
-0.08789
-0.08911
-0.09644
-0.1001
-0.11108
-0.11963
-0.12939
-0.14404
-0.15503
-0.177
-0.18921
-0.20264
-0.22217
-0.23804
-0.25269
-0.27466
-0.29053
-0.30884
-0.32104
-0.33813
-0.354
-0.36377
-0.37842
-0.38818
-0.40039
-0.41382
-0.4248
-0.44067
-0.45044
-0.46509
-0.47729
-0.48828
-0.50049
-0.50903
-0.52124
-0.53101
-0.54443
-0.5542
-0.56396
-0.57617
-0.58472
-0.5896
-0.60059
-0.60181
-0.61035
-0.61157
-0.61401
-0.62378
-0.62378
-0.62988
-0.63477
-0.63599
-0.63965
-0.63843
-0.63721
-0.62988
-0.61768
-0.60303
-0.57983
-0.55298
-0.51758
-0.47241
-0.4248
-0.36499
-0.29907
-0.22705
-0.14893
-0.0708
0.02075
0.10376
0.19531
0.29175
0.3833
0.47974
0.56641
0.65674
0.74341
0.81909
0.89111
0.95215
1.0022
1.0498
1.08398
1.11572
1.13525
1.15112
1.15967
1.16089
1.16333
1.15723
1.14746
1.13525
1.11572
1.09497
1.06567
1.03271
1.00098
0.96069
0.92529
0.88379
0.84229
0.80444
0.75439
0.71533
0.66895
0.62378
0.57983
0.52979
0.4895
0.44189
0.39917
0.36133
0.3186
0.28076
0.24536
0.21118
0.18433
0.15503
0.13062
0.11108
0.09033
0.07446
0.05615
0.0415
0.03296
0.02441
0.01953
0.01465
0.01343
0.00854
0.0061
0.00732
0.00244
0.00366
-0.00366
-0.00366
-0.00366
-0.00977
-0.01465
-0.02686
-0.0354
-0.04272
-0.05737
-0.06592
-0.08179
-0.09888
-0.11108
-0.12939
-0.14404
-0.16235
-0.18311
-0.19409
-0.2124
-0.22461
-0.24048
-0.25879
-0.26978
-0.28687
-0.30029
-0.3186
-0.33691
-0.35156
-0.37109
-0.38696
-0.40283
-0.4187
-0.43335
-0.44678
-0.45898
-0.47485
-0.48828
-0.49927
-0.51514
-0.52368
-0.53223
-0.53955
-0.54077
-0.55054
-0.55298
-0.55908
-0.56519
-0.56763
-0.57739
-0.57861
-0.58105
-0.58594
-0.5896
-0.59692
-0.59937
-0.60669
-0.61279
-0.61768
-0.62622
-0.63354
-0.63965
-0.64453
-0.64453
-0.64575
-0.64209
-0.63721
-0.62378
-0.60303
-0.58105
-0.55176
-0.50781
-0.45776
-0.39551
-0.33081
-0.25391
-0.16968
-0.08057
0.01831
0.11353
0.22095
0.31982
0.42236
0.52612
0.62256
0.71655
0.79712
0.87891
0.95459
1.0144
1.07178
1.12305
1.16211
1.19995
1.22437
1.24634
1.25732
1.25854
1.26343
1.2561
1.24756
1.23291
1.21582
1.19385
1.16821
1.14136
1.1084
1.073
1.04126
1.0022
0.96924
0.92896
0.88623
0.84717
0.79468
0.74707
0.69458
0.64087
0.59326
0.53955
0.49438
0.44922
0.40771
0.37109
0.33081
0.30518
0.27344
0.24536
0.22217
0.19287
0.17334
0.15625
0.13794
0.12695
0.11719
0.1062
0.1001
0.09155
0.09033
0.08423
0.07935
0.07568
0.06958
0.06714
0.06104
0.05249
0.05005
0.0415
0.03784
0.02686
0.01709
0.0061
-0.00488
-0.01465
-0.02808
-0.0354
-0.05249
-0.06836
-0.08057
-0.09888
-0.11353
-0.13062
-0.15015
-0.16846
-0.18921
-0.20874
-0.23193
-0.25391
-0.271
-0.29541
-0.31494
-0.33447
-0.35034
-0.36377
-0.37964
-0.39307
-0.40649
-0.41992
-0.42847
-0.44312
-0.4541
-0.46265
-0.47729
-0.4834
-0.49316
-0.50171
-0.51025
-0.52246
-0.52734
-0.53955
-0.54688
-0.55542
-0.56763
-0.57007
-0.57495
-0.57861
-0.58105
-0.58716
-0.58472
-0.59082
-0.59448
-0.59937
-0.60303
-0.60913
-0.61646
-0.62134
-0.625
-0.63477
-0.63843
-0.64697
-0.64819
-0.64941
-0.65063
-0.64819
-0.64575
-0.63965
-0.6311
-0.62012
-0.60425
-0.57861
-0.5481
-0.50659
-0.45898
-0.40039
-0.33569
-0.25757
-0.177
-0.09155
0.00244
0.09399
0.19165
0.29053
0.38696
0.48584
0.57861
0.67017
0.75439
0.8313
0.90576
0.96436
1.02051
1.07056
1.10962
1.1438
1.16577
1.18164
1.19385
1.19385
1.19629
1.18408
1.1731
1.15723
1.13525
1.11328
1.08154
1.05225
1.0144
0.97656
0.94238
0.89844
0.85815
0.81543
0.77026
0.72632
0.67993
0.63232
0.58472
0.53589
0.49072
0.44067
0.39551
0.35278
0.3125
0.2771
0.24048
0.20874
0.17578
0.15015
0.12939
0.10498
0.08545
0.0708
0.05371
0.04517
0.03418
0.02686
0.02197
0.01465
0.01587
0.01221
0.01099
0.01587
0.00732
0.00977
0.0061
0.00366
0
-0.01221
-0.01587
-0.02686
-0.03784
-0.04761
-0.06348
-0.07446
-0.09033
-0.10498
-0.12085
-0.14282
-0.15625
-0.177
-0.19531
-0.2124
-0.2356
-0.24536
-0.26245
-0.2771
-0.29053
-0.31006
-0.32227
-0.33936
-0.35522
-0.36865
-0.38574
-0.40161
-0.41748
-0.43335
-0.44678
-0.46387
-0.47852
-0.49561
-0.50903
-0.52124
-0.53711
-0.54688
-0.55908
-0.57007
-0.57861
-0.5896
-0.59692
-0.60791
-0.61646
-0.62134
-0.62988
-0.63599
-0.64087
-0.64453
-0.64575
-0.65063
-0.65308
-0.65552
-0.65674
-0.65674
-0.6604
-0.66162
-0.66406
-0.6665
-0.66772
-0.67505
-0.67627
-0.68359
-0.68726
-0.6897
-0.6958
-0.69946
-0.70435
-0.70679
-0.70557
-0.70801
-0.6958
-0.69214
-0.67627
-0.65063
-0.62256
-0.57983
-0.53589
-0.47974
-0.4126
-0.3418
-0.26001
-0.17578
-0.08545
0.01221
0.11108
0.21484
0.3125
0.4126
0.51025
0.59814
0.68481
0.75562
0.82642
0.88867
0.93994
0.98877
1.02295
1.05469
1.0791
1.09375
1.10718
1.11084
1.10596
1.10107
1.08643
1.06812
1.0437
1.01563
0.98877
0.95337
0.92163
0.88501
0.84473
0.80811
0.76416
0.72266
0.67383
0.62622
0.57983
0.52979
0.48584
0.43579
0.38818
0.34546
0.30029
0.26245
0.22461
0.18799
0.16113
0.13184
0.10986
0.08667
0.0647
0.05005
0.03174
0.02319
0.01221
0.00732
0
-0.00732
-0.00732
-0.01099
-0.00854
-0.01099
-0.01221
-0.00732
-0.00854
-0.00732
-0.00732
-0.01099
-0.01099
-0.01465
-0.01953
-0.02441
-0.03418
-0.03784
-0.04761
-0.05737
-0.06958
-0.08545
-0.09888
-0.11475
-0.13184
-0.14648
-0.16724
-0.18188
-0.19897
-0.21851
-0.23438
-0.25391
-0.26978
-0.29175
-0.31128
-0.32715
-0.34546
-0.35767
-0.37354
-0.38696
-0.39917
-0.41382
-0.42236
-0.43457
-0.44434
-0.4541
-0.46631
-0.47363
-0.48584
-0.49561
-0.50659
-0.52002
-0.52734
-0.53833
-0.54565
-0.5542
-0.56396
-0.56885
-0.57617
-0.58228
-0.58594
-0.59326
-0.59448
-0.60059
-0.60547
-0.60791
-0.61523
-0.61523
-0.6189
-0.62256
-0.62256
-0.62622
-0.625
-0.62622
-0.62622
-0.62012
-0.61646
-0.60425
-0.59204
-0.57495
-0.55054
-0.52002
-0.48096
-0.43335
-0.37964
-0.31616
-0.24902
-0.17212
-0.09155
-0.0061
0.08423
0.17212
0.26489
0.354
0.44189
0.53101
0.61035
0.68848
0.75439
0.81299
0.86182
0.90698
0.94604
0.97412
0.99365
1.00952
1.01563
1.02051
1.01563
1.00708
0.99487
0.97412
0.95703
0.93018
0.90088
0.87036
0.82886
0.79224
0.75317
0.71289
0.67139
0.625
0.58105
0.53223
0.48218
0.43579
0.37964
0.33325
0.28442
0.23682
0.19775
0.15503
0.12085
0.08667
0.05493
0.03174
0.00366
-0.01343
-0.02808
-0.03906
-0.04639
-0.05615
-0.05737
-0.06226
-0.0647
-0.05981
-0.06226
-0.05859
-0.05615
-0.05493
-0.05005
-0.05127
-0.05005
-0.05127
-0.05127
-0.05005
-0.05493
-0.05493
-0.05737
-0.05981
-0.06104
-0.0708
-0.07568
-0.08667
-0.09766
-0.10254
-0.12329
-0.13428
-0.14771
-0.16479
-0.17822
-0.19897
-0.21362
-0.23315
-0.25391
-0.27222
-0.29297
-0.30884
-0.32593
-0.34302
-0.35889
-0.37476
-0.38574
-0.40283
-0.4187
-0.43213
-0.45166
-0.46631
-0.48218
-0.49683
-0.50903
-0.5188
-0.5249
-0.53345
-0.54199
-0.54932
-0.55542
-0.5603
-0.56763
-0.57617
-0.58594
-0.59448
-0.60181
-0.60913
-0.61768
-0.62378
-0.63232
-0.63354
-0.63477
-0.63721
-0.63721
-0.63599
-0.6311
-0.62256
-0.61035
-0.5896
-0.56641
-0.52979
-0.48706
-0.43579
-0.37598
-0.31006
-0.2356
-0.15625
-0.07324
0.01587
0.10376
0.19531
0.28931
0.3833
0.47241
0.55786
0.63843
0.71411
0.78003
0.84229
0.896
0.94604
0.98633
1.01807
1.04126
1.06323
1.07544
1.08032
1.0791
1.07422
1.06323
1.04858
1.02905
1.0022
0.9729
0.93872
0.90454
0.8667
0.82642
0.78369
0.7373
0.69336
0.64697
0.59814
0.55176
0.50049
0.45288
0.40527
0.35645
0.30762
0.26611
0.22461
0.18677
0.14893
0.11597
0.08789
0.0647
0.04272
0.02197
0.0061
-0.00977
-0.02075
-0.02686
-0.03296
-0.03418
-0.0354
-0.03418
-0.03296
-0.03296
-0.02808
-0.02686
-0.02319
-0.01831
-0.01587
-0.01831
-0.02197
-0.02197
-0.02319
-0.03174
-0.03052
-0.04028
-0.04517
-0.05249
-0.06714
-0.07568
-0.09033
-0.10498
-0.12085
-0.14526
-0.15747
-0.17822
-0.19409
-0.20996
-0.23193
-0.24536
-0.26245
-0.2771
-0.29175
-0.31128
-0.32349
-0.34058
-0.354
-0.36621
-0.3833
-0.39551
-0.4126
-0.42603
-0.43701
-0.45532
-0.46509
-0.48096
-0.49194
-0.50293
-0.51392
-0.52246
-0.53223
-0.54199
-0.5542
-0.56152
-0.56641
-0.57861
-0.58594
-0.59326
-0.60181
-0.60547
-0.61157
-0.61401
-0.61646
-0.61768
-0.61035
-0.61035
-0.60181
-0.5896
-0.57373
-0.5481
-0.5188
-0.47363
-0.42725
-0.36987
-0.29663
-0.22217
-0.14038
-0.04883
0.04272
0.13916
0.23438
0.32959
0.43091
0.52734
0.62744
0.71655
0.802
0.88745
0.96191
1.03149
1.09009
1.13892
1.18408
1.21582
1.24268
1.25854
1.27319
1.27563
1.27197
1.26831
1.25732
1.2439
1.22559
1.19995
1.17798
1.14624
1.11938
1.08521
1.04858
1.01318
0.9729
0.92896
0.88257
0.83252
0.78613
0.73242
0.67871
0.6311
0.57983
0.53589
0.48828
0.44312
0.40405
0.36133
0.32837
0.28931
0.25513
0.22705
0.19775
0.177
0.15869
0.13916
0.12695
0.11353
0.1062
0.09521
0.08789
0.08301
0.07568
0.07324
0.0647
0.0647
0.0647
0.05859
0.05859
0.05005
0.04883
0.04639
0.03906
0.0354
0.02441
0.01587
0.0061
-0.00854
-0.01709
-0.03906
-0.05493
-0.06714
-0.08667
-0.10132
-0.11963
-0.13672
-0.15381
-0.177
-0.19775
-0.21484
-0.23438
-0.25146
-0.27344
-0.29053
-0.3064
-0.32227
-0.33569
-0.35278
-0.36621
-0.3833
-0.39673
-0.40894
-0.41992
-0.43579
-0.45166
-0.46509
-0.47729
-0.49316
-0.50171
-0.51514
-0.52368
-0.52979
-0.54321
-0.54443
-0.55298
-0.55908
-0.56396
-0.57373
-0.57861
-0.58716
-0.59326
-0.59692
-0.60547
-0.60791
-0.61401
-0.6189
-0.6189
-0.62988
-0.6311
-0.63477
-0.63599
-0.63354
-0.6311
-0.6189
-0.60669
-0.58594
-0.5603
-0.5249
-0.47729
-0.4248
-0.36255
-0.29053
-0.21362
-0.12451
-0.0354
0.06348
0.16113
0.26245
0.37109
0.47607
0.57861
0.68237
0.77515
0.86548
0.94238
1.01685
1.07666
1.13037
1.1792
1.21338
1.2439
1.26587
1.2793
1.29028
1.29028
1.2854
1.27808
1.26099
1.24512
1.22314
1.19751
1.17188
1.13892
1.10718
1.06934
1.02783
0.99121
0.94849
0.90454
0.85449
0.802
0.75806
0.70557
0.6604
0.61279
0.56641
0.52246
0.47607
0.43579
0.39551
0.34912
0.31372
0.27344
0.24292
0.20996
0.18188
0.16113
0.13794
0.12329
0.10498
0.09521
0.09033
0.08301
0.08179
0.0769
0.07446
0.07568
0.06958
0.06958
0.0647
0.06104
0.06104
0.05127
0.0415
0.0354
0.02563
0.01831
0.0061
-0.00366
-0.01831
-0.03174
-0.0415
-0.05859
-0.07202
-0.08667
-0.10254
-0.11597
-0.1355
-0.15015
-0.16968
-0.19043
-0.20752
-0.23315
-0.24902
-0.26978
-0.29297
-0.30762
-0.32959
-0.34668
-0.36621
-0.38574
-0.39795
-0.41992
-0.43335
-0.45044
-0.46753
-0.4834
-0.49805
-0.50903
-0.52246
-0.53467
-0.54443
-0.5542
-0.5603
-0.56885
-0.57617
-0.58105
-0.58716
-0.58838
-0.59326
-0.60059
-0.60059
-0.60913
-0.61035
-0.61646
-0.62744
-0.6311
-0.63965
-0.64697
-0.65796
-0.66895
-0.67383
-0.68359
-0.68726
-0.68848
-0.69458
-0.6897
-0.68481
-0.67505
-0.66772
-0.64453
-0.61646
-0.58594
-0.54443
-0.49805
-0.43823
-0.36987
-0.29541
-0.2063
-0.12207
-0.02686
0.07446
0.17212
0.27222
0.37231
0.46997
0.56641
0.6543
0.73608
0.81055
0.87646
0.93872
0.98389
1.02539
1.05835
1.08276
1.10352
1.11328
1.11938
1.11938
1.1145
1.10962
1.09619
1.08032
1.06079
1.03638
1.01196
0.98267
0.94849
0.91309
0.87402
0.83618
0.78857
0.74585
0.69824
0.64819
0.60059
0.54932
0.50171
0.45288
0.40405
0.36499
0.3125
0.27222
0.23071
0.19165
0.15381
0.12329
0.09766
0.0708
0.05005
0.03296
0.01587
0.0061
-0.00366
-0.00977
-0.01831
-0.02563
-0.02808
-0.03296
-0.04272
-0.03906
-0.04517
-0.04639
-0.04883
-0.05371
-0.05493
-0.06104
-0.06348
-0.0708
-0.07935
-0.08423
-0.09644
-0.10498
-0.11841
-0.12939
-0.13794
-0.15015
-0.16113
-0.17578
-0.19165
-0.20386
-0.22583
-0.24658
-0.26367
-0.2832
-0.30029
-0.32104
-0.33813
-0.354
-0.37231
-0.38696
-0.40771
-0.42603
-0.44434
-0.46387
-0.47974
-0.50171
-0.51636
-0.53101
-0.54688
-0.55786
-0.57495
-0.58472
-0.59326
-0.60303
-0.60547
-0.6189
-0.62378
-0.63232
-0.63965
-0.64697
-0.65186
-0.65552
-0.65918
-0.66406
-0.66772
-0.67261
-0.67383
-0.67749
-0.68604
-0.68604
-0.69336
-0.69946
-0.70313
-0.71167
-0.71411
-0.72021
-0.72266
-0.72632
-0.7312
-0.72754
-0.7312
-0.72754
-0.72754
-0.71777
-0.70435
-0.68726
-0.66284
-0.63232
-0.59448
-0.54199
-0.48706
-0.41626
-0.34424
-0.26367
-0.17456
-0.08667
0.0061
0.10132
0.19775
0.29785
0.39063
0.4834
0.57129
0.65308
0.72876
0.79956
0.85571
0.9082
0.95215
0.99121
1.01563
1.04004
1.05835
1.06689
1.073
1.06689
1.05957
1.04614
1.02539
1.00464
0.9729
0.9436
0.91064
0.8728
0.83618
0.79224
0.75073
0.70801
0.6604
0.61279
0.56396
0.51636
0.46997
0.42114
0.37476
0.32837
0.28564
0.24414
0.20142
0.16846
0.12939
0.1001
0.07202
0.04272
0.02197
0.00122
-0.01465
-0.02563
-0.04028
-0.04517
-0.05493
-0.05859
-0.06226
-0.0647
-0.06226
-0.06226
-0.05615
-0.05615
-0.05249
-0.04395
-0.04395
-0.04395
-0.03906
-0.04028
-0.04028
-0.0415
-0.04761
-0.05127
-0.06104
-0.06714
-0.08423
-0.09766
-0.1123
-0.13184
-0.14893
-0.16968
-0.18677
-0.20264
-0.22217
-0.23804
-0.25513
-0.27222
-0.29053
-0.31128
-0.32837
-0.34424
-0.36011
-0.37231
-0.39185
-0.39795
-0.41382
-0.42847
-0.44189
-0.46021
-0.47241
-0.48706
-0.49927
-0.51147
-0.52612
-0.53345
-0.54688
-0.55786
-0.56641
-0.57617
-0.58105
-0.5896
-0.59814
-0.60059
-0.60913
-0.61035
-0.62012
-0.62744
-0.62988
-0.63721
-0.63965
-0.64331
-0.65063
-0.65308
-0.65918
-0.66162
-0.67017
-0.67017
-0.67017
-0.67261
-0.6665
-0.67017
-0.66528
-0.65552
-0.64453
-0.62744
-0.60425
-0.57251
-0.52979
-0.48096
-0.42236
-0.35645
-0.28198
-0.20142
-0.12207
-0.0293
0.05981
0.15259
0.2478
0.33813
0.43213
0.52002
0.60059
0.67383
0.74097
0.80444
0.85327
0.89966
0.9375
0.9668
0.99243
1.00708
1.01807
1.02051
1.01807
1.0144
0.99976
0.98511
0.96313
0.93506
0.9082
0.87402
0.83252
0.7959
0.75195
0.71045
0.66406
0.61279
0.56641
0.51514
0.46509
0.41138
0.36377
0.31616
0.26611
0.22705
0.177
0.13672
0.1001
0.06348
0.03174
0.0061
-0.01465
-0.03174
-0.04761
-0.06226
-0.07324
-0.08057
-0.08423
-0.09033
-0.08667
-0.08545
-0.08179
-0.07446
-0.07813
-0.07202
-0.07202
-0.06958
-0.06836
-0.06958
-0.06836
-0.07202
-0.07568
-0.0769
-0.08301
-0.08667
-0.09766
-0.10986
-0.11841
-0.13306
-0.14404
-0.16235
-0.17456
-0.18921
-0.20874
-0.22339
-0.24414
-0.26123
-0.27588
-0.29419
-0.30884
-0.32593
-0.3418
-0.35645
-0.37354
-0.38818
-0.40527
-0.42236
-0.43701
-0.45776
-0.47119
-0.48706
-0.50171
-0.51392
-0.53223
-0.54321
-0.55786
-0.57007
-0.58105
-0.59204
-0.59937
-0.60913
-0.61768
-0.62256
-0.62988
-0.63232
-0.64087
-0.64941
-0.64819
-0.65552
-0.65674
-0.66284
-0.66772
-0.67017
-0.67749
-0.67871
-0.69092
-0.69214
-0.69336
-0.69946
-0.70068
-0.70313
-0.70435
-0.70068
-0.7019
-0.69824
-0.69214
-0.68237
-0.66528
-0.64453
-0.61401
-0.57617
-0.52734
-0.46631
-0.40161
-0.3186
-0.2356
-0.14526
-0.05005
0.04761
0.15137
0.25269
0.35767
0.45776
0.55542
0.65186
0.73608
0.81543
0.88989
0.95337
1.01196
1.05957
1.09741
1.13159
1.15479
1.17554
1.18408
1.1853
1.18774
1.1792
1.16943
1.15234
1.13037
1.10596
1.07422
1.0437
1.0022
0.9668
0.93018
0.88623
0.84595
0.80078
0.75562
0.71167
0.66284
0.61401
0.56641
0.51758
0.47119
0.42358
0.37842
0.33447
0.29175
0.25513
0.21362
0.18555
0.15259
0.12695
0.1062
0.08179
0.06592
0.05005
0.03784
0.02686
0.01831
0.01709
0.01343
0.00854
0.01709
0.01587
0.01953
0.01953
0.01953
0.02197
0.01953
0.01953
0.01343
0.01099
0.00977
0.00122
0
-0.01221
-0.02197
-0.03052
-0.04272
-0.05615
-0.0708
-0.08667
-0.10132
-0.12451
-0.13916
-0.16113
-0.18311
-0.2002
-0.22339
-0.24292
-0.26245
-0.2832
-0.30029
-0.3186
-0.33325
-0.35034
-0.36499
-0.38086
-0.39673
-0.40771
-0.4248
-0.44556
-0.4541
-0.47241
-0.48218
-0.49194
-0.50781
-0.51514
-0.52856
-0.53467
-0.54565
-0.55298
-0.55908
-0.56885
-0.57495
-0.5835
-0.5896
-0.59326
-0.60181
-0.60669
-0.61523
-0.62378
-0.6311
-0.64453
-0.65063
-0.65308
-0.6543
-0.64697
-0.64209
-0.63354
-0.62378
-0.61279
-0.59692
-0.57495
-0.54443
-0.50903
-0.45898
-0.40283
-0.33813
-0.26123
-0.17822
-0.09155
0.0061
0.10254
0.20386
0.30029
0.40405
0.50537
0.60181
0.69458
0.77637
0.85327
0.92529
0.98511
1.0437
1.08643
1.12427
1.15723
1.17798
1.19263
1.20361
1.20483
1.20483
1.19507
1.18408
1.16821
1.14868
1.12671
1.09497
1.06689
1.03149
0.99243
0.95703
0.91187
0.87036
0.82642
0.78125
0.7312
0.68604
0.63843
0.58838
0.53833
0.49072
0.44067
0.39795
0.35522
0.31006
0.27344
0.2356
0.20386
0.16968
0.14282
0.12085
0.09399
0.07813
0.05981
0.04639
0.03662
0.02441
0.01709
0.01343
0.00854
0.00977
0.00366
0.0061
0.00854
0.00732
0.00977
0.00488
0.00488
0.00122
-0.00732
-0.01465
-0.02197
-0.0293
-0.03784
-0.04639
-0.06104
-0.07324
-0.08545
-0.09888
-0.11719
-0.12939
-0.14771
-0.16357
-0.18311
-0.20142
-0.21851
-0.24048
-0.25879
-0.27954
-0.30029
-0.31616
-0.33813
-0.35645
-0.37109
-0.39063
-0.40405
-0.42358
-0.43335
-0.44678
-0.46021
-0.47119
-0.4895
-0.49927
-0.51147
-0.52368
-0.53589
-0.54565
-0.55664
-0.56763
-0.57739
-0.58716
-0.59937
-0.60669
-0.61279
-0.62256
-0.625
-0.6311
-0.63477
-0.64331
-0.64575
-0.64697
-0.65308
-0.6543
-0.65918
-0.66406
-0.66406
-0.6665
-0.66895
-0.67017
-0.67505
-0.67627
-0.68359
-0.68726
-0.6897
-0.69214
-0.69092
-0.69214
-0.68726
-0.68237
-0.67383
-0.65796
-0.64087
-0.60913
-0.57007
-0.52368
-0.46021
-0.39063
-0.30884
-0.22217
-0.12939
-0.02563
0.07446
0.18188
0.28564
0.39063
0.49683
0.5957
0.69092
0.78125
0.8606
0.9375
0.99976
1.05469
1.10596
1.14624
1.1792
1.20239
1.2207
1.23291
1.23535
1.23535
1.21826
1.20728
1.18896
1.16577
1.14136
1.10718
1.07544
1.04004
1.00098
0.96436
0.92285
0.88135
0.83862
0.78979
0.74463
0.69458
0.64453
0.59448
0.54077
0.49316
0.43945
0.39185
0.34424
0.29907
0.26123
0.22339
0.19043
0.16235
0.13306
0.1123
0.09277
0.06958
0.05371
0.03906
0.0293
0.01953
0.01343
0.01099
0.00366
-0.00244
-0.00244
0
0.00122
0.00244
0.00122
-0.00122
-0.00244
-0.00366
-0.01099
-0.01221
-0.02075
-0.02563
-0.03418
-0.04395
-0.05127
-0.06592
-0.07935
-0.09277
-0.10986
-0.12329
-0.14282
-0.16235
-0.17944
-0.20264
-0.21851
-0.2417
-0.25879
-0.2771
-0.29785
-0.31982
-0.33691
-0.35645
-0.37354
-0.38818
-0.40649
-0.4248
-0.43945
-0.45288
-0.47119
-0.48218
-0.49805
-0.51147
-0.5249
-0.53955
-0.54932
-0.56274
-0.57373
-0.58105
-0.59204
-0.59814
-0.60913
-0.61646
-0.62134
-0.62866
-0.62988
-0.63721
-0.63721
-0.63843
-0.64331
-0.64575
-0.65186
-0.65552
-0.65918
-0.66406
-0.66772
-0.67383
-0.67627
-0.67749
-0.68481
-0.68237
-0.68604
-0.68481
-0.68115
-0.67261
-0.65918
-0.64331
-0.62134
-0.5835
-0.54199
-0.48706
-0.42725
-0.35767
-0.2771
-0.19287
-0.1001
-0.00854
0.08911
0.19043
0.28687
0.38452
0.48096
0.57251
0.65918
0.73608
0.80933
0.8728
0.92773
0.97778
1.01074
1.04858
1.07056
1.08643
1.09985
1.09863
1.09985
1.09009
1.0791
1.05957
1.03882
1.01685
0.98389
0.95093
0.91675
0.87646
0.83984
0.79712
0.75195
0.70923
0.65918
0.61279
0.55908
0.50903
0.46021
0.40894
0.35889
0.31494
0.271
0.23071
0.18799
0.15381
0.11963
0.08667
0.06226
0.03296
0.01465
-0.0061
-0.02197
-0.03418
-0.04517
-0.04639
-0.05249
-0.05737
-0.05249
-0.05249
-0.04639
-0.04761
-0.04028
-0.03418
-0.03418
-0.0293
-0.03174
-0.03052
-0.03052
-0.03418
-0.03784
-0.04517
-0.05005
-0.05737
-0.06958
-0.0769
-0.09033
-0.10254
-0.11719
-0.13062
-0.14282
-0.16113
-0.17578
-0.19165
-0.21118
-0.22705
-0.24658
-0.26611
-0.28076
-0.30029
-0.31494
-0.33447
-0.34912
-0.36377
-0.38086
-0.39673
-0.41016
-0.4248
-0.43823
-0.45532
-0.46387
-0.47607
-0.48706
-0.49561
-0.50903
-0.51514
-0.52734
-0.53833
-0.5481
-0.55908
-0.56641
-0.57617
-0.58838
-0.5896
-0.59937
-0.60059
-0.60913
-0.61157
-0.61157
-0.61523
-0.61523
-0.6189
-0.62256
-0.62378
-0.62988
-0.63354
-0.64087
-0.64575
-0.64819
-0.65918
-0.65796
-0.66284
-0.66528
-0.66772
-0.67017
-0.66772
-0.66895
-0.66528
-0.6604
-0.65674
-0.64087
-0.625
-0.60181
-0.56641
-0.52734
-0.47363
-0.41626
-0.34668
-0.26611
-0.18311
-0.09155
0.0061
0.10498
0.2063
0.30151
0.41016
0.50781
0.60181
0.69336
0.76904
0.84717
0.91187
0.97046
1.01807
1.05957
1.09253
1.11572
1.13281
1.14014
1.14136
1.14014
1.13037
1.11572
1.10107
1.0791
1.05591
1.02173
0.98999
0.95703
0.91675
0.87891
0.83496
0.78857
0.74341
0.69214
0.64087
0.58838
0.53467
0.48584
0.43213
0.38696
0.33936
0.29297
0.2478
0.21118
0.17822
0.14282
0.11108
0.08667
0.06348
0.04761
0.03174
0.01587
0.00732
-0.00244
-0.00488
-0.01221
-0.01343
-0.01221
-0.01587
-0.01343
-0.01343
-0.01099
-0.0061
-0.00854
0
0.00122
0.00244
0.00366
0.00122
0
-0.00488
-0.0061
-0.01709
-0.02808
-0.03784
-0.05249
-0.06836
-0.08057
-0.10132
-0.11597
-0.1355
-0.15381
-0.16846
-0.18799
-0.2063
-0.22339
-0.24048
-0.25391
-0.2771
-0.28809
-0.3064
-0.32349
-0.34058
-0.35767
-0.37109
-0.3894
-0.40283
-0.42114
-0.44067
-0.45288
-0.46753
-0.48462
-0.49438
-0.50903
-0.5188
-0.53101
-0.54077
-0.54443
-0.5542
-0.5603
-0.56396
-0.57007
-0.57373
-0.58594
-0.58716
-0.5957
-0.60425
-0.61157
-0.62134
-0.625
-0.63354
-0.63721
-0.64331
-0.64941
-0.64941
-0.65063
-0.65308
-0.64941
-0.64819
-0.63965
-0.62866
-0.61157
-0.58472
-0.55542
-0.51392
-0.46387
-0.40405
-0.33325
-0.26489
-0.17944
-0.09033
0
0.09277
0.19043
0.29053
0.38818
0.48218
0.57861
0.66162
0.74341
0.81421
0.87769
0.9375
0.98511
1.02783
1.05713
1.08765
1.11206
1.12427
1.1377
1.13525
1.13037
1.12549
1.11084
1.09497
1.07178
1.04492
1.01807
0.98022
0.94849
0.91064
0.87158
0.82764
0.78735
0.74341
0.6958
0.64209
0.59448
0.54077
0.49072
0.44189
0.38818
0.34424
0.29785
0.25879
0.21851
0.18066
0.15137
0.11841
0.09277
0.0708
0.05005
0.03296
0.01465
0.00244
-0.00977
-0.01953
-0.02441
-0.0293
-0.0293
-0.0293
-0.03174
-0.02686
-0.02686
-0.02441
-0.02686
-0.02563
-0.02319
-0.0293
-0.03296
-0.03296
-0.04028
-0.04517
-0.05615
-0.06226
-0.07202
-0.08545
-0.09155
-0.11108
-0.12207
-0.13672
-0.15137
-0.16602
-0.18311
-0.19897
-0.21484
-0.23682
-0.25146
-0.27344
-0.28931
-0.30762
-0.32593
-0.34058
-0.35767
-0.37354
-0.3894
-0.40649
-0.42114
-0.44189
-0.45532
-0.46997
-0.48584
-0.50293
-0.5127
-0.52246
-0.53467
-0.5481
-0.5542
-0.56641
-0.57495
-0.5835
-0.59082
-0.59448
-0.60181
-0.60303
-0.61157
-0.61768
-0.6189
-0.625
-0.62988
-0.63354
-0.63965
-0.64209
-0.64819
-0.65063
-0.6543
-0.6604
-0.66162
-0.66772
-0.67017
-0.67383
-0.67871
-0.67749
-0.67993
-0.67993
-0.67993
-0.67749
-0.66772
-0.6604
-0.64697
-0.62012
-0.5896
-0.54688
-0.49927
-0.43457
-0.36255
-0.28442
-0.19287
-0.10132
0
0.1062
0.21118
0.32227
0.42969
0.53833
0.64209
0.7373
0.83252
0.91309
0.98999
1.05591
1.1145
1.16821
1.21094
1.24512
1.27319
1.28906
1.30249
1.30371
1.30005
1.29395
1.27808
1.26343
1.23779
1.21582
1.18652
1.15356
1.12061
1.08276
1.04736
1.00952
0.96191
0.92285
0.87646
0.83008
0.78125
0.72876
0.68237
0.62988
0.57861
0.53101
0.48218
0.43457
0.38696
0.34546
0.30762
0.26611
0.2417
0.20386
0.17822
0.15747
0.13794
0.12207
0.10864
0.09888
0.09155
0.08179
0.08057
0.07446
0.07446
0.07324
0.07202
0.07446
0.07446
0.07202
0.07324
0.06836
0.06958
0.05981
0.05493
0.05005
0.03784
0.02808
0.01587
0.00366
-0.01099
-0.03296
-0.04517
-0.0647
-0.08179
-0.10254
-0.11841
-0.13306
-0.15137
-0.1709
-0.18188
-0.2002
-0.21362
-0.23438
-0.25024
-0.26733
-0.28809
-0.30273
-0.32227
-0.33936
-0.35645
-0.37964
-0.39185
-0.41382
-0.42969
-0.44556
-0.46143
-0.47241
-0.48706
-0.49561
-0.50659
-0.5188
-0.52612
-0.53467
-0.5481
-0.5542
-0.56519
-0.56885
-0.57861
-0.5835
-0.58716
-0.5957
-0.59692
-0.60547
-0.61035
-0.61279
-0.62134
-0.62378
-0.62988
-0.63354
-0.63843
-0.64453
-0.64453
-0.64941
-0.65308
-0.65186
-0.65308
-0.64819
-0.64697
-0.63599
-0.62134
-0.60181
-0.57129
-0.53467
-0.48462
-0.42358
-0.35889
-0.27832
-0.19531
-0.1062
-0.01343
0.08301
0.18677
0.28442
0.38452
0.48828
0.58228
0.67749
0.76172
0.84106
0.91553
0.97656
1.03882
1.08032
1.11938
1.15234
1.1731
1.19019
1.19873
1.20117
1.19751
1.18286
1.17432
1.15479
1.13281
1.10596
1.07544
1.04492
1.0083
0.97168
0.93384
0.89233
0.85449
0.80811
0.76294
0.71899
0.66895
0.6189
0.56885
0.52002
0.47241
0.42114
0.37842
0.33203
0.29053
0.25024
0.21484
0.18311
0.15259
0.12451
0.10498
0.08301
0.06836
0.05127
0.04395
0.03662
0.02686
0.02319
0.01709
0.01587
0.01587
0.01709
0.01709
0.01465
0.01465
0.01953
0.01099
0.01221
0.00854
0.00977
0.00244
-0.00488
-0.00854
-0.01831
-0.03174
-0.04028
-0.05615
-0.06592
-0.08423
-0.1001
-0.11475
-0.13306
-0.14771
-0.16602
-0.18066
-0.19409
-0.21362
-0.22827
-0.24658
-0.26245
-0.27954
-0.29907
-0.31616
-0.33813
-0.35889
-0.3772
-0.39917
-0.4126
-0.43091
-0.44556
-0.45654
-0.47119
-0.4834
-0.49683
-0.51025
-0.51636
-0.53345
-0.54077
-0.55054
-0.55664
-0.56885
-0.57983
-0.58472
-0.59326
-0.60425
-0.60913
-0.61523
-0.61523
-0.62134
-0.62378
-0.62378
-0.62744
-0.62988
-0.63232
-0.63477
-0.63599
-0.64453
-0.64575
-0.65186
-0.65552
-0.6604
-0.66528
-0.66772
-0.67261
-0.67749
-0.67749
-0.67749
-0.66772
-0.66284
-0.64819
-0.62256
-0.59082
-0.55176
-0.50293
-0.44312
-0.36743
-0.29663
-0.20874
-0.11963
-0.02441
0.08057
0.18188
0.28809
0.38696
0.49072
0.59204
0.68237
0.77271
0.84961
0.92285
0.98877
1.04248
1.09131
1.12793
1.15845
1.18408
1.19385
1.20483
1.20483
1.19995
1.18896
1.17432
1.15967
1.13403
1.10718
1.08032
1.0437
1.01196
0.9729
0.93506
0.89722
0.85205
0.80688
0.76294
0.71533
0.66895
0.61157
0.56641
0.51392
0.46265
0.41138
0.36743
0.32349
0.27954
0.2356
0.2063
0.17212
0.14648
0.11475
0.09521
0.08057
0.06348
0.05127
0.0415
0.03296
0.0293
0.02075
0.02197
0.02075
0.02075
0.02197
0.02197
0.02686
0.02563
0.02441
0.02563
0.02197
0.02197
0.01465
0.00732
0.00244
-0.00732
-0.01587
-0.02808
-0.0415
-0.05371
-0.07324
-0.08667
-0.10498
-0.12451
-0.14282
-0.16479
-0.18311
-0.20386
-0.22705
-0.24536
-0.26733
-0.28564
-0.30884
-0.32837
-0.34546
-0.36499
-0.38086
-0.39795
-0.41626
-0.42847
-0.44678
-0.45776
-0.47241
-0.48584
-0.49561
-0.50781
-0.5188
-0.53101
-0.54321
-0.54932
-0.56152
-0.56763
-0.57739
-0.58716
-0.59204
-0.60303
-0.60913
-0.61646
-0.62378
-0.62866
-0.63843
-0.63965
-0.64331
-0.64575
-0.64697
-0.65063
-0.65186
-0.65552
-0.66162
-0.66284
-0.67017
-0.67139
-0.67749
-0.68237
-0.68481
-0.69092
-0.69214
-0.69458
-0.69702
-0.69336
-0.69702
-0.69336
-0.6897
-0.67627
-0.66406
-0.64575
-0.61523
-0.57983
-0.53467
-0.47607
-0.41138
-0.33813
-0.25391
-0.16602
-0.06958
0.02075
0.12573
0.22705
0.32715
0.4248
0.52246
0.61646
0.70068
0.77637
0.85083
0.91309
0.97046
1.01807
1.0498
1.08276
1.09985
1.1145
1.12305
1.12183
1.11938
1.1084
1.09497
1.07666
1.05103
1.02661
0.98999
0.95703
0.91797
0.87646
0.83618
0.79346
0.74951
0.70435
0.6543
0.60913
0.55664
0.50903
0.45776
0.40771
0.36377
0.3186
0.2771
0.23682
0.2002
0.17212
0.1355
0.10864
0.08301
0.05615
0.0415
0.02319
0.01221
0.00122
-0.00854
-0.01099
-0.01831
-0.02197
-0.01953
-0.01831
-0.01343
-0.01465
-0.00488
0
0.00244
0.00488
0.00488
0.0061
0.00244
-0.0061
-0.00854
-0.01587
-0.02197
-0.03174
-0.04028
-0.04761
-0.06226
-0.07446
-0.08667
-0.10498
-0.11963
-0.14038
-0.15625
-0.17456
-0.19409
-0.20996
-0.23193
-0.24902
-0.26489
-0.28564
-0.30029
-0.32104
-0.33569
-0.35645
-0.37476
-0.38818
-0.41016
-0.42114
-0.43701
-0.45166
-0.46387
-0.47729
-0.48706
-0.49805
-0.51392
-0.51758
-0.52979
-0.53711
-0.5481
-0.55664
-0.56396
-0.57373
-0.5835
-0.5896
-0.60059
-0.60547
-0.61768
-0.62134
-0.62378
-0.62866
-0.62988
-0.63354
-0.63232
-0.63477
-0.63843
-0.63599
-0.64087
-0.64087
-0.64331
-0.64697
-0.64575
-0.64941
-0.6543
-0.65552
-0.66162
-0.66284
-0.66772
-0.66895
-0.67017
-0.67261
-0.67017
-0.66772
-0.65918
-0.64941
-0.62256
-0.58716
-0.5481
-0.50049
-0.43823
-0.37109
-0.29297
-0.20996
-0.11963
-0.02441
0.07202
0.17456
0.27344
0.37598
0.47607
0.57007
0.66406
0.74707
0.82642
0.896
0.95825
1.01563
1.05713
1.09131
1.12183
1.14014
1.15479
1.15601
1.15845
1.15356
1.13892
1.12427
1.10107
1.07788
1.04858
1.01196
0.979
0.93994
0.90088
0.85693
0.81177
0.77026
0.71899
0.66895
0.62134
0.56763
0.51758
0.46265
0.4126
0.36377
0.3125
0.26855
0.22461
0.18799
0.15625
0.12085
0.09644
0.07202
0.05249
0.03662
0.02075
0.01221
-0.00366
-0.0061
-0.00977
-0.01343
-0.01465
-0.01343
-0.01099
-0.00854
-0.00732
0.00122
0.00122
0.00366
0.00488
0.00488
0.0061
0.00488
0.00122
0
-0.00854
-0.00977
-0.02441
-0.03418
-0.04517
-0.06226
-0.07446
-0.09155
-0.10742
-0.12695
-0.14526
-0.15991
-0.18066
-0.20142
-0.21606
-0.23438
-0.25146
-0.27222
-0.28809
-0.30518
-0.32593
-0.3418
-0.36133
-0.3772
-0.39063
-0.40894
-0.42114
-0.43701
-0.44922
-0.46387
-0.48096
-0.49072
-0.51025
-0.52124
-0.53101
-0.54443
-0.55542
-0.56519
-0.57373
-0.58105
-0.59448
-0.5957
-0.60303
-0.60913
-0.61157
-0.62012
-0.62256
-0.62988
-0.63599
-0.63843
-0.64453
-0.64575
-0.65552
-0.65796
-0.65796
-0.66284
-0.66406
-0.66772
-0.67017
-0.66772
-0.67139
-0.66284
-0.65796
-0.64697
-0.62744
-0.60425
-0.57007
-0.53467
-0.48096
-0.41748
-0.34912
-0.26855
-0.18433
-0.09155
0.00977
0.10864
0.21484
0.31738
0.42114
0.52124
0.61523
0.70923
0.78857
0.86548
0.9375
0.99731
1.05347
1.09619
1.13525
1.16211
1.18042
1.19385
1.19751
1.19629
1.19385
1.18042
1.16821
1.14868
1.12793
1.10107
1.07178
1.04248
1.00464
0.9668
0.93018
0.88867
0.84717
0.80078
0.75684
0.70923
0.6543
0.61035
0.55786
0.50903
0.46021
0.41138
0.36743
0.32227
0.27832
0.24292
0.2063
0.177
0.14404
0.12085
0.10254
0.08545
0.06958
0.05493
0.04639
0.03906
0.03296
0.03174
0.02441
0.01953
0.02197
0.01831
0.02075
0.01709
0.01831
0.02075
0.01709
0.01709
0.01343
0.00977
0.00488
-0.00366
-0.00854
-0.01831
-0.03052
-0.0415
-0.05859
-0.07202
-0.09277
-0.1062
-0.12085
-0.14038
-0.15747
-0.17578
-0.19287
-0.20874
-0.23193
-0.2478
-0.26978
-0.28931
-0.30762
-0.32959
-0.34668
-0.36621
-0.38818
-0.40527
-0.4248
-0.43823
-0.45532
-0.46875
-0.47974
-0.49683
-0.50659
-0.5188
-0.52979
-0.53955
-0.55176
-0.55908
-0.57129
-0.5835
-0.59082
-0.60303
-0.60547
-0.62134
-0.62866
-0.63354
-0.64453
-0.64575
-0.65308
-0.65796
-0.66284
-0.66528
-0.66528
-0.67017
-0.67383
-0.67383
-0.67871
-0.67871
-0.68604
-0.68848
-0.6897
-0.69336
-0.69336
-0.69702
-0.69824
-0.69702
-0.70068
-0.69824
-0.70068
-0.70801
-0.70557
-0.71045
-0.71167
-0.71777
-0.72266
-0.72388
-0.7312
-0.7373
-0.74463
-0.75073
-0.75195
-0.75684
-0.75317
-0.75195
-0.74463
-0.73608
-0.72266
-0.6958
-0.6665
-0.62256
-0.56641
-0.50293
-0.42725
-0.33936
-0.2478
-0.14404
-0.04272
0.0708
0.18066
0.29297
0.40649
0.51636
0.62622
0.7251
0.81909
0.9082
0.98755
1.06201
1.12305
1.17798
1.22437
1.26099
1.2915
1.31104
1.32568
1.33789
1.33301
1.33179
1.31958
1.30737
1.28784
1.26221
1.23779
1.20605
1.17432
1.14502
1.10962
1.073
1.03516
0.99487
0.95581
0.90942
0.86792
0.82153
0.77271
0.72876
0.67993
0.63599
0.59082
0.54321
0.50415
0.45898
0.4187
0.38086
0.34424
0.31494
0.27954
0.25879
0.23315
0.2124
0.19531
0.17822
0.16724
0.15625
0.14648
0.14282
0.1355
0.13184
0.12817
0.12573
0.12451
0.11841
0.11963
0.11597
0.11108
0.10742
0.1001
0.09521
0.08545
0.07446
0.06592
0.05127
0.0415
0.02563
0.00977
-0.00488
-0.02808
-0.03906
-0.05737
-0.07568
-0.09155
-0.11108
-0.12817
-0.14771
-0.16968
-0.18677
-0.20874
-0.22217
-0.24658
-0.26489
-0.28076
-0.30762
-0.31982
-0.33936
-0.35767
-0.37109
-0.38818
-0.40039
-0.41504
-0.43091
-0.44067
-0.4541
-0.46021
-0.47729
-0.48828
-0.49683
-0.51392
-0.52002
-0.53223
-0.54321
-0.55176
-0.56396
-0.56885
-0.57739
-0.58472
-0.5896
-0.59814
-0.60059
-0.60913
-0.61646
-0.6189
-0.62866
-0.63232
-0.63843
-0.64331
-0.64697
-0.65186
-0.6543
-0.65796
-0.6665
-0.6665
-0.67505
-0.67627
-0.67749
-0.67871
-0.67749
-0.68115
-0.67871
-0.68115
-0.68481
-0.68726
-0.69214
-0.69458
-0.69946
-0.70679
-0.71045
-0.72021
-0.72388
-0.7312
-0.73853
-0.74097
-0.75317
-0.75562
-0.7605
-0.76538
-0.7666
-0.7605
-0.74829
-0.7312
-0.70923
-0.67017
-0.62866
-0.57007
-0.50659
-0.43091
-0.34546
-0.25513
-0.16235
-0.0647
0.03296
0.13428
0.23438
0.33569
0.43091
0.52002
0.60913
0.68604
0.75928
0.82397
0.87769
0.9314
0.9729
1.00952
1.04004
1.06201
1.08154
1.08887
1.09619
1.09497
1.08765
1.0791
1.06201
1.04492
1.02173
0.99487
0.97046
0.93994
0.91187
0.87891
0.84595
0.81299
0.77271
0.73486
0.6958
0.65308
0.61157
0.56763
0.52612
0.48462
0.43701
0.39917
0.35645
0.31738
0.2832
0.24902
0.22095
0.18921
0.16724
0.14404
0.12451
0.10986
0.09277
0.08423
0.07324
0.06714
0.06348
0.05859
0.05249
0.05371
0.05005
0.05249
0.04761
0.04883
0.04761
0.04517
0.0415
0.03662
0.03174
0.02563
0.01587
0.01099
0
-0.00732
-0.01099
-0.01587
-0.02075
-0.03296
-0.04395
-0.06104
-0.08179
-0.10254
-0.12573
-0.14282
-0.16602
-0.18188
-0.19653
-0.21729
-0.23438
-0.25391
-0.27344
-0.28931
-0.31128
-0.32593
-0.3418
-0.36011
-0.37354
-0.3894
-0.40039
-0.41748
-0.42847
-0.43945
-0.45654
-0.47119
-0.47974
-0.49194
-0.49438
-0.50903
-0.51514
-0.52368
-0.53711
-0.54077
-0.55298
-0.5603
-0.57129
-0.57861
-0.5835
-0.59326
-0.59814
-0.60303
-0.60913
-0.60913
-0.61523
-0.61768
-0.6189
-0.62256
-0.62012
-0.62256
-0.62256
-0.625
-0.62744
-0.62622
-0.62988
-0.63843
-0.64453
-0.65308
-0.66162
-0.6665
-0.67139
-0.67627
-0.68115
-0.68115
-0.68604
-0.68359
-0.68359
-0.68115
-0.67261
-0.66528
-0.64941
-0.62622
-0.59814
-0.55908
-0.51392
-0.45776
-0.39307
-0.32715
-0.25146
-0.17456
-0.09155
-0.00854
0.07446
0.16357
0.24292
0.32837
0.40894
0.48462
0.55542
0.6189
0.67993
0.73242
0.77637
0.82031
0.84839
0.87646
0.89722
0.91187
0.92407
0.93018
0.93018
0.92773
0.91919
0.91064
0.89233
0.87524
0.85571
0.83008
0.80688
0.77881
0.74951
0.71777
0.68359
0.65308
0.61279
0.57739
0.53955
0.50049
0.46143
0.42114
0.38208
0.34424
0.30396
0.27222
0.2356
0.20386
0.17822
0.15015
0.13062
0.10742
0.09277
0.08057
0.06714
0.06104
0.05249
0.04639
0.0415
0.04028
0.03784
0.03662
0.03296
0.0354
0.03418
0.03662
0.03174
0.03052
0.0293
0.02686
0.02197
0.01587
0.01099
0.00122
-0.0061
-0.01221
-0.02441
-0.03418
-0.04395
-0.05615
-0.06226
-0.07935
-0.09277
-0.10742
-0.12939
-0.13672
-0.15259
-0.16724
-0.18188
-0.19775
-0.21118
-0.22461
-0.24048
-0.25269
-0.271
-0.28564
-0.30029
-0.3125
-0.32715
-0.34302
-0.354
-0.36743
-0.37964
-0.39307
-0.40771
-0.41504
-0.43335
-0.44067
-0.44922
-0.46143
-0.46997
-0.48096
-0.4895
-0.49927
-0.50903
-0.51514
-0.52612
-0.53589
-0.53711
-0.54565
-0.55054
-0.55664
-0.5603
-0.56519
-0.57129
-0.57373
-0.58105
-0.5835
-0.58716
-0.59082
-0.59082
-0.59326
-0.59692
-0.59692
-0.60059
-0.59937
-0.60547
-0.60913
-0.60913
-0.61646
-0.61768
-0.62256
-0.62622
-0.6311
-0.63477
-0.63477
-0.64087
-0.64575
-0.64697
-0.64941
-0.64819
-0.64575
-0.63843
-0.625
-0.61157
-0.5835
-0.5542
-0.5127
-0.46265
-0.40527
-0.33691
-0.26611
-0.18921
-0.1062
-0.02563
0.06104
0.14282
0.23071
0.31616
0.39551
0.47485
0.54565
0.61035
0.67383
0.72754
0.77881
0.81421
0.85449
0.88745
0.90942
0.92896
0.9436
0.95337
0.95947
0.95703
0.95581
0.94482
0.93628
0.92285
0.90454
0.88867
0.86426
0.84351
0.82153
0.79224
0.7666
0.73364
0.70068
0.66895
0.62988
0.5957
0.55786
0.51758
0.48462
0.44556
0.4126
0.37476
0.3418
0.31372
0.28442
0.26001
0.2356
0.21729
0.19897
0.18311
0.17334
0.16113
0.15137
0.14771
0.13916
0.13672
0.13306
0.13184
0.13306
0.12939
0.13306
0.12939
0.12817
0.12695
0.12207
0.11963
0.10986
0.10986
0.10742
0.09888
0.09277
0.08057
0.0708
0.06592
0.04761
0.03906
0.02563
0.01221
0.00488
-0.01099
-0.02075
-0.03784
-0.05127
-0.06226
-0.08057
-0.09155
-0.1062
-0.12085
-0.1355
-0.15381
-0.16602
-0.18433
-0.2002
-0.2124
-0.23071
-0.24658
-0.25757
-0.26978
-0.28076
-0.29663
-0.30396
-0.3186
-0.32471
-0.33813
-0.35034
-0.35645
-0.36865
-0.3772
-0.38086
-0.39063
-0.39429
-0.40283
-0.40894
-0.4126
-0.42114
-0.4248
-0.43335
-0.43823
-0.44189
-0.448
-0.45166
-0.46265
-0.46875
-0.47241
-0.48462
-0.4834
-0.4895
-0.49194
-0.49438
-0.49805
-0.49561
-0.49805
-0.49438
-0.48218
-0.47363
-0.45532
-0.43213
-0.40161
-0.36255
-0.32349
-0.271
-0.21606
-0.15869
-0.08789
-0.02319
0.05005
0.11841
0.18921
0.26245
0.33447
0.40039
0.46265
0.52124
0.57373
0.62256
0.67017
0.70923
0.74219
0.77393
0.7959
0.81787
0.82886
0.83862
0.84717
0.85083
0.84473
0.83618
0.82275
0.80566
0.78735
0.7666
0.73975
0.71289
0.68848
0.65674
0.62744
0.59814
0.56763
0.53711
0.49805
0.46509
0.42725
0.39063
0.35645
0.31738
0.28564
0.2478
0.22095
0.19653
0.16846
0.14771
0.12573
0.10864
0.09521
0.08179
0.07446
0.06714
0.06104
0.05981
0.05737
0.06104
0.05737
0.05859
0.06348
0.05981
0.06714
0.06836
0.0708
0.07446
0.07446
0.0769
0.07202
0.0708
0.0708
0.06226
0.05981
0.05371
0.04639
0.04395
0.02686
0.01831
0.00366
-0.01343
-0.02319
-0.03906
-0.05005
-0.06592
-0.07935
-0.08911
-0.10742
-0.11475
-0.12817
-0.1416
-0.15381
-0.1709
-0.18311
-0.19897
-0.21362
-0.22461
-0.24048
-0.25635
-0.27222
-0.28931
-0.30273
-0.32349
-0.33447
-0.34912
-0.36499
-0.37231
-0.3833
-0.3894
-0.39795
-0.40771
-0.4126
-0.42114
-0.42603
-0.43213
-0.43701
-0.44312
-0.45044
-0.45532
-0.46143
-0.47363
-0.47729
-0.48706
-0.49316
-0.49683
-0.50049
-0.50049
-0.50537
-0.50293
-0.50171
-0.50415
-0.49072
-0.47974
-0.45776
-0.43457
-0.40161
-0.35767
-0.31494
-0.25391
-0.19287
-0.12573
-0.05249
0.01953
0.09766
0.1709
0.2478
0.32593
0.39795
0.46875
0.53345
0.59326
0.65308
0.69946
0.74707
0.78613
0.82153
0.84595
0.86792
0.88745
0.896
0.90576
0.91309
0.91064
0.90942
0.9021
0.89111
0.88013
0.8606
0.84229
0.81787
0.79346
0.77026
0.73975
0.71533
0.68237
0.65186
0.62134
0.58105
0.54932
0.51392
0.47607
0.44067
0.40405
0.37231
0.33691
0.30884
0.2832
0.25513
0.23315
0.2124
0.19287
0.17944
0.16357
0.15503
0.14648
0.13672
0.13428
0.12939
0.12817
0.12695
0.12695
0.13062
0.12695
0.12939
0.12939
0.12939
0.12817
0.12451
0.12329
0.11841
0.11353
0.11108
0.10132
0.09644
0.08789
0.0769
0.06592
0.05493
0.04395
0.03052
0.01465
0.00366
-0.01343
-0.02808
-0.03662
-0.05005
-0.05981
-0.07568
-0.08789
-0.10254
-0.12207
-0.13062
-0.14771
-0.16235
-0.17944
-0.19653
-0.20874
-0.22705
-0.23804
-0.25269
-0.26611
-0.27832
-0.29419
-0.30518
-0.3186
-0.33081
-0.33691
-0.3479
-0.354
-0.36011
-0.36865
-0.36621
-0.37964
-0.3833
-0.3894
-0.39917
-0.40405
-0.41382
-0.41992
-0.42969
-0.44189
-0.44556
-0.45898
-0.46265
-0.46875
-0.47485
-0.47729
-0.48096
-0.48096
-0.48462
-0.48218
-0.47485
-0.46875
-0.45532
-0.43457
-0.40894
-0.3772
-0.33203
-0.28076
-0.22583
-0.16479
-0.09399
-0.02563
0.05127
0.13306
0.21362
0.29541
0.37231
0.45288
0.52734
0.5957
0.66406
0.72144
0.77759
0.82397
0.86792
0.9082
0.93872
0.9668
0.98755
1.0022
1.01563
1.02051
1.02417
1.02295
1.01807
1.01318
1.0022
0.98999
0.9729
0.95215
0.93384
0.90576
0.88501
0.8606
0.83252
0.80688
0.77393
0.74219
0.70557
0.67139
0.63965
0.60181
0.56519
0.52979
0.49438
0.46021
0.42969
0.40161
0.37476
0.34546
0.32471
0.30029
0.2771
0.26367
0.24658
0.23682
0.22095
0.21484
0.2063
0.19531
0.19775
0.19043
0.18799
0.18433
0.18188
0.18188
0.17822
0.17822
0.17578
0.17212
0.1709
0.16602
0.16235
0.15747
0.14771
0.14526
0.13428
0.12451
0.11475
0.10254
0.09033
0.07446
0.06104
0.04761
0.03052
0.01709
0
-0.01709
-0.03418
-0.05249
-0.06836
-0.09155
-0.10864
-0.12695
-0.14648
-0.16235
-0.18066
-0.19653
-0.21362
-0.23193
-0.24536
-0.26611
-0.2771
-0.28931
-0.30518
-0.31616
-0.33081
-0.34058
-0.354
-0.36499
-0.37231
-0.38574
-0.39551
-0.40283
-0.41138
-0.41748
-0.4248
-0.42847
-0.43579
-0.44434
-0.448
-0.45776
-0.46387
-0.46753
-0.47485
-0.47974
-0.4895
-0.49438
-0.50049
-0.51025
-0.50903
-0.51514
-0.51514
-0.51392
-0.51147
-0.49927
-0.48706
-0.46265
-0.43213
-0.39673
-0.34912
-0.30151
-0.24292
-0.17944
-0.1123
-0.03906
0.03418
0.11108
0.18799
0.26611
0.34424
0.41626
0.48828
0.5542
0.61401
0.67383
0.72388
0.77393
0.81421
0.84961
0.88501
0.90332
0.92651
0.9436
0.95337
0.95947
0.96069
0.95947
0.95337
0.94482
0.9375
0.92041
0.90454
0.88623
0.86426
0.84595
0.82275
0.80078
0.77515
0.74585
0.72021
0.68726
0.6543
0.625
0.59082
0.55786
0.52002
0.48828
0.45532
0.4187
0.39063
0.35767
0.32837
0.30151
0.27588
0.25635
0.23193
0.21851
0.20142
0.18555
0.17456
0.16235
0.15503
0.14526
0.14282
0.14282
0.13916
0.1355
0.13306
0.12817
0.12451
0.11841
0.11353
0.10986
0.09766
0.09521
0.08545
0.07568
0.06714
0.05493
0.04883
0.02808
0.01465
0.00122
-0.01831
-0.03174
-0.04883
-0.0647
-0.07935
-0.09644
-0.10986
-0.12939
-0.14404
-0.15869
-0.17578
-0.18921
-0.20508
-0.21973
-0.2356
-0.25146
-0.26367
-0.28687
-0.29907
-0.3125
-0.33081
-0.34424
-0.35767
-0.37109
-0.38696
-0.39673
-0.40405
-0.41626
-0.42603
-0.43213
-0.44312
-0.45166
-0.45898
-0.46631
-0.47241
-0.48218
-0.48584
-0.49561
-0.50293
-0.50903
-0.51514
-0.51514
-0.52612
-0.53101
-0.53467
-0.54443
-0.54688
-0.55664
-0.56396
-0.57007
-0.57861
-0.5835
-0.59326
-0.59692
-0.60181
-0.61035
-0.60913
-0.61279
-0.61157
-0.60791
-0.60303
-0.59082
-0.57983
-0.55054
-0.51758
-0.48096
-0.43213
-0.38208
-0.32349
-0.26001
-0.19287
-0.12085
-0.04639
0.02197
0.09888
0.17212
0.24536
0.31372
0.37842
0.44189
0.49561
0.55054
0.5957
0.63477
0.67383
0.7019
0.72998
0.74585
0.76294
0.77515
0.78125
0.78369
0.78369
0.78125
0.77393
0.76294
0.75317
0.73364
0.71777
0.70313
0.68115
0.6604
0.63721
0.61157
0.58228
0.5542
0.52734
0.49316
0.45776
0.42603
0.38818
0.35645
0.32227
0.28931
0.25879
0.22461
0.19897
0.16846
0.1416
0.11963
0.09766
0.07813
0.06348
0.05005
0.03906
0.02563
0.02197
0.01221
0.00122
0
-0.0061
-0.0061
-0.01343
-0.01709
-0.02197
-0.0293
-0.03174
-0.04028
-0.04272
-0.05127
-0.05859
-0.06348
-0.07324
-0.08179
-0.09155
-0.10498
-0.11353
-0.13062
-0.14282
-0.15747
-0.17456
-0.18921
-0.20874
-0.22095
-0.23315
-0.25024
-0.26367
-0.28198
-0.29785
-0.31372
-0.32959
-0.3418
-0.35767
-0.37354
-0.38574
-0.40161
-0.41382
-0.43091
-0.44312
-0.45532
-0.47119
-0.48096
-0.49438
-0.50659
-0.51636
-0.52979
-0.54077
-0.55176
-0.56152
-0.57129
-0.5835
-0.59082
-0.60059
-0.60913
-0.61523
-0.62378
-0.62744
-0.63354
-0.63843
-0.63965
-0.64697
-0.65063
-0.65674
-0.66284
-0.66528
-0.67261
-0.67505
-0.68481
-0.69092
-0.6958
-0.70557
-0.70679
-0.71411
-0.71411
-0.71899
-0.72632
-0.7251
-0.72998
-0.72754
-0.72266
-0.71655
-0.7019
-0.68237
-0.65796
-0.62744
-0.5896
-0.54077
-0.49683
-0.43823
-0.37598
-0.3125
-0.24414
-0.177
-0.10498
-0.03418
0.03662
0.10864
0.17212
0.2356
0.29541
0.3479
0.39673
0.43823
0.47607
0.51392
0.53589
0.56274
0.57861
0.59082
0.60425
0.60913
0.61401
0.61157
0.60913
0.60425
0.59204
0.58594
0.57007
0.55786
0.54077
0.52124
0.50415
0.48096
0.45898
0.43579
0.40405
0.37842
0.34424
0.31372
0.28076
0.2478
0.21851
0.18555
0.15747
0.13062
0.10376
0.08057
0.05493
0.03418
0.01587
-0.00122
-0.01221
-0.03174
-0.04028
-0.04883
-0.05981
-0.06592
-0.07568
-0.08057
-0.08179
-0.08911
-0.09033
-0.09644
-0.09888
-0.1001
-0.10376
-0.10498
-0.10986
-0.11353
-0.11719
-0.12207
-0.12329
-0.12695
-0.1355
-0.1416
-0.15137
-0.15991
-0.16968
-0.18066
-0.19165
-0.20386
-0.21362
-0.22827
-0.2417
-0.25391
-0.26733
-0.27832
-0.29053
-0.30273
-0.31006
-0.32715
-0.33813
-0.35278
-0.36865
-0.38086
-0.39673
-0.4126
-0.42114
-0.43335
-0.44067
-0.4541
-0.46143
-0.47363
-0.48706
-0.49438
-0.50659
-0.51514
-0.52612
-0.53467
-0.54199
-0.55542
-0.5603
-0.57007
-0.57861
-0.58105
-0.58838
-0.5896
-0.59937
-0.60425
-0.60547
-0.61279
-0.61279
-0.61646
-0.62256
-0.62256
-0.62866
-0.62988
-0.63721
-0.64087
-0.64331
-0.65308
-0.6543
-0.6604
-0.6665
-0.66895
-0.67505
-0.67383
-0.67871
-0.67871
-0.67627
-0.67871
-0.66895
-0.66162
-0.64575
-0.6311
-0.60913
-0.57861
-0.54565
-0.50537
-0.45654
-0.41382
-0.35156
-0.29297
-0.22949
-0.16479
-0.1001
-0.03174
0.03296
0.09888
0.16602
0.22339
0.28564
0.33936
0.39063
0.43579
0.47607
0.51514
0.54443
0.57251
0.59692
0.61157
0.62622
0.63477
0.63965
0.64087
0.63599
0.63232
0.62012
0.60425
0.5896
0.56763
0.54688
0.5249
0.50171
0.47974
0.45166
0.42725
0.39795
0.36743
0.33936
0.30518
0.27344
0.24414
0.21362
0.18677
0.15503
0.13184
0.1062
0.08057
0.06348
0.0415
0.02686
0.01099
-0.00122
-0.00854
-0.02075
-0.02197
-0.02686
-0.03174
-0.03052
-0.03418
-0.03418
-0.03296
-0.03296
-0.0293
-0.03296
-0.03174
-0.03296
-0.03662
-0.0354
-0.04028
-0.04028
-0.04639
-0.05005
-0.05371
-0.06226
-0.06714
-0.07568
-0.08789
-0.09399
-0.1062
-0.11475
-0.12939
-0.14404
-0.15381
-0.1709
-0.18311
-0.19897
-0.21484
-0.22705
-0.24658
-0.25635
-0.27832
-0.29297
-0.30396
-0.32104
-0.33203
-0.34424
-0.36255
-0.36865
-0.38086
-0.3894
-0.40283
-0.41504
-0.42358
-0.43701
-0.44434
-0.4541
-0.46631
-0.46997
-0.48096
-0.48584
-0.49316
-0.49805
-0.50171
-0.51025
-0.51147
-0.51758
-0.5249
-0.52734
-0.53711
-0.54077
-0.55054
-0.55664
-0.5603
-0.56885
-0.57129
-0.57617
-0.58105
-0.58105
-0.58594
-0.5835
-0.58472
-0.58472
-0.57983
-0.58105
-0.57007
-0.56152
-0.5481
-0.52612
-0.50415
-0.47119
-0.43579
-0.39307
-0.34058
-0.28809
-0.22339
-0.16113
-0.09766
-0.02563
0.0415
0.11353
0.18188
0.25146
0.32104
0.3772
0.44189
0.49561
0.54443
0.59204
0.62866
0.6665
0.69214
0.71899
0.73853
0.75439
0.76294
0.76782
0.76782
0.76782
0.76416
0.7605
0.75195
0.7373
0.72388
0.70313
0.68604
0.66528
0.64209
0.61768
0.59326
0.56885
0.54321
0.50903
0.48096
0.448
0.41748
0.38696
0.354
0.32471
0.29541
0.26855
0.24536
0.21484
0.19531
0.17212
0.15137
0.13428
0.11841
0.10498
0.09277
0.08423
0.07568
0.06836
0.06592
0.06226
0.06226
0.06226
0.06104
0.06226
0.05981
0.06104
0.05737
0.05493
0.05615
0.05127
0.05005
0.04517
0.03784
0.03296
0.02319
0.01465
0.00488
-0.00732
-0.01709
-0.0293
-0.04272
-0.05859
-0.07446
-0.08911
-0.1062
-0.11963
-0.1355
-0.14648
-0.15625
-0.1709
-0.18311
-0.19653
-0.2124
-0.22339
-0.24048
-0.25024
-0.26855
-0.27954
-0.29053
-0.30151
-0.3186
-0.33081
-0.34668
-0.35767
-0.37109
-0.37964
-0.39185
-0.40039
-0.40649
-0.41382
-0.42358
-0.43091
-0.43945
-0.44312
-0.45166
-0.45532
-0.46387
-0.46997
-0.47241
-0.48096
-0.48218
-0.48584
-0.49072
-0.49194
-0.49805
-0.49927
-0.50537
-0.50903
-0.51025
-0.51514
-0.51514
-0.5188
-0.52124
-0.5249
-0.53223
-0.53345
-0.53711
-0.54077
-0.53955
-0.54565
-0.54077
-0.53711
-0.53589
-0.52979
-0.52368
-0.50659
-0.48706
-0.45898
-0.42114
-0.37964
-0.32715
-0.26978
-0.20874
-0.13794
-0.06836
0.00854
0.08667
0.16602
0.25024
0.32959
0.41138
0.48828
0.55542
0.62744
0.68604
0.74463
0.79468
0.84106
0.88257
0.91431
0.94727
0.97046
0.98633
1.00098
1.00586
1.01196
1.00952
1.00586
1.00098
0.98877
0.979
0.96436
0.94604
0.92896
0.90454
0.88379
0.85938
0.83374
0.81055
0.77881
0.75317
0.72388
0.69092
0.66162
0.625
0.59204
0.55908
0.5249
0.49561
0.45898
0.43335
0.40405
0.37598
0.35156
0.32593
0.3064
0.28687
0.26978
0.25635
0.2417
0.23438
0.22583
0.21606
0.21362
0.20386
0.2002
0.19531
0.19165
0.19043
0.18311
0.18188
0.17944
0.16846
0.16846
0.15747
0.14771
0.1416
0.12817
0.12207
0.10864
0.09766
0.08545
0.06958
0.05859
0.0415
0.02075
0.00977
-0.00854
-0.01953
-0.0415
-0.05737
-0.0708
-0.09033
-0.10132
-0.12085
-0.1355
-0.14893
-0.16602
-0.17822
-0.19287
-0.20508
-0.21851
-0.23438
-0.24536
-0.26245
-0.2771
-0.28931
-0.30396
-0.31616
-0.32837
-0.34058
-0.354
-0.36621
-0.37354
-0.38818
-0.39795
-0.40771
-0.41748
-0.42358
-0.43213
-0.43579
-0.44312
-0.44434
-0.44434
-0.44922
-0.4541
-0.45776
-0.46387
-0.46875
-0.47852
-0.48462
-0.49438
-0.50293
-0.50537
-0.5188
-0.52124
-0.52368
-0.52734
-0.53223
-0.53589
-0.53833
-0.54077
-0.54199
-0.53711
-0.53589
-0.52246
-0.50049
-0.46753
-0.41748
-0.36255
-0.30273
-0.24536
-0.18921
-0.12695
-0.07202
-0.00366
0.0708
0.14648
0.2356
0.32104
0.40771
0.48828
0.56152
0.63232
0.6897
0.74585
0.79712
0.83618
0.87524
0.90698
0.93506
0.96191
0.98267
1.0022
1.00708
1.01196
1.00708
0.98999
0.98022
0.96436
0.94971
0.93506
0.91919
0.90698
0.88379
0.86182
0.83618
0.802
0.77148
0.73242
0.69214
0.6543
0.61401
0.57983
0.53833
0.50415
0.46997
0.43335
0.40283
0.37231
0.3418
0.3186
0.29175
0.271
0.2478
0.22949
0.2124
0.19043
0.177
0.16113
0.14648
0.13794
0.12695
0.12207
0.11597
0.11353
0.11108
0.10864
0.10742
0.10254
0.09766
0.09399
0.08789
0.08545
0.0769
0.0708
0.06104
0.05127
0.04395
0.03174
0.02197
0.01099
-0.00366
-0.01465
-0.03296
-0.04761
-0.06226
-0.08057
-0.09521
-0.1123
-0.12573
-0.14038
-0.15991
-0.16968
-0.18799
-0.20142
-0.21973
-0.23804
-0.25146
-0.26978
-0.28442
-0.29663
-0.3125
-0.32104
-0.33569
-0.35156
-0.35889
-0.37354
-0.38086
-0.39673
-0.40894
-0.4187
-0.43335
-0.44067
-0.45288
-0.46509
-0.47119
-0.48218
-0.49194
-0.49805
-0.50537
-0.5127
-0.52002
-0.5249
-0.53345
-0.53955
-0.54443
-0.55054
-0.5542
-0.55664
-0.55908
-0.56152
-0.56519
-0.56519
-0.57251
-0.57495
-0.57617
-0.58228
-0.5835
-0.58838
-0.59204
-0.59448
-0.59937
-0.60059
-0.60669
-0.60791
-0.60913
-0.61523
-0.61523
-0.6189
-0.6189
-0.61768
-0.61646
-0.60791
-0.60059
-0.5835
-0.5603
-0.53711
-0.49683
-0.45654
-0.40771
-0.34668
-0.28564
-0.20874
-0.1416
-0.06226
0.02197
0.10254
0.19165
0.27588
0.36133
0.44678
0.5249
0.59814
0.66895
0.73364
0.79346
0.84229
0.88867
0.92529
0.95459
0.98267
0.99731
1.01074
1.0144
1.01563
1.01196
1.00098
0.99121
0.97412
0.95581
0.93872
0.91431
0.89355
0.86792
0.84351
0.82153
0.78735
0.75928
0.7251
0.68848
0.6543
0.61401
0.57739
0.53833
0.50049
0.46021
0.42603
0.39551
0.36255
0.33081
0.30518
0.27832
0.25757
0.23682
0.21729
0.20264
0.18677
0.17578
0.16235
0.15381
0.14893
0.13916
0.13672
0.13062
0.12939
0.12817
0.12695
0.12939
0.12817
0.12939
0.13184
0.12817
0.13062
0.12695
0.11597
0.11597
0.1062
0.10132
0.08423
0.0708
0.05859
0.04028
0.0293
0.01343
0
-0.00854
-0.02319
-0.0354
-0.04761
-0.06226
-0.07935
-0.09644
-0.11108
-0.12695
-0.14648
-0.15991
-0.17456
-0.18555
-0.19775
-0.20874
-0.21973
-0.2356
-0.24658
-0.26489
-0.27954
-0.29297
-0.3125
-0.32227
-0.33325
-0.34058
-0.35156
-0.36133
-0.36499
-0.37598
-0.38208
-0.38696
-0.39551
-0.40161
-0.41016
-0.41992
-0.4248
-0.43579
-0.44312
-0.45532
-0.46265
-0.46509
-0.47607
-0.47974
-0.48584
-0.49194
-0.49194
-0.49683
-0.49561
-0.49561
-0.49072
-0.48462
-0.47241
-0.45166
-0.42969
-0.39429
-0.35278
-0.30762
-0.25269
-0.19653
-0.1355
-0.06714
-0.00122
0.07202
0.14038
0.21484
0.28931
0.35645
0.43091
0.49194
0.5542
0.60669
0.65308
0.7019
0.7373
0.77026
0.79956
0.81909
0.83984
0.85205
0.86426
0.86304
0.85571
0.84717
0.83008
0.81055
0.79102
0.76172
0.73853
0.70801
0.67383
0.65063
0.61768
0.58716
0.55298
0.5188
0.48584
0.44556
0.41138
0.37109
0.33081
0.29541
0.25635
0.22217
0.18921
0.15747
0.12695
0.10132
0.07935
0.05859
0.03906
0.02686
0.01587
0.0061
-0.00122
-0.0061
-0.00854
-0.01221
-0.01343
-0.01709
-0.01709
-0.01465
-0.01953
-0.01709
-0.01831
-0.02197
-0.01709
-0.01953
-0.01831
-0.02075
-0.02319
-0.02197
-0.03052
-0.03296
-0.04028
-0.04883
-0.05371
-0.0647
-0.07324
-0.08667
-0.10132
-0.11475
-0.13184
-0.14526
-0.16357
-0.177
-0.18921
-0.2063
-0.21851
-0.23193
-0.24292
-0.25635
-0.271
-0.28076
-0.29541
-0.30884
-0.31982
-0.33691
-0.34668
-0.36255
-0.37842
-0.38818
-0.40405
-0.41748
-0.42725
-0.43945
-0.44922
-0.46265
-0.46875
-0.47607
-0.49072
-0.49683
-0.50659
-0.51392
-0.52124
-0.52856
-0.53467
-0.54199
-0.54688
-0.5542
-0.55908
-0.5603
-0.56763
-0.56274
-0.56152
-0.55542
-0.54321
-0.52612
-0.49927
-0.47241
-0.43213
-0.3833
-0.33203
-0.26978
-0.20264
-0.13306
-0.05493
0.02319
0.10498
0.18433
0.26489
0.34546
0.42236
0.49927
0.56396
0.62744
0.68726
0.73853
0.78613
0.82642
0.86182
0.89111
0.91064
0.93018
0.93872
0.9436
0.94727
0.94116
0.93384
0.92163
0.90454
0.88745
0.86182
0.8374
0.80811
0.77881
0.74951
0.71289
0.68237
0.64575
0.60547
0.57007
0.52856
0.49194
0.44556
0.40405
0.36743
0.32837
0.29297
0.25879
0.22583
0.20142
0.17212
0.15015
0.12939
0.10986
0.09399
0.07935
0.06958
0.05493
0.05127
0.05005
0.0415
0.04272
0.04395
0.04395
0.04517
0.04517
0.04639
0.04761
0.04761
0.05005
0.04639
0.04517
0.04395
0.03784
0.03662
0.0293
0.01709
0.01343
0.00244
-0.00977
-0.02441
-0.03906
-0.05371
-0.06958
-0.07935
-0.09277
-0.10376
-0.11475
-0.12817
-0.13916
-0.15381
-0.16602
-0.17944
-0.19409
-0.20508
-0.22217
-0.23193
-0.24536
-0.26123
-0.26978
-0.28442
-0.29175
-0.3064
-0.31982
-0.32959
-0.34302
-0.354
-0.36499
-0.37842
-0.38696
-0.40283
-0.41382
-0.42358
-0.43579
-0.44312
-0.44922
-0.45288
-0.46143
-0.46143
-0.45776
-0.45776
-0.448
-0.43213
-0.41016
-0.38208
-0.34546
-0.29785
-0.24658
-0.18799
-0.11719
-0.05005
0.0293
0.11108
0.19165
0.27832
0.36133
0.44556
0.53101
0.61035
0.68604
0.75806
0.82397
0.88501
0.9314
0.979
1.01685
1.0498
1.07666
1.09497
1.11084
1.1145
1.11694
1.10962
1.10596
1.09741
1.08276
1.06079
1.04126
1.01318
0.98877
0.95703
0.92651
0.89355
0.85693
0.82397
0.78369
0.74585
0.70679
0.66162
0.62378
0.57739
0.53467
0.49438
0.44922
0.40527
0.36865
0.33325
0.29785
0.26611
0.2417
0.21729
0.19165
0.17456
0.15503
0.13916
0.12695
0.11719
0.10742
0.1001
0.09644
0.08911
0.08667
0.08789
0.08301
0.08423
0.08179
0.07935
0.07935
0.07446
0.07202
0.06714
0.06226
0.05615
0.04639
0.03906
0.02808
0.01709
0.0061
-0.00854
-0.01953
-0.03784
-0.05371
-0.07202
-0.09033
-0.10498
-0.12451
-0.13916
-0.15503
-0.17334
-0.18555
-0.20386
-0.22217
-0.23682
-0.25391
-0.271
-0.28687
-0.30151
-0.32104
-0.33325
-0.34424
-0.36133
-0.37231
-0.38452
-0.39795
-0.40649
-0.4187
-0.42603
-0.43823
-0.44922
-0.45654
-0.47119
-0.48096
-0.4895
-0.50171
-0.50781
-0.51636
-0.52246
-0.52612
-0.53101
-0.53345
-0.53711
-0.53467
-0.53101
-0.52124
-0.50293
-0.4834
-0.44922
-0.41016
-0.36865
-0.30884
-0.24902
-0.18066
-0.10132
-0.02075
0.06836
0.15625
0.2478
0.34546
0.43091
0.52734
0.61035
0.69336
0.77026
0.83862
0.90332
0.95947
1.00952
1.04858
1.08154
1.11084
1.12427
1.1377
1.14502
1.14258
1.1377
1.12671
1.1145
1.09741
1.07544
1.05469
1.02295
0.99365
0.96191
0.92407
0.89233
0.85327
0.81055
0.77515
0.7312
0.6897
0.64209
0.59814
0.5542
0.51025
0.46875
0.42969
0.38574
0.35034
0.3125
0.28198
0.24902
0.22095
0.19531
0.16724
0.14648
0.12329
0.1062
0.09155
0.0769
0.0708
0.05859
0.05005
0.04639
0.03906
0.0354
0.03296
0.03174
0.02808
0.02686
0.02808
0.01953
0.01709
0.01465
0.0061
0.00244
-0.00732
-0.01343
-0.02686
-0.03662
-0.0415
-0.05127
-0.05859
-0.06592
-0.08545
-0.10254
-0.12451
-0.14771
-0.16602
-0.18433
-0.19897
-0.21484
-0.22949
-0.24292
-0.26123
-0.27588
-0.30029
-0.31982
-0.33936
-0.36377
-0.37842
-0.39795
-0.41504
-0.4248
-0.43701
-0.448
-0.45532
-0.46387
-0.47485
-0.4834
-0.48706
-0.49194
-0.50171
-0.50415
-0.51636
-0.52612
-0.54077
-0.55054
-0.55908
-0.57007
-0.57495
-0.58594
-0.59448
-0.60059
-0.61279
-0.61768
-0.625
-0.6311
-0.62988
-0.63232
-0.62622
-0.6189
-0.60669
-0.5896
-0.56763
-0.53711
-0.50293
-0.4541
-0.39673
-0.33691
-0.26367
-0.18921
-0.10986
-0.01953
0.06714
0.15991
0.24536
0.33325
0.4187
0.49561
0.57251
0.63965
0.70068
0.7605
0.80933
0.85693
0.89355
0.92529
0.94971
0.96924
0.98267
0.98145
0.98145
0.97534
0.95947
0.94482
0.92407
0.9021
0.87891
0.84839
0.82153
0.78735
0.75684
0.7251
0.68481
0.64941
0.60547
0.56274
0.52368
0.47852
0.43579
0.39185
0.34912
0.30518
0.26245
0.22461
0.17822
0.14648
0.11597
0.08179
0.05859
0.0354
0.01099
0
-0.01587
-0.02075
-0.03418
-0.04028
-0.0415
-0.04639
-0.04395
-0.04517
-0.04639
-0.0415
-0.04272
-0.0415
-0.0415
-0.04028
-0.0415
-0.04639
-0.04395
-0.05127
-0.05371
-0.05859
-0.06958
-0.07568
-0.08667
-0.09888
-0.10742
-0.12329
-0.13672
-0.15259
-0.1709
-0.18555
-0.20386
-0.21851
-0.23682
-0.25146
-0.26489
-0.28442
-0.29663
-0.3125
-0.33081
-0.3418
-0.36011
-0.37598
-0.39185
-0.40894
-0.42847
-0.44556
-0.46021
-0.47974
-0.49438
-0.50171
-0.51636
-0.52124
-0.52734
-0.53345
-0.53955
-0.54932
-0.55176
-0.56641
-0.57373
-0.58228
-0.59326
-0.59937
-0.60791
-0.61768
-0.62256
-0.62988
-0.63477
-0.64087
-0.64575
-0.64819
-0.65308
-0.65063
-0.65063
-0.64697
-0.63477
-0.62134
-0.59937
-0.57129
-0.53711
-0.4895
-0.43823
-0.37598
-0.30884
-0.23682
-0.15747
-0.0769
0.01099
0.09399
0.17944
0.26733
0.3479
0.43213
0.50659
0.57007
0.63721
0.69092
0.74463
0.78369
0.81543
0.84595
0.86426
0.88013
0.88623
0.88745
0.88501
0.87524
0.86548
0.84839
0.82764
0.80688
0.77759
0.75195
0.71533
0.68115
0.64697
0.60303
0.56885
0.52368
0.47607
0.43579
0.38574
0.33813
0.29419
0.25024
0.20508
0.16724
0.12939
0.09399
0.05981
0.03052
-0.00366
-0.02563
-0.04761
-0.06958
-0.08179
-0.09521
-0.1001
-0.10986
-0.11475
-0.11108
-0.11963
-0.11841
-0.11719
-0.11963
-0.11597
-0.11597
-0.11353
-0.11353
-0.11475
-0.11475
-0.12085
-0.12207
-0.12817
-0.13428
-0.13672
-0.14648
-0.15259
-0.16235
-0.17578
-0.18433
-0.2002
-0.21362
-0.22949
-0.24292
-0.25635
-0.27222
-0.28442
-0.30029
-0.31616
-0.32715
-0.34668
-0.35767
-0.37231
-0.3894
-0.40161
-0.4187
-0.43335
-0.448
-0.46509
-0.47974
-0.49683
-0.51025
-0.52612
-0.54199
-0.5542
-0.57251
-0.5835
-0.59448
-0.60547
-0.60913
-0.6189
-0.625
-0.62744
-0.63354
-0.63965
-0.64331
-0.64819
-0.65918
-0.66406
-0.66772
-0.68115
-0.68115
-0.68604
-0.69336
-0.69214
-0.6958
-0.69824
-0.69702
-0.69702
-0.69336
-0.69336
-0.68604
-0.67627
-0.6604
-0.63477
-0.60791
-0.56519
-0.5188
-0.46509
-0.39795
-0.33203
-0.25513
-0.17334
-0.08789
0.00244
0.09399
0.18921
0.28076
0.36987
0.46143
0.54077
0.61646
0.68604
0.74707
0.80078
0.84595
0.88501
0.91553
0.9375
0.95825
0.96313
0.96924
0.96924
0.95947
0.95093
0.93384
0.91064
0.89478
0.86792
0.84106
0.80811
0.77515
0.74219
0.70801
0.67383
0.63477
0.59937
0.55908
0.51636
0.47729
0.43091
0.38696
0.34546
0.30029
0.26123
0.21973
0.18311
0.14526
0.11108
0.08301
0.04883
0.02563
0.00244
-0.02197
-0.03418
-0.05127
-0.06348
-0.06958
-0.0769
-0.08057
-0.08545
-0.08667
-0.08667
-0.08789
-0.08667
-0.08545
-0.08911
-0.09033
-0.09155
-0.09155
-0.09521
-0.09399
-0.1001
-0.1062
-0.10742
-0.12085
-0.12817
-0.13672
-0.15625
-0.16602
-0.17944
-0.19775
-0.2124
-0.22583
-0.24414
-0.26245
-0.27588
-0.29663
-0.31616
-0.32471
-0.35034
-0.36499
-0.37842
-0.40161
-0.41626
-0.42969
-0.448
-0.46265
-0.47485
-0.4895
-0.50415
-0.5127
-0.52734
-0.54077
-0.54565
-0.56152
-0.57129
-0.57739
-0.59204
-0.5957
-0.60425
-0.61646
-0.62378
-0.62988
-0.63843
-0.64575
-0.65063
-0.65796
-0.66528
-0.66528
-0.67505
-0.67505
-0.67627
-0.67993
-0.67749
-0.67871
-0.67871
-0.67871
-0.68237
-0.68237
-0.68848
-0.69214
-0.6958
-0.69946
-0.70068
-0.70557
-0.70679
-0.70679
-0.71045
-0.70679
-0.70679
-0.7019
-0.69092
-0.68237
-0.66162
-0.63843
-0.60425
-0.56396
-0.51636
-0.4541
-0.39307
-0.31982
-0.23926
-0.15625
-0.06348
0.03174
0.12573
0.22461
0.32104
0.41748
0.50781
0.59692
0.67993
0.75439
0.82642
0.88501
0.93994
0.98511
1.02051
1.05103
1.06934
1.08398
1.09375
1.09497
1.09375
1.08643
1.07544
1.05957
1.04248
1.02295
0.99243
0.9668
0.9375
0.9021
0.8728
0.83618
0.79712
0.76172
0.72021
0.67749
0.63354
0.59082
0.54443
0.50171
0.46143
0.41626
0.3772
0.33936
0.29663
0.26611
0.23071
0.19775
0.17212
0.14404
0.12329
0.10498
0.08789
0.07324
0.05981
0.05127
0.03906
0.03296
0.0293
0.02197
0.02197
0.01709
0.01465
0.01343
0.00854
0.0061
0
-0.00488
-0.00977
-0.01831
-0.02197
-0.03296
-0.04028
-0.04761
-0.06226
-0.06958
-0.08545
-0.09888
-0.11108
-0.12695
-0.1416
-0.15625
-0.17212
-0.18799
-0.2063
-0.22095
-0.24292
-0.26001
-0.27344
-0.29297
-0.3064
-0.32471
-0.3418
-0.35767
-0.3772
-0.39307
-0.41382
-0.43091
-0.44556
-0.46387
-0.47729
-0.49194
-0.50415
-0.5127
-0.52734
-0.53467
-0.5481
-0.55908
-0.56641
-0.57617
-0.58228
-0.59082
-0.59692
-0.60181
-0.60913
-0.61157
-0.62012
-0.62378
-0.62744
-0.63354
-0.63599
-0.64087
-0.64453
-0.64575
-0.64941
-0.65186
-0.65796
-0.6604
-0.6665
-0.67139
-0.67017
-0.67749
-0.67993
-0.67993
-0.68481
-0.68115
-0.68604
-0.68115
-0.67261
-0.66406
-0.64697
-0.625
-0.59814
-0.55786
-0.51514
-0.46265
-0.40039
-0.33203
-0.26001
-0.17944
-0.09277
-0.00977
0.08301
0.17578
0.26367
0.35889
0.44556
0.52856
0.61157
0.68115
0.74707
0.80566
0.85571
0.89722
0.93506
0.96802
0.98755
1.0022
1.0144
1.01196
1.01563
1.00708
0.99854
0.98267
0.96436
0.94604
0.91431
0.88501
0.85938
0.82031
0.78857
0.74829
0.71045
0.67261
0.62744
0.58838
0.54321
0.49438
0.45166
0.40527
0.35767
0.31738
0.27588
0.2356
0.2002
0.16724
0.13062
0.10132
0.07568
0.04883
0.03174
0.01221
-0.00366
-0.01221
-0.02441
-0.0293
-0.03662
-0.0415
-0.0415
-0.04517
-0.04272
-0.04517
-0.04517
-0.04395
-0.04883
-0.04761
-0.05249
-0.05615
-0.05737
-0.06348
-0.06714
-0.07568
-0.08301
-0.09033
-0.10254
-0.11108
-0.12817
-0.1416
-0.15381
-0.17334
-0.18677
-0.20386
-0.22095
-0.2356
-0.25269
-0.26855
-0.28687
-0.29907
-0.31738
-0.33569
-0.35034
-0.36743
-0.38452
-0.39917
-0.41626
-0.42847
-0.44678
-0.46143
-0.47241
-0.49316
-0.50049
-0.51514
-0.52979
-0.53589
-0.54932
-0.55908
-0.56885
-0.57861
-0.58716
-0.5957
-0.60059
-0.61035
-0.61768
-0.62378
-0.63477
-0.63843
-0.64819
-0.6543
-0.65796
-0.6665
-0.67017
-0.67505
-0.67749
-0.67993
-0.68359
-0.68237
-0.68604
-0.68848
-0.68848
-0.69336
-0.69336
-0.6958
-0.69946
-0.69946
-0.70435
-0.70557
-0.71045
-0.71411
-0.71411
-0.71899
-0.71655
-0.71777
-0.71655
-0.71045
-0.70801
-0.69702
-0.68726
-0.67139
-0.64697
-0.61401
-0.57617
-0.52612
-0.46753
-0.39795
-0.32593
-0.24292
-0.15869
-0.06836
0.02319
0.11963
0.21729
0.30884
0.40649
0.49805
0.57495
0.65918
0.72876
0.78979
0.85205
0.89966
0.94482
0.98145
1.00952
1.03394
1.04858
1.05957
1.06079
1.05835
1.05347
1.03882
1.02417
1.0022
0.97656
0.95093
0.91797
0.88745
0.85205
0.81543
0.77637
0.7373
0.69824
0.65186
0.61035
0.56885
0.52124
0.48096
0.43579
0.39185
0.354
0.3125
0.27466
0.23926
0.2063
0.17822
0.15137
0.12939
0.10864
0.08911
0.07935
0.06104
0.05249
0.04395
0.03784
0.03662
0.03418
0.0354
0.0354
0.0354
0.03906
0.03784
0.04639
0.04395
0.04517
0.04761
0.04761
0.05005
0.04517
0.0415
0.04028
0.0293
0.02563
0.01831
0.00488
0.00244
-0.01099
-0.02319
-0.03418
-0.05005
-0.0647
-0.08179
-0.09766
-0.11597
-0.13428
-0.15259
-0.17334
-0.18921
-0.20752
-0.22705
-0.24048
-0.25757
-0.27344
-0.28687
-0.30273
-0.31616
-0.33081
-0.3418
-0.35767
-0.37109
-0.38086
-0.39795
-0.40894
-0.41748
-0.43335
-0.44189
-0.45532
-0.46265
-0.47119
-0.48462
-0.48462
-0.49438
-0.50171
-0.50537
-0.51147
-0.51514
-0.52246
-0.5249
-0.53101
-0.53589
-0.53833
-0.54688
-0.55054
-0.5542
-0.5603
-0.5603
-0.56519
-0.56641
-0.56763
-0.57007
-0.56763
-0.56763
-0.55908
-0.54688
-0.53101
-0.50171
-0.47485
-0.43335
-0.38696
-0.33081
-0.26245
-0.2002
-0.11719
-0.03784
0.04272
0.13062
0.21362
0.30029
0.38452
0.46509
0.54443
0.61279
0.67993
0.7373
0.78857
0.83618
0.8728
0.9082
0.93384
0.95215
0.96924
0.9729
0.97656
0.97534
0.9668
0.95581
0.93872
0.91797
0.89111
0.86304
0.83374
0.79712
0.76538
0.72632
0.68359
0.64209
0.59814
0.5542
0.51025
0.46143
0.41748
0.36865
0.32837
0.28076
0.23926
0.20142
0.16479
0.13306
0.1001
0.07813
0.05859
0.03418
0.02075
0.00732
-0.00732
-0.01343
-0.02197
-0.02686
-0.03052
-0.03296
-0.03052
-0.03296
-0.02808
-0.02441
-0.02197
-0.01709
-0.01709
-0.00977
-0.00732
-0.00854
-0.00488
-0.00977
-0.01099
-0.01343
-0.02319
-0.02319
-0.03296
-0.0415
-0.04883
-0.06104
-0.06958
-0.08423
-0.09521
-0.10864
-0.12207
-0.13428
-0.15015
-0.16357
-0.17822
-0.19409
-0.2063
-0.22217
-0.23682
-0.25269
-0.26611
-0.28564
-0.30029
-0.3186
-0.33081
-0.34668
-0.36011
-0.37354
-0.38452
-0.39673
-0.40894
-0.4187
-0.43213
-0.44067
-0.45044
-0.46387
-0.46997
-0.48218
-0.49194
-0.50049
-0.51147
-0.52124
-0.53101
-0.53711
-0.5481
-0.55786
-0.56396
-0.56885
-0.57251
-0.57739
-0.57495
-0.57007
-0.56641
-0.55176
-0.53223
-0.50903
-0.46875
-0.42847
-0.3772
-0.31372
-0.2478
-0.1709
-0.09155
-0.0061
0.08057
0.16479
0.25757
0.33936
0.42603
0.51147
0.58228
0.65674
0.72388
0.78125
0.83374
0.88379
0.91919
0.94971
0.98022
0.99731
1.00952
1.02051
1.02051
1.01929
1.00952
0.99487
0.98022
0.95337
0.92896
0.89844
0.86182
0.83252
0.79346
0.75317
0.71411
0.66895
0.62622
0.57617
0.52856
0.48218
0.43213
0.38818
0.34302
0.30273
0.26489
0.22705
0.19775
0.16235
0.13428
0.11108
0.08301
0.0708
0.05249
0.03662
0.02686
0.01709
0.01343
0.00732
0.0061
0.00488
0.00122
0.00366
0.00122
0.00488
0.00854
0.00732
0.01343
0.01343
0.01221
0.01587
0.01221
0.01587
0.01343
0.0061
0.00977
0.00122
-0.00488
-0.01587
-0.02686
-0.03906
-0.05249
-0.0647
-0.0769
-0.09155
-0.10498
-0.12085
-0.13184
-0.15015
-0.16724
-0.17944
-0.19287
-0.20996
-0.22583
-0.2417
-0.25757
-0.27466
-0.29053
-0.3064
-0.32104
-0.33569
-0.34912
-0.36011
-0.37598
-0.38574
-0.39795
-0.41016
-0.41626
-0.42847
-0.43823
-0.44678
-0.45532
-0.46509
-0.47607
-0.4834
-0.49194
-0.50293
-0.51147
-0.52002
-0.52734
-0.53467
-0.54199
-0.54565
-0.55176
-0.55298
-0.54932
-0.54565
-0.52979
-0.51392
-0.49072
-0.45288
-0.40771
-0.354
-0.29175
-0.21973
-0.14038
-0.05737
0.03418
0.12573
0.22217
0.32227
0.41992
0.52002
0.61401
0.70679
0.79346
0.86914
0.94482
1.00586
1.06201
1.11206
1.15112
1.1853
1.2085
1.22803
1.24146
1.24634
1.25
1.23901
1.22803
1.21704
1.19873
1.18164
1.15479
1.12549
1.09375
1.05347
1.01807
0.97534
0.92896
0.89233
0.84839
0.80566
0.76172
0.71777
0.67261
0.62256
0.57983
0.52979
0.48584
0.44312
0.39795
0.36133
0.32593
0.28931
0.26001
0.23071
0.20996
0.18555
0.16479
0.15259
0.13794
0.12817
0.11841
0.11353
0.10986
0.10376
0.10376
0.09888
0.09766
0.09766
0.09033
0.09155
0.08545
0.08423
0.08301
0.07202
0.07568
0.06836
0.06104
0.05737
0.04395
0.03418
0.01953
0.00488
-0.01099
-0.02808
-0.04028
-0.06104
-0.0769
-0.08911
-0.1123
-0.12573
-0.14771
-0.16357
-0.17944
-0.20142
-0.21484
-0.2356
-0.25269
-0.26733
-0.28687
-0.30273
-0.31982
-0.33569
-0.35034
-0.36743
-0.37598
-0.39429
-0.40527
-0.41504
-0.42847
-0.43701
-0.44922
-0.45654
-0.46387
-0.47729
-0.48218
-0.49561
-0.50537
-0.51392
-0.52612
-0.53467
-0.54565
-0.55054
-0.55664
-0.56396
-0.56641
-0.56885
-0.56885
-0.56519
-0.55786
-0.54199
-0.52612
-0.49927
-0.46143
-0.42114
-0.36255
-0.30273
-0.23315
-0.15137
-0.06958
0.02319
0.11597
0.21118
0.31128
0.40771
0.50537
0.60059
0.6897
0.77393
0.85205
0.92651
0.98755
1.04492
1.09619
1.13403
1.16821
1.19141
1.20483
1.21826
1.21826
1.21826
1.20972
1.19751
1.1853
1.16455
1.14624
1.11572
1.08643
1.05469
1.01563
0.98022
0.93384
0.89233
0.84961
0.79834
0.75806
0.71167
0.66406
0.62012
0.57129
0.52368
0.47485
0.42725
0.38208
0.33691
0.29907
0.25879
0.22339
0.19287
0.16479
0.1416
0.11475
0.09888
0.08423
0.06592
0.05859
0.04639
0.03784
0.0354
0.02808
0.02686
0.02441
0.02563
0.02808
0.02808
0.03174
0.02808
0.02441
0.01953
0.01343
0.00977
0.00244
-0.00488
-0.00977
-0.02075
-0.02686
-0.04028
-0.05493
-0.06836
-0.08545
-0.1062
-0.12695
-0.15137
-0.16235
-0.18188
-0.19897
-0.21729
-0.23438
-0.24902
-0.26855
-0.2832
-0.30151
-0.3186
-0.33325
-0.35278
-0.36499
-0.38574
-0.40161
-0.41382
-0.43579
-0.44556
-0.46265
-0.47852
-0.49072
-0.50659
-0.5188
-0.53345
-0.54565
-0.5542
-0.56519
-0.56641
-0.57983
-0.58594
-0.59326
-0.59692
-0.59937
-0.61035
-0.61646
-0.62012
-0.6311
-0.63354
-0.63843
-0.64453
-0.64697
-0.65308
-0.65552
-0.6604
-0.6665
-0.66528
-0.67017
-0.67139
-0.67139
-0.67139
-0.6665
-0.6604
-0.64575
-0.62988
-0.60303
-0.56519
-0.52612
-0.47119
-0.40527
-0.33936
-0.25757
-0.17822
-0.07813
0.01709
0.11597
0.22095
0.3186
0.42114
0.5188
0.61157
0.69824
0.77393
0.84961
0.90942
0.96436
1.0144
1.05103
1.08276
1.1084
1.12183
1.13403
1.13159
1.13037
1.12183
1.10474
1.09375
1.06934
1.0437
1.01685
0.98267
0.94849
0.90942
0.87158
0.82886
0.78369
0.74097
0.69214
0.64697
0.59448
0.54565
0.49805
0.44556
0.40283
0.35522
0.30884
0.26978
0.22705
0.19043
0.15625
0.12329
0.09766
0.0708
0.05127
0.03174
0.01587
0.00366
-0.00854
-0.01587
-0.02563
-0.03174
-0.03296
-0.03784
-0.0354
-0.03418
-0.03418
-0.0293
-0.03052
-0.02686
-0.02808
-0.0293
-0.02563
-0.03052
-0.03418
-0.0415
-0.05005
-0.05859
-0.07324
-0.08301
-0.09644
-0.1123
-0.12573
-0.14404
-0.15869
-0.17578
-0.19165
-0.20508
-0.22583
-0.24048
-0.25757
-0.27466
-0.28931
-0.30518
-0.32471
-0.34302
-0.36377
-0.37598
-0.39673
-0.41504
-0.43213
-0.45166
-0.46631
-0.48584
-0.49927
-0.51636
-0.53101
-0.53589
-0.55542
-0.56396
-0.57861
-0.58716
-0.59204
-0.60303
-0.60791
-0.61523
-0.62256
-0.625
-0.63354
-0.63721
-0.64331
-0.64819
-0.65552
-0.66284
-0.67261
-0.67627
-0.68359
-0.68848
-0.69702
-0.70068
-0.70679
-0.71167
-0.71411
-0.71899
-0.72021
-0.72021
-0.72632
-0.72021
-0.71899
-0.70435
-0.68604
-0.66162
-0.62378
-0.58105
-0.52612
-0.46265
-0.39185
-0.3125
-0.23071
-0.13794
-0.05005
0.04272
0.13428
0.23315
0.32959
0.41748
0.50293
0.58594
0.65552
0.72266
0.78369
0.83374
0.88135
0.91675
0.94849
0.97046
0.98633
0.99731
0.99731
0.99609
0.98633
0.97046
0.95825
0.93018
0.90576
0.87524
0.83984
0.80811
0.7666
0.72998
0.68848
0.64453
0.60181
0.55298
0.50537
0.45654
0.40771
0.35767
0.30518
0.25635
0.21484
0.17212
0.13306
0.09521
0.06348
0.03296
0.0061
-0.01343
-0.03662
-0.05127
-0.05859
-0.07446
-0.08057
-0.09277
-0.09033
-0.09155
-0.09521
-0.09155
-0.09277
-0.08911
-0.08423
-0.08179
-0.0769
-0.07324
-0.07202
-0.06836
-0.06714
-0.06714
-0.06836
-0.0708
-0.07568
-0.08423
-0.08789
-0.10132
-0.10986
-0.12329
-0.13916
-0.15015
-0.16968
-0.18311
-0.19897
-0.21851
-0.23071
-0.24658
-0.26123
-0.2771
-0.29297
-0.3064
-0.32471
-0.33691
-0.35522
-0.37231
-0.38818
-0.40161
-0.41504
-0.43335
-0.45044
-0.46265
-0.4834
-0.49438
-0.50537
-0.52002
-0.52734
-0.53711
-0.54077
-0.54688
-0.55664
-0.55908
-0.56885
-0.57617
-0.5835
-0.59326
-0.60181
-0.61401
-0.6189
-0.63354
-0.64331
-0.65308
-0.65796
-0.66284
-0.66772
-0.67017
-0.66772
-0.66895
-0.66528
-0.66284
-0.66162
-0.6543
-0.65186
-0.64209
-0.62866
-0.61157
-0.58105
-0.54688
-0.50293
-0.45044
-0.3894
-0.3186
-0.24536
-0.16357
-0.07568
0.01343
0.10498
0.19653
0.28809
0.37598
0.46021
0.54321
0.60913
0.67505
0.73364
0.78125
0.82642
0.86182
0.89233
0.91553
0.92896
0.94604
0.94849
0.94727
0.9436
0.9314
0.91553
0.89233
0.8667
0.83374
0.79712
0.76294
0.71777
0.67749
0.6311
0.58594
0.54199
0.49072
0.44556
0.39673
0.34546
0.30029
0.25024
0.20386
0.16113
0.12207
0.08179
0.04639
0.01343
-0.01343
-0.04028
-0.05859
-0.08057
-0.09277
-0.10498
-0.11353
-0.11475
-0.12451
-0.12329
-0.12817
-0.12451
-0.11841
-0.11841
-0.1123
-0.10742
-0.1062
-0.1001
-0.1001
-0.09644
-0.09521
-0.09521
-0.09277
-0.09521
-0.09888
-0.1001
-0.10498
-0.10742
-0.11597
-0.12451
-0.13672
-0.15015
-0.16357
-0.18066
-0.19653
-0.21362
-0.22949
-0.24414
-0.26245
-0.27588
-0.28931
-0.30762
-0.31616
-0.33081
-0.34424
-0.35522
-0.37354
-0.38208
-0.39795
-0.41382
-0.42969
-0.44922
-0.46509
-0.48706
-0.50049
-0.52002
-0.53467
-0.54932
-0.55664
-0.56396
-0.57251
-0.58105
-0.5835
-0.59204
-0.59692
-0.60181
-0.61035
-0.61401
-0.62134
-0.62622
-0.63354
-0.64209
-0.64453
-0.6543
-0.65918
-0.6604
-0.66162
-0.65552
-0.64697
-0.63232
-0.60669
-0.57617
-0.53467
-0.48828
-0.42847
-0.36499
-0.29419
-0.21362
-0.13306
-0.04761
0.04028
0.12573
0.21729
0.29907
0.38696
0.46753
0.54077
0.61279
0.67627
0.73486
0.78857
0.83252
0.87402
0.90454
0.93384
0.95337
0.96436
0.9729
0.97168
0.9668
0.95459
0.9375
0.91797
0.88623
0.85571
0.82397
0.78369
0.74829
0.70923
0.66772
0.62744
0.57861
0.54199
0.49438
0.44678
0.40283
0.35522
0.31006
0.26367
0.22461
0.17822
0.1355
