0.05859
0.0647
0.06714
0.07202
0.07446
0.07813
0.08179
0.08301
0.09155
0.09644
0.10254
0.10742
0.10986
0.10986
0.10742
0.10376
0.10132
0.09888
0.09644
0.1001
0.1001
0.09888
0.09766
0.09766
0.09399
0.08789
0.08301
0.07568
0.07202
0.0647
0.0647
0.05493
0.04761
0.0354
0.02319
0.01343
0.00488
-0.00366
-0.01221
-0.01587
-0.01831
-0.02197
-0.02808
-0.03174
-0.0354
-0.03906
-0.04761
-0.05127
-0.04883
-0.05249
-0.05371
-0.05859
-0.0647
-0.07202
-0.07568
-0.08423
-0.09277
-0.10132
-0.10376
-0.10864
-0.1123
-0.1123
-0.11963
-0.12451
-0.13428
-0.14526
-0.15137
-0.16235
-0.16235
-0.16846
-0.17212
-0.17822
-0.18066
-0.18555
-0.18799
-0.18799
-0.19043
-0.19409
-0.19409
-0.19775
-0.20142
-0.19897
-0.20142
-0.20264
-0.20874
-0.2124
-0.22095
-0.22827
-0.22827
-0.23315
-0.23682
-0.2417
-0.25146
-0.26001
-0.26611
-0.27466
-0.2832
-0.29053
-0.29663
-0.30273
-0.30762
-0.31128
-0.31616
-0.32349
-0.33203
-0.33691
-0.3418
-0.34424
-0.34424
-0.34668
-0.34912
-0.35278
-0.35767
-0.36377
-0.36621
-0.36499
-0.36499
-0.36743
-0.36621
-0.36499
-0.36255
-0.36133
-0.36377
-0.36377
-0.36621
-0.36865
-0.37109
-0.36743
-0.36011
-0.35278
-0.34058
-0.32593
-0.30884
-0.28564
-0.26123
-0.2356
-0.2063
-0.1709
-0.13428
-0.10132
-0.05981
-0.02441
0.00854
0.03906
0.0647
0.09277
0.11841
0.14038
0.16113
0.17578
0.18799
0.19287
0.19775
0.19897
0.19775
0.19897
0.2002
0.19775
0.20386
0.20264
0.20264
0.20752
0.20752
0.20996
0.2124
0.20752
0.2063
0.2063
0.20874
0.20874
0.20874
0.2124
0.21118
0.20996
0.21118
0.2124
0.21606
0.21606
0.21851
0.21851
0.21729
0.21606
0.21362
0.20508
0.20508
0.19897
0.19531
0.18921
0.18555
0.17944
0.17822
0.17334
0.16968
0.16846
0.16235
0.15869
0.16235
0.15991
0.15869
0.15625
0.15015
0.14526
0.13916
0.13672
0.13062
0.12451
0.11841
0.1123
0.1062
0.1001
0.09155
0.08423
0.07446
0.0647
0.05127
0.03906
0.03296
0.02319
0.01709
0.00977
0.00366
-0.00488
-0.01099
-0.01953
-0.02686
-0.03296
-0.03906
-0.04761
-0.05493
-0.05981
-0.06836
-0.07446
-0.07935
-0.08545
-0.09644
-0.10132
-0.11108
-0.12207
-0.12573
-0.13184
-0.13916
-0.14282
-0.15259
-0.16113
-0.16968
-0.17456
-0.18188
-0.19287
-0.19409
-0.19653
-0.19897
-0.20264
-0.20752
-0.2124
-0.22095
-0.22949
-0.23926
-0.2478
-0.25146
-0.25635
-0.26367
-0.26367
-0.26978
-0.27222
-0.2771
-0.27832
-0.2832
-0.2832
-0.28442
-0.28809
-0.29175
-0.29419
-0.29907
-0.29663
-0.30396
-0.3064
-0.31006
-0.3125
-0.31738
-0.32349
-0.32715
-0.33081
-0.33813
-0.34302
-0.34668
-0.35156
-0.35034
-0.35889
-0.36011
-0.36255
-0.36255
-0.36133
-0.35522
-0.34546
-0.33081
-0.3125
-0.29175
-0.26855
-0.24048
-0.21484
-0.18799
-0.15991
-0.13428
-0.10498
-0.07935
-0.05127
-0.02441
-0.00122
0.02563
0.04028
0.05493
0.06836
0.07935
0.08911
0.09033
0.09033
0.09033
0.09399
0.09277
0.09033
0.09155
0.09033
0.09155
0.09277
0.09399
0.09521
0.09644
0.09766
0.10132
0.10498
0.10986
0.11108
0.11597
0.12573
0.13428
0.14282
0.14771
0.15015
0.15747
0.15869
0.16113
0.15869
0.15625
0.15625
0.15015
0.14893
0.14648
0.14282
0.14404
0.13916
0.13794
0.13916
0.13672
0.13794
0.1355
0.13428
0.1416
0.1416
0.14526
0.14404
0.14526
0.14526
0.13916
0.13916
0.13306
0.12939
0.12573
0.12085
0.11841
0.11353
0.10864
0.10254
0.09277
0.08423
0.07446
0.0647
0.05859
0.05005
0.04517
0.03662
0.03174
0.02441
0.01831
0.00977
-0.00366
-0.01099
-0.02075
-0.03052
-0.03784
-0.0415
-0.04639
-0.05249
-0.05859
-0.06226
-0.0708
-0.07568
-0.08057
-0.08545
-0.08789
-0.09277
-0.09766
-0.10864
-0.10742
-0.11475
-0.12085
-0.12817
-0.13306
-0.13794
-0.1416
-0.14648
-0.15259
-0.15869
-0.16113
-0.16602
-0.17578
-0.17944
-0.18555
-0.19409
-0.19897
-0.2063
-0.2124
-0.21606
-0.22339
-0.22949
-0.23438
-0.2417
-0.24902
-0.25513
-0.26245
-0.26733
-0.27588
-0.28687
-0.30396
-0.32227
-0.33691
-0.35278
-0.36377
-0.37598
-0.3833
-0.39307
-0.39551
-0.40649
-0.4126
-0.41626
-0.42358
-0.4248
-0.43335
-0.43457
-0.43335
-0.43457
-0.43579
-0.43579
-0.43823
-0.43945
-0.44312
-0.44434
-0.44067
-0.43335
-0.4187
-0.40771
-0.38086
-0.35522
-0.32959
-0.29785
-0.26855
-0.23438
-0.19897
-0.1709
-0.1355
-0.11108
-0.07935
-0.05371
-0.0354
-0.00977
0.00122
0.01221
0.02319
0.03296
0.0415
0.04639
0.05493
0.05981
0.05859
0.05981
0.05493
0.06226
0.06592
0.06836
0.07446
0.07568
0.08057
0.09033
0.09277
0.09766
0.09888
0.10498
0.10986
0.11475
0.11963
0.12329
0.12817
0.13062
0.12939
0.12695
0.12817
0.12573
0.12573
0.12451
0.12817
0.12939
0.13062
0.1355
0.14038
0.14771
0.15259
0.15991
0.16235
0.16724
0.17212
0.17456
0.17944
0.18066
0.17944
0.18066
0.17944
0.18188
0.18311
0.18188
0.18311
0.18066
0.18066
0.17822
0.177
0.17334
0.1709
0.16846
0.16479
0.15991
0.15869
0.15259
0.15015
0.14771
0.14038
0.1416
0.13428
0.12939
0.12573
0.12329
0.11963
0.11353
0.11108
0.10498
0.09766
0.08911
0.07935
0.0647
0.06226
0.05493
0.04517
0.03418
0.02441
0.01343
0
-0.01465
-0.03052
-0.04028
-0.05615
-0.0708
-0.08789
-0.09521
-0.10864
-0.12451
-0.14038
-0.15503
-0.16846
-0.18066
-0.19165
-0.20264
-0.20996
-0.21851
-0.22705
-0.23926
-0.23926
-0.2478
-0.25757
-0.26489
-0.27222
-0.27954
-0.27954
-0.28442
-0.28931
-0.29419
-0.29907
-0.30273
-0.31128
-0.3125
-0.31616
-0.32349
-0.32593
-0.33325
-0.33813
-0.33691
-0.34424
-0.34546
-0.35278
-0.35522
-0.35767
-0.36133
-0.35645
-0.35522
-0.35278
-0.35156
-0.35156
-0.35156
-0.34912
-0.354
-0.35522
-0.36133
-0.36377
-0.36499
-0.36621
-0.36621
-0.36255
-0.35767
-0.34912
-0.33203
-0.31372
-0.28809
-0.26001
-0.23193
-0.20264
-0.17456
-0.14893
-0.12939
-0.09888
-0.07202
-0.04639
-0.01953
0.00366
0.02563
0.04639
0.06348
0.07446
0.08179
0.08423
0.08545
0.09277
0.09155
0.09888
0.1001
0.1001
0.09766
0.09644
0.09399
0.09277
0.09155
0.09033
0.09033
0.09399
0.09888
0.10254
0.10742
0.11353
0.11841
0.11841
0.12329
0.12573
0.12817
0.12939
0.12817
0.12695
0.12695
0.12329
0.12085
0.11353
0.10864
0.10498
0.09644
0.10376
0.1001
0.09644
0.09521
0.09521
0.09277
0.09155
0.09033
0.09033
0.08667
0.08667
0.08667
0.08057
0.08667
0.08423
0.08057
0.07935
0.07813
0.07813
0.07568
0.07446
0.0708
0.0708
0.06836
0.06592
0.05615
0.05737
0.04883
0.0415
0.0354
0.03418
0.02808
0.02563
0.01709
0.01099
0.00366
-0.0061
-0.01343
-0.02075
-0.02563
-0.02808
-0.03174
-0.03662
-0.03662
-0.04517
-0.04395
-0.05005
-0.05127
-0.05249
-0.05615
-0.05737
-0.06226
-0.0647
-0.0708
-0.0769
-0.08057
-0.08911
-0.09644
-0.09644
-0.10254
-0.10376
-0.1123
-0.11841
-0.12451
-0.12817
-0.13184
-0.13794
-0.1416
-0.14404
-0.14648
-0.15137
-0.15503
-0.16113
-0.16357
-0.16724
-0.16846
-0.17578
-0.18433
-0.18433
-0.18677
-0.18555
-0.19043
-0.19287
-0.19775
-0.19897
-0.20508
-0.20874
-0.21362
-0.21729
-0.22217
-0.22583
-0.22705
-0.22705
-0.22705
-0.22827
-0.22095
-0.21362
-0.19897
-0.18555
-0.16602
-0.14038
-0.11597
-0.09155
-0.06836
-0.0415
-0.01587
0.00732
0.03052
0.05737
0.08179
0.10864
0.12695
0.14282
0.15625
0.16602
0.177
0.18433
0.18799
0.19165
0.19531
0.2002
0.20142
0.20386
0.20386
0.20264
0.20142
0.19653
0.19775
0.19287
0.2002
0.2002
0.19897
0.19897
0.20142
0.20264
0.2063
0.2063
0.20874
0.20752
0.20752
0.20508
0.19653
0.20142
0.19897
0.19531
0.19287
0.18921
0.18433
0.18311
0.17578
0.16968
0.16602
0.16235
0.15747
0.14648
0.14648
0.13794
0.12939
0.11841
0.11108
0.1062
0.1001
0.09277
0.08545
0.07935
0.07568
0.0708
0.05737
0.06226
0.05615
0.05615
0.05493
0.05127
0.04761
0.04517
0.04639
0.03906
0.0354
0.03296
0.02686
0.02441
0.02441
0.02441
0.01953
0.01343
0.00732
0
-0.00366
-0.00854
-0.01099
-0.01221
-0.01709
-0.02075
-0.02808
-0.03052
-0.03052
-0.03296
-0.0354
-0.03906
-0.04517
-0.04639
-0.05249
-0.05615
-0.06104
-0.06836
-0.07324
-0.08179
-0.08545
-0.09155
-0.09521
-0.09888
-0.10376
-0.1062
-0.10742
-0.11597
-0.12207
-0.12817
-0.13672
-0.14526
-0.15869
-0.16602
-0.177
-0.18677
-0.19409
-0.20264
-0.20996
-0.21973
-0.22827
-0.23804
-0.24658
-0.25024
-0.25635
-0.26001
-0.26123
-0.26367
-0.26611
-0.271
-0.2771
-0.28198
-0.28809
-0.28198
-0.28564
-0.28687
-0.29175
-0.29663
-0.30029
-0.30518
-0.30884
-0.3125
-0.31494
-0.3125
-0.31006
-0.30884
-0.29175
-0.27954
-0.26001
-0.23926
-0.21362
-0.18799
-0.15503
-0.12573
-0.09521
-0.06104
-0.0293
0
0.02808
0.05615
0.08301
0.10498
0.12695
0.14771
0.16113
0.177
0.18799
0.19653
0.20264
0.20752
0.2124
0.21729
0.21851
0.22461
0.22949
0.23682
0.24414
0.25391
0.26001
0.26367
0.26978
0.27344
0.27466
0.2771
0.28687
0.29175
0.29785
0.30151
0.30762
0.31128
0.31616
0.31616
0.31738
0.3186
0.3186
0.31738
0.31494
0.31494
0.31128
0.3064
0.30151
0.29907
0.29541
0.28931
0.29175
0.28809
0.28687
0.28564
0.28442
0.28198
0.27954
0.27832
0.2771
0.27954
0.28076
0.28442
0.27954
0.28076
0.27588
0.27466
0.27222
0.271
0.26733
0.271
0.26733
0.26489
0.26123
0.25635
0.25146
0.24414
0.24292
0.23804
0.23682
0.2356
0.22949
0.22583
0.21973
0.2124
0.2063
0.2002
0.19653
0.19287
0.18921
0.18921
0.18311
0.17822
0.1709
0.16235
0.15381
0.1416
0.1355
0.12695
0.11963
0.11475
0.10498
0.10254
0.09644
0.09033
0.08545
0.08057
0.07568
0.06958
0.05981
0.06226
0.05493
0.04639
0.03784
0.0293
0.02075
0.01221
0.00366
-0.00244
-0.00977
-0.01709
-0.02563
-0.0354
-0.04028
-0.05005
-0.05981
-0.0708
-0.07935
-0.08667
-0.09277
-0.09277
-0.09888
-0.10376
-0.11108
-0.11963
-0.12695
-0.13306
-0.14038
-0.14526
-0.15259
-0.15747
-0.16357
-0.1709
-0.1709
-0.17578
-0.17944
-0.19043
-0.19653
-0.20386
-0.20508
-0.20996
-0.21973
-0.22217
-0.23438
-0.2417
-0.24902
-0.24902
-0.25513
-0.25269
-0.24902
-0.23804
-0.22461
-0.20386
-0.18433
-0.16357
-0.13672
-0.10742
-0.0769
-0.04395
-0.00977
0.02319
0.05005
0.07935
0.10376
0.13062
0.15015
0.17212
0.18921
0.2063
0.21606
0.22705
0.23193
0.24048
0.24536
0.25146
0.25635
0.25879
0.26489
0.27222
0.27954
0.28687
0.29175
0.29663
0.30151
0.31006
0.31128
0.3125
0.31738
0.32349
0.32837
0.33203
0.33813
0.3418
0.34424
0.34546
0.34424
0.34302
0.33936
0.34668
0.3479
0.3479
0.34424
0.34058
0.33447
0.32959
0.32593
0.31982
0.31616
0.3125
0.3064
0.3064
0.30151
0.30029
0.29175
0.28442
0.28076
0.27588
0.27588
0.271
0.26611
0.26611
0.26123
0.26245
0.25635
0.25269
0.24658
0.24048
0.23438
0.22705
0.21973
0.21118
0.20874
0.2002
0.19165
0.18433
0.177
0.16846
0.16235
0.15381
0.14771
0.14282
0.1355
0.12695
0.11597
0.11108
0.1001
0.08667
0.0769
0.06836
0.06104
0.05737
0.04883
0.04517
0.03784
0.03174
0.02563
0.01221
0.0061
0.00366
-0.00366
-0.00854
-0.01953
-0.02563
-0.03784
-0.04272
-0.05005
-0.06104
-0.06958
-0.0769
-0.08545
-0.09277
-0.09888
-0.1062
-0.1123
-0.12085
-0.12939
-0.14038
-0.14526
-0.15381
-0.15991
-0.16357
-0.17334
-0.17822
-0.19287
-0.2002
-0.20996
-0.21729
-0.22583
-0.22949
-0.23315
-0.23682
-0.24048
-0.24536
-0.25024
-0.25513
-0.26123
-0.26855
-0.271
-0.27466
-0.27954
-0.2832
-0.28931
-0.29663
-0.29785
-0.30396
-0.30884
-0.31616
-0.32349
-0.33081
-0.33936
-0.33691
-0.3418
-0.34424
-0.35034
-0.35522
-0.36011
-0.36621
-0.36865
-0.36987
-0.37354
-0.37476
-0.38086
-0.38574
-0.38696
-0.39185
-0.39185
-0.39307
-0.3894
-0.38086
-0.37354
-0.35156
-0.32715
-0.29785
-0.27222
-0.24658
-0.21851
-0.19043
-0.16113
-0.13184
-0.10376
-0.07568
-0.05249
-0.02563
-0.00366
0.01221
0.02563
0.0354
0.0415
0.05005
0.05493
0.06104
0.0647
0.06836
0.06836
0.06714
0.06958
0.06836
0.07324
0.07935
0.08667
0.09521
0.09766
0.1062
0.10986
0.11719
0.12451
0.13062
0.13916
0.15259
0.16113
0.17334
0.18066
0.18799
0.19287
0.2002
0.20752
0.20874
0.2124
0.21729
0.22339
0.22827
0.22339
0.23193
0.22827
0.22827
0.22339
0.21973
0.21484
0.21606
0.21484
0.21362
0.21118
0.21118
0.20752
0.2063
0.20752
0.20752
0.2063
0.20508
0.20142
0.2002
0.20142
0.19775
0.19409
0.18799
0.18433
0.17822
0.17334
0.17212
0.16724
0.16357
0.15747
0.15259
0.14526
0.1416
0.13306
0.12329
0.11475
0.10986
0.10376
0.09644
0.09033
0.08301
0.07202
0.06592
0.05615
0.04517
0.0293
0.02808
0.01831
0.01099
0
-0.00854
-0.02319
-0.0354
-0.04883
-0.06348
-0.0769
-0.08667
-0.09277
-0.10132
-0.10498
-0.11353
-0.12329
-0.13306
-0.13916
-0.14771
-0.15259
-0.15991
-0.16846
-0.17456
-0.18188
-0.18799
-0.19775
-0.20264
-0.20874
-0.21362
-0.22095
-0.22339
-0.22705
-0.22949
-0.23193
-0.23438
-0.2417
-0.24536
-0.2478
-0.25513
-0.25757
-0.26001
-0.26123
-0.25757
-0.26245
-0.26245
-0.27344
-0.27832
-0.28076
-0.28687
-0.28931
-0.29297
-0.29785
-0.29663
-0.30518
-0.3064
-0.31372
-0.31982
-0.32471
-0.33325
-0.33813
-0.34424
-0.3418
-0.34302
-0.34668
-0.35034
-0.36255
-0.36499
-0.36987
-0.37598
-0.37842
-0.37842
-0.37598
-0.36743
-0.36133
-0.34912
-0.33447
-0.31738
-0.29419
-0.27344
-0.24414
-0.21362
-0.18188
-0.14648
-0.11597
-0.08423
-0.06104
-0.03052
-0.00366
0.01587
0.03784
0.05493
0.06714
0.08179
0.08545
0.09399
0.09644
0.09888
0.10132
0.10132
0.10254
0.1062
0.10864
0.10986
0.11475
0.12207
0.12207
0.12329
0.12573
0.12573
0.13062
0.1355
0.14282
0.14893
0.15625
0.16235
0.16479
0.16235
0.15991
0.16113
0.16113
0.16113
0.15625
0.15747
0.15259
0.15625
0.14771
0.14771
0.14526
0.1416
0.13916
0.13672
0.13916
0.14038
0.1416
0.14282
0.13794
0.13672
0.12939
0.12817
0.12451
0.12329
0.12207
0.12207
0.11841
0.12329
0.1123
0.10864
0.10254
0.09644
0.09399
0.09155
0.09033
0.08423
0.08057
0.0769
0.06714
0.05859
0.04639
0.0415
0.03418
0.02686
0.01953
0.01465
0.01099
0.00977
0.00244
-0.00366
-0.01343
-0.02075
-0.02563
-0.0293
-0.03052
-0.03296
-0.03784
-0.04028
-0.05005
-0.05615
-0.06104
-0.06226
-0.06714
-0.06958
-0.07202
-0.07202
-0.07446
-0.07324
-0.0769
-0.07935
-0.08179
-0.08545
-0.08911
-0.09521
-0.09644
-0.1001
-0.10742
-0.1123
-0.12329
-0.13184
-0.1416
-0.14038
-0.14282
-0.14648
-0.15137
-0.15259
-0.15625
-0.15381
-0.16357
-0.17212
-0.18066
-0.19043
-0.19775
-0.2063
-0.20996
-0.21729
-0.22583
-0.23438
-0.24658
-0.25635
-0.26611
-0.26855
-0.2771
-0.28442
-0.29175
-0.29785
-0.3064
-0.31128
-0.31982
-0.32593
-0.33203
-0.33813
-0.34424
-0.34912
-0.34912
-0.34546
-0.34058
-0.32837
-0.3186
-0.30396
-0.29175
-0.26611
-0.23926
-0.21362
-0.18677
-0.15747
-0.13062
-0.10498
-0.07813
-0.05493
-0.03174
-0.00854
0.01099
0.02441
0.03906
0.05005
0.05737
0.0647
0.06592
0.06836
0.06836
0.06714
0.06714
0.0647
0.06592
0.06836
0.07324
0.0769
0.08057
0.08423
0.08911
0.09277
0.09888
0.10986
0.12207
0.13428
0.14282
0.15381
0.16357
0.17212
0.18188
0.18921
0.19531
0.19897
0.20264
0.20508
0.2063
0.21118
0.20996
0.20874
0.20752
0.20508
0.20142
0.2063
0.20874
0.21484
0.21606
0.21973
0.21851
0.21973
0.21606
0.21484
0.21729
0.21851
0.21973
0.22217
0.22217
0.22217
0.21729
0.21118
0.20752
0.20508
0.19897
0.19775
0.19287
0.19165
0.18921
0.18799
0.18188
0.177
0.16724
0.15869
0.15259
0.14648
0.1416
0.13794
0.13428
0.13184
0.12451
0.11963
0.11475
0.10742
0.1001
0.09277
0.08667
0.08057
0.07324
0.06958
0.06104
0.05493
0.04517
0.03418
0.02808
0.02075
0.01709
0.01465
0.01221
0.00732
0.00244
-0.00366
-0.00732
-0.01343
-0.01831
-0.01953
-0.02563
-0.03174
-0.0415
-0.05005
-0.06104
-0.06958
-0.0769
-0.08423
-0.08789
-0.09521
-0.10254
-0.10742
-0.10864
-0.1123
-0.11841
-0.12451
-0.13062
-0.13672
-0.14648
-0.14404
-0.14893
-0.15381
-0.15625
-0.16113
-0.16846
-0.17212
-0.17822
-0.18311
-0.18799
-0.19165
-0.19653
-0.19897
-0.20264
-0.20752
-0.21362
-0.22095
-0.23071
-0.2417
-0.25513
-0.26123
-0.26855
-0.27588
-0.28687
-0.29785
-0.31006
-0.31738
-0.32959
-0.33447
-0.33813
-0.34058
-0.3418
-0.34302
-0.34424
-0.34302
-0.34302
-0.33447
-0.32593
-0.31372
-0.29785
-0.27344
-0.25024
-0.22339
-0.19531
-0.16479
-0.1355
-0.10498
-0.06958
-0.03296
0.00122
0.03418
0.06592
0.09766
0.12939
0.15625
0.16968
0.18555
0.19531
0.20386
0.21118
0.22461
0.22827
0.23438
0.2356
0.2417
0.24048
0.2478
0.25269
0.25635
0.26367
0.26855
0.27466
0.28687
0.28931
0.29785
0.30396
0.30884
0.31494
0.31982
0.32837
0.33325
0.34058
0.34546
0.3479
0.3479
0.33936
0.34058
0.33936
0.33569
0.33203
0.32715
0.32104
0.31616
0.31006
0.30518
0.29907
0.29053
0.27954
0.27222
0.26611
0.26123
0.25513
0.25024
0.24048
0.23438
0.22583
0.22461
0.22217
0.21973
0.21973
0.21851
0.21118
0.20752
0.20752
0.2063
0.20142
0.19775
0.19531
0.19287
0.19531
0.19287
0.19043
0.18921
0.18311
0.17944
0.1709
0.16479
0.15625
0.15015
0.14526
0.13916
0.13428
0.12817
0.12939
0.12573
0.11719
0.10864
0.10376
0.09766
0.09644
0.08911
0.08423
0.08057
0.07446
0.0708
0.06348
0.06104
0.05859
0.05737
0.05981
0.05981
0.05859
0.05249
0.05249
0.04883
0.04517
0.04272
0.03784
0.03296
0.0293
0.02441
0.02197
0.02075
0.01709
0.01465
0.0061
0
-0.00732
-0.01221
-0.01709
-0.02319
-0.03174
-0.0415
-0.05005
-0.06104
-0.06958
-0.0769
-0.08301
-0.08667
-0.09277
-0.09399
-0.09888
-0.1062
-0.11475
-0.12207
-0.13184
-0.13306
-0.14282
-0.15015
-0.15137
-0.15503
-0.15747
-0.15747
-0.15991
-0.16235
-0.16968
-0.17456
-0.17822
-0.18555
-0.18555
-0.19043
-0.19653
-0.20142
-0.20142
-0.20142
-0.20508
-0.21362
-0.20874
-0.2124
-0.21729
-0.22339
-0.22583
-0.22827
-0.22461
-0.22461
-0.21973
-0.20508
-0.18555
-0.16357
-0.13916
-0.10864
-0.07568
-0.04028
-0.00732
0.02563
0.05737
0.09033
0.12329
0.15625
0.18677
0.2124
0.23804
0.25879
0.271
0.28687
0.29419
0.30151
0.30762
0.31006
0.3186
0.32471
0.32837
0.33325
0.33325
0.33569
0.33569
0.33936
0.34058
0.34424
0.3479
0.35156
0.354
0.35767
0.36377
0.36987
0.37354
0.37842
0.38086
0.38452
0.38696
0.39185
0.39063
0.39063
0.38696
0.3833
0.3772
0.37598
0.36987
0.36377
0.36133
0.354
0.34424
0.33691
0.33081
0.32349
0.31372
0.30518
0.29907
0.28931
0.27832
0.27222
0.26489
0.25635
0.24902
0.2417
0.22705
0.22095
0.21362
0.2063
0.20386
0.19775
0.19287
0.18921
0.18188
0.177
0.16846
0.15991
0.15259
0.1416
0.13306
0.12695
0.11719
0.10986
0.09888
0.08789
0.0769
0.06592
0.05493
0.04517
0.0415
0.0354
0.03052
0.02319
0.01221
0.00732
-0.0061
-0.01709
-0.02808
-0.04028
-0.04761
-0.05493
-0.0647
-0.07202
-0.08179
-0.09155
-0.1001
-0.10864
-0.1123
-0.11963
-0.12329
-0.13062
-0.13672
-0.14404
-0.15381
-0.15869
-0.16968
-0.18066
-0.18921
-0.19897
-0.20264
-0.21362
-0.21484
-0.22339
-0.23071
-0.23682
-0.24536
-0.2478
-0.24902
-0.25513
-0.25879
-0.26489
-0.26978
-0.27222
-0.27588
-0.28076
-0.28931
-0.30029
-0.31128
-0.32227
-0.32959
-0.33813
-0.34424
-0.35034
-0.35889
-0.36865
-0.37964
-0.38818
-0.39795
-0.40283
-0.40527
-0.41138
-0.41626
-0.42358
-0.43457
-0.43701
-0.45044
-0.46021
-0.46997
-0.47974
-0.48706
-0.49561
-0.50293
-0.51147
-0.5188
-0.5249
-0.52979
-0.53345
-0.53345
-0.53101
-0.52979
-0.52979
-0.52734
-0.52246
-0.51636
-0.51392
-0.50049
-0.4834
-0.46265
-0.43823
-0.4126
-0.38574
-0.36133
-0.32471
-0.29419
-0.26123
-0.22949
-0.20508
-0.17578
-0.14893
-0.12573
-0.1062
-0.08423
-0.06836
-0.05615
-0.04761
-0.0415
-0.03662
-0.03052
-0.02563
-0.02075
-0.01831
-0.01587
-0.01343
-0.01465
-0.01709
-0.01831
-0.01831
-0.02319
-0.01831
-0.01953
-0.01953
-0.01709
-0.01221
-0.00854
0
0.00244
0.0061
0.01099
0.01465
0.02197
0.02686
0.0354
0.03906
0.03784
0.03906
0.0354
0.03418
0.03052
0.02808
0.03052
0.02808
0.02808
0.02686
0.02441
0.01831
0.01587
0.01221
0.01221
0.01343
0.01587
0.01831
0.01831
0.02441
0.02686
0.03052
0.02808
0.02808
0.02686
0.02808
0.02197
0.01587
0.01465
0.01221
0.00977
0.00732
0.00244
0
0
-0.00122
0.00244
0.00122
0.00244
0.0061
0.00977
0.01709
0.02808
0.05493
0.09521
0.13184
0.17944
0.20752
0.23438
0.25024
0.26245
0.27588
0.28076
0.2832
0.28076
0.27466
0.271
0.26245
0.25269
0.24658
0.2356
0.22827
0.21729
0.20752
0.19653
0.18677
0.17822
0.16846
0.15869
0.14526
0.1355
0.12695
0.10864
0.09277
0.07813
0.06226
0.05493
0.04395
0.03296
0.02197
0.00977
-0.00366
-0.01953
-0.03296
-0.04395
-0.05371
-0.06226
-0.0769
-0.08911
-0.1001
-0.1123
-0.12329
-0.13306
-0.14404
-0.15381
-0.16479
-0.17334
-0.18433
-0.19165
-0.19775
-0.20752
-0.21729
-0.23193
-0.24414
-0.25757
-0.26367
-0.27222
-0.28076
-0.28809
-0.29541
-0.30029
-0.30151
-0.29907
-0.29663
-0.28687
-0.2771
-0.25635
-0.23682
-0.21362
-0.18433
-0.15991
-0.13306
-0.10986
-0.08423
-0.05493
-0.03174
0.00366
0.0293
0.05371
0.06958
0.08423
0.09399
0.10498
0.10986
0.11475
0.11963
0.12329
0.12451
0.12817
0.12329
0.12207
0.12085
0.11719
0.11353
0.10986
0.10864
0.10986
0.10742
0.10376
0.10254
0.10376
0.10498
0.10986
0.11475
0.11963
0.12451
0.12695
0.12817
0.13672
0.13184
0.13062
0.12451
0.11719
0.11108
0.10498
0.10132
0.1001
0.09521
0.09155
0.08667
0.0769
0.06958
0.06592
0.06104
0.05981
0.05493
0.05127
0.05005
0.0415
0.04028
0.0354
0.03174
0.0293
0.02808
0.02563
0.02563
0.0293
0.03052
0.03174
0.03174
0.02808
0.02686
0.02563
0.02197
0.01953
0.01587
0.01221
0.00732
0.00122
-0.00488
-0.01343
-0.01709
-0.02197
-0.02686
-0.03052
-0.03906
-0.03662
-0.0415
-0.04272
-0.04761
-0.05371
-0.06348
-0.07446
-0.08057
-0.08789
-0.09644
-0.10132
-0.10986
-0.11353
-0.11841
-0.12573
-0.12817
-0.13428
-0.1355
-0.1355
-0.13672
-0.13428
-0.13672
-0.13672
-0.14038
-0.14404
-0.15015
-0.15991
-0.16602
-0.17212
-0.17822
-0.18066
-0.18799
-0.19409
-0.20874
-0.21851
-0.22705
-0.23804
-0.24536
-0.25513
-0.26367
-0.27222
-0.2771
-0.28687
-0.29785
-0.31128
-0.32471
-0.33325
-0.34058
-0.34302
-0.3418
-0.34058
-0.33569
-0.32715
-0.3186
-0.30151
-0.28076
-0.25635
-0.22949
-0.20142
-0.1709
-0.14038
-0.11108
-0.08179
-0.05371
-0.02686
0
0.02319
0.03784
0.06104
0.07324
0.08423
0.09033
0.09521
0.09644
0.10376
0.10376
0.1062
0.1062
0.10864
0.10864
0.11475
0.1123
0.11597
0.11963
0.12085
0.11963
0.11719
0.11963
0.12207
0.12329
0.12817
0.13062
0.13306
0.13184
0.1355
0.13672
0.1355
0.13306
0.13306
0.12939
0.12329
0.12817
0.12695
0.12329
0.11963
0.11719
0.11475
0.11353
0.11719
0.11841
0.12329
0.12451
0.12695
0.12817
0.12939
0.12695
0.12451
0.12329
0.12451
0.12329
0.12573
0.12573
0.12573
0.11841
0.11597
0.11108
0.10376
0.09521
0.09033
0.08423
0.08301
0.07813
0.07324
0.06348
0.05737
0.05249
0.04517
0.0354
0.03296
0.02686
0.02319
0.01465
0.01587
0.00732
0
-0.00732
-0.01587
-0.02197
-0.02563
-0.02808
-0.03296
-0.04272
-0.04517
-0.05249
-0.05981
-0.06958
-0.07324
-0.08057
-0.08545
-0.09033
-0.09277
-0.1001
-0.10254
-0.10742
-0.11108
-0.11108
-0.11353
-0.11475
-0.11475
-0.1123
-0.11597
-0.11963
-0.11963
-0.12817
-0.13428
-0.13916
-0.14404
-0.15015
-0.15503
-0.16113
-0.16357
-0.16968
-0.17578
-0.17944
-0.17944
-0.17822
-0.16968
-0.15991
-0.1416
-0.12085
-0.09033
-0.0647
-0.0354
-0.00732
0.02319
0.05371
0.08301
0.11353
0.14404
0.17456
0.20752
0.23315
0.26123
0.28076
0.30273
0.31494
0.32471
0.33447
0.3418
0.3479
0.35522
0.35522
0.36011
0.36133
0.36621
0.36499
0.36987
0.36743
0.36987
0.37109
0.3772
0.38208
0.38574
0.38696
0.39063
0.39429
0.39551
0.40039
0.40527
0.40527
0.41504
0.41382
0.4187
0.41382
0.41016
0.40527
0.39429
0.39307
0.38452
0.37842
0.37109
0.36255
0.35767
0.34424
0.33936
0.33081
0.32349
0.31738
0.3125
0.3064
0.30518
0.30273
0.30029
0.29175
0.28442
0.27588
0.26489
0.26123
0.25146
0.25024
0.24658
0.24048
0.2356
0.22705
0.21973
0.20996
0.2002
0.19531
0.19165
0.18433
0.17944
0.1709
0.16846
0.15869
0.15015
0.14282
0.13306
0.12451
0.11963
0.10986
0.10132
0.09155
0.08667
0.0708
0.05737
0.05127
0.04028
0.03296
0.02563
0.01953
0.01221
0.00244
0.00244
-0.00366
-0.00732
-0.01343
-0.02075
-0.02563
-0.03418
-0.0415
-0.04761
-0.05615
-0.06104
-0.07324
-0.08301
-0.08789
-0.10132
-0.10742
-0.1123
-0.11841
-0.12451
-0.13184
-0.1355
-0.14526
-0.15381
-0.16235
-0.16479
-0.16846
-0.16968
-0.1709
-0.17334
-0.17822
-0.18433
-0.19409
-0.19897
-0.2063
-0.2124
-0.2124
-0.20996
-0.20142
-0.18555
-0.1709
-0.15015
-0.12939
-0.10132
-0.07324
-0.04272
-0.00732
0.02686
0.05859
0.09033
0.11597
0.14526
0.16846
0.18921
0.20752
0.21851
0.23193
0.2417
0.25024
0.25269
0.25024
0.25146
0.2478
0.25146
0.25757
0.25879
0.26611
0.27466
0.27954
0.29907
0.31006
0.32715
0.33691
0.34668
0.35034
0.36011
0.36743
0.37842
0.38452
0.39673
0.40161
0.40894
0.41016
0.41138
0.4126
0.4126
0.4126
0.41382
0.41138
0.41382
0.41138
0.41016
0.40283
0.39795
0.39307
0.38574
0.38086
0.37476
0.37109
0.37109
0.36865
0.37109
0.36255
0.36133
0.35767
0.35278
0.3479
0.34546
0.34302
0.34058
0.33447
0.32837
0.32227
0.31372
0.30762
0.30029
0.29907
0.29175
0.28442
0.2771
0.26855
0.26367
0.25146
0.2417
0.23315
0.21973
0.21118
0.20386
0.19531
0.18433
0.17456
0.16479
0.15259
0.13916
0.12817
0.11597
0.10376
0.09766
0.08301
0.0708
0.05493
0.04272
0.02686
0.00732
-0.00244
-0.01587
-0.02808
-0.04028
-0.05371
-0.06592
-0.07935
-0.08545
-0.10132
-0.11353
-0.12207
-0.13428
-0.14404
-0.15015
-0.15991
-0.16479
-0.17212
-0.17944
-0.18921
-0.19653
-0.20264
-0.2124
-0.22217
-0.23071
-0.23926
-0.2417
-0.24902
-0.25146
-0.26123
-0.271
-0.28076
-0.29053
-0.29663
-0.30518
-0.3064
-0.31372
-0.3186
-0.32349
-0.32959
-0.33936
-0.34912
-0.35522
-0.36011
-0.36133
-0.36377
-0.36377
-0.36499
-0.36499
-0.35278
-0.34302
-0.32593
-0.3064
-0.28076
-0.25391
-0.22339
-0.18433
-0.14526
-0.10498
-0.06836
-0.0293
0.00732
0.0415
0.08423
0.11963
0.15259
0.18311
0.2063
0.22583
0.24048
0.25391
0.26611
0.27588
0.28564
0.29053
0.29663
0.30396
0.31006
0.31738
0.31982
0.32471
0.32959
0.33447
0.33813
0.34302
0.35034
0.35767
0.36499
0.37109
0.37964
0.39185
0.39795
0.40649
0.41748
0.4248
0.42725
0.43701
0.43701
0.43701
0.43213
0.42847
0.42603
0.42114
0.41504
0.40771
0.40283
0.39551
0.39185
0.38818
0.38208
0.37109
0.36499
0.35522
0.35156
0.34424
0.33813
0.33569
0.33081
0.32715
0.3186
0.30884
0.30029
0.29053
0.28564
0.27954
0.271
0.26245
0.25635
0.25024
0.23926
0.23071
0.22095
0.20996
0.2002
0.18677
0.17334
0.16113
0.14893
0.1355
0.11841
0.10498
0.09155
0.07935
0.06348
0.05615
0.04883
0.0354
0.02075
0.00854
-0.00732
-0.02319
-0.03052
-0.04395
-0.05615
-0.06714
-0.0769
-0.08545
-0.09521
-0.10986
-0.12085
-0.13306
-0.14282
-0.15259
-0.15747
-0.16357
-0.17212
-0.17944
-0.18921
-0.19897
-0.21362
-0.22217
-0.22949
-0.23926
-0.24536
-0.25391
-0.26123
-0.271
-0.28076
-0.28809
-0.29785
-0.30762
-0.31372
-0.31982
-0.32593
-0.33447
-0.33936
-0.34546
-0.35278
-0.35645
-0.36621
-0.37476
-0.37842
-0.3833
-0.39063
-0.39795
-0.40405
-0.40771
-0.41504
-0.41992
-0.42725
-0.43579
-0.44312
-0.45166
-0.45654
-0.46143
-0.46753
-0.46509
-0.46875
-0.47363
-0.47974
-0.48462
-0.49072
-0.50171
-0.50171
-0.50781
-0.5127
-0.51514
-0.52124
-0.5249
-0.52979
-0.53345
-0.53589
-0.53467
-0.52734
-0.5188
-0.50537
-0.48218
-0.46387
-0.43579
-0.40527
-0.37109
-0.33203
-0.29419
-0.25146
-0.21118
-0.1709
-0.13062
-0.09277
-0.05249
-0.01831
0.01587
0.04395
0.06714
0.09155
0.11353
0.12451
0.13794
0.15259
0.16602
0.17212
0.17944
0.18921
0.18921
0.2002
0.21118
0.22095
0.22949
0.23926
0.24658
0.25024
0.25879
0.26611
0.26978
0.27954
0.28442
0.29053
0.29541
0.30396
0.31128
0.31128
0.31006
0.31372
0.31738
0.3186
0.32593
0.32715
0.32715
0.32349
0.32104
0.3125
0.3125
0.30396
0.29419
0.28687
0.28076
0.27588
0.271
0.26733
0.25879
0.2478
0.24048
0.2356
0.23315
0.22583
0.22583
0.21729
0.21484
0.20874
0.20386
0.19531
0.18677
0.18188
0.16846
0.16357
0.15625
0.15259
0.14404
0.13672
0.12939
0.11963
0.1123
0.10376
0.09521
0.08789
0.07813
0.0708
0.05981
0.04761
0.0354
0.01953
0.00366
-0.00977
-0.02197
-0.03174
-0.0415
-0.05005
-0.05981
-0.0708
-0.08301
-0.09399
-0.10498
-0.11841
-0.13062
-0.1416
-0.15625
-0.17334
-0.177
-0.18921
-0.20142
-0.21362
-0.22339
-0.23315
-0.24536
-0.25269
-0.26489
-0.27466
-0.28198
-0.29053
-0.29907
-0.30518
-0.31738
-0.32715
-0.33813
-0.34546
-0.354
-0.36011
-0.36499
-0.37842
-0.38574
-0.39917
-0.40894
-0.41748
-0.42725
-0.43213
-0.44312
-0.45044
-0.45898
-0.46875
-0.47729
-0.4895
-0.49561
-0.50293
-0.51392
-0.52124
-0.52734
-0.53345
-0.53955
-0.54199
-0.5481
-0.55664
-0.56641
-0.57983
-0.59082
-0.60303
-0.60913
-0.62012
-0.62622
-0.63477
-0.63965
-0.64697
-0.65552
-0.65796
-0.66284
-0.66406
-0.6665
-0.66895
-0.67017
-0.67627
-0.67017
-0.67383
-0.67627
-0.67871
-0.68115
-0.68115
-0.68481
-0.68237
-0.68359
-0.68481
-0.68726
-0.69214
-0.6958
-0.69458
-0.69946
-0.6958
-0.69214
-0.68359
-0.66772
-0.64575
-0.61646
-0.5896
-0.55542
-0.5188
-0.48096
-0.43701
-0.39429
-0.35278
-0.30273
-0.26123
-0.21851
-0.18066
-0.1416
-0.10498
-0.07568
-0.04761
-0.02563
-0.0061
0.00854
0.01953
0.02563
0.0354
0.0415
0.04761
0.05005
0.05493
0.06348
0.07446
0.08301
0.09155
0.10254
0.10742
0.1123
0.1123
0.12085
0.13062
0.13916
0.15015
0.15869
0.16235
0.16846
0.17456
0.18555
0.19531
0.20264
0.21118
0.21362
0.2124
0.22339
0.22339
0.22217
0.21851
0.20874
0.20386
0.19409
0.19287
0.18799
0.18188
0.177
0.17334
0.16846
0.16357
0.15869
0.15381
0.14526
0.1416
0.13306
0.12329
0.11475
0.09888
0.08667
0.07202
0.05981
0.04883
0.04028
0.03418
0.0293
0.02441
0.02075
0.01587
0.01343
0.00488
0.00244
-0.00366
-0.00854
-0.01099
-0.01465
-0.01953
-0.02686
-0.03296
-0.0415
-0.05127
-0.06226
-0.07202
-0.08301
-0.09277
-0.09888
-0.10864
-0.11475
-0.12451
-0.13062
-0.14038
-0.15259
-0.15137
-0.16479
-0.1709
-0.18066
-0.18799
-0.19531
-0.20874
-0.21606
-0.23071
-0.24414
-0.25757
-0.271
-0.28198
-0.29541
-0.30762
-0.31982
-0.33447
-0.3479
-0.36011
-0.37476
-0.38696
-0.39673
-0.40649
-0.41382
-0.41748
-0.4187
-0.42236
-0.42358
-0.42847
-0.43335
-0.43945
-0.44678
-0.45532
-0.46143
-0.46509
-0.47363
-0.4834
-0.49194
-0.50415
-0.51392
-0.5249
-0.53345
-0.54321
-0.55054
-0.55542
-0.5603
-0.56641
-0.57251
-0.57617
-0.58228
-0.5896
-0.59448
-0.59692
-0.59937
-0.60059
-0.60059
-0.60669
-0.60913
-0.61646
-0.62256
-0.62866
-0.62988
-0.62378
-0.62378
-0.62134
-0.6189
-0.6189
-0.62012
-0.62256
-0.62378
-0.62256
-0.6189
-0.61523
-0.61157
-0.60547
-0.60303
-0.59937
-0.59814
-0.59937
-0.59814
-0.59692
-0.59937
-0.60059
-0.60303
-0.60791
-0.60425
-0.60181
-0.5957
-0.5896
-0.57861
-0.55786
-0.53467
-0.50537
-0.47241
-0.43579
-0.39795
-0.36133
-0.31982
-0.28076
-0.24048
-0.20142
-0.16235
-0.11963
-0.08179
-0.04272
-0.01343
0.01099
0.03418
0.05249
0.0708
0.08789
0.1001
0.11475
0.12817
0.14038
0.15137
0.15869
0.16968
0.17212
0.17578
0.18066
0.18188
0.19043
0.19287
0.2002
0.2063
0.21484
0.22461
0.23438
0.2417
0.2478
0.26123
0.271
0.2832
0.29053
0.29907
0.30029
0.30151
0.29907
0.29419
0.29175
0.28687
0.28198
0.27466
0.26367
0.25757
0.24536
0.23438
0.22095
0.21118
0.2002
0.19043
0.18555
0.18066
0.177
0.177
0.17456
0.17822
0.17456
0.17822
0.17578
0.17212
0.17212
0.16968
0.16724
0.16724
0.16113
0.15869
0.15137
0.15137
0.14648
0.14282
0.14282
0.13428
0.13062
0.12451
0.11597
0.10986
0.10132
0.09521
0.08423
0.07202
0.06226
0.05249
0.04517
0.0354
0.02563
0.01221
0
-0.01343
-0.02686
-0.0354
-0.0415
-0.04272
-0.05005
-0.05493
-0.06226
-0.06348
-0.06836
-0.07568
-0.08057
-0.08911
-0.09399
-0.10132
-0.10376
-0.10986
-0.11475
-0.11841
-0.12573
-0.13062
-0.1355
-0.1416
-0.14404
-0.15015
-0.15259
-0.15381
-0.15747
-0.16113
-0.16846
-0.17456
-0.17944
-0.18555
-0.18921
-0.19409
-0.19897
-0.20386
-0.21118
-0.21973
-0.22705
-0.23315
-0.24048
-0.24414
-0.2478
-0.25513
-0.26123
-0.26733
-0.27344
-0.2771
-0.28564
-0.28931
-0.29297
-0.29785
-0.29907
-0.30151
-0.30396
-0.30518
-0.30884
-0.3125
-0.31982
-0.32349
-0.32715
-0.33447
-0.33569
-0.34302
-0.3479
-0.35522
-0.35767
-0.36133
-0.36987
-0.37598
-0.38208
-0.38818
-0.39185
-0.39795
-0.40283
-0.40405
-0.41138
-0.4187
-0.42969
-0.43823
-0.44678
-0.45166
-0.45532
-0.45654
-0.46021
-0.46143
-0.45898
-0.45044
-0.43823
-0.41992
-0.39307
-0.36133
-0.32349
-0.28442
-0.2417
-0.19897
-0.15625
-0.11475
-0.07813
-0.03784
0.00244
0.0415
0.07813
0.10986
0.13916
0.16602
0.18677
0.20264
0.22339
0.23926
0.25146
0.26001
0.27222
0.28198
0.29053
0.29541
0.30029
0.30518
0.3064
0.30518
0.3064
0.30884
0.31006
0.3125
0.3186
0.32593
0.33081
0.33813
0.34424
0.3479
0.35767
0.36133
0.37109
0.3772
0.37964
0.38574
0.38696
0.39063
0.39185
0.39063
0.39063
0.38696
0.39307
0.39063
0.3894
0.39185
0.3894
0.3833
0.37476
0.37354
0.36987
0.36743
0.36499
0.35889
0.35645
0.35278
0.35034
0.34546
0.33691
0.33081
0.32349
0.31494
0.30273
0.30029
0.29419
0.28564
0.27344
0.26245
0.24902
0.2356
0.23193
0.21851
0.21118
0.20142
0.19653
0.18921
0.17822
0.177
0.16846
0.15869
0.14648
0.13672
0.13306
0.12207
0.12085
0.11597
0.10498
0.09155
0.07813
0.06104
0.04395
0.03418
0.02563
0.01709
0.00977
0.00244
-0.00366
-0.01343
-0.01465
-0.02197
-0.02686
-0.03296
-0.03784
-0.04639
-0.05737
-0.05615
-0.06348
-0.0708
-0.08179
-0.09277
-0.10132
-0.1123
-0.11475
-0.11719
-0.12573
-0.12695
-0.13184
-0.13428
-0.14404
-0.14648
-0.15137
-0.15747
-0.16235
-0.16846
-0.17334
-0.17822
-0.18066
-0.18433
-0.19165
-0.19775
-0.20386
-0.21362
-0.22339
-0.22705
-0.23438
-0.2417
-0.25513
-0.26367
-0.27344
-0.28442
-0.28809
-0.30029
-0.30762
-0.31616
-0.32471
-0.32715
-0.33447
-0.33325
-0.33813
-0.33936
-0.34058
-0.34424
-0.34424
-0.34546
-0.34546
-0.3479
-0.354
-0.35767
-0.36499
-0.37109
-0.37964
-0.38574
-0.39063
-0.39795
-0.40405
-0.4126
-0.41748
-0.42603
-0.43213
-0.43335
-0.43091
-0.42358
-0.41016
-0.39551
-0.37476
-0.34424
-0.31372
-0.28076
-0.24658
-0.2124
-0.17334
-0.13794
-0.1001
-0.07202
-0.0415
-0.02197
-0.00244
0.01343
0.01831
0.03296
0.04272
0.05005
0.05981
0.06592
0.07446
0.07813
0.08545
0.08911
0.09155
0.09888
0.10498
0.11108
0.12207
0.12573
0.12939
0.13184
0.13306
0.13306
0.13184
0.13672
0.13794
0.13916
0.14404
0.14893
0.15381
0.15869
0.16357
0.16235
0.15991
0.15381
0.15015
0.14404
0.14038
0.13794
0.12939
0.12329
0.11719
0.11108
0.1062
0.10254
0.09521
0.09277
0.08545
0.07813
0.07935
0.07202
0.06592
0.05615
0.05493
0.05249
0.05615
0.05981
0.06958
0.0769
0.08057
0.09033
0.09766
0.1001
0.09888
0.09766
0.09766
0.09033
0.09399
0.08789
0.08545
0.08057
0.07324
0.06348
0.04517
0.04028
0.03174
0.02075
0.01099
0.00122
-0.00732
-0.01953
-0.02319
-0.0293
-0.03662
-0.03784
-0.04272
-0.04639
-0.05249
-0.05127
-0.05615
-0.06104
-0.06714
-0.07446
-0.08545
-0.09766
-0.10498
-0.11475
-0.12207
-0.12939
-0.1355
-0.1416
-0.15015
-0.15381
-0.16235
-0.16846
-0.17456
-0.18311
-0.18799
-0.19531
-0.18799
-0.17456
-0.16357
-0.15381
-0.15137
-0.14893
-0.15137
-0.15625
-0.16235
-0.17212
-0.17944
-0.19043
-0.20752
-0.21851
-0.23071
-0.24048
-0.2478
-0.25146
-0.25146
-0.25391
-0.25635
-0.26001
-0.26611
-0.27344
-0.28198
-0.28687
-0.29297
-0.29785
-0.29907
-0.30518
-0.31006
-0.3186
-0.33081
-0.34058
-0.354
-0.36377
-0.37231
-0.38086
-0.3833
-0.3833
-0.37964
-0.37476
-0.36377
-0.3479
-0.33081
-0.30518
-0.27588
-0.24658
-0.2063
-0.16968
-0.12939
-0.09155
-0.05249
-0.01587
0.01953
0.05493
0.08789
0.11963
0.14893
0.17456
0.19531
0.20996
0.22339
0.23682
0.24658
0.25391
0.26001
0.26367
0.26978
0.26978
0.2771
0.28198
0.28442
0.2832
0.27954
0.27588
0.26978
0.27344
0.27832
0.27954
0.28442
0.29175
0.29785
0.30396
0.30884
0.30762
0.30884
0.3064
0.3064
0.30151
0.29663
0.29907
0.29663
0.29419
0.29053
0.28931
0.28809
0.28687
0.29175
0.29419
0.29907
0.30518
0.31006
0.31494
0.31738
0.32471
0.33081
0.33447
0.34302
0.34668
0.34912
0.35034
0.35034
0.3479
0.34302
0.33936
0.33813
0.33691
0.33569
0.33691
0.33203
0.32837
0.32227
0.31738
0.3064
0.29907
0.29297
0.28442
0.27954
0.271
0.26123
0.2478
0.23926
0.23193
0.22217
0.21118
0.20386
0.19531
0.19043
0.18311
0.17212
0.16846
0.16235
0.15381
0.14648
0.13794
0.12939
0.11719
0.11597
0.1062
0.1001
0.09399
0.08667
0.07935
0.06714
0.0647
0.05859
0.05249
0.04883
0.03906
0.0354
0.03052
0.02686
0.02686
0.01831
0.01343
0.0061
-0.00244
-0.0061
-0.00732
-0.01343
-0.01831
-0.02441
-0.02808
-0.0354
-0.04272
-0.05005
-0.05615
-0.06226
-0.06958
-0.0769
-0.08789
-0.09888
-0.10742
-0.11963
-0.12695
-0.13672
-0.14282
-0.14771
-0.15137
-0.14404
-0.13428
-0.12085
-0.10376
-0.08423
-0.05859
-0.03052
0.00732
0.0415
0.07935
0.11963
0.16235
0.20508
0.24414
0.27588
0.31494
0.34912
0.38086
0.4126
0.43945
0.46143
0.48462
0.49805
0.51025
0.51514
0.52124
0.53101
0.53345
0.54321
0.54688
0.55298
0.56152
0.57007
0.57739
0.58105
0.5896
0.59448
0.59692
0.60425
0.60913
0.61646
0.61768
0.625
0.62744
0.62622
0.625
0.62622
0.62256
0.62012
0.62134
0.61646
0.61401
0.61035
0.60791
0.60425
0.59814
0.5957
0.5896
0.58716
0.58228
0.57861
0.57495
0.56641
0.56641
0.5603
0.55664
0.55176
0.54565
0.54077
0.53101
0.52856
0.52002
0.51758
0.51392
0.50903
0.50293
0.49438
0.4834
0.48218
0.47363
0.46753
0.46143
0.45288
0.44556
0.42725
0.42114
0.41016
0.39795
0.3894
0.37842
0.36499
0.35034
0.3418
0.32837
0.3125
0.29907
0.28564
0.27588
0.26611
0.25879
0.25269
0.24658
0.2417
0.23438
0.22583
0.22217
0.21729
0.2124
0.20996
0.20264
0.19409
0.18188
0.16479
0.15137
0.12695
0.11108
0.09155
0.07446
0.06348
0.05371
0.05005
0.0415
0.03174
0.02808
0.02075
0.01465
0.00854
0.00244
0.00488
-0.00122
-0.0061
-0.01343
-0.02197
-0.02441
-0.0354
-0.03174
-0.03174
-0.03296
-0.03296
-0.03662
-0.04272
-0.05005
-0.05615
-0.06592
-0.07935
-0.08911
-0.09888
-0.10864
-0.11353
-0.12207
-0.12939
-0.13672
-0.14648
-0.15259
-0.15381
-0.15015
-0.1416
-0.12695
-0.1062
-0.08179
-0.04883
-0.01343
0.02686
0.07324
0.11353
0.15991
0.20508
0.25146
0.29907
0.34424
0.38452
0.43091
0.46509
0.49683
0.52124
0.54321
0.56396
0.57861
0.59326
0.60791
0.62378
0.63965
0.64941
0.6604
0.67261
0.68115
0.68726
0.6897
0.69824
0.70435
0.70801
0.71777
0.72266
0.72876
0.7312
0.73608
0.73975
0.74341
0.75562
0.75928
0.7666
0.77271
0.77637
0.77881
0.77515
0.77271
0.77148
0.76782
0.7666
0.7605
0.75439
0.74707
0.73853
0.72632
0.71411
0.70068
0.6897
0.67871
0.67139
0.66284
0.65308
0.64575
0.63721
0.62744
0.61768
0.61157
0.60425
0.60059
0.59326
0.58472
0.57739
0.56885
0.5603
0.54688
0.53711
0.52612
0.51392
0.50171
0.49194
0.48218
0.46997
0.46021
0.44434
0.43091
0.41626
0.40527
0.39063
0.37354
0.36377
0.35278
0.34058
0.33203
0.3186
0.30884
0.29419
0.28687
0.27466
0.26001
0.25024
0.23926
0.22705
0.21729
0.21118
0.19775
0.18555
0.17334
0.16235
0.15259
0.14282
0.12939
0.11963
0.10864
0.09766
0.08545
0.07202
0.05737
0.0415
0.03174
0.02075
0.00732
-0.0061
-0.01953
-0.0293
-0.04517
-0.05737
-0.0708
-0.08423
-0.1001
-0.1123
-0.12817
-0.14404
-0.15625
-0.17334
-0.18677
-0.20142
-0.21362
-0.22461
-0.23315
-0.24048
-0.2478
-0.25269
-0.26001
-0.26855
-0.27588
-0.28442
-0.28809
-0.29419
-0.30151
-0.3064
-0.31494
-0.32227
-0.32837
-0.33325
-0.34424
-0.35522
-0.36499
-0.37231
-0.38208
-0.38818
-0.40039
-0.40283
-0.40649
-0.40771
-0.39917
-0.3894
-0.37476
-0.35767
-0.32715
-0.29297
-0.25635
-0.21606
-0.1709
-0.12329
-0.07568
-0.02808
0.01709
0.06348
0.1123
0.16113
0.20386
0.24292
0.27954
0.31128
0.33691
0.35645
0.37476
0.39185
0.40283
0.42114
0.43213
0.44434
0.4541
0.46021
0.46509
0.46997
0.47729
0.48462
0.49316
0.50415
0.51025
0.52002
0.52979
0.53833
0.54565
0.55176
0.5603
0.56763
0.57251
0.57617
0.5835
0.58716
0.5896
0.58472
0.58228
0.57617
0.56641
0.56274
0.55298
0.54321
0.53345
0.5249
0.51514
0.50415
0.49805
0.48584
0.47485
0.46631
0.45532
0.448
0.43457
0.42358
0.41504
0.40283
0.39551
0.38452
0.37842
0.37354
0.36621
0.35767
0.34668
0.33813
0.33203
0.31982
0.31006
0.29053
0.28198
0.27222
0.26123
0.25391
0.2417
0.23315
0.22217
0.21484
0.20142
0.18555
0.17456
0.15991
0.14404
0.13062
0.11597
0.10376
0.09155
0.07935
0.0647
0.04761
0.03296
0.01953
0.00244
-0.00977
-0.02197
-0.03418
-0.04517
-0.05981
-0.07202
-0.08667
-0.09644
-0.10498
-0.11597
-0.12451
-0.13794
-0.15259
-0.16235
-0.17456
-0.18555
-0.19897
-0.20874
-0.22339
-0.2356
-0.24048
-0.25269
-0.26123
-0.27344
-0.28442
-0.29297
-0.30518
-0.3125
-0.32227
-0.33081
-0.33691
-0.34546
-0.35645
-0.36743
-0.37842
-0.3894
-0.40161
-0.41504
-0.42725
-0.43701
-0.44678
-0.44922
-0.45654
-0.46509
-0.47485
-0.48218
-0.49561
-0.50537
-0.51636
-0.51758
-0.52124
-0.52979
-0.53467
-0.54199
-0.55054
-0.55664
-0.56152
-0.56763
-0.57373
-0.57739
-0.57861
-0.58105
-0.5835
-0.58472
-0.59082
-0.59814
-0.60547
-0.61035
-0.61279
-0.6189
-0.61646
-0.60913
-0.59814
-0.57861
-0.55542
-0.52612
-0.49438
-0.45044
-0.40649
-0.35889
-0.3064
-0.25513
-0.20386
-0.15259
-0.10498
-0.05005
-0.00244
0.04395
0.08423
0.11841
0.15259
0.18188
0.21118
0.23193
0.2478
0.26367
0.271
0.27954
0.28687
0.29053
0.29663
0.29907
0.30273
0.30762
0.3125
0.3186
0.31982
0.32104
0.32227
0.32837
0.33813
0.34424
0.35278
0.36255
0.36743
0.37109
0.36987
0.36621
0.36255
0.36011
0.35278
0.34424
0.33813
0.33203
0.32593
0.31982
0.3125
0.30518
0.29541
0.28564
0.27588
0.26611
0.26001
0.2478
0.24414
0.2356
0.22827
0.22095
0.21729
0.21118
0.20508
0.20264
0.19775
0.19287
0.18677
0.18188
0.17456
0.16968
0.16602
0.15747
0.15381
0.14648
0.1416
0.13062
0.11841
0.10864
0.09766
0.08423
0.0708
0.05737
0.04761
0.0354
0.02808
0.01343
0
-0.01343
-0.0293
-0.04517
-0.05737
-0.06958
-0.07813
-0.08911
-0.09766
-0.10742
-0.11841
-0.12939
-0.14771
-0.15503
-0.16479
-0.17578
-0.18311
-0.19531
-0.20508
-0.2124
-0.22339
-0.23193
-0.2417
-0.25024
-0.25879
-0.26733
-0.27588
-0.28564
-0.29419
-0.30273
-0.31372
-0.32104
-0.32471
-0.33447
-0.34302
-0.3479
-0.35278
-0.35889
-0.36377
-0.36987
-0.37842
-0.38818
-0.39429
-0.40405
-0.4126
-0.42236
-0.42969
-0.43701
-0.45044
-0.45898
-0.47241
-0.47852
-0.48584
-0.49072
-0.49683
-0.50171
-0.50171
-0.50537
-0.50537
-0.50781
-0.51147
-0.51636
-0.5249
-0.54077
-0.54688
-0.55786
-0.56396
-0.57495
-0.58472
-0.5957
-0.60913
-0.61646
-0.62866
-0.63599
-0.63843
-0.63354
-0.62378
-0.60791
-0.58472
-0.55542
-0.5249
-0.48828
-0.45044
-0.40771
-0.36133
-0.3186
-0.26245
-0.2124
-0.16113
-0.1123
-0.0647
-0.02197
0.01587
0.05615
0.08789
0.11353
0.13794
0.15625
0.17212
0.18311
0.19409
0.2002
0.20264
0.20996
0.21362
0.21729
0.23071
0.23315
0.2417
0.24658
0.25024
0.25635
0.26001
0.26489
0.26733
0.26855
0.27466
0.27954
0.28564
0.28931
0.28687
0.29053
0.28564
0.28076
0.27466
0.27344
0.271
0.26733
0.26123
0.25024
0.2417
0.23438
0.22461
0.21606
0.20508
0.2002
0.19287
0.18311
0.17578
0.1709
0.16479
0.16113
0.15137
0.15015
0.14893
0.14526
0.14404
0.14038
0.13794
0.13306
0.12817
0.12207
0.1123
0.10498
0.09521
0.08423
0.07324
0.06592
0.05493
0.04517
0.0354
0.02441
0.01099
-0.00244
-0.01709
-0.02441
-0.03418
-0.04272
-0.05249
-0.06104
-0.07202
-0.08301
-0.09033
-0.1001
-0.10864
-0.11719
-0.12329
-0.12939
-0.13672
-0.14526
-0.15381
-0.16235
-0.16968
-0.17822
-0.18677
-0.19775
-0.2063
-0.20996
-0.21606
-0.22095
-0.23193
-0.24048
-0.2478
-0.25757
-0.26001
-0.26855
-0.27344
-0.28442
-0.29053
-0.29663
-0.30151
-0.30884
-0.31982
-0.32593
-0.33325
-0.33936
-0.3418
-0.3479
-0.35156
-0.35645
-0.36499
-0.37476
-0.38574
-0.39063
-0.39795
-0.40771
-0.41138
-0.42114
-0.42847
-0.43579
-0.44067
-0.44922
-0.45898
-0.46509
-0.46875
-0.47363
-0.47485
-0.47729
-0.48218
-0.4895
-0.49683
-0.50415
-0.5127
-0.51758
-0.52124
-0.52612
-0.53345
-0.53955
-0.53467
-0.52979
-0.5188
-0.50293
-0.47974
-0.45044
-0.41748
-0.37842
-0.33569
-0.28687
-0.2356
-0.18311
-0.13306
-0.08301
-0.03418
0.01831
0.0708
0.11719
0.16357
0.20142
0.2356
0.26001
0.29053
0.3125
0.32837
0.3418
0.35767
0.36865
0.37598
0.38696
0.39307
0.39917
0.40405
0.40771
0.41138
0.41382
0.4187
0.42603
0.43091
0.43701
0.44312
0.44922
0.4541
0.46143
0.45898
0.46265
0.46753
0.46997
0.46997
0.46631
0.46753
0.46143
0.45532
0.448
0.43701
0.42725
0.41748
0.40405
0.40039
0.39185
0.3833
0.37476
0.36621
0.35645
0.34668
0.34058
0.33691
0.33203
0.32959
0.32471
0.32349
0.31738
0.31494
0.3064
0.29907
0.29297
0.28442
0.27588
0.271
0.26123
0.25879
0.24658
0.23682
0.22705
0.21484
0.20142
0.18799
0.17578
0.16357
0.15015
0.13794
0.12451
0.10986
0.09766
0.08179
0.07446
0.06104
0.05371
0.04639
0.03418
0.02441
0.01221
0.00244
-0.01099
-0.02441
-0.03662
-0.04639
-0.05859
-0.06714
-0.07568
-0.08789
-0.09766
-0.10742
-0.11719
-0.12817
-0.13672
-0.15137
-0.15747
-0.16479
-0.17456
-0.18311
-0.19287
-0.20508
-0.21606
-0.22949
-0.2356
-0.2417
-0.25513
-0.26123
-0.271
-0.27954
-0.28564
-0.29785
-0.30762
-0.3186
-0.32715
-0.33569
-0.34668
-0.35522
-0.36011
-0.36743
-0.37476
-0.38452
-0.3894
-0.39673
-0.40161
-0.40283
-0.40771
-0.40894
-0.41382
-0.41992
-0.42847
-0.43701
-0.44434
-0.4541
-0.46509
-0.47607
-0.48584
-0.49072
-0.49805
-0.50537
-0.50659
-0.51392
-0.52368
-0.53345
-0.54077
-0.54688
-0.5542
-0.55664
-0.55786
-0.56396
-0.56396
-0.56274
-0.55786
-0.55054
-0.53223
-0.5127
-0.48462
-0.448
-0.40894
-0.36499
-0.31494
-0.26367
-0.2063
-0.15015
-0.09521
-0.03784
0.01587
0.06958
0.11963
0.1709
0.21484
0.25146
0.28809
0.3186
0.34668
0.36987
0.39307
0.4126
0.42603
0.44067
0.45288
0.46143
0.46753
0.47852
0.48828
0.49927
0.50415
0.51392
0.52002
0.52612
0.53101
0.53467
0.54321
0.54932
0.55664
0.56519
0.57251
0.58472
0.58716
0.58838
0.58838
0.5835
0.57739
0.57007
0.56152
0.5603
0.54932
0.54077
0.5249
0.5127
0.49805
0.47974
0.46753
0.44922
0.43213
0.41626
0.39795
0.38574
0.37231
0.35889
0.35156
0.33813
0.32715
0.31738
0.31006
0.30396
0.29663
0.29785
0.29053
0.28687
0.27954
0.271
0.26367
0.25146
0.23926
0.23682
0.22705
0.21851
0.2063
0.19775
0.18311
0.16846
0.16113
0.14648
0.13428
0.12329
0.10986
0.10254
0.09033
0.08423
0.06958
0.06104
0.05005
0.03906
0.02441
0.01343
0.00122
-0.00244
-0.01587
-0.02686
-0.04028
-0.05615
-0.06714
-0.08179
-0.09155
-0.10254
-0.11475
-0.12329
-0.1355
-0.14404
-0.15381
-0.16968
-0.16968
-0.17944
-0.18799
-0.19409
-0.2002
-0.20752
-0.21606
-0.21973
-0.23315
-0.24292
-0.25513
-0.26733
-0.2771
-0.28687
-0.29053
-0.29907
-0.30884
-0.31616
-0.32593
-0.33447
-0.3418
-0.354
-0.35522
-0.36011
-0.36987
-0.37598
-0.3833
-0.3894
-0.39795
-0.40649
-0.41626
-0.42603
-0.43457
-0.44189
-0.44922
-0.4541
-0.46021
-0.46997
-0.47974
-0.49072
-0.49927
-0.50903
-0.51514
-0.52368
-0.52368
-0.52612
-0.53101
-0.53711
-0.54565
-0.55542
-0.56641
-0.57739
-0.58838
-0.59692
-0.60547
-0.60791
-0.61279
-0.61401
-0.61768
-0.60791
-0.59692
-0.58105
-0.55542
-0.52002
-0.48096
-0.43457
-0.38452
-0.33325
-0.2771
-0.22095
-0.16235
-0.10864
-0.05371
0.00244
0.05737
0.1123
0.15991
0.20508
0.2417
0.27588
0.30884
0.32959
0.354
0.37598
0.39673
0.41382
0.42847
0.44556
0.4541
0.46143
0.46753
0.47485
0.47852
0.48584
0.49316
0.49683
0.50049
0.50537
0.50903
0.5127
0.51758
0.51758
0.52734
0.53589
0.54321
0.55542
0.56152
0.56763
0.56274
0.5603
0.55542
0.54443
0.53467
0.52734
0.51514
0.50781
0.49438
0.48096
0.46631
0.45044
0.43945
0.42603
0.41504
0.40649
0.40039
0.39185
0.3772
0.36621
0.354
0.34302
0.33447
0.32349
0.3125
0.30273
0.29541
0.28687
0.27588
0.26733
0.25391
0.2478
0.23193
0.21729
0.20508
0.19409
0.18188
0.1709
0.15869
0.14648
0.13306
0.11963
0.10498
0.09155
0.07813
0.05981
0.05127
0.04272
0.03052
0.02075
0.00854
-0.0061
-0.02075
-0.03296
-0.04395
-0.05615
-0.06836
-0.07813
-0.09155
-0.10254
-0.11475
-0.12573
-0.13916
-0.15015
-0.16357
-0.17334
-0.18433
-0.19287
-0.2002
-0.2063
-0.21606
-0.22583
-0.23438
-0.24414
-0.25269
-0.25635
-0.26611
-0.27222
-0.28442
-0.29297
-0.3064
-0.31738
-0.33081
-0.33569
-0.3479
-0.35889
-0.36987
-0.3772
-0.38818
-0.39795
-0.41138
-0.42236
-0.43335
-0.44556
-0.45654
-0.46265
-0.46875
-0.47363
-0.48096
-0.48706
-0.50049
-0.50415
-0.51025
-0.51758
-0.52368
-0.5249
-0.53101
-0.53711
-0.54565
-0.55176
-0.56152
-0.57251
-0.57861
-0.59204
-0.59937
-0.60669
-0.61646
-0.62134
-0.62988
-0.63965
-0.64331
-0.65063
-0.65918
-0.66772
-0.67749
-0.68481
-0.69092
-0.69458
-0.69824
-0.69946
-0.69946
-0.69336
-0.68237
-0.66895
-0.65308
-0.61768
-0.58228
-0.54077
-0.50049
-0.45166
-0.40283
-0.35034
-0.29053
-0.23438
-0.17822
-0.11963
-0.06348
-0.00732
0.04395
0.09033
0.13184
0.16968
0.20508
0.23193
0.25879
0.28076
0.30151
0.32349
0.33569
0.35156
0.35889
0.36865
0.3772
0.38696
0.39185
0.39917
0.40894
0.4187
0.42358
0.43213
0.43091
0.44067
0.448
0.45288
0.45776
0.46387
0.46997
0.47607
0.48218
0.48828
0.48706
0.48096
0.47607
0.46631
0.45898
0.44922
0.44189
0.43335
0.41992
0.40649
0.3894
0.37476
0.35889
0.34912
0.33691
0.32593
0.3186
0.3125
0.30518
0.29907
0.29175
0.28076
0.27466
0.26489
0.25879
0.25269
0.24658
0.23926
0.23071
0.22217
0.20874
0.19897
0.18677
0.17456
0.16235
0.15259
0.1416
0.12939
0.11597
0.1062
0.09155
0.07813
0.05981
0.04639
0.03052
0.01709
0.00122
-0.01099
-0.02686
-0.0415
-0.05859
-0.07568
-0.09277
-0.10864
-0.11963
-0.13062
-0.14282
-0.15747
-0.17334
-0.18799
-0.20508
-0.21973
-0.23438
-0.24536
-0.25391
-0.25879
-0.26978
-0.27832
-0.28564
-0.29175
-0.30151
-0.30884
-0.31738
-0.32837
-0.33813
-0.3479
-0.35645
-0.36499
-0.3772
-0.3833
-0.39063
-0.40039
-0.41016
-0.41992
-0.42603
-0.43335
-0.43701
-0.43823
-0.44556
-0.45166
-0.46143
-0.46875
-0.47485
-0.48462
-0.49316
-0.49561
-0.50171
-0.50659
-0.51147
-0.51758
-0.52246
-0.52856
-0.52979
-0.53833
-0.54199
-0.54688
-0.55054
-0.5542
-0.55664
-0.5603
-0.56396
-0.57007
-0.57495
-0.58105
-0.5835
-0.58472
-0.5896
-0.59204
-0.59937
-0.60181
-0.60547
-0.60791
-0.61279
-0.61523
-0.62378
-0.62256
-0.625
-0.62988
-0.63721
-0.64209
-0.64941
-0.65796
-0.6604
-0.65918
-0.65918
-0.65186
-0.63843
-0.6189
-0.5957
-0.55664
-0.52124
-0.48218
-0.43701
-0.39063
-0.33936
-0.28687
-0.23071
-0.17456
-0.11841
-0.06226
-0.01221
0.03906
0.08301
0.12207
0.15991
0.19165
0.22095
0.24536
0.26123
0.27832
0.28931
0.30151
0.3125
0.31982
0.32593
0.33325
0.33813
0.34424
0.35034
0.35767
0.35889
0.35767
0.35522
0.35278
0.354
0.354
0.36377
0.37109
0.3772
0.38574
0.38696
0.39063
0.39307
0.39429
0.39673
0.39307
0.38696
0.38086
0.37231
0.36499
0.35767
0.34668
0.33813
0.32837
0.31982
0.30884
0.29663
0.28687
0.27954
0.26855
0.25635
0.24414
0.23315
0.22583
0.22095
0.21729
0.21118
0.20508
0.2002
0.19775
0.19165
0.18677
0.18066
0.17334
0.16357
0.15381
0.14404
0.13672
0.12451
0.11353
0.1001
0.08667
0.06836
0.05249
0.03784
0.02319
0.00732
-0.00488
-0.01953
-0.03662
-0.05249
-0.06836
-0.08179
-0.09521
-0.10498
-0.11108
-0.11353
-0.12207
-0.12695
-0.13306
-0.14404
-0.15137
-0.16479
-0.17456
-0.18188
-0.19165
-0.2002
-0.21118
-0.22339
-0.23193
-0.24292
-0.25513
-0.26733
-0.2771
-0.28564
-0.29541
-0.30396
-0.3125
-0.3186
-0.32715
-0.33813
-0.34912
-0.36377
-0.37476
-0.3833
-0.39185
-0.40039
-0.41138
-0.42236
-0.43457
-0.44922
-0.46021
-0.46021
-0.45166
-0.44434
-0.43945
-0.43945
-0.43457
-0.43701
-0.43701
-0.43945
-0.44434
-0.44678
-0.44922
-0.45288
-0.45532
-0.45776
-0.46387
-0.46509
-0.47119
-0.48218
-0.48828
-0.49561
-0.50293
-0.50903
-0.51392
-0.52368
-0.52734
-0.53467
-0.53833
-0.54443
-0.54688
-0.5542
-0.55298
-0.55664
-0.55786
-0.55786
-0.55908
-0.56152
-0.56274
-0.5603
-0.56274
-0.55786
-0.55298
-0.53955
-0.52124
-0.49683
-0.46997
-0.43701
-0.40161
-0.36377
-0.3186
-0.26855
-0.21729
-0.16235
-0.1123
-0.05737
-0.00732
0.04272
0.09033
0.12939
0.16724
0.19897
0.23438
0.26367
0.28687
0.3064
0.32471
0.33569
0.34302
0.34912
0.35767
0.36255
0.36255
0.36499
0.36743
0.36987
0.3772
0.37842
0.37842
0.37598
0.37598
0.37842
0.38086
0.3894
0.39429
0.39795
0.40161
0.40283
0.40405
0.39673
0.39063
0.39063
0.37964
0.37354
0.36377
0.35645
0.35034
0.3418
0.33813
0.32471
0.3125
0.30396
0.29419
0.29053
0.28442
0.28076
0.2832
0.27222
0.26855
0.26245
0.25879
0.25024
0.24658
0.24048
0.23804
0.22949
0.21973
0.21118
0.20264
0.19165
0.17944
0.16846
0.15625
0.14648
0.1355
0.12695
0.11475
0.10132
0.08789
0.0769
0.05859
0.04639
0.03296
0.02441
0.01099
0
-0.0061
-0.01343
-0.02075
-0.0354
-0.04761
-0.05737
-0.06836
-0.0769
-0.08545
-0.09277
-0.1001
-0.10986
-0.11841
-0.13062
-0.13916
-0.15137
-0.15991
-0.16724
-0.177
-0.18433
-0.19165
-0.2002
-0.20874
-0.21973
-0.22949
-0.23926
-0.25024
-0.25757
-0.26367
-0.271
-0.28198
-0.28198
-0.28809
-0.29785
-0.30518
-0.31372
-0.32471
-0.33081
-0.33569
-0.34668
-0.354
-0.36377
-0.36743
-0.37476
-0.38086
-0.38696
-0.39185
-0.39795
-0.40283
-0.40527
-0.40771
-0.41138
-0.41748
-0.42725
-0.43335
-0.44067
-0.44678
-0.45044
-0.45654
-0.46387
-0.47241
-0.48096
-0.48706
-0.49438
-0.50049
-0.50537
-0.51392
-0.52002
-0.53223
-0.53101
-0.53589
-0.53955
-0.54077
-0.54565
-0.54321
-0.53467
-0.5188
-0.49683
-0.46753
-0.43701
-0.39917
-0.35889
-0.31372
-0.26611
-0.21118
-0.16113
-0.10986
-0.05737
-0.00244
0.05005
0.10254
0.15015
0.19043
0.22705
0.26001
0.28931
0.3125
0.33813
0.36133
0.37598
0.38696
0.39551
0.40649
0.4126
0.42236
0.42725
0.43335
0.44189
0.44434
0.44922
0.44922
0.44922
0.448
0.44922
0.45044
0.45532
0.46021
0.46875
0.47485
0.47974
0.47974
0.48584
0.48706
0.48218
0.47974
0.47485
0.47119
0.45898
0.45044
0.43823
0.42847
0.41626
0.40527
0.39307
0.38086
0.36865
0.36621
0.36133
0.35522
0.3479
0.34302
0.33569
0.32715
0.32104
0.31372
0.30396
0.29541
0.28809
0.27954
0.271
0.26123
0.25391
0.24658
0.2356
0.22583
0.21362
0.20142
0.19287
0.17822
0.17334
0.16602
0.15747
0.14526
0.13062
0.11475
0.09766
0.08301
0.07202
0.06104
0.05127
0.04028
0.02808
0.01709
0.00244
-0.00488
-0.01587
-0.02808
-0.03784
-0.05127
-0.06226
-0.0708
-0.07935
-0.08667
-0.09521
-0.1062
-0.11353
-0.12329
-0.12573
-0.13428
-0.13916
-0.14282
-0.14893
-0.15503
-0.16724
-0.177
-0.17944
-0.18555
-0.18921
-0.19409
-0.20142
-0.20874
-0.22095
-0.23071
-0.24536
-0.25391
-0.26245
-0.27344
-0.2771
-0.28442
-0.29175
-0.30273
-0.31616
-0.31982
-0.32959
-0.33936
-0.35034
-0.36133
-0.36743
-0.37842
-0.38086
-0.38696
-0.39429
-0.40161
-0.41138
-0.41626
-0.4248
-0.43579
-0.43335
-0.43945
-0.44312
-0.44922
-0.45532
-0.46143
-0.47119
-0.47607
-0.48218
-0.48828
-0.49072
-0.49683
-0.50049
-0.50415
-0.51147
-0.51147
-0.52124
-0.5249
-0.52979
-0.53223
-0.52612
-0.5188
-0.50415
-0.48218
-0.45898
-0.42847
-0.39673
-0.35522
-0.31006
-0.26245
-0.2063
-0.15625
-0.10132
-0.04639
0.00854
0.0647
0.11353
0.16235
0.20874
0.24902
0.28687
0.3186
0.3479
0.37231
0.39063
0.41016
0.41992
0.43091
0.44189
0.45044
0.45898
0.46265
0.46509
0.47119
0.47485
0.47729
0.47852
0.47852
0.47852
0.48218
0.48584
0.49072
0.49683
0.50293
0.50659
0.5127
0.51392
0.5188
0.5188
0.51636
0.51514
0.51392
0.51025
0.50537
0.49194
0.48706
0.47852
0.47119
0.46265
0.45532
0.448
0.44067
0.43335
0.4187
0.40894
0.39917
0.38696
0.37476
0.36255
0.35278
0.3479
0.33936
0.33203
0.32593
0.31982
0.31006
0.29907
0.28809
0.28442
0.2771
0.26978
0.25879
0.2478
0.23926
0.22827
0.21851
0.20508
0.19531
0.18311
0.1709
0.15991
0.14648
0.1355
0.12695
0.1123
0.10132
0.08545
0.07324
0.06104
0.05249
0.04639
0.03296
0.02441
0.01465
0.00366
-0.00854
-0.01953
-0.03174
-0.03906
-0.05005
-0.05859
-0.06836
-0.07813
-0.08789
-0.09766
-0.10986
-0.11353
-0.12207
-0.13062
-0.13916
-0.14771
-0.16113
-0.17334
-0.18188
-0.19287
-0.20264
-0.21362
-0.22339
-0.23438
-0.24536
-0.25269
-0.26001
-0.26978
-0.27954
-0.29053
-0.29907
-0.31006
-0.31616
-0.32227
-0.32227
-0.32349
-0.32959
-0.33569
-0.34058
-0.35034
-0.35767
-0.36377
-0.37109
-0.3772
-0.3833
-0.38574
-0.39185
-0.39185
-0.39917
-0.39917
-0.40405
-0.41138
-0.41504
-0.4187
-0.42236
-0.4248
-0.42603
-0.42969
-0.43579
-0.44312
-0.45288
-0.45898
-0.46509
-0.47241
-0.47607
-0.4834
-0.48584
-0.49072
-0.49194
-0.49194
-0.48706
-0.48218
-0.46265
-0.44189
-0.41626
-0.37842
-0.33936
-0.29663
-0.24902
-0.19775
-0.14771
-0.09399
-0.03784
0.01587
0.06958
0.12451
0.177
0.23071
0.27344
0.3125
0.34424
0.37109
0.39551
0.41626
0.43579
0.45288
0.46509
0.47485
0.48218
0.48462
0.49072
0.49438
0.49438
0.49805
0.50171
0.50903
0.51025
0.5127
0.51636
0.51636
0.52002
0.52246
0.52612
0.53101
0.53589
0.53589
0.53833
0.53833
0.53589
0.53101
0.52368
0.51392
0.50415
0.49927
0.49438
0.48584
0.47607
0.46631
0.45532
0.44556
0.43335
0.42358
0.41382
0.40405
0.39551
0.38696
0.37598
0.36255
0.35034
0.34424
0.33569
0.32471
0.31494
0.3064
0.30029
0.29297
0.28687
0.27588
0.26611
0.25757
0.25024
0.24048
0.23071
0.21851
0.20996
0.2002
0.18799
0.17822
0.16357
0.14893
0.13428
0.11475
0.10376
0.09399
0.08179
0.07202
0.05859
0.04517
0.03296
0.02319
0.01099
0.00122
-0.00732
-0.01465
-0.02319
-0.03052
-0.04028
-0.04639
-0.05371
-0.0647
-0.07446
-0.08667
-0.10132
-0.11108
-0.12451
-0.12573
-0.13672
-0.14404
-0.15503
-0.16602
-0.17578
-0.18555
-0.19287
-0.20386
-0.21484
-0.22217
-0.23071
-0.23682
-0.2417
-0.2478
-0.25391
-0.26123
-0.26733
-0.26978
-0.2771
-0.28442
-0.29419
-0.3064
-0.3125
-0.32471
-0.33447
-0.34668
-0.35278
-0.36133
-0.36865
-0.37354
-0.38452
-0.39307
-0.40527
-0.4126
-0.42114
-0.42847
-0.43579
-0.43945
-0.44434
-0.44556
-0.44922
-0.45166
-0.45654
-0.46387
-0.47241
-0.47729
-0.48584
-0.49194
-0.49805
-0.50293
-0.50903
-0.5127
-0.51758
-0.52368
-0.53101
-0.53833
-0.54321
-0.54688
-0.5542
-0.55908
-0.56396
-0.57007
-0.57617
-0.57861
-0.57739
-0.57495
-0.5603
-0.53955
-0.50659
-0.46997
-0.42969
-0.38208
-0.33325
-0.28198
-0.22949
-0.17822
-0.11841
-0.05859
0
0.05981
0.11719
0.16846
0.21606
0.25757
0.29541
0.32715
0.35278
0.37598
0.39429
0.4126
0.42969
0.43823
0.44434
0.45044
0.4541
0.45654
0.45654
0.45898
0.46631
0.46753
0.46997
0.46753
0.46509
0.46509
0.46631
0.46875
0.47241
0.47974
0.48462
0.49072
0.49438
0.49683
0.49561
0.49683
0.49438
0.4895
0.48584
0.47852
0.47363
0.46997
0.46387
0.45776
0.44922
0.44067
0.43213
0.41992
0.41016
0.40161
0.39307
0.38818
0.37964
0.37354
0.36499
0.35645
0.34668
0.33447
0.32959
0.32227
0.31372
0.3064
0.29785
0.29175
0.28198
0.27222
0.26611
0.25269
0.24048
0.22827
0.21606
0.2063
0.19409
0.18677
0.16846
0.15503
0.13916
0.12573
0.11108
0.10132
0.08789
0.08057
0.06836
0.05981
0.04639
0.0354
0.02563
0.01465
-0.00244
-0.00854
-0.01709
-0.02441
-0.03418
-0.04272
-0.05371
-0.0647
-0.0708
-0.08545
-0.09644
-0.10376
-0.11353
-0.11963
-0.13062
-0.13916
-0.14893
-0.15381
-0.16235
-0.17334
-0.17944
-0.18799
-0.19409
-0.20386
-0.20752
-0.2124
-0.22095
-0.22949
-0.23926
-0.24902
-0.25879
-0.26611
-0.27222
-0.2771
-0.28442
-0.28931
-0.29907
-0.3064
-0.3186
-0.32349
-0.33325
-0.33813
-0.3479
-0.354
-0.36255
-0.36499
-0.37598
-0.37964
-0.38574
-0.39307
-0.40039
-0.41016
-0.41748
-0.42358
-0.43091
-0.43091
-0.44312
-0.45288
-0.46387
-0.47607
-0.48828
-0.49438
-0.50293
-0.50415
-0.50903
-0.5127
-0.51636
-0.51758
-0.51514
-0.50537
-0.48584
-0.46631
-0.43823
-0.40161
-0.36499
-0.32104
-0.2771
-0.22827
-0.17212
-0.12085
-0.06714
-0.01221
0.04639
0.10498
0.15869
0.21118
0.25757
0.29297
0.32959
0.35767
0.38208
0.40405
0.42236
0.43701
0.44556
0.45288
0.45532
0.45776
0.45898
0.45898
0.46143
0.46631
0.46753
0.46509
0.46021
0.46021
0.45532
0.4541
0.45532
0.45532
0.4541
0.45532
0.45532
0.45898
0.45776
0.45776
0.45532
0.44922
0.44312
0.43579
0.42969
0.42236
0.41504
0.40649
0.40283
0.39307
0.38208
0.37476
0.36743
0.35889
0.35156
0.33936
0.33936
0.33447
0.32837
0.32227
0.31372
0.30518
0.29907
0.29541
0.28687
0.28076
0.27588
0.27222
0.26367
0.25757
0.24658
0.24048
0.22827
0.21973
0.20874
0.19775
0.18555
0.17456
0.15869
0.15015
0.13428
0.11841
0.10376
0.08423
0.0708
0.05981
0.04517
0.04028
0.02563
0.01587
0.00122
-0.01099
-0.02197
-0.03784
-0.05127
-0.05615
-0.06592
-0.07568
-0.08179
-0.08789
-0.09644
-0.10376
-0.1062
-0.11597
-0.12085
-0.12695
-0.13184
-0.13794
-0.14526
-0.15137
-0.15869
-0.16968
-0.17822
-0.18677
-0.19409
-0.20264
-0.2124
-0.22095
-0.22949
-0.2356
-0.24536
-0.25146
-0.25757
-0.26489
-0.271
-0.2771
-0.28076
-0.28687
-0.29541
-0.30273
-0.31494
-0.32349
-0.33203
-0.34302
-0.34424
-0.34912
-0.35767
-0.36499
-0.37598
-0.38086
-0.3894
-0.39795
-0.40405
-0.41138
-0.41748
-0.42236
-0.42603
-0.43091
-0.43823
-0.43945
-0.45166
-0.45898
-0.46509
-0.47241
-0.47729
-0.4834
-0.48828
-0.49194
-0.49438
-0.49072
-0.48706
-0.47363
-0.45654
-0.43457
-0.40771
-0.37109
-0.32593
-0.27832
-0.22827
-0.17334
-0.12329
-0.06714
-0.01221
0.04761
0.10498
0.16479
0.21851
0.27344
0.31982
0.36377
0.39429
0.42725
0.45288
0.46997
0.4834
0.49683
0.51025
0.52002
0.53223
0.53711
0.53833
0.54199
0.54565
0.5481
0.54932
0.5542
0.55664
0.5603
0.56152
0.56641
0.56641
0.56763
0.57007
0.57251
0.57617
0.57861
0.58228
0.5835
0.57983
0.57861
0.57129
0.56641
0.55664
0.54688
0.53711
0.52734
0.51758
0.50903
0.49438
0.49072
0.47852
0.46509
0.45532
0.44312
0.43091
0.41992
0.40649
0.39917
0.38818
0.38452
0.37476
0.36499
0.35645
0.34668
0.34424
0.33691
0.33203
0.32471
0.31494
0.30396
0.29053
0.2771
0.26733
0.25269
0.2417
0.23315
0.22095
0.20752
0.19287
0.177
0.16357
0.15015
0.13428
0.11841
0.10376
0.09277
0.08179
0.06592
0.05615
0.04517
0.03052
0.01953
0.00366
-0.01099
-0.02075
-0.03662
-0.0415
-0.05127
-0.0647
-0.0769
-0.08667
-0.10132
-0.11597
-0.12939
-0.13794
-0.14526
-0.15747
-0.16479
-0.177
-0.18555
-0.19775
-0.20752
-0.21729
-0.22705
-0.23682
-0.24292
-0.25146
-0.25757
-0.26733
-0.271
-0.27954
-0.28809
-0.29663
-0.30884
-0.31738
-0.32715
-0.33447
-0.34058
-0.3479
-0.354
-0.36255
-0.37354
-0.38208
-0.39185
-0.39917
-0.40405
-0.40771
-0.4126
-0.41748
-0.42358
-0.43701
-0.44312
-0.45654
-0.46021
-0.47119
-0.47974
-0.48584
-0.49316
-0.50049
-0.50537
-0.5188
-0.52002
-0.52734
-0.53467
-0.54077
-0.54321
-0.54688
-0.54565
-0.54932
-0.53833
-0.52979
-0.5127
-0.49072
-0.45898
-0.4187
-0.37476
-0.32715
-0.26978
-0.21362
-0.15381
-0.09644
-0.03662
0.02197
0.07935
0.13916
0.2002
0.25513
0.30273
0.34424
0.38208
0.40771
0.42969
0.45166
0.46875
0.48584
0.49805
0.50781
0.51392
0.52124
0.52979
0.52979
0.53345
0.53467
0.53467
0.53955
0.53833
0.53955
0.54688
0.5481
0.5542
0.5542
0.5603
0.56519
0.57251
0.57373
0.58228
0.5835
0.5835
0.57983
0.57373
0.5603
0.55054
0.53467
0.52612
0.5127
0.49805
0.48584
0.47485
0.46509
0.4541
0.43945
0.43091
0.41992
0.40649
0.39429
0.38452
0.3772
0.37109
0.36377
0.354
0.34424
0.33325
0.32349
0.31494
0.30518
0.29785
0.29297
0.28198
0.27222
0.26367
0.24902
0.2356
0.22339
0.20874
0.2063
0.19287
0.18188
0.16846
0.15259
0.14038
0.12451
0.10864
0.09644
0.07813
0.0647
0.05005
0.03662
0.02441
0.01221
0
-0.01465
-0.02686
-0.04028
-0.05249
-0.06226
-0.07324
-0.08423
-0.09766
-0.10864
-0.11963
-0.13428
-0.14771
-0.15991
-0.1709
-0.18311
-0.19775
-0.20264
-0.2124
-0.22095
-0.23315
-0.24292
-0.25391
-0.26367
-0.28076
-0.28442
-0.29541
-0.30151
-0.31006
-0.31982
-0.32959
-0.34302
-0.35645
-0.36255
-0.37109
-0.3772
-0.38452
-0.39185
-0.40039
-0.41138
-0.41748
-0.43213
-0.448
-0.45532
-0.47119
-0.47974
-0.48828
-0.49561
-0.49927
-0.51025
-0.52002
-0.53101
-0.54321
-0.5542
-0.56519
-0.57495
-0.5835
-0.59814
-0.60547
-0.61523
-0.62256
-0.6311
-0.63721
-0.63965
-0.63721
-0.62866
-0.60913
-0.5835
-0.55176
-0.51758
-0.47607
-0.43457
-0.38452
-0.33203
-0.27466
-0.21851
-0.15991
-0.1001
-0.03906
0.01709
0.07813
0.12817
0.177
0.21729
0.2478
0.27588
0.29785
0.3186
0.33569
0.34424
0.35278
0.354
0.35645
0.35767
0.35767
0.36621
0.36865
0.36987
0.36987
0.36621
0.36377
0.35889
0.36133
0.35889
0.35767
0.36255
0.36987
0.36865
0.36865
0.36621
0.36621
0.35645
0.34546
0.33691
0.32959
0.31982
0.31372
0.30396
0.29541
0.28442
0.27588
0.26367
0.25391
0.24414
0.23438
0.22705
0.22461
0.21851
0.21362
0.20996
0.20752
0.20142
0.19653
0.19043
0.19287
0.18921
0.18555
0.18311
0.17822
0.17212
0.16479
0.15015
0.14893
0.1416
0.13184
0.12573
0.11719
0.10864
0.1001
0.08667
0.08179
0.06958
0.05737
0.04639
0.03662
0.02808
0.01587
0.00488
-0.00244
-0.01465
-0.02808
-0.04272
-0.05737
-0.0708
-0.08423
-0.09888
-0.10986
-0.11963
-0.13306
-0.14526
-0.15503
-0.16602
-0.17334
-0.18188
-0.19165
-0.19897
-0.20386
-0.20996
-0.21484
-0.22339
-0.22949
-0.23682
-0.24414
-0.25513
-0.26123
-0.26855
-0.27222
-0.2771
-0.2832
-0.28442
-0.29175
-0.29907
-0.30518
-0.31128
-0.3186
-0.32227
-0.32837
-0.33447
-0.33569
-0.3418
-0.34546
-0.35522
-0.36011
-0.37109
-0.37964
-0.38574
-0.39185
-0.39917
-0.40649
-0.41626
-0.42725
-0.43945
-0.44678
-0.44922
-0.44312
-0.43579
-0.42358
-0.40283
-0.37354
-0.33691
-0.29541
-0.25269
-0.20386
-0.15259
-0.1001
-0.04517
0.01343
0.06958
0.12695
0.17944
0.23193
0.27466
0.31372
0.35034
0.38208
0.41016
0.43335
0.45532
0.47485
0.48706
0.49438
0.49927
0.50049
0.49805
0.50049
0.50415
0.50415
0.50415
0.50293
0.49927
0.49438
0.48462
0.48462
0.48096
0.47852
0.47974
0.47852
0.47852
0.48096
0.47363
0.47729
0.46631
0.45532
0.44556
0.43091
0.41992
0.40527
0.38818
0.37598
0.36011
0.34546
0.32715
0.3125
0.29907
0.2832
0.271
0.26245
0.25391
0.24658
0.2356
0.22949
0.21606
0.2063
0.19531
0.18921
0.18677
0.18066
0.17334
0.16724
0.15625
0.14771
0.13672
0.12939
0.11963
0.1062
0.09888
0.08789
0.07935
0.06714
0.05493
0.04639
0.03174
0.01831
0.00488
-0.01099
-0.01831
-0.02808
-0.03784
-0.04883
-0.06348
-0.07446
-0.08789
-0.09888
-0.1123
-0.12695
-0.13428
-0.15137
-0.16235
-0.17334
-0.18433
-0.19287
-0.20508
-0.21484
-0.22339
-0.23315
-0.24048
-0.24902
-0.25513
-0.26367
-0.27588
-0.28687
-0.29663
-0.31006
-0.3186
-0.32715
-0.33203
-0.33936
-0.34912
-0.35767
-0.36499
-0.37231
-0.38208
-0.39185
-0.39917
-0.40894
-0.4126
-0.4187
-0.42236
-0.42725
-0.43335
-0.44067
-0.44922
-0.45654
-0.46387
-0.47485
-0.47852
-0.48584
-0.49072
-0.49561
-0.50537
-0.5127
-0.5249
-0.53101
-0.53467
-0.53955
-0.54443
-0.55054
-0.56152
-0.57129
-0.58105
-0.5896
-0.59448
-0.60303
-0.60913
-0.61035
-0.60303
-0.59326
-0.57495
-0.55176
-0.51514
-0.47363
-0.42969
-0.37842
-0.32227
-0.26367
-0.19897
-0.13672
-0.06592
0
0.06592
0.12939
0.18921
0.24536
0.29663
0.3479
0.38818
0.42358
0.45654
0.48462
0.50659
0.5249
0.53345
0.54932
0.56152
0.57129
0.58105
0.58594
0.59204
0.5957
0.60425
0.61157
0.61157
0.61401
0.61768
0.62012
0.62622
0.6311
0.64209
0.65186
0.65674
0.66406
0.66772
0.67017
0.67383
0.67017
0.67627
0.67383
0.67017
0.66162
0.65186
0.63965
0.625
0.60791
0.59814
0.58105
0.57129
0.55908
0.54688
0.53223
0.51758
0.50049
0.49072
0.47974
0.46875
0.45898
0.45044
0.44067
0.43335
0.4187
0.41016
0.40039
0.38574
0.37354
0.36255
0.3479
0.33569
0.32471
0.31006
0.29907
0.28564
0.27222
0.25757
0.23926
0.22705
0.21606
0.20142
0.18555
0.17212
0.15747
0.14038
0.12329
0.10498
0.09521
0.08057
0.0647
0.05493
0.04028
0.02808
0.01343
-0.00244
-0.01343
-0.0293
-0.0415
-0.05493
-0.06714
-0.07568
-0.08667
-0.09766
-0.1062
-0.12207
-0.13428
-0.14771
-0.15991
-0.1709
-0.18188
-0.19043
-0.20142
-0.20874
-0.22095
-0.23193
-0.24414
-0.25757
-0.26978
-0.28076
-0.28442
-0.29297
-0.30396
-0.31372
-0.32471
-0.33569
-0.34424
-0.35767
-0.36011
-0.36987
-0.37842
-0.3833
-0.39307
-0.40039
-0.41016
-0.41626
-0.41992
-0.43213
-0.44189
-0.45044
-0.45898
-0.46631
-0.47607
-0.48706
-0.4895
-0.49805
-0.50781
-0.52002
-0.52612
-0.53589
-0.54199
-0.54932
-0.55298
-0.56274
-0.57007
-0.57617
-0.58105
-0.58594
-0.58594
-0.58228
-0.56396
-0.53711
-0.51025
-0.46875
-0.42358
-0.37598
-0.32349
-0.271
-0.20386
-0.14038
-0.08057
-0.01465
0.04883
0.11353
0.17822
0.23315
0.29175
0.33936
0.38086
0.4187
0.44922
0.48096
0.50171
0.52368
0.53833
0.5481
0.5603
0.56763
0.57495
0.58105
0.5896
0.60181
0.60913
0.61401
0.6189
0.62256
0.625
0.62622
0.63232
0.63721
0.64209
0.65186
0.65552
0.65918
0.66528
0.66406
0.67139
0.66162
0.65796
0.65308
0.64575
0.63843
0.625
0.61279
0.60669
0.58838
0.57495
0.55908
0.54565
0.53101
0.51636
0.50415
0.49316
0.47852
0.46509
0.4541
0.44312
0.42969
0.41626
0.40894
0.39429
0.38208
0.36865
0.35767
0.34424
0.32837
0.31494
0.29907
0.28809
0.27222
0.25513
0.2417
0.22827
0.21362
0.19775
0.18188
0.16968
0.15015
0.13428
0.11841
0.10498
0.09277
0.08179
0.06836
0.05981
0.04395
0.0293
0.00977
-0.0061
-0.02197
-0.0354
-0.04517
-0.05859
-0.06714
-0.07935
-0.09277
-0.1062
-0.12085
-0.13428
-0.14771
-0.15991
-0.16846
-0.17822
-0.18677
-0.19775
-0.20874
-0.22461
-0.23926
-0.25269
-0.26001
-0.271
-0.28076
-0.29419
-0.30518
-0.31372
-0.32471
-0.33203
-0.3418
-0.35034
-0.35767
-0.36865
-0.37964
-0.38818
-0.39673
-0.40894
-0.41626
-0.42358
-0.43335
-0.44067
-0.45044
-0.46143
-0.46875
-0.47729
-0.48462
-0.49194
-0.50171
-0.51025
-0.5188
-0.52612
-0.53589
-0.55298
-0.5542
-0.56152
-0.56641
-0.57373
-0.57983
-0.59082
-0.60059
-0.61401
-0.6189
-0.625
-0.62866
-0.63721
-0.64575
-0.6543
-0.66162
-0.67261
-0.67505
-0.67749
-0.67505
-0.67383
-0.6604
-0.64697
-0.62256
-0.59692
-0.55542
-0.51025
-0.46265
-0.41138
-0.354
-0.29053
-0.22339
-0.15503
-0.08789
-0.02075
0.04395
0.10498
0.16113
0.21606
0.26611
0.30396
0.3479
0.38086
0.41016
0.43457
0.45166
0.46875
0.48096
0.49805
0.51025
0.5188
0.52734
0.53467
0.54077
0.54688
0.54688
0.55298
0.55176
0.55298
0.55542
0.55664
0.5603
0.56274
0.56152
0.57251
0.57495
0.57739
0.57251
0.57251
0.56763
0.5603
0.54932
0.54688
0.53589
0.52368
0.50903
0.49194
0.47485
0.45776
0.43701
0.42847
0.4187
0.40405
0.39307
0.3833
0.37109
0.36133
0.34546
0.33691
0.32715
0.31616
0.30884
0.29663
0.28687
0.2771
0.26367
0.25757
0.24292
0.23071
0.21729
0.20508
0.19287
0.18188
0.16724
0.15747
0.1416
0.12817
0.11353
0.09766
0.08179
0.06714
0.05249
0.03662
0.02319
0.00366
-0.01587
-0.03174
-0.05005
-0.0647
-0.07935
-0.09033
-0.1062
-0.12329
-0.1355
-0.15137
-0.16724
-0.177
-0.19287
-0.20264
-0.21362
-0.22461
-0.23315
-0.24414
-0.25391
-0.26489
-0.27466
-0.2832
-0.29541
-0.30762
-0.32104
-0.33325
-0.34424
-0.35767
-0.36743
-0.3772
-0.38818
-0.39795
-0.40894
-0.41992
-0.42725
-0.43701
-0.44312
-0.45288
-0.46021
-0.46997
-0.47729
-0.48462
-0.49438
-0.50171
-0.50659
-0.50659
-0.51514
-0.52246
-0.52856
-0.53223
-0.53833
-0.54565
-0.55664
-0.5603
-0.57007
-0.57495
-0.58105
-0.59204
-0.59814
-0.60425
-0.61401
-0.62744
-0.63354
-0.64087
-0.64819
-0.65674
-0.66284
-0.66895
-0.67383
-0.68237
-0.67871
-0.67505
-0.67261
-0.65918
-0.63965
-0.60913
-0.56763
-0.5249
-0.46875
-0.41626
-0.36133
-0.29907
-0.23682
-0.17334
-0.10864
-0.04761
0.01709
0.0769
0.12939
0.18188
0.22339
0.26245
0.29175
0.3125
0.3418
0.36011
0.37598
0.38696
0.39551
0.40161
0.40405
0.40649
0.40405
0.40649
0.40283
0.40039
0.39917
0.39551
0.39063
0.39429
0.39307
0.39551
0.39673
0.40283
0.40649
0.40771
0.40894
0.40771
0.40405
0.40039
0.39063
0.38208
0.36987
0.35645
0.3418
0.33081
0.31738
0.30396
0.28687
0.27222
0.25757
0.24658
0.23438
0.23315
0.22583
0.22217
0.21851
0.21118
0.20508
0.19409
0.18188
0.17578
0.16113
0.15137
0.13916
0.12939
0.12695
0.11841
0.11597
0.10864
0.10132
0.08911
0.0769
0.06592
0.05615
0.04517
0.03662
0.02441
0.01099
-0.00488
-0.02075
-0.03418
-0.05127
-0.06714
-0.08179
-0.10132
-0.10986
-0.12695
-0.13916
-0.15503
-0.16724
-0.177
-0.18921
-0.20752
-0.2124
-0.22095
-0.22949
-0.2417
-0.24902
-0.25757
-0.26367
-0.2771
-0.28442
-0.29297
-0.29785
-0.30273
-0.3064
-0.31616
-0.32104
-0.32837
-0.33325
-0.34058
-0.34668
-0.354
-0.35889
-0.36499
-0.36865
-0.37354
-0.37354
-0.3772
-0.38452
-0.39185
-0.40039
-0.40527
-0.41138
-0.4187
-0.4187
-0.42847
-0.43335
-0.44434
-0.45044
-0.45532
-0.46387
-0.47119
-0.48218
-0.4895
-0.49316
-0.49927
-0.50049
-0.50293
-0.49805
-0.49072
-0.48218
-0.45654
-0.43213
-0.39551
-0.35156
-0.30518
-0.25635
-0.20264
-0.14648
-0.08545
-0.02563
0.03662
0.09644
0.15625
0.21484
0.26611
0.3125
0.35645
0.39429
0.42603
0.45166
0.47363
0.49072
0.50049
0.50537
0.51147
0.52002
0.52002
0.52002
0.52124
0.51636
0.51392
0.51636
0.51392
0.51514
0.51514
0.51392
0.51147
0.50903
0.50903
0.50903
0.50781
0.50049
0.49561
0.49072
0.48218
0.47119
0.45654
0.44312
0.42603
0.40771
0.38818
0.37231
0.35522
0.34058
0.32837
0.31494
0.30884
0.30029
0.29175
0.2832
0.27588
0.27222
0.26855
0.26245
0.26367
0.26001
0.25391
0.25024
0.24536
0.23926
0.23071
0.22339
0.21729
0.21118
0.19775
0.18799
0.17456
0.16357
0.15015
0.13428
0.11963
0.10498
0.09277
0.08423
0.0708
0.05981
0.04517
0.0293
0.01831
0
-0.01709
-0.0293
-0.04395
-0.05737
-0.07568
-0.09033
-0.11108
-0.12329
-0.13794
-0.15259
-0.16357
-0.17456
-0.18799
-0.19653
-0.2124
-0.21729
-0.22827
-0.23926
-0.24902
-0.26123
-0.26978
-0.27832
-0.28809
-0.29053
-0.29785
-0.30884
-0.3186
-0.33081
-0.34058
-0.35278
-0.36377
-0.37109
-0.38086
-0.38574
-0.39429
-0.39795
-0.40649
-0.41138
-0.42114
-0.42725
-0.43579
-0.44189
-0.44922
-0.45288
-0.46265
-0.47119
-0.48218
-0.48828
-0.49561
-0.50537
-0.51392
-0.52002
-0.52368
-0.53101
-0.53589
-0.54321
-0.54565
-0.5481
-0.5481
-0.54321
-0.53223
-0.50781
-0.47852
-0.44189
-0.39673
-0.34668
-0.29541
-0.23804
-0.17456
-0.10864
-0.0415
0.02686
0.09644
0.16846
0.23193
0.29907
0.35767
0.41016
0.45532
0.49438
0.53467
0.56641
0.59204
0.61523
0.6311
0.64941
0.6543
0.65796
0.67017
0.67383
0.67505
0.67627
0.67749
0.68115
0.67993
0.68604
0.68359
0.68359
0.68237
0.68481
0.68726
0.6958
0.70068
0.70557
0.71045
0.71289
0.71045
0.70679
0.69946
0.6897
0.67627
0.65918
0.64697
0.62988
0.60913
0.5896
0.56641
0.54688
0.52368
0.50171
0.48462
0.46997
0.45532
0.44678
0.43213
0.42603
0.41504
0.40405
0.39551
0.38696
0.37476
0.36987
0.36133
0.354
0.34302
0.33203
0.32471
0.30884
0.29541
0.28198
0.26611
0.25513
0.2417
0.22827
0.21973
0.20508
0.18921
0.17212
0.15503
0.1355
0.12085
0.10864
0.09155
0.08057
0.0647
0.04761
0.0293
0.01099
-0.0061
-0.02441
-0.04639
-0.05859
-0.0769
-0.09277
-0.11108
-0.12451
-0.14282
-0.16357
-0.18433
-0.19897
-0.21729
-0.23071
-0.24414
-0.25391
-0.26733
-0.27954
-0.29419
-0.3064
-0.3186
-0.33203
-0.34546
-0.35522
-0.36499
-0.37354
-0.3833
-0.3894
-0.40039
-0.40894
-0.4187
-0.43091
-0.43945
-0.44556
-0.45166
-0.45288
-0.46265
-0.46997
-0.47729
-0.48584
-0.49561
-0.50903
-0.51514
-0.52368
-0.53345
-0.53955
-0.55054
-0.55786
-0.56641
-0.57495
-0.5835
-0.59692
-0.59814
-0.60669
-0.61279
-0.61646
-0.625
-0.63232
-0.64331
-0.6543
-0.65552
-0.65918
-0.65308
-0.64087
-0.61768
-0.58716
-0.54688
-0.50049
-0.448
-0.39063
-0.32959
-0.26367
-0.19775
-0.12451
-0.05249
0.02319
0.09888
0.16968
0.23438
0.29541
0.34912
0.39307
0.43701
0.47241
0.50415
0.53467
0.55542
0.57373
0.58838
0.60303
0.61279
0.6189
0.62988
0.63965
0.64941
0.6604
0.6665
0.67383
0.67139
0.66895
0.67627
0.67505
0.67749
0.68237
0.68481
0.69092
0.69336
0.69336
0.6958
0.69214
0.68726
0.67749
0.6665
0.6543
0.64087
0.625
0.61035
0.59692
0.57739
0.5603
0.54077
0.52124
0.50293
0.48828
0.47241
0.46021
0.44312
0.43091
0.41626
0.40283
0.39063
0.37476
0.36499
0.35278
0.3418
0.33325
0.32227
0.3125
0.29663
0.28442
0.26855
0.25513
0.23804
0.22217
0.20874
0.19409
0.17822
0.16235
0.1416
0.12939
0.1123
0.09766
0.08301
0.06714
0.05249
0.03906
0.02075
0.00977
-0.00732
-0.02197
-0.04028
-0.05615
-0.07324
-0.09033
-0.1062
-0.11353
-0.13062
-0.14404
-0.16235
-0.17944
-0.19531
-0.21484
-0.23071
-0.23926
-0.25269
-0.26367
-0.27832
-0.28931
-0.30518
-0.31616
-0.32715
-0.34302
-0.34912
-0.36133
-0.37354
-0.38452
-0.39551
-0.40405
-0.41626
-0.42847
-0.43823
-0.45044
-0.46021
-0.46875
-0.47852
-0.48584
-0.49561
-0.50293
-0.51025
-0.52002
-0.52612
-0.53223
-0.53955
-0.54932
-0.55786
-0.56519
-0.57739
-0.57617
-0.59082
-0.60059
-0.60791
-0.61768
-0.62866
-0.63721
-0.64819
-0.65552
-0.66528
-0.67383
-0.68481
-0.69702
-0.70801
-0.71899
-0.72876
-0.7312
-0.73853
-0.73975
-0.74707
-0.74951
-0.75073
-0.74829
-0.74341
-0.73364
-0.71167
-0.68115
-0.64331
-0.59692
-0.54443
-0.48584
-0.42114
-0.35645
-0.28198
-0.20874
-0.13184
-0.05737
0.01343
0.08789
0.15625
0.22095
0.271
0.3186
0.35767
0.39063
0.41992
0.44556
0.46631
0.48462
0.50415
0.5188
0.52368
0.52734
0.53101
0.53345
0.54199
0.55298
0.56274
0.57007
0.57495
0.58105
0.57983
0.5835
0.58594
0.58472
0.59448
0.59937
0.60181
0.60425
0.60303
0.60181
0.59326
0.58228
0.57739
0.56641
0.55298
0.54077
0.52612
0.50903
0.49194
0.47363
0.45532
0.43335
0.41382
0.39307
0.37598
0.35889
0.3418
0.32837
0.31616
0.30151
0.28809
0.27588
0.26367
0.25024
0.23804
0.22461
0.20874
0.20142
0.18921
0.17822
0.15991
0.14282
0.12695
0.11108
0.09766
0.08789
0.07324
0.05981
0.0415
0.02808
0.01221
-0.0061
-0.02686
-0.04395
-0.06104
-0.07568
-0.09155
-0.10254
-0.11841
-0.13306
-0.15259
-0.16479
-0.18555
-0.2002
-0.2124
-0.22827
-0.23804
-0.24658
-0.25879
-0.27344
-0.2832
-0.29541
-0.30762
-0.3186
-0.33325
-0.34424
-0.35522
-0.36377
-0.37598
-0.38696
-0.40283
-0.41382
-0.42603
-0.43945
-0.45044
-0.46265
-0.46753
-0.47852
-0.49316
-0.50049
-0.51147
-0.52368
-0.53711
-0.54932
-0.5603
-0.56519
-0.57251
-0.58228
-0.59082
-0.59814
-0.60791
-0.61523
-0.62256
-0.62744
-0.63477
-0.64453
-0.65186
-0.6604
-0.66895
-0.67505
-0.68604
-0.68726
-0.6958
-0.69946
-0.7019
-0.71045
-0.71655
-0.72266
-0.72998
-0.74219
-0.74829
-0.75562
-0.76172
-0.76904
-0.77637
-0.78491
-0.79468
-0.80688
-0.81299
-0.82397
-0.83252
-0.83862
-0.83984
-0.83496
-0.82031
-0.79712
-0.76172
-0.71533
-0.66528
-0.60669
-0.55054
-0.48828
-0.41992
-0.35034
-0.28687
-0.20752
-0.13428
-0.06226
0.00366
0.06836
0.12573
0.17822
0.22827
0.26855
0.30518
0.33691
0.36377
0.38818
0.40283
0.41626
0.42847
0.43457
0.44189
0.44556
0.45044
0.4541
0.45654
0.4541
0.44922
0.44678
0.43823
0.43335
0.42725
0.42603
0.42969
0.43213
0.43945
0.44556
0.45044
0.45532
0.45654
0.45532
0.45288
0.448
0.44067
0.43457
0.4248
0.41626
0.40161
0.39307
0.37109
0.35522
0.34058
0.33081
0.31738
0.30273
0.29297
0.28564
0.27588
0.26978
0.26001
0.2478
0.24902
0.24292
0.23804
0.2356
0.22705
0.22339
0.21362
0.20386
0.19409
0.18433
0.17578
0.16235
0.15259
0.13794
0.12695
0.11475
0.1062
0.09033
0.07202
0.05737
0.0415
0.02197
0.00854
-0.00854
-0.02686
-0.0354
-0.05249
-0.06714
-0.08545
-0.10254
-0.11475
-0.13062
-0.14526
-0.15747
-0.17212
-0.18311
-0.19653
-0.2063
-0.21973
-0.23315
-0.24658
-0.25513
-0.26611
-0.27344
-0.2832
-0.29297
-0.30396
-0.31372
-0.32715
-0.34058
-0.34546
-0.35645
-0.36377
-0.37354
-0.3833
-0.3894
-0.39551
-0.40039
-0.40771
-0.4187
-0.42725
-0.43701
-0.44556
-0.4541
-0.46265
-0.46997
-0.47852
-0.48462
-0.49683
-0.50415
-0.5127
-0.52124
-0.52856
-0.53711
-0.54443
-0.54565
-0.55542
-0.56274
-0.57251
-0.5835
-0.59204
-0.60425
-0.61401
-0.62256
-0.62744
-0.6311
-0.63843
-0.63599
-0.63232
-0.62134
-0.60425
-0.57983
-0.54077
-0.49805
-0.448
-0.39551
-0.33936
-0.27588
-0.2124
-0.14526
-0.07813
-0.01343
0.05493
0.11841
0.17944
0.23682
0.2832
0.32715
0.36133
0.39307
0.41748
0.43823
0.45532
0.47119
0.4834
0.49316
0.49805
0.50049
0.49683
0.49561
0.49438
0.49072
0.4895
0.48462
0.4895
0.4895
0.48706
0.48706
0.4834
0.48218
0.4834
0.48096
0.48096
0.47607
0.47119
0.46265
0.45044
0.43701
0.42236
0.40771
0.39307
0.37354
0.35522
0.33813
0.32227
0.30884
0.29175
0.28076
0.26001
0.25146
0.24292
0.23315
0.22705
0.22095
0.21484
0.21118
0.2002
0.19653
0.18799
0.18188
0.17456
0.16479
0.15747
0.14771
0.13794
0.12939
0.11719
0.10498
0.08789
0.07202
0.05615
0.0415
0.02808
0.0061
-0.00244
-0.01587
-0.0293
-0.04395
-0.06226
-0.08057
-0.09521
-0.11108
-0.12329
-0.13916
-0.15137
-0.16357
-0.177
-0.18921
-0.20874
-0.22461
-0.2356
-0.2478
-0.25879
-0.26855
-0.27466
-0.2832
-0.29419
-0.30518
-0.32349
-0.32837
-0.33936
-0.35034
-0.35767
-0.36621
-0.37354
-0.38086
-0.39307
-0.39917
-0.40771
-0.41626
-0.4248
-0.43579
-0.44434
-0.4541
-0.46143
-0.46387
-0.47485
-0.48096
-0.49194
-0.49927
-0.50659
-0.51514
-0.51758
-0.52734
-0.52368
-0.52979
-0.53833
-0.54321
-0.55176
-0.55664
-0.56396
-0.57251
-0.57739
-0.58594
-0.5957
-0.60303
-0.61035
-0.61768
-0.625
-0.63477
-0.64331
-0.65186
-0.65186
-0.65186
-0.65063
-0.63965
-0.62744
-0.60791
-0.5835
-0.54565
-0.50049
-0.448
-0.38818
-0.32471
-0.25879
-0.18921
-0.11963
-0.04883
0.02197
0.09399
0.16724
0.23193
0.29419
0.34912
0.40283
0.4541
0.49194
0.5249
0.55176
0.57251
0.58838
0.60059
0.61279
0.62256
0.62744
0.63232
0.63477
0.63721
0.63721
0.63965
0.63843
0.63843
0.63965
0.64209
0.64453
0.65063
0.6543
0.6604
0.6665
0.67261
0.67505
0.67505
0.67871
0.67627
0.66772
0.65918
0.64697
0.6311
0.62134
0.60425
0.58594
0.56763
0.55298
0.53589
0.52124
0.50659
0.49316
0.47729
0.46143
0.44678
0.43335
0.41992
0.40894
0.39551
0.38208
0.37598
0.36499
0.35767
0.3418
0.33325
0.31982
0.3064
0.29053
0.2771
0.26245
0.24902
0.23193
0.21729
0.19653
0.17944
0.16235
0.14404
0.13062
0.11597
0.10254
0.08789
0.0708
0.05493
0.0354
0.01709
0.00366
-0.01465
-0.0293
-0.04639
-0.06104
-0.07446
-0.08911
-0.10132
-0.11353
-0.12695
-0.14404
-0.15625
-0.16724
-0.18188
-0.19287
-0.20508
-0.21484
-0.22827
-0.2417
-0.25391
-0.26489
-0.27466
-0.28198
-0.29175
-0.3064
-0.3125
-0.32349
-0.33325
-0.34424
-0.35278
-0.36011
-0.36377
-0.36621
-0.36865
-0.37109
-0.3772
-0.38452
-0.39307
-0.40405
-0.4126
-0.41992
-0.42725
-0.43457
-0.44312
-0.45166
-0.46143
-0.46875
-0.47852
-0.4895
-0.50415
-0.50659
-0.51636
-0.5249
-0.53345
-0.54199
-0.55298
-0.56396
-0.57373
-0.58472
-0.5957
-0.60547
-0.61768
-0.625
-0.62866
-0.62866
-0.62622
-0.62134
-0.60181
-0.57983
-0.54565
-0.50415
-0.45654
-0.39673
-0.33447
-0.26733
-0.19653
-0.12451
-0.05127
0.01465
0.08545
0.15625
0.22339
0.28931
0.35034
0.40283
0.45166
0.4895
0.52246
0.54932
0.57129
0.58716
0.60547
0.62134
0.63232
0.64087
0.64697
0.64941
0.64941
0.64697
0.65063
0.65308
0.65552
0.65918
0.66162
0.66772
0.67505
0.67871
0.68604
0.68848
0.69214
0.69336
0.69214
0.69092
0.68481
0.67993
0.67261
0.66162
0.64819
0.62622
0.60791
0.59082
0.57373
0.5603
0.54321
0.53101
0.51392
0.49927
0.48096
0.46143
0.44556
0.42969
0.41382
0.40649
0.39185
0.38208
0.37231
0.36011
0.3479
0.33447
0.32349
0.30518
0.30029
0.28931
0.27588
0.26367
0.25146
0.23926
0.22583
0.20996
0.19409
0.17822
0.16235
0.14893
0.13306
0.11719
0.09766
0.07813
0.05615
0.03784
0.02075
0.00366
-0.01221
-0.02686
-0.04395
-0.06226
-0.07813
-0.09277
-0.10742
-0.12329
-0.13794
-0.15381
-0.17212
-0.18555
-0.20142
-0.2124
-0.22705
-0.24048
-0.25513
-0.26855
-0.28076
-0.29175
-0.30518
-0.31616
-0.32349
-0.33691
-0.34912
-0.35889
-0.37109
-0.37964
-0.3894
-0.40161
-0.40649
-0.41382
-0.42236
-0.42969
-0.43457
-0.44678
-0.45532
-0.46387
-0.47241
-0.47974
-0.48462
-0.48828
-0.49561
-0.50171
-0.50903
-0.51758
-0.52612
-0.53467
-0.54199
-0.55054
-0.55908
-0.56641
-0.57495
-0.58472
-0.5957
-0.60303
-0.61157
-0.62378
-0.63354
-0.64331
-0.65186
-0.65552
-0.66162
-0.66895
-0.67139
-0.67871
-0.68604
-0.69702
-0.70557
-0.70557
-0.70557
-0.6958
-0.67505
-0.65186
-0.61768
-0.57251
-0.52124
-0.46387
-0.40283
-0.33447
-0.26611
-0.18799
-0.11597
-0.04272
0.03296
0.10254
0.17578
0.2356
0.29419
0.3479
0.39307
0.43457
0.46753
0.49438
0.51758
0.53467
0.54565
0.5603
0.56885
0.57617
0.57739
0.58228
0.58472
0.58838
0.58838
0.59448
0.59326
0.59082
0.59204
0.59082
0.59204
0.5957
0.59814
0.60303
0.60669
0.60669
0.60791
0.60669
0.60181
0.59692
0.59082
0.58105
0.57251
0.55908
0.54199
0.5249
0.5127
0.49072
0.47363
0.45654
0.44312
0.43091
0.41748
0.40771
0.39673
0.3833
0.37109
0.36011
0.34912
0.34546
0.33691
0.32959
0.32104
0.31494
0.30273
0.29297
0.2832
0.26978
0.25635
0.24902
0.2356
0.22705
0.21362
0.20142
0.18677
0.16724
0.15381
0.13184
0.11353
0.09766
0.08057
0.0647
0.04761
0.03296
0.02075
0.00122
-0.01587
-0.0354
-0.05249
-0.0708
-0.08789
-0.10132
-0.11963
-0.12817
-0.14648
-0.16479
-0.18066
-0.19775
-0.21729
-0.23193
-0.24902
-0.25879
-0.271
-0.28198
-0.29419
-0.30273
-0.31128
-0.32471
-0.33569
-0.34668
-0.35645
-0.35889
-0.36743
-0.37109
-0.3772
-0.38452
-0.39185
-0.40283
-0.41016
-0.41504
-0.42114
-0.4248
-0.43335
-0.44067
-0.44922
-0.45654
-0.46265
-0.47363
-0.48218
-0.49072
-0.50171
-0.51025
-0.51758
-0.52368
-0.53345
-0.54443
-0.55176
-0.5603
-0.56763
-0.57373
-0.57983
-0.58472
-0.59326
-0.59814
-0.59937
-0.60059
-0.59692
-0.58838
-0.57129
-0.54443
-0.51025
-0.46509
-0.41748
-0.35278
-0.29297
-0.23071
-0.16479
-0.09644
-0.02686
0.04517
0.11963
0.19165
0.25391
0.3125
0.36499
0.40894
0.448
0.48096
0.50903
0.53467
0.55298
0.56641
0.57495
0.5835
0.58716
0.59082
0.5896
0.58838
0.58716
0.58594
0.58716
0.58594
0.58228
0.58228
0.57861
0.57983
0.57861
0.57617
0.57495
0.57373
0.57251
0.57251
0.56885
0.56274
0.5542
0.54321
0.53223
0.51636
0.50049
0.48706
0.47363
0.46143
0.44067
0.43213
0.41748
0.40527
0.39307
0.37842
0.36621
0.35522
0.34424
0.34058
0.32837
0.31982
0.31372
0.30518
0.29541
0.28687
0.28198
0.27344
0.27344
0.26489
0.25879
0.25024
0.24048
0.22705
0.21484
0.19775
0.19165
0.1709
0.15503
0.13916
0.12207
0.10742
0.08911
0.0708
0.05249
0.0415
0.02441
0.00732
-0.00366
-0.01587
-0.03052
-0.04639
-0.06348
-0.07568
-0.09399
-0.11108
-0.12939
-0.14404
-0.15625
-0.16724
-0.18066
-0.19287
-0.20386
-0.21851
-0.23071
-0.24536
-0.25757
-0.26611
-0.2771
-0.28564
-0.29175
-0.30029
-0.30762
-0.3186
-0.32959
-0.33813
-0.3479
-0.35278
-0.35889
-0.36011
-0.36621
-0.37109
-0.3772
-0.38452
-0.39063
-0.40039
-0.41138
-0.42114
-0.42847
-0.43335
-0.44189
-0.44678
-0.4541
-0.46753
-0.47607
-0.48828
-0.49683
-0.50293
-0.5127
-0.52002
-0.52979
-0.53711
-0.54565
-0.55542
-0.56274
-0.55908
-0.55054
-0.53711
-0.51392
-0.47974
-0.43823
-0.3894
-0.33813
-0.27832
-0.21484
-0.15015
-0.08301
-0.01465
0.05371
0.12695
0.19775
0.26367
0.33081
0.38696
0.43701
0.47607
0.51392
0.54321
0.57007
0.58838
0.61035
0.625
0.63354
0.64087
0.64575
0.64697
0.64941
0.64941
0.65308
0.65674
0.65674
0.65796
0.65552
0.65186
0.65063
0.64941
0.65308
0.65674
0.6604
0.66406
0.66284
0.6665
0.6604
0.6543
0.64209
0.63232
0.62012
0.60547
0.58594
0.56885
0.5481
0.52979
0.51025
0.49316
0.47729
0.45898
0.44312
0.42603
0.41016
0.39795
0.3833
0.37109
0.36255
0.34912
0.33936
0.32715
0.31494
0.3064
0.29663
0.28687
0.27832
0.26733
0.25635
0.24658
0.23438
0.21729
0.20264
0.18677
0.16846
0.15869
0.1416
0.12695
0.10864
0.08911
0.07202
0.05493
0.0354
0.02441
0.00732
-0.00732
-0.02563
-0.03662
-0.05493
-0.07324
-0.09033
-0.11108
-0.12573
-0.13794
-0.15137
-0.16357
-0.17578
-0.18921
-0.20386
-0.21851
-0.23804
-0.24658
-0.25879
-0.26978
-0.2832
-0.29297
-0.3064
-0.31494
-0.32715
-0.33447
-0.34668
-0.36011
-0.36987
-0.37964
-0.39063
-0.39551
-0.40405
-0.4126
-0.42114
-0.43213
-0.44189
-0.45166
-0.46021
-0.46631
-0.47363
-0.47852
-0.49072
-0.49316
-0.50293
-0.51147
-0.52002
-0.53101
-0.54199
-0.55298
-0.56274
-0.56641
-0.57739
-0.58472
-0.59692
-0.60791
-0.6189
-0.63232
-0.64209
-0.65063
-0.65552
-0.65918
-0.66528
-0.66528
-0.66406
-0.65186
-0.6311
-0.60303
-0.57373
-0.52124
-0.46875
-0.40649
-0.3418
-0.26855
-0.19897
-0.12817
-0.05493
0.01587
0.09399
0.1709
0.2417
0.31006
0.36743
0.41992
0.46265
0.49927
0.52856
0.55298
0.57495
0.59326
0.60547
0.61523
0.62012
0.62866
0.63232
0.63354
0.63232
0.62988
0.6311
0.63232
0.6311
0.62866
0.63354
0.63477
0.63477
0.63721
0.63843
0.64087
0.63843
0.63721
0.63721
0.63232
0.62622
0.61768
0.60791
0.59326
0.57861
0.55908
0.53711
0.5249
0.50903
0.49438
0.47363
0.4541
0.43213
0.41748
0.40283
0.38208
0.37476
0.36133
0.35034
0.34302
0.33203
0.32471
0.3125
0.30273
0.29297
0.27832
0.26611
0.25635
0.24658
0.23438
0.22217
0.21118
0.19287
0.18188
0.16357
0.14526
0.12939
0.11108
0.09155
0.07568
0.05615
0.04028
0.02075
0.00122
-0.01953
-0.03906
-0.05737
-0.0769
-0.09399
-0.11108
-0.12573
-0.14282
-0.16113
-0.177
-0.19287
-0.20874
-0.22339
-0.2356
-0.25024
-0.25757
-0.27222
-0.28076
-0.29541
-0.3125
-0.32715
-0.34424
-0.35767
-0.36865
-0.37842
-0.38452
-0.39307
-0.40039
-0.41138
-0.41992
-0.43335
-0.44556
-0.45532
-0.46509
-0.47485
-0.47974
-0.4895
-0.49927
-0.5127
-0.52124
-0.53467
-0.53833
-0.54688
-0.55664
-0.56396
-0.57251
-0.58105
-0.58838
-0.60059
-0.60913
-0.62012
-0.62988
-0.63843
-0.64453
-0.64941
-0.6543
-0.66284
-0.67139
-0.67749
-0.6897
-0.70068
-0.70801
-0.71899
-0.72632
-0.72998
-0.73364
-0.7312
-0.72632
-0.71655
-0.69824
-0.67139
-0.63721
-0.59204
-0.53711
-0.47974
-0.40894
-0.34058
-0.26611
-0.19531
-0.12207
-0.04761
0.02686
0.10132
0.16846
0.23315
0.29541
0.34668
0.39429
0.43335
0.46509
0.4895
0.50781
0.52368
0.53711
0.5481
0.55786
0.56152
0.56396
0.56274
0.56519
0.56274
0.56152
0.56152
0.55908
0.55664
0.55908
0.55908
0.56152
0.56152
0.56641
0.56641
0.56519
0.56274
0.56152
0.5542
0.54932
0.53345
0.53223
0.51514
0.49927
0.48218
0.46631
0.45166
0.43579
0.4187
0.40649
0.38696
0.37476
0.35645
0.33936
0.32593
0.31494
0.30151
0.29053
0.27954
0.27466
0.26733
0.26245
0.25024
0.24048
0.23071
0.22217
0.21118
0.20752
0.20142
0.19409
0.18188
0.16968
0.15259
0.13794
0.11963
0.10376
0.08423
0.06714
0.04883
0.03174
0.01465
-0.00122
-0.02197
-0.04517
-0.05615
-0.07568
-0.09521
-0.10864
-0.12207
-0.13428
-0.15015
-0.16479
-0.17578
-0.19165
-0.2063
-0.21973
-0.23193
-0.24292
-0.25146
-0.26001
-0.27344
-0.28076
-0.29297
-0.30518
-0.31738
-0.33081
-0.34302
-0.35156
-0.36011
-0.37109
-0.37842
-0.38818
-0.39917
-0.4126
-0.42236
-0.43335
-0.43945
-0.44556
-0.448
-0.45532
-0.46265
-0.46875
-0.47974
-0.48462
-0.49194
-0.50049
-0.50903
-0.51392
-0.52368
-0.53223
-0.53955
-0.5481
-0.55908
-0.57007
-0.58105
-0.59326
-0.59937
-0.60303
-0.60669
-0.60181
-0.59326
-0.57739
-0.55664
-0.5249
-0.48096
-0.43579
-0.38086
-0.32349
-0.26123
-0.19531
-0.12817
-0.05859
0.00732
0.07935
0.14771
0.20874
0.271
0.32715
0.3772
0.4187
0.45166
0.48828
0.50903
0.52979
0.54565
0.5542
0.56396
0.57251
0.57739
0.58472
0.5835
0.5835
0.57861
0.57251
0.56519
0.55908
0.55176
0.54932
0.54565
0.54321
0.54077
0.54077
0.53589
0.53223
0.52734
0.5188
0.51392
0.50293
0.49194
0.48218
0.46753
0.4541
0.43457
0.41626
0.39673
0.37842
0.36133
0.3479
0.33081
0.31738
0.30273
0.29175
0.27832
0.26855
0.25391
0.2417
0.23193
0.22095
0.21362
0.2063
0.2002
0.19165
0.18555
0.17578
0.16724
0.15625
0.14526
0.13428
0.12329
0.11353
0.09888
0.08423
0.06592
0.05005
0.03296
0.01465
0
-0.01709
-0.03174
-0.04639
-0.06348
-0.0769
-0.09277
-0.10742
-0.12451
-0.1416
-0.15869
-0.17334
-0.18066
-0.19287
-0.20508
-0.21851
-0.23193
-0.2478
-0.26123
-0.27588
-0.28442
-0.30151
-0.31738
-0.32837
-0.34058
-0.35034
-0.36011
-0.37109
-0.38452
-0.38818
-0.39673
-0.40283
-0.40894
-0.41504
-0.42358
-0.43213
-0.44312
-0.45044
-0.45898
-0.46631
-0.47241
-0.47852
-0.4834
-0.48584
-0.49316
-0.50171
-0.51025
-0.52002
-0.52612
-0.53589
-0.54199
-0.55298
-0.5603
-0.56641
-0.57739
-0.57983
-0.59082
-0.59937
-0.60913
-0.61768
-0.625
-0.63232
-0.63721
-0.63232
-0.63354
-0.62134
-0.60913
-0.58472
-0.55542
-0.51147
-0.46021
-0.40283
-0.33447
-0.26733
-0.19531
-0.11841
-0.04395
0.03296
0.11353
0.18677
0.25879
0.32837
0.38696
0.44189
0.48828
0.52856
0.55908
0.58594
0.60425
0.625
0.63843
0.64697
0.65918
0.67017
0.67627
0.68237
0.67993
0.68848
0.69092
0.69214
0.69824
0.7019
0.70435
0.70801
0.71167
0.72021
0.71899
0.72388
0.7251
0.72754
0.72876
0.7251
0.72266
0.71899
0.71167
0.70068
0.68481
0.67017
0.65063
0.63232
0.61279
0.59692
0.57739
0.56641
0.54688
0.52734
0.50781
0.49072
0.47729
0.46021
0.44678
0.43701
0.42358
0.41138
0.39917
0.3894
0.37598
0.36377
0.35156
0.33691
0.32837
0.31738
0.3064
0.29297
0.27466
0.26123
0.24048
0.21851
0.19531
0.18433
0.16602
0.14648
0.12451
0.10498
0.08423
0.06348
0.0415
0.02197
0.00244
-0.01831
-0.03296
-0.04883
-0.06226
-0.07568
-0.09399
-0.10986
-0.12939
-0.14404
-0.16113
-0.17578
-0.18799
-0.20142
-0.2124
-0.22583
-0.2417
-0.25269
-0.26855
-0.2832
-0.29541
-0.31006
-0.32227
-0.33569
-0.34668
-0.36011
-0.36499
-0.37598
-0.38818
-0.39673
-0.40771
-0.41748
-0.42358
-0.43335
-0.43945
-0.45166
-0.46021
-0.46997
-0.48218
-0.49561
-0.50537
-0.51758
-0.52612
-0.53223
-0.53833
-0.54321
-0.55054
-0.55786
-0.56885
-0.57495
-0.58472
-0.59937
-0.59937
-0.60913
-0.62134
-0.62866
-0.63965
-0.64697
-0.66162
-0.67017
-0.67871
-0.6897
-0.69458
-0.7019
-0.70801
-0.70923
-0.70801
-0.70313
-0.6958
-0.67749
-0.65063
-0.61279
-0.56519
-0.51392
-0.45166
-0.38696
-0.31738
-0.24048
-0.16479
-0.08301
-0.00244
0.07813
0.15747
0.23193
0.30273
0.36621
0.42725
0.47119
0.51025
0.54565
0.57617
0.59937
0.62134
0.63721
0.65186
0.66162
0.66895
0.67383
0.67627
0.68115
0.68359
0.68726
0.69092
0.69458
0.6958
0.69824
0.70068
0.70557
0.70923
0.71289
0.71655
0.72388
0.72876
0.73242
0.73364
0.72998
0.72388
0.71533
0.69946
0.68604
0.67017
0.65186
0.63477
0.61279
0.59082
0.56885
0.54443
0.5249
0.49927
0.48462
0.46509
0.44678
0.43335
0.42114
0.40894
0.39917
0.38452
0.36865
0.35889
0.34424
0.32959
0.31616
0.30518
0.29297
0.27954
0.26611
0.25269
0.23438
0.21606
0.19653
0.17822
0.15747
0.13916
0.12085
0.10132
0.08545
0.06348
0.04395
0.02197
0.00366
-0.01587
-0.03662
-0.05371
-0.0708
-0.08301
-0.09888
-0.11597
-0.13306
-0.15015
-0.16479
-0.18188
-0.19409
-0.2124
-0.21851
-0.23071
-0.24292
-0.25757
-0.26733
-0.28076
-0.29297
-0.30518
-0.31982
-0.32959
-0.3418
-0.35278
-0.36621
-0.37842
-0.38818
-0.40283
-0.41016
-0.4187
-0.42969
-0.43701
-0.448
-0.45532
-0.46631
-0.47852
-0.4895
-0.50171
-0.50903
-0.5188
-0.52734
-0.53711
-0.54443
-0.54932
-0.55664
-0.56396
-0.57861
-0.58594
-0.5957
-0.60303
-0.61279
-0.6189
-0.62988
-0.63721
-0.64453
-0.65674
-0.66528
-0.67749
-0.68604
-0.69336
-0.70313
-0.71167
-0.72021
-0.72998
-0.73242
-0.74585
-0.75439
-0.76416
-0.76904
-0.77026
-0.76782
-0.75562
-0.73486
-0.71045
-0.67383
-0.63232
-0.57739
-0.52124
-0.45532
-0.3894
-0.3186
-0.2417
-0.16602
-0.08911
-0.00977
0.06592
0.13916
0.20508
0.26245
0.31738
0.36743
0.40771
0.43945
0.46875
0.49194
0.51025
0.52612
0.53833
0.54321
0.5542
0.5542
0.55908
0.56152
0.56763
0.57129
0.57373
0.57251
0.57373
0.57617
0.58105
0.58716
0.59814
0.60669
0.61401
0.62134
0.6189
0.62256
0.61768
0.61157
0.60669
0.59692
0.58472
0.56885
0.54932
0.52856
0.51758
0.50049
0.47974
0.46021
0.44067
0.41748
0.40039
0.38208
0.36255
0.35645
0.34302
0.33203
0.3186
0.3125
0.30273
0.29419
0.28687
0.27588
0.26978
0.26001
0.25269
0.24414
0.22949
0.21362
0.19897
0.18555
0.177
0.16235
0.15137
0.13794
0.11963
0.1062
0.09033
0.07202
0.05615
0.04395
0.02686
0.00977
-0.0061
-0.02197
-0.0415
-0.05615
-0.0769
-0.09521
-0.10986
-0.12939
-0.1416
-0.15503
-0.16846
-0.18066
-0.19531
-0.20996
-0.22827
-0.2417
-0.25513
-0.26855
-0.28198
-0.29663
-0.30762
-0.32104
-0.33569
-0.35156
-0.36499
-0.37476
-0.38452
-0.39429
-0.40405
-0.41504
-0.4248
-0.43213
-0.44312
-0.44678
-0.45654
-0.46509
-0.47363
-0.4834
-0.4895
-0.49683
-0.50293
-0.5188
-0.52124
-0.52734
-0.53711
-0.54443
-0.55542
-0.56274
-0.57007
-0.57861
-0.59082
-0.59204
-0.60303
-0.61401
-0.62744
-0.63354
-0.64331
-0.64819
-0.65186
-0.65552
-0.64331
-0.6311
-0.60791
-0.57495
-0.53589
-0.48828
-0.43213
-0.37109
-0.30396
-0.23071
-0.15869
-0.08545
-0.01343
0.05615
0.12451
0.18921
0.24902
0.31006
0.36377
0.40771
0.44556
0.47729
0.50293
0.52368
0.53467
0.55176
0.55908
0.56396
0.56885
0.56885
0.56763
0.57007
0.57007
0.57251
0.57251
0.57129
0.56885
0.56885
0.56641
0.56763
0.56763
0.56763
0.57007
0.56519
0.5603
0.5542
0.54565
0.53223
0.52124
0.50537
0.48584
0.46875
0.44556
0.42236
0.40283
0.38208
0.36499
0.34668
0.33203
0.3125
0.30151
0.28564
0.271
0.26001
0.24902
0.24048
0.23071
0.22095
0.2124
0.20508
0.19653
0.18799
0.177
0.16479
0.15015
0.13794
0.12695
0.11475
0.1062
0.09277
0.07935
0.06836
0.05127
0.03662
0.01831
-0.00122
-0.02075
-0.0354
-0.05127
-0.06958
-0.08423
-0.10132
-0.11841
-0.13672
-0.15625
-0.177
-0.18677
-0.20142
-0.21484
-0.22949
-0.2417
-0.25513
-0.26855
-0.28076
-0.29297
-0.3064
-0.31738
-0.32959
-0.34058
-0.35156
-0.36133
-0.37231
-0.3833
-0.3894
-0.40405
-0.41626
-0.42603
-0.43335
-0.43823
-0.448
-0.45654
-0.46631
-0.47607
-0.4834
-0.49316
-0.50293
-0.50781
-0.51758
-0.52124
-0.53101
-0.54077
-0.54688
-0.5542
-0.5603
-0.57007
-0.57861
-0.58716
-0.5957
-0.60425
-0.61646
-0.62256
-0.6311
-0.63965
-0.64575
-0.65674
-0.66406
-0.67261
-0.68115
-0.69092
-0.68726
-0.68726
-0.68115
-0.66895
-0.64697
-0.61646
-0.57739
-0.52856
-0.47974
-0.40771
-0.34058
-0.26367
-0.18677
-0.10864
-0.03174
0.04639
0.12451
0.19409
0.26978
0.33203
0.38818
0.44067
0.48218
0.51758
0.54688
0.56885
0.59082
0.60791
0.6189
0.63354
0.64331
0.65552
0.65918
0.6665
0.67505
0.68115
0.68604
0.69092
0.6958
0.70068
0.70557
0.71289
0.71777
0.72754
0.73364
0.73608
0.73853
0.7373
0.73486
0.7312
0.72388
0.71167
0.69946
0.68237
0.66406
0.64087
0.62012
0.60303
0.58228
0.56519
0.54199
0.52856
0.50659
0.48706
0.46753
0.44556
0.42603
0.4126
0.39917
0.38452
0.37842
0.36499
0.34912
0.33447
0.32227
0.30884
0.29541
0.28564
0.26855
0.26611
0.25024
0.23682
0.21729
0.2002
0.18188
0.16235
0.14404
0.12329
0.1123
0.09888
0.07813
0.06348
0.04395
0.02075
0.00122
-0.01953
-0.04028
-0.05859
-0.07446
-0.09033
-0.10498
-0.11963
-0.1355
-0.15137
-0.16724
-0.18311
-0.19775
-0.20996
-0.22339
-0.23438
-0.24902
-0.26123
-0.27588
-0.29053
-0.29907
-0.31738
-0.33081
-0.34058
-0.35522
-0.36621
-0.38208
-0.39673
-0.41016
-0.41748
-0.43213
-0.44556
-0.45654
-0.46509
-0.46997
-0.47729
-0.48462
-0.48706
-0.4895
-0.49683
-0.50415
-0.51392
-0.52002
-0.5249
-0.52979
-0.53711
-0.5481
-0.54932
-0.55908
-0.56763
-0.57861
-0.59326
-0.60425
-0.61646
-0.62622
-0.63354
-0.64575
-0.65308
-0.66528
-0.67627
-0.68604
-0.69824
-0.70801
-0.71167
-0.71899
-0.71533
-0.71533
-0.70557
-0.69336
-0.67017
-0.64087
-0.60425
-0.56152
-0.50903
-0.44678
-0.37598
-0.30273
-0.22095
-0.1416
-0.06104
0.01831
0.09521
0.16968
0.24536
0.31494
0.37842
0.43091
0.48218
0.52246
0.55786
0.58594
0.61035
0.62744
0.64575
0.65918
0.67383
0.68115
0.69092
0.69824
0.70068
0.71533
0.72388
0.72998
0.73608
0.73853
0.74585
0.74951
0.75562
0.7605
0.76416
0.77026
0.77271
0.77393
0.77515
0.76904
0.76782
0.75562
0.74829
0.72998
0.71167
0.6897
0.66772
0.64697
0.625
0.60303
0.58228
0.55664
0.53589
0.51147
0.4895
0.46997
0.45166
0.43335
0.42114
0.40649
0.39551
0.3833
0.37354
0.35645
0.33936
0.32349
0.30762
0.29053
0.2771
0.26367
0.25024
0.23315
0.21729
0.2002
0.18311
0.16357
0.14282
0.12451
0.10742
0.08911
0.07446
0.05493
0.0354
0.01221
-0.00977
-0.03296
-0.05737
-0.0769
-0.09399
-0.10986
-0.12573
-0.14404
-0.16113
-0.17944
-0.19409
-0.20996
-0.22461
-0.2417
-0.25391
-0.26855
-0.28076
-0.29663
-0.30762
-0.32104
-0.33081
-0.33813
-0.35278
-0.36133
-0.37109
-0.3833
-0.39063
-0.40161
-0.41138
-0.4248
-0.43457
-0.448
-0.46021
-0.46875
-0.47974
-0.48828
-0.49438
-0.50415
-0.51514
-0.52856
-0.54077
-0.54932
-0.5603
-0.57007
-0.57739
-0.58716
-0.59448
-0.60059
-0.60303
-0.61523
-0.62378
-0.63477
-0.64697
-0.65674
-0.66528
-0.67505
-0.67871
-0.68237
-0.69458
-0.70313
-0.71533
-0.72632
-0.73975
-0.75317
-0.76172
-0.77271
-0.77393
-0.78125
-0.78613
-0.79102
-0.79346
-0.79224
-0.78491
-0.77026
-0.74463
-0.70801
-0.66406
-0.61523
-0.55664
-0.49805
-0.43213
-0.36133
-0.28809
-0.2124
-0.13306
-0.05859
0.01709
0.09033
0.15869
0.21729
0.26978
0.31494
0.34912
0.38818
0.41626
0.43701
0.46021
0.47241
0.48584
0.49438
0.49561
0.50415
0.51025
0.51514
0.5188
0.52612
0.53101
0.53589
0.54199
0.54199
0.54932
0.55176
0.5542
0.55664
0.56152
0.56519
0.56763
0.56641
0.5603
0.55786
0.55054
0.54199
0.52734
0.51147
0.49316
0.47607
0.46021
0.43945
0.42725
0.40527
0.38452
0.36377
0.34424
0.32471
0.30884
0.29541
0.2771
0.26978
0.25879
0.24414
0.23071
0.21973
0.20264
0.19165
0.18311
0.1709
0.16968
0.15625
0.15137
0.13916
0.12817
0.11719
0.10498
0.09277
0.07446
0.0647
0.05127
0.0354
0.02319
0.0061
-0.01465
-0.03418
-0.05127
-0.07446
-0.08545
-0.10254
-0.11841
-0.1355
-0.15137
-0.17212
-0.19165
-0.20752
-0.22461
-0.2356
-0.24902
-0.26123
-0.27344
-0.28564
-0.29541
-0.3125
-0.32349
-0.33447
-0.34668
-0.35767
-0.36865
-0.38086
-0.39063
-0.40161
-0.41016
-0.42236
-0.43335
-0.44189
-0.45044
-0.45776
-0.46509
-0.47241
-0.47852
-0.48584
-0.49194
-0.50293
-0.51025
-0.51636
-0.52368
-0.53101
-0.54199
-0.55176
-0.5603
-0.57007
-0.58105
-0.59082
-0.60181
-0.61279
-0.62378
-0.63354
-0.64209
-0.65186
-0.65918
-0.66772
-0.67261
-0.68237
-0.69214
-0.70435
-0.71655
-0.72388
-0.72876
-0.72998
-0.72632
-0.71777
-0.70313
-0.68604
-0.65796
-0.6189
-0.57617
-0.52734
-0.47485
-0.41748
-0.35156
-0.28931
-0.22217
-0.16113
-0.1001
-0.03906
0.01831
0.07202
0.11963
0.16357
0.2002
0.23071
0.25513
0.27222
0.28809
0.29907
0.30762
0.31128
0.3186
0.32471
0.32959
0.33203
0.33569
0.33569
0.33936
0.34058
0.34424
0.34546
0.3479
0.35156
0.35889
0.36255
0.36987
0.36865
0.36865
0.36865
0.36743
0.36377
0.35767
0.35034
0.3418
0.32715
0.31494
0.29541
0.28076
0.26245
0.24292
0.22705
0.21118
0.19531
0.18433
0.16846
0.15747
0.14771
0.13672
0.12939
0.11719
0.1123
0.1062
0.09888
0.09399
0.08057
0.07568
0.06348
0.05249
0.0415
0.03174
0.01953
0.0061
-0.0061
-0.01953
-0.03174
-0.04272
-0.05859
-0.06958
-0.08423
-0.09766
-0.11353
-0.12573
-0.13794
-0.14648
-0.15991
-0.17212
-0.19043
-0.20508
-0.21851
-0.23315
-0.24658
-0.26001
-0.26367
-0.27466
-0.28687
-0.29785
-0.3064
-0.31738
-0.32715
-0.33936
-0.34912
-0.35522
-0.36621
-0.37476
-0.3833
-0.39185
-0.40527
-0.41626
-0.42847
-0.44312
-0.45044
-0.46509
-0.47363
-0.48218
-0.49438
-0.50293
-0.51514
-0.52734
-0.53711
-0.55054
-0.55054
-0.5603
-0.56641
-0.57007
-0.57861
-0.58472
-0.59692
-0.60547
-0.61768
-0.62378
-0.63232
-0.64209
-0.64697
-0.65186
-0.6604
-0.66772
-0.67871
-0.69336
-0.69458
-0.70435
-0.71045
-0.71777
-0.72632
-0.72998
-0.73853
-0.74463
-0.75684
-0.75439
-0.76294
-0.76538
-0.76782
-0.76904
-0.76416
-0.75928
-0.74585
-0.72388
-0.69336
-0.65552
-0.6189
-0.57373
-0.52002
-0.46265
-0.39795
-0.33447
-0.27466
-0.20996
-0.15503
-0.1001
-0.04761
0.00488
0.05127
0.09155
0.12939
0.15381
0.17822
0.19775
0.21118
0.22217
0.23071
0.24048
0.24902
0.25513
0.26001
0.26611
0.271
0.2771
0.28076
0.28564
0.29053
0.29419
0.29663
0.30762
0.31494
0.32471
0.33325
0.34302
0.34546
0.34912
0.35156
0.34912
0.35156
0.3479
0.34302
0.33691
0.32593
0.31616
0.30151
0.28931
0.27588
0.26489
0.25513
0.23682
0.23193
0.22339
0.21362
0.20752
0.19653
0.18677
0.18311
0.17456
0.16724
0.15991
0.15259
0.14282
0.13428
0.12573
0.11719
0.11108
0.10132
0.09399
0.08667
0.07813
0.06958
0.05981
0.05005
0.03784
0.03052
0.01587
0.00244
-0.01221
-0.02319
-0.03418
-0.04517
-0.05615
-0.06836
-0.08301
-0.09644
-0.10986
-0.12207
-0.1355
-0.14648
-0.15869
-0.1709
-0.18188
-0.19775
-0.20264
-0.21606
-0.22705
-0.23804
-0.25024
-0.25757
-0.26855
-0.27832
-0.28687
-0.29053
-0.29907
-0.30884
-0.31982
-0.32959
-0.3418
-0.354
-0.36499
-0.37231
-0.37964
-0.38818
-0.39795
-0.41016
-0.42236
-0.42969
-0.43823
-0.44312
-0.45166
-0.4541
-0.46265
-0.46997
-0.47607
-0.48584
-0.49194
-0.50171
-0.50903
-0.51392
-0.52124
-0.5188
-0.52612
-0.53711
-0.54443
-0.5542
-0.56274
-0.57007
-0.57861
-0.58472
-0.59082
-0.59448
-0.60059
-0.60913
-0.61401
-0.62134
-0.62622
-0.63354
-0.64209
-0.64575
-0.65552
-0.65918
-0.6665
-0.67383
-0.67505
-0.67993
-0.67627
-0.67017
-0.64575
-0.62256
-0.58838
-0.54932
-0.50293
-0.45532
-0.40405
-0.35034
-0.29907
-0.24414
-0.18799
-0.12939
-0.07568
-0.02563
0.02441
0.06592
0.10498
0.13794
0.16602
0.18433
0.20264
0.21729
0.22827
0.2417
0.25146
0.25757
0.26245
0.26489
0.27222
0.27832
0.28198
0.28687
0.29053
0.29785
0.30151
0.30029
0.3125
0.31494
0.31738
0.32227
0.32593
0.33203
0.33447
0.33813
0.33936
0.34424
0.3479
0.3418
0.33447
0.32349
0.31128
0.30151
0.29053
0.27832
0.26978
0.25513
0.24536
0.2356
0.22583
0.21362
0.20386
0.19775
0.18921
0.17822
0.17334
0.16235
0.15625
0.14282
0.13428
0.12451
0.11353
0.10864
0.09766
0.09033
0.08179
0.07202
0.06348
0.05127
0.0415
0.03174
0.02563
0.01587
0.00732
0
-0.00977
-0.02197
-0.03296
-0.04639
-0.05981
-0.06958
-0.08301
-0.08667
-0.10132
-0.10986
-0.11963
-0.13062
-0.14282
-0.15503
-0.16479
-0.17456
-0.18921
-0.19409
-0.20386
-0.2124
-0.21729
-0.22583
-0.22949
-0.23804
-0.24414
-0.25757
-0.26123
-0.26611
-0.27344
-0.2771
-0.28564
-0.29785
-0.30396
-0.3125
-0.32349
-0.33081
-0.33691
-0.34302
-0.34668
-0.35767
-0.36621
-0.37231
-0.37598
-0.38574
-0.3894
-0.39551
-0.40527
-0.40649
-0.4126
-0.41626
-0.42114
-0.42603
-0.42969
-0.43823
-0.448
-0.45166
-0.45898
-0.46143
-0.46753
-0.47485
-0.48096
-0.48828
-0.49805
-0.50171
-0.51025
-0.51636
-0.5249
-0.52734
-0.53711
-0.54321
-0.54565
-0.55664
-0.5603
-0.56763
-0.57007
-0.56885
-0.56152
-0.54932
-0.5249
-0.49805
-0.46387
-0.42725
-0.38574
-0.34424
-0.29663
-0.25024
-0.20264
-0.15381
-0.10498
-0.06226
-0.01709
0.01953
0.05615
0.08301
0.1062
0.12451
0.13672
0.15625
0.16357
0.17578
0.18555
0.18799
0.19287
0.19653
0.2002
0.20142
0.20508
0.20996
0.21484
0.21973
0.22339
0.22705
0.23071
0.23193
0.2356
0.24292
0.2417
0.25513
0.26245
0.26855
0.27466
0.27588
0.28076
0.27344
0.26855
0.26245
0.25879
0.25391
0.25024
0.24292
0.23682
0.23071
0.22095
0.20752
0.19775
0.19409
0.18799
0.18433
0.177
0.17822
0.17822
0.17212
0.16968
0.16479
0.16724
0.16113
0.15381
0.15259
0.15015
0.15015
0.14771
0.14282
0.13916
0.13062
0.12939
0.12451
0.11841
0.11353
0.1062
0.09766
0.09033
0.07935
0.06592
0.05859
0.04883
0.04028
0.03052
0.02197
0.00977
-0.00366
-0.01709
-0.03174
-0.0415
-0.05615
-0.07324
-0.09155
-0.1123
-0.12817
-0.15015
-0.16846
-0.18433
-0.19409
-0.2063
-0.21973
-0.22461
-0.22827
-0.23193
-0.23315
-0.23804
-0.24048
-0.24658
-0.24292
-0.24536
-0.25024
-0.25146
-0.25513
-0.26123
-0.26733
-0.27222
-0.27954
-0.27832
-0.2832
-0.28687
-0.29663
-0.30029
-0.30273
-0.3064
-0.30518
-0.30762
-0.30762
-0.31128
-0.31982
-0.32349
-0.33203
-0.33813
-0.3479
-0.35889
-0.36377
-0.37109
-0.37354
-0.3772
-0.37964
-0.38086
-0.3772
-0.36621
-0.34912
-0.32593
-0.29663
-0.25757
-0.21729
-0.17334
-0.12939
-0.08301
-0.03418
0.01221
0.06348
0.11108
0.16235
0.20752
0.2478
0.28442
0.31738
0.3479
0.36621
0.3833
0.39429
0.40405
0.41382
0.42114
0.4248
0.42603
0.42725
0.42603
0.42114
0.41626
0.41992
0.41748
0.4187
0.41992
0.41748
0.4187
0.41748
0.41748
0.4126
0.41626
0.42236
0.4248
0.43091
0.43213
0.43213
0.43091
0.4248
0.41626
0.40894
0.39551
0.3833
0.36743
0.35889
0.34912
0.34058
0.33447
0.32593
0.31738
0.31372
0.30884
0.30518
0.30151
0.29663
0.29419
0.29053
0.28809
0.2832
0.2832
0.27588
0.271
0.26611
0.26001
0.25269
0.25024
0.24536
0.23682
0.22339
0.22095
0.20874
0.2002
0.18799
0.17578
0.16724
0.15747
0.15137
0.1416
0.13428
0.12329
0.10986
0.09888
0.08545
0.06958
0.06104
0.04883
0.03906
0.02808
0.02197
0.01343
0.00366
-0.0061
-0.01099
-0.01831
-0.02563
-0.03662
-0.04517
-0.05005
-0.05737
-0.0647
-0.07568
-0.08667
-0.09155
-0.1001
-0.10498
-0.1123
-0.12207
-0.12939
-0.13672
-0.14648
-0.15625
-0.16113
-0.16724
-0.17578
-0.18188
-0.18921
-0.19409
-0.19775
-0.20752
-0.21118
-0.21973
-0.22583
-0.23315
-0.24414
-0.2478
-0.25757
-0.26489
-0.27222
-0.2832
-0.29419
-0.30273
-0.31128
-0.32104
-0.32959
-0.33325
-0.33936
-0.3479
-0.35645
-0.36377
-0.36621
-0.37109
-0.37476
-0.37476
-0.37109
-0.35156
-0.33569
-0.30884
-0.27832
-0.23804
-0.19409
-0.14648
-0.09644
-0.04395
0.00732
0.06348
0.11963
0.17578
0.22949
0.27466
0.3186
0.354
0.38818
0.41748
0.44312
0.46509
0.48218
0.49805
0.51147
0.52124
0.52734
0.53223
0.53345
0.53833
0.54443
0.55298
0.56152
0.57129
0.57983
0.5835
0.58594
0.58472
0.5957
0.60059
0.60669
0.61768
0.625
0.63354
0.63721
0.63843
0.64087
0.64209
0.64209
0.63721
0.63232
0.62744
0.6189
0.61035
0.59937
0.58838
0.57251
0.56274
0.54932
0.53467
0.52246
0.51636
0.50781
0.50415
0.49683
0.49072
0.48706
0.47485
0.46875
0.46509
0.45654
0.45044
0.44312
0.43579
0.42969
0.41748
0.41138
0.39795
0.38818
0.38086
0.36987
0.36133
0.3479
0.3418
0.32837
0.31616
0.30151
0.2832
0.26611
0.25024
0.2356
0.22461
0.21362
0.20264
0.19531
0.17822
0.16602
0.15259
0.13916
0.12939
0.11475
0.10376
0.09155
0.07813
0.07202
0.0647
0.05493
0.04272
0.03296
0.02075
0.01099
0.00488
-0.00732
-0.01587
-0.02563
-0.03662
-0.04517
-0.05493
-0.06226
-0.0708
-0.08301
-0.08911
-0.09644
-0.10986
-0.11963
-0.13184
-0.1416
-0.15259
-0.16235
-0.17334
-0.18311
-0.19409
-0.19531
-0.2002
-0.20508
-0.20996
-0.21484
-0.22217
-0.23315
-0.24048
-0.25024
-0.25391
-0.26367
-0.27466
-0.28564
-0.29419
-0.30518
-0.31982
-0.32959
-0.3418
-0.35278
-0.35767
-0.36743
-0.37109
-0.38086
-0.38452
-0.38696
-0.3894
-0.3833
-0.37354
-0.35645
-0.32959
-0.30029
-0.26123
-0.21851
-0.17334
-0.11963
-0.07324
-0.02075
0.02686
0.08179
0.13794
0.18311
0.22949
0.26978
0.30518
0.33569
0.36255
0.39307
0.41138
0.43091
0.44678
0.45532
0.46997
0.47852
0.48584
0.49194
0.49683
0.50415
0.50659
0.51392
0.52246
0.52612
0.53223
0.53589
0.53955
0.54688
0.55054
0.55542
0.56152
0.56885
0.57617
0.58105
0.58472
0.5896
0.58472
0.58716
0.57983
0.57373
0.56641
0.55786
0.54688
0.53345
0.52124
0.50903
0.49927
0.48462
0.47119
0.46143
0.4541
0.44922
0.44434
0.43701
0.43091
0.42236
0.4187
0.41138
0.40405
0.39795
0.39307
0.38452
0.38086
0.37231
0.36499
0.35889
0.35034
0.34058
0.33203
0.32104
0.31128
0.30396
0.29541
0.28687
0.271
0.26489
0.25146
0.23926
0.22583
0.2124
0.20386
0.18677
0.17822
0.16602
0.15991
0.14771
0.13794
0.12207
0.10864
0.09521
0.08423
0.07324
0.0647
0.05005
0.04883
0.03906
0.02563
0.01465
0
-0.01465
-0.02319
-0.0354
-0.04272
-0.05005
-0.06104
-0.07202
-0.08301
-0.09521
-0.10254
-0.11353
-0.12329
-0.13184
-0.14526
-0.14893
-0.15625
-0.16479
-0.17334
-0.18311
-0.19287
-0.20386
-0.20874
-0.21973
-0.22583
-0.23804
-0.24658
-0.25635
-0.26733
-0.2771
-0.28687
-0.29175
-0.30273
-0.3125
-0.31494
-0.32227
-0.32959
-0.33936
-0.35034
-0.36255
-0.37598
-0.38452
-0.39185
-0.39673
-0.40161
-0.40771
-0.40894
-0.40649
-0.40039
-0.3833
-0.36255
-0.33447
-0.30396
-0.25391
-0.20996
-0.16357
-0.11108
-0.06226
-0.01587
0.03174
0.07813
0.12085
0.1709
0.20996
0.24536
0.27344
0.29785
0.31616
0.33203
0.33936
0.34424
0.35156
0.35522
0.35767
0.36255
0.36499
0.37109
0.37354
0.37842
0.3772
0.38208
0.38086
0.38208
0.38086
0.38452
0.38574
0.39063
0.39551
0.39795
0.40527
0.40527
0.40405
0.39917
0.39307
0.38452
0.3772
0.37109
0.36255
0.34668
0.33813
0.32349
0.31128
0.30151
0.29053
0.28442
0.27344
0.26489
0.25269
0.2478
0.2417
0.23315
0.22705
0.21851
0.21484
0.21362
0.20874
0.20752
0.19775
0.19653
0.19287
0.18311
0.17944
0.17212
0.16479
0.15747
0.14648
0.13672
0.12695
0.11719
0.1062
0.09399
0.07813
0.0708
0.05859
0.05005
0.03784
0.02808
0.01831
0.00732
-0.00488
-0.01953
-0.03296
-0.04272
-0.05493
-0.06226
-0.07568
-0.08301
-0.09277
-0.10742
-0.11841
-0.13062
-0.14038
-0.14771
-0.15503
-0.15869
-0.16235
-0.16846
-0.177
-0.18433
-0.19409
-0.20386
-0.20996
-0.21729
-0.22461
-0.23193
-0.23926
-0.24414
-0.25269
-0.26123
-0.26855
-0.2771
-0.28687
-0.29297
-0.30029
-0.31006
-0.31006
-0.31494
-0.32349
-0.33203
-0.33936
-0.35034
-0.35889
-0.36743
-0.37476
-0.3772
-0.38696
-0.39551
-0.40527
-0.41626
-0.42358
-0.43335
-0.44189
-0.44434
-0.448
-0.43213
-0.42847
-0.41382
-0.39795
-0.36987
-0.34058
-0.31006
-0.271
-0.23071
-0.18311
-0.13672
-0.09033
-0.04395
-0.00366
0.0354
0.07202
0.1062
0.13428
0.15747
0.18311
0.20142
0.21606
0.22705
0.23315
0.23315
0.23071
0.22949
0.23071
0.22949
0.22705
0.22827
0.22827
0.23071
0.23315
0.23438
0.23682
0.2417
0.24414
0.24536
0.24658
0.25391
0.26001
0.26611
0.26978
0.26978
0.26611
0.26855
0.26611
0.26245
0.25513
0.24902
0.23682
0.22827
0.21729
0.20752
0.20142
0.18921
0.17944
0.17212
0.16479
0.16113
0.15747
0.15381
0.14526
0.14038
0.13916
0.13428
0.12939
0.12451
0.11597
0.11353
0.10498
0.09888
0.08911
0.08179
0.07446
0.06592
0.05615
0.05127
0.04517
0.04028
0.03052
0.02319
0.00854
0.00488
-0.0061
-0.01587
-0.02563
-0.03418
-0.04395
-0.05371
-0.06348
-0.07202
-0.08057
-0.09155
-0.10254
-0.11475
-0.12329
-0.13184
-0.14526
-0.15381
-0.16113
-0.16724
-0.17944
-0.19165
-0.20142
-0.21118
-0.21606
-0.22339
-0.23071
-0.23438
-0.24536
-0.24902
-0.25513
-0.26245
-0.271
-0.28076
-0.29175
-0.29785
-0.30518
-0.31006
-0.31494
-0.32471
-0.33691
-0.34668
-0.35645
-0.36499
-0.37231
-0.37598
-0.38086
-0.3894
-0.39063
-0.39673
-0.40039
-0.40771
-0.4126
-0.41992
-0.42847
-0.43335
-0.43945
-0.43945
-0.44434
-0.448
-0.45532
-0.46265
-0.46997
-0.47729
-0.4834
-0.48706
-0.50049
-0.49561
-0.50293
-0.50293
-0.50293
-0.49683
-0.49072
-0.46997
-0.44434
-0.41016
-0.36865
-0.32837
-0.28442
-0.23315
-0.18555
-0.14038
-0.09399
-0.05127
-0.00732
0.03418
0.07324
0.10986
0.13672
0.15991
0.17212
0.18433
0.19409
0.19897
0.2002
0.20996
0.2124
0.21729
0.21973
0.22705
0.23071
0.23193
0.23682
0.2417
0.25146
0.25879
0.26611
0.27466
0.2771
0.2832
0.28687
0.29175
0.29663
0.30518
0.31372
0.3186
0.32227
0.32227
0.3186
0.31616
0.30518
0.30029
0.28809
0.28198
0.27222
0.26245
0.25269
0.24414
0.23193
0.22461
0.21606
0.20752
0.20142
0.19531
0.18921
0.18921
0.18677
0.18677
0.18188
0.17944
0.17212
0.16602
0.16357
0.15869
0.15381
0.14771
0.13672
0.13062
0.11841
0.1123
0.10132
0.08789
0.08301
0.06958
0.05493
0.04517
0.03418
0.02808
0.01831
0.01099
0
-0.00732
-0.01953
-0.03174
-0.0415
-0.05005
-0.05859
-0.0647
-0.07324
-0.08179
-0.09521
-0.10376
-0.11475
-0.12573
-0.1355
-0.14404
-0.15137
-0.16113
-0.1709
-0.17578
-0.18311
-0.19043
-0.19653
-0.2063
-0.21484
-0.22095
-0.22949
-0.23438
-0.2417
-0.25024
-0.25146
-0.26001
-0.26611
-0.27588
-0.28198
-0.28564
-0.29175
-0.29419
-0.30151
-0.30151
-0.3125
-0.32104
-0.33081
-0.34058
-0.34546
-0.34912
-0.35645
-0.36011
-0.36865
-0.37109
-0.37964
-0.38696
-0.39307
-0.40039
-0.40894
-0.41748
-0.42603
-0.43091
-0.43579
-0.43823
-0.44556
-0.45044
-0.4541
-0.46021
-0.46387
-0.46753
-0.46753
-0.46265
-0.4541
-0.43823
-0.42358
-0.40039
-0.37109
-0.33691
-0.29785
-0.25635
-0.21484
-0.17212
-0.12451
-0.08057
-0.0415
0
0.04028
0.07446
0.10498
0.13306
0.15381
0.18066
0.19287
0.2063
0.2124
0.21484
0.21729
0.21606
0.21606
0.22095
0.22095
0.22461
0.22705
0.22827
0.22949
0.23315
0.23682
0.23926
0.2478
0.25146
0.26123
0.271
0.28076
0.29053
0.29419
0.29785
0.30029
0.29907
0.29785
0.29541
0.29175
0.28809
0.28076
0.27466
0.26611
0.25879
0.25024
0.2417
0.23071
0.21851
0.20874
0.20142
0.19287
0.18555
0.17334
0.16357
0.15625
0.15015
0.14404
0.14038
0.1355
0.1355
0.12817
0.12329
0.11841
0.1123
0.10376
0.09766
0.08911
0.08545
0.0769
0.07202
0.06104
0.05493
0.04272
0.0354
0.02686
0.01953
0.00977
0.00122
-0.00732
-0.01343
-0.02319
-0.0293
-0.04028
-0.05127
-0.05859
-0.06714
-0.07568
-0.08179
-0.08911
-0.09644
-0.10254
-0.10986
-0.12085
-0.12817
-0.13916
-0.15137
-0.15869
-0.16602
-0.177
-0.18188
-0.18921
-0.19531
-0.20996
-0.2124
-0.21973
-0.22827
-0.23315
-0.23804
-0.24292
-0.24536
-0.25269
-0.25757
-0.26367
-0.27466
-0.2832
-0.29053
-0.29907
-0.30518
-0.30884
-0.31372
-0.32104
-0.32715
-0.33325
-0.34058
-0.34546
-0.35156
-0.35645
-0.36255
-0.36987
-0.37354
-0.3833
-0.38452
-0.39551
-0.40405
-0.41138
-0.42236
-0.43335
-0.44189
-0.45288
-0.45776
-0.46875
-0.46753
-0.47119
-0.46753
-0.46021
-0.44922
-0.42969
-0.40161
-0.37231
-0.33691
-0.30029
-0.26001
-0.22339
-0.18433
-0.14404
-0.1062
-0.06836
-0.03052
0.00488
0.03906
0.06714
0.09277
0.1062
0.11963
0.12573
0.1355
0.14038
0.14526
0.14282
0.15015
0.14771
0.15137
0.15137
0.15381
0.15747
0.15991
0.16357
0.16724
0.17578
0.18433
0.18677
0.19531
0.19775
0.20142
0.20752
0.2124
0.21973
0.22461
0.22217
0.22339
0.22095
0.21606
0.2063
0.20142
0.19287
0.18677
0.17944
0.17822
0.17212
0.16968
0.16235
0.16235
0.15625
0.15747
0.15625
0.15381
0.15625
0.15625
0.15747
0.15869
0.15625
0.15869
0.15259
0.15015
0.14648
0.14038
0.14038
0.13916
0.13916
0.13794
0.13306
0.13062
0.12207
0.11475
0.10498
0.09399
0.09033
0.08423
0.07568
0.06714
0.05615
0.05005
0.03662
0.02808
0.01953
0.00854
0.00244
-0.00732
-0.01587
-0.02075
-0.03052
-0.03662
-0.04639
-0.05737
-0.0647
-0.07202
-0.07568
-0.08301
-0.08545
-0.08911
-0.09399
-0.1001
-0.10864
-0.11475
-0.12451
-0.12573
-0.13428
-0.1416
-0.14648
-0.15015
-0.15625
-0.16357
-0.17212
-0.18066
-0.18921
-0.19897
-0.20508
-0.21118
-0.21729
-0.22095
-0.22949
-0.23682
-0.2478
-0.26001
-0.26489
-0.27344
-0.27832
-0.28442
-0.29053
-0.29175
-0.29663
-0.30029
-0.30762
-0.31128
-0.30273
-0.29785
-0.28076
-0.26001
-0.23438
-0.20264
-0.17456
-0.1355
-0.10498
-0.06836
-0.0293
0.00488
0.04272
0.07935
0.1123
0.14648
0.177
0.2002
0.21118
0.23071
0.24048
0.24902
0.25513
0.26001
0.26367
0.27344
0.271
0.27344
0.2771
0.27588
0.2771
0.2771
0.27954
0.28687
0.28931
0.29297
0.29419
0.30151
0.30029
0.30273
0.30518
0.3064
0.30762
0.31006
0.30884
0.30884
0.30029
0.29785
0.29175
0.2832
0.27466
0.26733
0.25635
0.2478
0.24048
0.23438
0.22705
0.22095
0.21362
0.20752
0.20142
0.19775
0.19531
0.19287
0.19287
0.19165
0.18921
0.19043
0.18433
0.18066
0.17456
0.1709
0.16602
0.16357
0.15869
0.14771
0.14526
0.1416
0.13306
0.12695
0.11963
0.10986
0.1001
0.09399
0.08789
0.08057
0.07324
0.06592
0.05249
0.0415
0.03174
0.02075
0.01099
0.00366
-0.00244
-0.0061
-0.01465
-0.02319
-0.03418
-0.0415
-0.04761
-0.05615
-0.06104
-0.06958
-0.07813
-0.08057
-0.08545
-0.09155
-0.09766
-0.10498
-0.11475
-0.12329
-0.13428
-0.14038
-0.14893
-0.14893
-0.15747
-0.16357
-0.17212
-0.17944
-0.18555
-0.19287
-0.19775
-0.20508
-0.21362
-0.21606
-0.22583
-0.23193
-0.24048
-0.24658
-0.25513
-0.26489
-0.271
-0.27832
-0.27954
-0.28687
-0.29297
-0.29785
-0.30762
-0.3186
-0.32471
-0.33447
-0.34058
-0.34668
-0.34546
-0.34912
-0.3479
-0.3418
-0.33569
-0.32104
-0.30029
-0.2771
-0.24536
-0.21362
-0.17212
-0.13428
-0.09521
-0.05127
-0.01587
0.02075
0.05493
0.09155
0.12329
0.15015
0.177
0.2002
0.21606
0.22949
0.23438
0.2417
0.2478
0.25269
0.25391
0.26123
0.26245
0.27466
0.28198
0.28931
0.29541
0.30396
0.30884
0.31128
0.3186
0.32349
0.32959
0.33813
0.34668
0.35889
0.35889
0.36377
0.36621
0.36621
0.37354
0.37598
0.3772
0.3772
0.37231
0.36987
0.36133
0.35278
0.34302
0.32837
0.32593
0.31494
0.30396
0.29907
0.29175
0.2832
0.27466
0.26611
0.26245
0.25879
0.25513
0.25391
0.25024
0.25269
0.24658
0.24292
0.23193
0.22339
0.21729
0.21362
0.2063
0.19775
0.19165
0.18433
0.17456
0.16724
0.15625
0.14526
0.1355
0.12817
0.11963
0.11353
0.1062
0.10254
0.09033
0.08545
0.07446
0.06592
0.05493
0.04883
0.04395
0.0354
0.02808
0.02197
0.01221
0.0061
-0.00488
-0.01343
-0.02563
-0.0293
-0.03662
-0.04272
-0.05005
-0.05249
-0.05981
-0.0647
-0.07324
-0.08423
-0.09766
-0.10254
-0.10986
-0.11963
-0.12817
-0.13428
-0.14404
-0.15015
-0.16113
-0.1709
-0.17822
-0.18555
-0.19043
-0.19653
-0.20264
-0.20508
-0.21362
-0.21484
-0.22095
-0.22949
-0.23193
-0.2417
-0.2478
-0.25635
-0.26245
-0.26733
-0.27344
-0.27832
-0.28687
-0.29541
-0.30029
-0.30884
-0.31616
-0.32349
-0.32837
-0.33203
-0.34058
-0.34546
-0.35522
-0.36133
-0.35889
-0.35645
-0.34668
-0.33325
-0.31128
-0.2832
-0.25146
-0.21484
-0.177
-0.1416
-0.10132
-0.06592
-0.02808
0.0061
0.0415
0.07568
0.10254
0.12695
0.14404
0.16357
0.17212
0.17822
0.18555
0.19165
0.19653
0.20142
0.20264
0.2063
0.20996
0.21118
0.21484
0.21606
0.21851
0.22461
0.22705
0.23438
0.23682
0.24292
0.24536
0.25024
0.25757
0.26001
0.26855
0.27344
0.27588
0.28076
0.28076
0.28809
0.27954
0.27344
0.26733
0.26001
0.25513
0.2478
0.23804
0.23315
0.22217
0.21729
0.20996
0.19775
0.19165
0.18433
0.17822
0.17212
0.16602
0.16602
0.16113
0.16235
0.15869
0.15625
0.15259
0.14526
0.1416
0.13916
0.13672
0.13184
0.12085
0.12329
0.11475
0.10864
0.10132
0.09277
0.08545
0.07935
0.07202
0.06226
0.04761
0.04639
0.0354
0.02563
0.01709
0.00488
0
-0.0061
-0.01221
-0.01465
-0.01831
-0.02563
-0.03296
-0.04272
-0.05005
-0.05981
-0.06348
-0.07202
-0.07935
-0.08667
-0.09277
-0.09888
-0.10742
-0.11475
-0.12085
-0.12817
-0.13428
-0.14038
-0.14526
-0.14648
-0.15259
-0.15625
-0.16602
-0.17334
-0.18188
-0.18921
-0.19653
-0.20386
-0.21118
-0.21606
-0.22095
-0.22461
-0.23438
-0.2417
-0.24658
-0.25513
-0.26123
-0.26855
-0.27588
-0.28198
-0.28564
-0.29175
-0.29785
-0.3064
-0.3125
-0.32227
-0.32837
-0.33447
-0.34058
-0.35156
-0.35278
-0.36011
-0.36865
-0.3772
-0.38452
-0.39429
-0.39917
-0.40405
-0.40771
-0.41138
-0.40771
-0.40894
-0.40894
-0.40283
-0.39307
-0.37598
-0.354
-0.32471
-0.29541
-0.26123
-0.22217
-0.18555
-0.14893
-0.11353
-0.07813
-0.04395
-0.01099
0.02075
0.04639
0.07446
0.09033
0.10376
0.10864
0.10986
0.1123
0.10986
0.10864
0.10498
0.1062
0.10498
0.09521
0.09277
0.08545
0.08179
0.07935
0.07935
0.07813
0.07935
0.07813
0.07935
0.08057
0.08545
0.08789
0.09155
0.09888
0.10254
0.10498
0.1123
0.11353
0.11475
0.11108
0.1062
0.09766
0.08911
0.08057
0.07324
0.06836
0.06836
0.06104
0.06104
0.05493
0.05493
0.04883
0.04883
0.04639
0.04639
0.04883
0.05127
0.05249
0.05371
0.05493
0.05493
0.05493
0.05127
0.04517
0.04395
0.0415
0.0415
0.0415
0.0415
0.03784
0.03418
0.02686
0.02075
0.01343
0.00732
-0.00366
-0.00732
-0.01465
-0.02075
-0.02808
-0.03784
-0.04883
-0.05859
-0.06714
-0.07446
-0.0769
-0.08179
-0.08667
-0.08667
-0.09155
-0.09277
-0.09888
-0.10498
-0.10986
-0.11353
-0.11353
-0.12085
-0.12451
-0.12695
-0.13428
-0.13794
-0.14526
-0.15015
-0.15747
-0.16357
-0.16357
-0.1709
-0.17456
-0.17944
-0.18677
-0.19043
-0.19653
-0.20142
-0.2063
-0.21484
-0.21606
-0.21973
-0.22339
-0.22583
-0.23193
-0.23438
-0.24048
-0.24658
-0.25269
-0.25879
-0.26001
-0.26611
-0.26978
-0.27344
-0.28076
-0.2832
-0.29297
-0.30029
-0.30762
-0.31372
-0.31616
-0.31982
-0.32104
-0.32104
-0.32349
-0.31616
-0.31006
-0.29785
-0.28076
-0.26245
-0.23071
-0.20386
-0.17334
-0.13794
-0.10498
-0.07324
-0.04028
-0.01099
0.02319
0.04761
0.08179
0.10132
0.11963
0.13794
0.14771
0.15869
0.16357
0.16602
0.16357
0.1709
0.16602
0.16846
0.16724
0.16602
0.16357
0.16235
0.15747
0.15381
0.16357
0.16357
0.16602
0.16724
0.16968
0.17212
0.17334
0.18066
0.18188
0.18433
0.18799
0.18677
0.18799
0.18799
0.18677
0.18433
0.177
0.1709
0.16113
0.15625
0.14526
0.1416
0.13916
0.13428
0.12817
0.12329
0.11841
0.11597
0.10742
0.10498
0.10132
0.09277
0.08789
0.08423
0.08057
0.07935
0.07446
0.0708
0.06104
0.05737
0.05615
0.05371
0.05249
0.05127
0.05005
0.04761
0.0415
0.03662
0.02319
0.02563
0.01709
0.00854
0.00122
-0.00732
-0.01343
-0.01709
-0.02563
-0.02808
-0.03784
-0.03906
-0.04761
-0.05615
-0.05981
-0.0647
-0.06836
-0.07324
-0.08057
-0.08545
-0.08911
-0.09644
-0.09888
-0.1062
-0.10864
-0.11353
-0.11719
-0.12085
-0.12695
-0.13062
-0.1355
-0.14038
-0.15137
-0.15625
-0.15991
-0.16357
-0.16602
-0.16724
-0.16968
-0.17456
-0.17822
-0.18433
-0.18921
-0.19287
-0.19775
-0.20508
-0.20874
-0.21118
-0.21729
-0.22461
-0.22705
-0.23315
-0.23926
-0.24414
-0.24902
-0.25269
-0.25269
-0.25269
-0.25513
-0.26123
-0.25879
-0.26123
-0.26611
-0.271
-0.27832
-0.2832
-0.29053
-0.29297
-0.29297
-0.29175
-0.28442
-0.27222
-0.25635
-0.23804
-0.20874
-0.17944
-0.14404
-0.10742
-0.07324
-0.03906
0.00122
0.0354
0.0708
0.10254
0.13428
0.16235
0.18433
0.20386
0.21606
0.23071
0.23682
0.24414
0.24658
0.24902
0.25269
0.25757
0.25757
0.26001
0.26611
0.26978
0.271
0.27222
0.27344
0.27832
0.28198
0.28687
0.28931
0.29419
0.30518
0.31494
0.31738
0.32104
0.32349
0.32715
0.33325
0.33447
0.33203
0.32593
0.32471
0.3186
0.30884
0.29907
0.29297
0.28564
0.28076
0.27466
0.26733
0.26001
0.26001
0.25879
0.25269
0.2478
0.24658
0.2417
0.23926
0.23682
0.2356
0.23071
0.23193
0.22949
0.22339
0.21729
0.21362
0.2063
0.20264
0.20142
0.19531
0.18799
0.18311
0.17822
0.16846
0.16113
0.15137
0.14526
0.13794
0.12817
0.12329
0.11353
0.1062
0.1001
0.09155
0.08301
0.07324
0.0647
0.05859
0.05249
0.04639
0.0354
0.03418
0.03174
0.02319
0.01831
0.01221
0.00244
0.00122
-0.00488
-0.01343
-0.01709
-0.02197
-0.02808
-0.03784
-0.04761
-0.05615
-0.06104
-0.06348
-0.06592
-0.07324
-0.0769
-0.08057
-0.08789
-0.09766
-0.10498
-0.11108
-0.12085
-0.12451
-0.13184
-0.13794
-0.14282
-0.14526
-0.15015
-0.15625
-0.16235
-0.16846
-0.17578
-0.18311
-0.18799
-0.19043
-0.19775
-0.19775
-0.20264
-0.21118
-0.21362
-0.21973
-0.22705
-0.23071
-0.2356
-0.23926
-0.24902
-0.25146
-0.25513
-0.26367
-0.271
-0.2771
-0.28198
-0.28687
-0.28931
-0.29053
-0.29053
-0.28198
-0.271
-0.26001
-0.24414
-0.22095
-0.19653
-0.16357
-0.12939
-0.09033
-0.05249
-0.01343
0.02808
0.06348
0.1001
0.13428
0.16602
0.19531
0.22095
0.23926
0.25879
0.27222
0.28564
0.28931
0.29297
0.29785
0.29907
0.30151
0.30029
0.29541
0.30396
0.30396
0.30884
0.30884
0.31494
0.31616
0.31616
0.3186
0.32104
0.32959
0.33447
0.3418
0.35156
0.35156
0.35645
0.36011
0.36133
0.36621
0.36865
0.37354
0.36865
0.36255
0.35889
0.35034
0.34424
0.33691
0.33081
0.32715
0.32227
0.3186
0.3125
0.30762
0.3064
0.30029
0.29297
0.28687
0.28076
0.27954
0.27832
0.28198
0.27832
0.27588
0.27344
0.26611
0.25879
0.25269
0.24902
0.24536
0.24048
