-0.01831
-0.01709
-0.01587
-0.01831
-0.01831
-0.02197
-0.02441
-0.02441
-0.03296
-0.02686
-0.0293
-0.03174
-0.02808
-0.03296
-0.03174
-0.03174
-0.03174
-0.03052
-0.03174
-0.02808
-0.03662
-0.04028
-0.04517
-0.05127
-0.05005
-0.05859
-0.05859
-0.06104
-0.06592
-0.06592
-0.0708
-0.07446
-0.07202
-0.07568
-0.07568
-0.0769
-0.07935
-0.07935
-0.08179
-0.08423
-0.09155
-0.09644
-0.09888
-0.10498
-0.10498
-0.1062
-0.10864
-0.10498
-0.10498
-0.10376
-0.10498
-0.10498
-0.10498
-0.10986
-0.10742
-0.1123
-0.1123
-0.11108
-0.11108
-0.10742
-0.10742
-0.1062
-0.10254
-0.10498
-0.10254
-0.10254
-0.10498
-0.10376
-0.1062
-0.10132
-0.10132
-0.09888
-0.08911
-0.08545
-0.07446
-0.0647
-0.05615
-0.04272
-0.03052
-0.01953
-0.00854
0.00244
0.01709
0.02808
0.04761
0.05371
0.0647
0.07813
0.08423
0.09521
0.1001
0.10254
0.10864
0.10864
0.11108
0.11108
0.10986
0.10864
0.10254
0.10254
0.09521
0.08911
0.08545
0.0769
0.07446
0.06958
0.0647
0.06226
0.05493
0.05249
0.04883
0.04517
0.04395
0.03906
0.03906
0.03418
0.02808
0.02441
0.01709
0.01587
0.01099
0.0061
0.00732
0.00366
0.00488
0.0061
0.00732
0.00732
0.0061
0.01099
0.00732
0.00977
0.01343
0.01099
0.01465
0.01587
0.01587
0.01953
0.01709
0.01953
0.01953
0.01953
0.02075
0.01953
0.02197
0.02319
0.02686
0.03174
0.02686
0.02686
0.02197
0.01465
0.01587
0.01465
0.01709
0.02197
0.02441
0.02197
0.01953
0.01465
0.00366
0
-0.00244
-0.01343
-0.00854
-0.01099
-0.01343
-0.00854
-0.01221
-0.01465
-0.01465
-0.01953
-0.02563
-0.02808
-0.02808
-0.03418
-0.03174
-0.03296
-0.04028
-0.03784
-0.0415
-0.04883
-0.04395
-0.04883
-0.05127
-0.05127
-0.05249
-0.05615
-0.05615
-0.05249
-0.05859
-0.05615
-0.05127
-0.05737
-0.05249
-0.05493
-0.06104
-0.05737
-0.06226
-0.06714
-0.06714
-0.07202
-0.07568
-0.07446
-0.07202
-0.07446
-0.06592
-0.0647
-0.0708
-0.06592
-0.0708
-0.07324
-0.06226
-0.05737
-0.04639
-0.03662
-0.02563
-0.01465
-0.00366
0.00977
0.01831
0.03174
0.04639
0.0647
0.0769
0.09033
0.10376
0.11963
0.12939
0.1416
0.14648
0.15137
0.15625
0.15381
0.15747
0.15625
0.15625
0.15503
0.15015
0.14893
0.14526
0.1416
0.14038
0.1355
0.1355
0.13062
0.12817
0.12939
0.12329
0.12207
0.11963
0.11475
0.11475
0.10986
0.10742
0.10254
0.09644
0.09155
0.08545
0.08545
0.07935
0.07568
0.07813
0.0708
0.0708
0.0708
0.06836
0.0708
0.06958
0.06958
0.06714
0.06714
0.06836
0.0647
0.06714
0.06592
0.06592
0.06958
0.06714
0.07446
0.07202
0.07202
0.07446
0.07446
0.0769
0.07813
0.07935
0.08057
0.08057
0.08301
0.07935
0.0769
0.07813
0.0708
0.07202
0.06958
0.06592
0.0647
0.06104
0.06104
0.05615
0.05615
0.05493
0.04883
0.04883
0.04272
0.0415
0.04028
0.03296
0.03296
0.02808
0.02197
0.02563
0.02563
0.02808
0.02441
0.01953
0.01343
0.00732
0.0061
0
-0.00366
-0.00366
-0.01099
-0.00977
-0.01465
-0.01587
-0.01709
-0.01953
-0.02197
-0.02563
-0.02686
-0.02808
-0.03296
-0.03052
-0.03418
-0.03418
-0.03296
-0.03662
-0.03418
-0.03906
-0.04272
-0.0415
-0.04761
-0.04517
-0.04883
-0.05249
-0.05249
-0.05615
-0.05615
-0.05737
-0.05615
-0.05371
-0.05371
-0.04761
-0.04395
-0.0415
-0.03174
-0.02319
-0.01343
-0.00244
0.00732
0.02441
0.03418
0.05005
0.06104
0.07446
0.08789
0.10132
0.11719
0.12329
0.13672
0.14893
0.15625
0.15991
0.16357
0.16846
0.16968
0.16968
0.17212
0.16724
0.16479
0.16235
0.15381
0.14893
0.14282
0.13306
0.12573
0.11108
0.1001
0.07935
0.05981
0.04028
0.01587
0
-0.02075
-0.03784
-0.05005
-0.06714
-0.07813
-0.09155
-0.10376
-0.10864
-0.11719
-0.11963
-0.12451
-0.12817
-0.12939
-0.13428
-0.13428
-0.14038
-0.1416
-0.13794
-0.13916
-0.13184
-0.12695
-0.12451
-0.11841
-0.11597
-0.1123
-0.1123
-0.10864
-0.10376
-0.10376
-0.09521
-0.09521
-0.09277
-0.09033
-0.09277
-0.09033
-0.09277
-0.09644
-0.09644
-0.10254
-0.10498
-0.10986
-0.1123
-0.11475
-0.11963
-0.11841
-0.12329
-0.12451
-0.12207
-0.12695
-0.12451
-0.12817
-0.12939
-0.12939
-0.13306
-0.1355
-0.14038
-0.14526
-0.14771
-0.15381
-0.15503
-0.16235
-0.16602
-0.16846
-0.17578
-0.17578
-0.18188
-0.18555
-0.18555
-0.19165
-0.19287
-0.19775
-0.19897
-0.19897
-0.20264
-0.20142
-0.20386
-0.20386
-0.2002
-0.20386
-0.20142
-0.20142
-0.20264
-0.19897
-0.19897
-0.19775
-0.19897
-0.19897
-0.19897
-0.20142
-0.19897
-0.20142
-0.20264
-0.2002
-0.20264
-0.19897
-0.19897
-0.19897
-0.19287
-0.19287
-0.18311
-0.177
-0.16846
-0.15747
-0.14648
-0.12695
-0.11963
-0.10498
-0.09033
-0.0769
-0.05981
-0.04761
-0.03296
-0.01465
-0.00488
0.01709
0.02808
0.04272
0.04761
0.05127
0.05981
0.06226
0.06592
0.0708
0.06958
0.07324
0.07202
0.06958
0.07202
0.06958
0.0708
0.06958
0.06836
0.06836
0.06226
0.05859
0.05005
0.04395
0.0415
0.03418
0.03418
0.0293
0.02563
0.02319
0.01709
0.01709
0.01343
0.01221
0.01343
0.01099
0.01343
0.01099
0.01099
0.01465
0.01343
0.01709
0.01587
0.01465
0.01953
0.01953
0.02319
0.02563
0.03052
0.0354
0.03784
0.04395
0.04517
0.05005
0.05737
0.05859
0.06714
0.0708
0.07202
0.07568
0.07568
0.07935
0.07935
0.08057
0.08423
0.08545
0.09033
0.08911
0.09033
0.09399
0.09155
0.09521
0.09644
0.09521
0.09766
0.09521
0.09521
0.09521
0.09399
0.09399
0.09277
0.09644
0.09277
0.09399
0.09766
0.09521
0.09766
0.09521
0.09277
0.09399
0.08911
0.09033
0.08545
0.08301
0.08301
0.07813
0.07568
0.0708
0.06592
0.0647
0.05859
0.05737
0.05615
0.04883
0.04761
0.04517
0.03906
0.03418
0.0354
0.03052
0.02808
0.03296
0.02686
0.02441
0.0293
0.01953
0.02197
0.01953
0.01831
0.02075
0.01587
0.02197
0.02319
0.02319
0.0354
0.0415
0.05493
0.06714
0.08179
0.09644
0.11597
0.13306
0.14648
0.16479
0.18188
0.19287
0.20874
0.22095
0.22705
0.23804
0.24414
0.2478
0.25024
0.25269
0.25635
0.25146
0.25513
0.25391
0.25024
0.24902
0.24292
0.24048
0.23438
0.22827
0.22583
0.21973
0.21973
0.21118
0.2063
0.20264
0.19409
0.19287
0.18921
0.18555
0.18555
0.18066
0.17944
0.177
0.17456
0.17578
0.17212
0.17334
0.17212
0.17212
0.17456
0.17456
0.177
0.17578
0.17578
0.17822
0.177
0.177
0.17578
0.177
0.17456
0.16968
0.17456
0.16602
0.16357
0.16724
0.15625
0.15503
0.15381
0.14526
0.14526
0.13794
0.13916
0.13672
0.13184
0.13428
0.13062
0.12939
0.12817
0.12573
0.12573
0.12207
0.12329
0.12085
0.11841
0.11841
0.1123
0.11475
0.11108
0.1062
0.1123
0.10742
0.10376
0.10376
0.10254
0.09521
0.09277
0.08911
0.07813
0.07202
0.06714
0.05371
0.05005
0.0415
0.03174
0.0293
0.02075
0.01587
0.01221
0.00854
0.0061
-0.00122
-0.00732
-0.02075
-0.03418
-0.05249
-0.08423
-0.11353
-0.15381
-0.19775
-0.23926
-0.28564
-0.32593
-0.36743
-0.40771
-0.44312
-0.47729
-0.50537
-0.53345
-0.5542
-0.56763
-0.5835
-0.59082
-0.60181
-0.61157
-0.6189
-0.62866
-0.63232
-0.63599
-0.63843
-0.63599
-0.63721
-0.63354
-0.63477
-0.63477
-0.63354
-0.63843
-0.63843
-0.64209
-0.64941
-0.64697
-0.65186
-0.65308
-0.64819
-0.64575
-0.64209
-0.64087
-0.63721
-0.64209
-0.64209
-0.64453
-0.65796
-0.65918
-0.6665
-0.67383
-0.67871
-0.68604
-0.68848
-0.69458
-0.69824
-0.70068
-0.70313
-0.70313
-0.70679
-0.70313
-0.69946
-0.7019
-0.69336
-0.69214
-0.69458
-0.68359
-0.68359
-0.67993
-0.67261
-0.6665
-0.6604
-0.65308
-0.64453
-0.63965
-0.62866
-0.61523
-0.60913
-0.59448
-0.5835
-0.57129
-0.55542
-0.54321
-0.52734
-0.51147
-0.49683
-0.48096
-0.46875
-0.45532
-0.44922
-0.44556
-0.44067
-0.44312
-0.43823
-0.43823
-0.43823
-0.43335
-0.43213
-0.42603
-0.4187
-0.41382
-0.40405
-0.39795
-0.38696
-0.38208
-0.37598
-0.36621
-0.36377
-0.35522
-0.34912
-0.34302
-0.33325
-0.32715
-0.3186
-0.3125
-0.30762
-0.30273
-0.30273
-0.30151
-0.3064
-0.30884
-0.31006
-0.31616
-0.31616
-0.31738
-0.31982
-0.31738
-0.3186
-0.31494
-0.31372
-0.31006
-0.30518
-0.29907
-0.29053
-0.2832
-0.27344
-0.25757
-0.2478
-0.22949
-0.21362
-0.2002
-0.17944
-0.16235
-0.14038
-0.11963
-0.1001
-0.07324
-0.05005
-0.02197
0.00488
0.03174
0.06104
0.08545
0.11475
0.1416
0.16235
0.19043
0.21484
0.23315
0.25146
0.26855
0.28564
0.29907
0.31372
0.32837
0.33813
0.34912
0.36011
0.37354
0.3833
0.39673
0.41138
0.42236
0.43701
0.45044
0.46265
0.48096
0.49438
0.50781
0.52124
0.53223
0.53833
0.54565
0.55298
0.55176
0.55786
0.56274
0.55664
0.5603
0.55542
0.54565
0.54077
0.52734
0.51392
0.50049
0.48462
0.47119
0.45654
0.448
0.43579
0.42725
0.42236
0.4126
0.41138
0.40771
0.40771
0.41626
0.41992
0.42969
0.43945
0.448
0.45654
0.46021
0.46631
0.46997
0.47485
0.48462
0.48462
0.49072
0.49316
0.49316
0.49561
0.4895
0.48462
0.47485
0.46509
0.45532
0.44556
0.43823
0.42603
0.42114
0.4126
0.39673
0.39185
0.38086
0.36621
0.36255
0.3479
0.33691
0.33081
0.32349
0.31494
0.31128
0.30884
0.30029
0.29541
0.28931
0.27222
0.26489
0.25269
0.23804
0.23071
0.21729
0.20752
0.19897
0.19165
0.18311
0.17212
0.16724
0.15747
0.15137
0.15015
0.14526
0.14526
0.14282
0.13794
0.13794
0.13062
0.12817
0.12451
0.12085
0.12085
0.11963
0.12207
0.12329
0.12573
0.13062
0.12939
0.13306
0.13428
0.13306
0.1355
0.13184
0.13062
0.12695
0.12451
0.12451
0.12085
0.12329
0.12085
0.12207
0.12573
0.12573
0.13428
0.14282
0.15259
0.16846
0.18066
0.19775
0.2124
0.22949
0.2478
0.26245
0.28076
0.29907
0.31738
0.33691
0.354
0.37231
0.38696
0.39429
0.40527
0.4126
0.41626
0.41992
0.42114
0.42603
0.42603
0.42847
0.42725
0.42725
0.43213
0.42969
0.43335
0.43091
0.42847
0.43091
0.42358
0.42114
0.41626
0.4126
0.40894
0.40405
0.40161
0.39673
0.39063
0.38818
0.37598
0.36865
0.36499
0.35034
0.34546
0.33569
0.33447
0.33081
0.32227
0.32227
0.31372
0.30884
0.30396
0.29907
0.29907
0.29663
0.29785
0.29419
0.29419
0.29541
0.28564
0.28931
0.28564
0.27954
0.27954
0.27588
0.27466
0.271
0.271
0.26978
0.26611
0.26855
0.26855
0.271
0.27466
0.27222
0.26978
0.26489
0.25635
0.25391
0.24536
0.24048
0.23438
0.22949
0.22461
0.21973
0.21606
0.20996
0.2063
0.2063
0.20142
0.20142
0.19531
0.18799
0.18188
0.1709
0.16235
0.15503
0.14771
0.14282
0.13428
0.13062
0.12329
0.11963
0.11719
0.11353
0.1123
0.11108
0.1062
0.1062
0.09888
0.09399
0.09155
0.08789
0.08667
0.08545
0.08789
0.08911
0.09033
0.09399
0.09277
0.09766
0.1062
0.10376
0.10986
0.10864
0.10864
0.10742
0.09888
0.1001
0.09277
0.08911
0.08179
0.0769
0.07202
0.06592
0.06226
0.05127
0.04761
0.0415
0.0293
0.02808
0.02075
0.01343
0.01343
0.00977
0.0061
0.00366
0.00122
-0.00366
-0.00732
-0.00854
-0.01221
-0.01343
-0.01221
-0.01587
-0.01221
-0.01343
-0.01343
-0.00732
-0.00732
-0.00122
0.00488
0.01221
0.02441
0.0354
0.05249
0.06592
0.08057
0.09888
0.10986
0.12695
0.14282
0.15869
0.18066
0.19531
0.20996
0.21973
0.22827
0.23804
0.2417
0.2478
0.25024
0.24902
0.24902
0.24292
0.2417
0.23682
0.23071
0.23071
0.22583
0.22339
0.22095
0.21973
0.21973
0.21729
0.21851
0.21484
0.21362
0.21362
0.20752
0.2063
0.20508
0.19897
0.19775
0.19287
0.18799
0.18066
0.17212
0.16602
0.15381
0.14771
0.14038
0.13428
0.13062
0.12329
0.12207
0.11841
0.11353
0.11353
0.10864
0.1062
0.10132
0.09888
0.09521
0.09033
0.08789
0.08057
0.0769
0.07568
0.06836
0.06714
0.06592
0.0647
0.06836
0.0708
0.07202
0.07446
0.08057
0.08179
0.08057
0.08301
0.08057
0.07813
0.07446
0.0708
0.06714
0.05981
0.04883
0.03662
0.01587
-0.00366
-0.02197
-0.04761
-0.0647
-0.08667
-0.10986
-0.12451
-0.14038
-0.15869
-0.16846
-0.17822
-0.19043
-0.19775
-0.20752
-0.22217
-0.23071
-0.24048
-0.25146
-0.25269
-0.25879
-0.26489
-0.26611
-0.27222
-0.27954
-0.2832
-0.28442
-0.29053
-0.28809
-0.28564
-0.28687
-0.28198
-0.2771
-0.27588
-0.26733
-0.26123
-0.25391
-0.24414
-0.23682
-0.23193
-0.23071
-0.22827
-0.22827
-0.22583
-0.22339
-0.22217
-0.22339
-0.22461
-0.22583
-0.23193
-0.24048
-0.24658
-0.25513
-0.26367
-0.271
-0.28076
-0.2832
-0.28442
-0.29053
-0.28931
-0.29297
-0.29419
-0.29297
-0.29297
-0.29053
-0.29053
-0.28687
-0.28809
-0.29053
-0.28931
-0.29541
-0.29541
-0.29541
-0.29541
-0.29053
-0.29053
-0.28687
-0.28687
-0.28809
-0.28809
-0.29053
-0.28076
-0.28198
-0.27344
-0.25757
-0.25024
-0.23438
-0.22217
-0.20752
-0.19043
-0.18555
-0.16968
-0.15869
-0.15137
-0.13062
-0.11719
-0.10132
-0.08667
-0.07446
-0.06226
-0.05249
-0.0415
-0.0354
-0.02441
-0.01465
-0.00488
0
0.00732
0.01831
0.02441
0.0293
0.04028
0.04517
0.05127
0.06226
0.05981
0.0647
0.06714
0.0708
0.0769
0.07446
0.07935
0.07935
0.07813
0.07935
0.0769
0.07324
0.07446
0.0708
0.06714
0.06714
0.06714
0.06348
0.06714
0.07202
0.07202
0.08057
0.08423
0.08667
0.09399
0.09521
0.09888
0.10132
0.10254
0.10376
0.10254
0.10498
0.10254
0.10254
0.10376
0.09888
0.09888
0.09644
0.09033
0.08667
0.08179
0.07935
0.07446
0.07202
0.07202
0.06714
0.06714
0.0647
0.06348
0.06592
0.06348
0.06592
0.06958
0.0708
0.07813
0.07813
0.07935
0.08057
0.07813
0.07568
0.06958
0.0647
0.05981
0.05249
0.04761
0.04028
0.03662
0.0354
0.02808
0.02808
0.03052
0.02319
0.02197
0.01831
0.01709
0.01099
0.00488
0.00122
-0.00488
-0.00977
-0.01587
-0.01831
-0.02563
-0.02563
-0.02319
-0.03052
-0.02563
-0.02686
-0.03052
-0.02441
-0.02319
-0.02197
-0.01709
-0.01587
-0.01221
-0.01221
-0.0061
-0.00488
-0.00244
0.00244
0
0.0061
0.0061
0.00244
0.01099
0.00977
0.01343
0.02075
0.02441
0.03174
0.03906
0.04883
0.05737
0.0647
0.07935
0.08789
0.1001
0.10986
0.11475
0.12451
0.12939
0.13672
0.14771
0.15381
0.16235
0.16846
0.177
0.18433
0.18188
0.18311
0.18188
0.17212
0.16479
0.15381
0.14404
0.12939
0.11475
0.09888
0.08545
0.0708
0.05249
0.04028
0.02563
0.00977
0
-0.01465
-0.02075
-0.02686
-0.03052
-0.03174
-0.03296
-0.03052
-0.0354
-0.03906
-0.03906
-0.0415
-0.04028
-0.03784
-0.03174
-0.02319
-0.02075
-0.01709
-0.01709
-0.02441
-0.02197
-0.0293
-0.03052
-0.03296
-0.0354
-0.03662
-0.03784
-0.03784
-0.04395
-0.04517
-0.04639
-0.05737
-0.05981
-0.06714
-0.08057
-0.08301
-0.09155
-0.09888
-0.10376
-0.10986
-0.11475
-0.11963
-0.12329
-0.13184
-0.13428
-0.1355
-0.1416
-0.13916
-0.14038
-0.1416
-0.1355
-0.13672
-0.1355
-0.13428
-0.13672
-0.13672
-0.14038
-0.14038
-0.14282
-0.14404
-0.1416
-0.14771
-0.14893
-0.15015
-0.15503
-0.15503
-0.15991
-0.16235
-0.16357
-0.16724
-0.16479
-0.17212
-0.17334
-0.17944
-0.18921
-0.19653
-0.20996
-0.21851
-0.23071
-0.24292
-0.25024
-0.26245
-0.27222
-0.28076
-0.28931
-0.29297
-0.29663
-0.29785
-0.29907
-0.29663
-0.28809
-0.29175
-0.28687
-0.2832
-0.27588
-0.26733
-0.26611
-0.25391
-0.24658
-0.24292
-0.22949
-0.22339
-0.21851
-0.2063
-0.20142
-0.19165
-0.18677
-0.17822
-0.17456
-0.16968
-0.16235
-0.16724
-0.15991
-0.15625
-0.15503
-0.14648
-0.14404
-0.13306
-0.13306
-0.13062
-0.12085
-0.12573
-0.12207
-0.11719
-0.11597
-0.11108
-0.11353
-0.11108
-0.11475
-0.12085
-0.12085
-0.12451
-0.12573
-0.12329
-0.12085
-0.11841
-0.10864
-0.09766
-0.08789
-0.07324
-0.05493
-0.0415
-0.02197
-0.00244
0.01465
0.03662
0.05493
0.07446
0.09644
0.11719
0.14038
0.15625
0.17212
0.18433
0.19409
0.20386
0.20752
0.21729
0.22339
0.22705
0.23682
0.23804
0.23682
0.23682
0.22949
0.22095
0.21729
0.2124
0.20386
0.2002
0.19775
0.18433
0.18311
0.17944
0.17212
0.17456
0.17334
0.17334
0.17212
0.16968
0.16846
0.16235
0.16113
0.15747
0.15259
0.15259
0.14893
0.15015
0.15259
0.15259
0.15869
0.15991
0.16479
0.1709
0.17334
0.17944
0.18433
0.19165
0.19775
0.20264
0.21118
0.21118
0.21606
0.21729
0.21729
0.22095
0.22217
0.22461
0.22705
0.22583
0.22461
0.21729
0.20996
0.20386
0.19653
0.19531
0.18188
0.17578
0.17212
0.16357
0.16235
0.15137
0.14771
0.13916
0.12939
0.12329
0.11108
0.09888
0.09399
0.08301
0.07446
0.0647
0.05859
0.05127
0.04639
0.04639
0.0415
0.04272
0.04395
0.04272
0.04883
0.04883
0.05127
0.05127
0.04761
0.04639
0.0415
0.04028
0.0354
0.03052
0.0293
0.02441
0.02319
0.02197
0.01709
0.01831
0.01587
0.01465
0.01709
0.01709
0.01953
0.01831
0.01831
0.01465
0.01221
0.00854
-0.00244
-0.00732
-0.01709
-0.03296
-0.03906
-0.05249
-0.06348
-0.07324
-0.08423
-0.08911
-0.09521
-0.09644
-0.1001
-0.10376
-0.10132
-0.10742
-0.10742
-0.10986
-0.11475
-0.11108
-0.1123
-0.1123
-0.11108
-0.11353
-0.1123
-0.11597
-0.11719
-0.11719
-0.11719
-0.11475
-0.11475
-0.1123
-0.10986
-0.1123
-0.10986
-0.11108
-0.10742
-0.1001
-0.09277
-0.08057
-0.0708
-0.05737
-0.04761
-0.03784
-0.02075
-0.00732
0.01099
0.03052
0.04517
0.06226
0.07568
0.08911
0.1001
0.11108
0.12329
0.12695
0.13062
0.13306
0.13184
0.1355
0.1355
0.13916
0.14282
0.1416
0.14648
0.14282
0.1416
0.1416
0.1355
0.13306
0.12817
0.12695
0.12329
0.11719
0.11475
0.10498
0.10132
0.09888
0.09033
0.09033
0.08423
0.08545
0.08667
0.09155
0.09277
0.09399
0.09399
0.09766
0.09399
0.09033
0.08423
0.07813
0.06836
0.06714
0.0708
0.0647
0.0708
0.07568
0.07324
0.0769
0.07446
0.0708
0.06836
0.06226
0.06348
0.05737
0.05981
0.05981
0.05981
0.06226
0.06104
0.06226
0.06226
0.05981
0.06348
0.06104
0.05615
0.05371
0.04761
0.04395
0.03906
0.03662
0.03418
0.03174
0.03662
0.02686
0.02563
0.02563
0.01343
0.01099
0
0
-0.00732
-0.01587
-0.01953
-0.02808
-0.03906
-0.03906
-0.04639
-0.05005
-0.05249
-0.05615
-0.05981
-0.06348
-0.06226
-0.06958
-0.06958
-0.07202
-0.07813
-0.08057
-0.08545
-0.08667
-0.08911
-0.09033
-0.09033
-0.09644
-0.1001
-0.10498
-0.10864
-0.10864
-0.11108
-0.10864
-0.10864
-0.10986
-0.1062
-0.1062
-0.10742
-0.1062
-0.1062
-0.10254
-0.10254
-0.1062
-0.10376
-0.10742
-0.10742
-0.1123
-0.11353
-0.11108
-0.11719
-0.11597
-0.1123
-0.11719
-0.11597
-0.11353
-0.11475
-0.11597
-0.1123
-0.1123
-0.1123
-0.10864
-0.11108
-0.11108
-0.10986
-0.11719
-0.11475
-0.12085
-0.11963
-0.11719
-0.12451
-0.12329
-0.12695
-0.13062
-0.12695
-0.12817
-0.12451
-0.12329
-0.11841
-0.11353
-0.10986
-0.1001
-0.09277
-0.08179
-0.06836
-0.05981
-0.04395
-0.03418
-0.02197
-0.0061
0.0061
0.02197
0.03784
0.05981
0.07446
0.08667
0.10376
0.10986
0.11841
0.12695
0.12451
0.12573
0.12329
0.11719
0.11353
0.10986
0.1062
0.1001
0.09888
0.09277
0.08667
0.08789
0.08179
0.08057
0.08301
0.07446
0.07446
0.06836
0.06958
0.0708
0.06348
0.06714
0.06104
0.05493
0.05005
0.0415
0.03662
0.0293
0.02441
0.02075
0.01587
0.01709
0.01343
0.01343
0.01465
0.01221
0.01709
0.01709
0.01953
0.02563
0.02563
0.02686
0.02686
0.02808
0.03052
0.0293
0.03296
0.0293
0.0293
0.03174
0.02808
0.03174
0.03174
0.03174
0.03296
0.03052
0.03052
0.02686
0.02563
0.02319
0.01953
0.01831
0.01221
0.00977
0.0061
-0.00244
-0.00488
-0.01343
-0.01831
-0.02075
-0.02319
-0.02686
-0.03052
-0.0354
-0.0354
-0.03906
-0.04028
-0.04639
-0.04883
-0.05371
-0.05493
-0.05493
-0.05859
-0.05859
-0.06104
-0.06592
-0.06714
-0.07446
-0.07935
-0.08301
-0.08911
-0.09277
-0.09888
-0.10254
-0.10742
-0.11475
-0.11597
-0.12573
-0.12817
-0.12817
-0.13184
-0.13062
-0.12817
-0.13306
-0.13428
-0.13916
-0.13672
-0.14282
-0.14404
-0.1416
-0.14404
-0.14648
-0.14893
-0.15137
-0.15259
-0.15747
-0.15381
-0.15869
-0.15747
-0.15503
-0.15869
-0.15625
-0.15869
-0.16113
-0.16235
-0.16602
-0.16602
-0.1709
-0.17456
-0.17822
-0.18066
-0.18188
-0.18555
-0.18799
-0.18677
-0.19043
-0.18799
-0.19043
-0.18921
-0.18555
-0.18555
-0.18311
-0.18433
-0.18433
-0.18555
-0.18799
-0.18311
-0.18311
-0.17822
-0.16724
-0.16724
-0.15625
-0.14771
-0.13184
-0.11597
-0.10254
-0.08301
-0.0708
-0.06226
-0.0415
-0.0293
-0.01953
-0.0061
0.00488
0.01221
0.01953
0.02808
0.02686
0.0293
0.03174
0.0293
0.0293
0.02563
0.02319
0.02197
0.01587
0.01587
0.00977
0.00854
0.0061
0.00244
0
-0.0061
-0.00732
-0.00488
-0.01343
-0.01221
-0.01587
-0.01465
-0.01099
-0.01831
-0.01221
-0.01587
-0.01831
-0.01831
-0.02075
-0.01953
-0.02197
-0.02319
-0.02319
-0.02563
-0.02563
-0.02808
-0.0293
-0.02808
-0.03052
-0.02808
-0.03296
-0.03296
-0.03174
-0.03052
-0.03296
-0.03418
-0.03296
-0.03052
-0.03052
-0.02686
-0.02441
-0.02075
-0.01953
-0.01831
-0.01709
-0.01953
-0.01953
-0.01709
-0.02075
-0.01953
-0.02319
-0.02441
-0.02441
-0.02808
-0.0293
-0.03418
-0.03662
-0.03784
-0.04028
-0.03662
-0.0415
-0.04272
-0.04639
-0.05005
-0.05127
-0.05859
-0.05737
-0.05737
-0.06226
-0.06104
-0.06592
-0.06958
-0.0708
-0.07568
-0.0769
-0.07935
-0.07935
-0.07813
-0.08179
-0.0769
-0.08057
-0.08179
-0.08179
-0.08423
-0.08301
-0.08545
-0.08545
-0.08423
-0.08911
-0.09033
-0.09521
-0.10254
-0.1001
-0.10498
-0.10498
-0.10498
-0.10498
-0.10376
-0.10498
-0.10132
-0.10498
-0.10376
-0.10132
-0.10498
-0.10254
-0.10498
-0.10864
-0.11108
-0.11841
-0.11963
-0.12573
-0.12573
-0.12451
-0.12451
-0.11719
-0.11963
-0.11597
-0.11353
-0.1123
-0.10864
-0.11475
-0.11108
-0.10864
-0.11475
-0.10986
-0.1123
-0.11597
-0.11353
-0.11963
-0.12085
-0.12329
-0.12451
-0.12573
-0.12573
-0.12329
-0.12451
-0.11719
-0.10986
-0.10742
-0.09521
-0.08789
-0.08057
-0.06714
-0.05981
-0.04761
-0.03662
-0.02197
-0.00732
0.00488
0.02319
0.03296
0.04639
0.06226
0.07813
0.09521
0.10864
0.11597
0.12573
0.12939
0.12939
0.12695
0.12573
0.12207
0.11841
0.11475
0.11353
0.10986
0.10498
0.1001
0.1001
0.09399
0.09399
0.09399
0.08545
0.08667
0.08057
0.07446
0.07446
0.06836
0.06592
0.06104
0.05615
0.05249
0.04639
0.04395
0.03784
0.03662
0.0354
0.03052
0.03052
0.02686
0.02319
0.02197
0.02075
0.01831
0.01465
0.00854
0.00977
0.00488
0.00122
0.00122
0
-0.00122
-0.00244
0
-0.00244
-0.00244
0.00244
0
0.00244
0
0
0.00244
0
0.00244
0.00122
0.00244
0.00732
0.00854
0.01587
0.01465
0.01953
0.02075
0.02075
0.02197
0.01709
0.01831
0.01831
0.01221
0.01099
0.00122
-0.0061
-0.01099
-0.01831
-0.02197
-0.02686
-0.0293
-0.03174
-0.03418
-0.03296
-0.03784
-0.04272
-0.03906
-0.05127
-0.05493
-0.06226
-0.06592
-0.06958
-0.08057
-0.08057
-0.08667
-0.09155
-0.09155
-0.09399
-0.09155
-0.09155
-0.09155
-0.08911
-0.09033
-0.08545
-0.09033
-0.08789
-0.08179
-0.08789
-0.08057
-0.08057
-0.0769
-0.07202
-0.07568
-0.06836
-0.0708
-0.06958
-0.06592
-0.06714
-0.0647
-0.05981
-0.05249
-0.04639
-0.03662
-0.02808
-0.02808
-0.02319
-0.01709
-0.01709
-0.01221
-0.01221
-0.01465
-0.01465
-0.01953
-0.01953
-0.02197
-0.02075
-0.01953
-0.01831
-0.01709
-0.02075
-0.02197
-0.02686
-0.03052
-0.0293
-0.03784
-0.03418
-0.03418
-0.04028
-0.04272
-0.04395
-0.04272
-0.0354
-0.0293
-0.01831
-0.00854
0.00488
0.01831
0.0293
0.04761
0.05371
0.06592
0.07935
0.09155
0.10742
0.11597
0.12695
0.13428
0.13306
0.14282
0.14404
0.14526
0.14893
0.14648
0.14648
0.14282
0.13794
0.13428
0.12939
0.12817
0.12085
0.11719
0.11475
0.10864
0.10986
0.10376
0.10132
0.1001
0.09766
0.09644
0.09399
0.09277
0.09155
0.08789
0.08545
0.08545
0.08423
0.07935
0.08057
0.08423
0.08179
0.08301
0.08545
0.08423
0.08545
0.08301
0.08179
0.08423
0.08301
0.08667
0.08789
0.08789
0.08911
0.08789
0.08911
0.08179
0.08057
0.07935
0.07813
0.08057
0.0769
0.07935
0.08301
0.08179
0.08545
0.08423
0.08301
0.08545
0.08423
0.08545
0.08301
0.08057
0.08057
0.07568
0.07935
0.06958
0.06836
0.06836
0.0647
0.0647
0.06226
0.0647
0.06592
0.06226
0.06592
0.06104
0.05737
0.05737
0.05249
0.05249
0.04761
0.04395
0.04028
0.0354
0.0354
0.03174
0.02686
0.02563
0.01953
0.01831
0.01343
0.01343
0.01221
0.0061
0.00732
0.00244
-0.00122
0
-0.00488
-0.00732
-0.00977
-0.01099
-0.01099
-0.01587
-0.01465
-0.01953
-0.01953
-0.01831
-0.02197
-0.01953
-0.02319
-0.02319
-0.02441
-0.03296
-0.02808
-0.03296
-0.03662
-0.03418
-0.03662
-0.03662
-0.03784
-0.04028
-0.03784
-0.03906
-0.03662
-0.03784
-0.03784
-0.03662
-0.03906
-0.03662
-0.03418
-0.03784
-0.03296
-0.03174
-0.02075
-0.01465
-0.00488
0.01465
0.03174
0.05493
0.07446
0.08911
0.09888
0.10498
0.11597
0.12207
0.13062
0.13916
0.14038
0.14648
0.14526
0.14526
0.14771
0.1416
0.1416
0.13794
0.13794
0.12939
0.12573
0.12207
0.11597
0.11108
0.10498
0.1001
0.09644
0.08301
0.07935
0.07446
0.0647
0.06348
0.05615
0.05249
0.05127
0.04517
0.04517
0.0415
0.04272
0.04517
0.04517
0.05005
0.04883
0.05127
0.05981
0.05371
0.05737
0.05249
0.05127
0.05127
0.04272
0.04517
0.03906
0.03296
0.03174
0.02563
0.02563
0.02197
0.01953
0.02197
0.02075
0.02441
0.02075
0.01953
0.02075
0.01343
0.01343
0.01343
0.00488
0.00488
-0.00488
-0.00244
-0.00488
-0.01099
-0.0061
-0.00854
-0.00732
-0.00854
-0.00854
-0.00488
-0.00488
0
0
0
0.00122
-0.00366
-0.00244
-0.00732
-0.01099
-0.01099
-0.01099
-0.01709
-0.02075
-0.02319
-0.02563
-0.03052
-0.03418
-0.03418
-0.03662
-0.03784
-0.04272
-0.04395
-0.04883
-0.05127
-0.05371
-0.05859
-0.05859
-0.06348
-0.06714
-0.06836
-0.07324
-0.0769
-0.08179
-0.08667
-0.08545
-0.09033
-0.09399
-0.09277
-0.09644
-0.09521
-0.09521
-0.09033
-0.08911
-0.08423
-0.0769
-0.07446
-0.06592
-0.06348
-0.05981
-0.05249
-0.04761
-0.0415
-0.03296
-0.02319
-0.01953
-0.01465
-0.0061
0.00244
0.01099
0.02075
0.03174
0.04517
0.05249
0.06592
0.07935
0.08911
0.10376
0.1123
0.12085
0.13306
0.13916
0.14526
0.14771
0.14771
0.15015
0.14648
0.14771
0.14282
0.14038
0.13672
0.13672
0.13794
0.1355
0.13794
0.14038
0.13916
0.14526
0.14404
0.14404
0.14526
0.14404
0.14526
0.14282
0.1416
0.13794
0.13184
0.13306
0.11963
0.1123
0.10742
0.09888
0.09644
0.08911
0.08911
0.08789
0.08179
0.08545
0.08423
0.08301
0.08667
0.08545
0.08789
0.08423
0.08301
0.08057
0.07568
0.07324
0.06714
0.05981
0.05615
0.05005
0.04883
0.04517
0.04395
0.04517
0.04272
0.04395
0.04395
0.05127
0.05127
0.05127
0.05371
0.05615
0.05737
0.05859
0.06104
0.06714
0.06714
0.07324
0.08057
0.08179
0.08667
0.08545
0.08423
0.08423
0.07935
0.0769
0.0708
0.0647
0.05737
0.04639
0.0415
0.02319
0.00977
-0.0061
-0.02075
-0.0354
-0.05615
-0.0708
-0.08423
-0.10132
-0.10864
-0.11963
-0.12939
-0.13428
-0.13916
-0.14038
-0.1416
-0.14038
-0.13672
-0.1355
-0.12573
-0.12329
-0.11597
-0.10864
-0.10376
-0.09277
-0.09033
-0.07935
-0.06836
-0.0647
-0.05371
-0.04761
-0.04517
-0.03662
-0.03296
-0.02563
-0.02197
-0.01953
-0.01709
-0.02075
-0.02319
-0.03296
-0.04395
-0.05371
-0.06714
-0.07324
-0.08057
-0.08667
-0.08423
-0.08545
-0.08057
-0.07568
-0.0708
-0.06348
-0.06226
-0.06226
-0.06104
-0.05981
-0.06226
-0.05981
-0.05737
-0.06104
-0.06592
-0.0708
-0.08301
-0.08789
-0.09644
-0.10376
-0.1062
-0.1123
-0.11475
-0.11841
-0.12085
-0.12085
-0.12207
-0.11597
-0.11353
-0.10742
-0.09644
-0.08911
-0.07568
-0.06714
-0.05493
-0.04028
-0.03052
-0.01465
-0.00122
0.01221
0.02441
0.02686
0.02686
0.02319
0.01831
0.01343
0.0061
0.00488
-0.00244
-0.00366
-0.0061
-0.01221
-0.01221
-0.01221
-0.01343
-0.00977
-0.01221
-0.00977
-0.00854
-0.00366
-0.0061
-0.00854
-0.00488
0
0.00488
0.01099
0.01831
0.02808
0.03418
0.04395
0.05493
0.06348
0.07813
0.08789
0.09766
0.11108
0.12085
0.13306
0.14038
0.15381
0.15869
0.16357
0.1709
0.17334
0.177
0.177
0.17822
0.18066
0.177
0.177
0.177
0.1709
0.16968
0.16235
0.15503
0.15015
0.1416
0.13428
0.12695
0.11963
0.11719
0.11108
0.11597
0.10742
0.1062
0.10742
0.10864
0.11108
0.10864
0.11353
0.11597
0.11353
0.11719
0.11597
0.11108
0.10864
0.10254
0.1001
0.09521
0.09155
0.09033
0.08667
0.08667
0.08301
0.08179
0.08301
0.08057
0.08301
0.07568
0.07935
0.08057
0.07935
0.08545
0.08545
0.08667
0.08911
0.08667
0.08789
0.08667
0.08911
0.09033
0.09033
0.09766
0.1001
0.10864
0.12085
0.12817
0.14648
0.16235
0.17944
0.19897
0.21118
0.22827
0.24048
0.25391
0.271
0.2832
0.29907
0.31372
0.32349
0.33203
0.33569
0.34302
0.34302
0.34668
0.35034
0.34912
0.35278
0.3479
0.3418
0.33813
0.32593
0.3186
0.31006
0.30151
0.29541
0.28564
0.28198
0.27222
0.26489
0.26123
0.25146
0.24902
0.24048
0.2356
0.23193
0.22217
0.22461
0.21973
0.21729
0.21973
0.21729
0.21973
0.22095
0.22217
0.22583
0.22705
0.2356
0.23804
0.24414
0.25146
0.25146
0.25635
0.25513
0.25391
0.25635
0.25146
0.25391
0.24902
0.24048
0.24048
0.23071
0.22339
0.21973
0.21484
0.20996
0.20508
0.2002
0.18921
0.18311
0.17456
0.16357
0.16113
0.15625
0.15259
0.15381
0.14893
0.15015
0.14893
0.15015
0.14893
0.14771
0.15137
0.15015
0.15015
0.14893
0.14526
0.14404
0.13794
0.13428
0.13062
0.12329
0.12207
0.11597
0.10986
0.10864
0.10376
0.10376
0.10132
0.1001
0.09888
0.09399
0.09155
0.08911
0.08545
0.07935
0.07568
0.07568
0.06836
0.0647
0.06348
0.05737
0.05615
0.05005
0.04395
0.04028
0.03296
0.02808
0.02075
0.01465
0.00977
0.00488
0.00122
-0.00366
-0.00732
-0.0061
-0.01465
-0.01465
-0.02075
-0.02197
-0.02197
-0.02808
-0.02441
-0.02563
-0.02808
-0.02563
-0.02686
-0.02563
-0.0293
-0.0293
-0.02563
-0.02441
-0.01953
-0.01709
-0.01221
-0.00732
-0.00854
-0.00366
0.00244
0
0.00732
0.01099
0.01831
0.02319
0.02563
0.0354
0.03906
0.04517
0.04883
0.05493
0.0647
0.0708
0.08179
0.08667
0.09521
0.1062
0.11108
0.12085
0.12451
0.12695
0.13306
0.13794
0.1355
0.13428
0.12939
0.13062
0.12695
0.12207
0.12329
0.12085
0.12085
0.11963
0.12329
0.12329
0.12695
0.13306
0.13916
0.14771
0.15259
0.15869
0.16724
0.17334
0.17212
0.17212
0.17578
0.17578
0.17212
0.16968
0.16602
0.16235
0.15625
0.15015
0.14526
0.13306
0.12573
0.11963
0.10986
0.10376
0.09888
0.09399
0.09766
0.09766
0.1001
0.10498
0.10864
0.11108
0.1123
0.11597
0.11353
0.1123
0.11353
0.10864
0.10864
0.10376
0.09766
0.09766
0.09399
0.09277
0.08911
0.08667
0.08545
0.08179
0.08301
0.07813
0.07813
0.08057
0.0769
0.07935
0.07813
0.07568
0.0769
0.06958
0.06104
0.04761
0.03662
0.02075
0.00488
-0.00977
-0.01709
-0.02686
-0.03662
-0.04395
-0.04883
-0.06104
-0.0647
-0.06714
-0.07324
-0.07324
-0.07813
-0.08301
-0.08423
-0.09277
-0.09155
-0.09277
-0.09277
-0.09033
-0.09033
-0.08545
-0.08667
-0.08545
-0.08179
-0.08179
-0.07813
-0.07324
-0.07446
-0.06836
-0.05981
-0.05737
-0.05127
-0.04639
-0.03418
-0.02808
-0.01831
-0.00977
-0.00488
0
0.00366
0.00854
0.00244
0.00122
-0.00366
-0.01343
-0.01831
-0.02686
-0.03662
-0.04272
-0.05127
-0.05737
-0.06348
-0.06836
-0.0708
-0.07324
-0.0708
-0.06958
-0.0647
-0.05615
-0.04883
-0.03418
-0.02075
-0.0061
0.01465
0.03174
0.05615
0.0769
0.09888
0.12695
0.14771
0.1709
0.19775
0.22339
0.2478
0.26978
0.29053
0.30273
0.31616
0.32593
0.32593
0.33203
0.33081
0.32837
0.33325
0.33081
0.33203
0.33203
0.32959
0.32959
0.32471
0.32349
0.31494
0.30762
0.30029
0.28687
0.27832
0.26611
0.25391
0.24536
0.23193
0.22339
0.21362
0.20752
0.20386
0.19897
0.2002
0.19653
0.19409
0.19287
0.18799
0.18677
0.17578
0.16724
0.16113
0.14648
0.14526
0.13794
0.13062
0.13062
0.12573
0.12451
0.12329
0.12085
0.12451
0.12329
0.12817
0.12695
0.12817
0.12939
0.12329
0.12329
0.12207
0.12085
0.12451
0.12207
0.12451
0.12329
0.11841
0.11963
0.11475
0.10986
0.10742
0.10254
0.1001
0.09644
0.09521
0.08911
0.08301
0.07935
0.06958
0.06714
0.05981
0.05371
0.05371
0.04883
0.04883
0.04639
0.04639
0.04395
0.04028
0.03906
0.0415
0.0415
0.04272
0.04395
0.04761
0.04272
0.04272
0.04028
0.03052
0.02563
0.01709
0.00977
0.00732
0
-0.00366
-0.00977
-0.01709
-0.02197
-0.02808
-0.03296
-0.0415
-0.04761
-0.05249
-0.06104
-0.0647
-0.06714
-0.07935
-0.08179
-0.09033
-0.08911
-0.09399
-0.10376
-0.10376
-0.11108
-0.11841
-0.12329
-0.12573
-0.12451
-0.12695
-0.12817
-0.13428
-0.13672
-0.13794
-0.14282
-0.14404
-0.14771
-0.15015
-0.15015
-0.15137
-0.15259
-0.15869
-0.16846
-0.17578
-0.19043
-0.19653
-0.2124
-0.22095
-0.22461
-0.22827
-0.22461
-0.22583
-0.21729
-0.20752
-0.20386
-0.19043
-0.17944
-0.16724
-0.14771
-0.13062
-0.10742
-0.08545
-0.06226
-0.03784
-0.01831
0.01099
0.02441
0.0415
0.06348
0.06958
0.08301
0.09033
0.09399
0.10254
0.09888
0.10376
0.10376
0.1001
0.1062
0.10498
0.1062
0.10742
0.10498
0.10742
0.10132
0.1001
0.09033
0.08667
0.08179
0.06836
0.06104
0.05005
0.03784
0.03174
0.01831
0.01099
0
-0.00732
-0.01099
-0.01709
-0.01587
-0.01953
-0.01831
-0.01465
-0.01465
-0.00854
-0.00244
-0.00488
0
-0.00244
0.00366
0.00488
0
0.00732
0.0061
0.00977
0.01221
0.01587
0.01953
0.02075
0.02563
0.02808
0.03174
0.0415
0.04272
0.05005
0.05127
0.05005
0.05249
0.05371
0.05859
0.06226
0.06714
0.07324
0.07446
0.07935
0.0708
0.06714
0.06348
0.05859
0.05615
0.04639
0.04517
0.0415
0.03052
0.0293
0.02319
0.01587
0.01221
0.00366
0
-0.00854
-0.01587
-0.02075
-0.0293
-0.03174
-0.03662
-0.03906
-0.03662
-0.03906
-0.03662
-0.04028
-0.04272
-0.04395
-0.04639
-0.05127
-0.05493
-0.06104
-0.05615
-0.05859
-0.06226
-0.06592
-0.07324
-0.08179
-0.09033
-0.09521
-0.10498
-0.11108
-0.11353
-0.11963
-0.11963
-0.12451
-0.12817
-0.12817
-0.13184
-0.13184
-0.13428
-0.13306
-0.13184
-0.13184
-0.13062
-0.12939
-0.12817
-0.11719
-0.12085
-0.1123
-0.10986
-0.10498
-0.10132
-0.10986
-0.10742
-0.11475
-0.12207
-0.12451
-0.13062
-0.13306
-0.13672
-0.13794
-0.13672
-0.13794
-0.13306
-0.13184
-0.12573
-0.11475
-0.10986
-0.09399
-0.08057
-0.06714
-0.04639
-0.02808
-0.01221
0.00122
0.01587
0.03052
0.04028
0.05493
0.06348
0.07202
0.08057
0.08545
0.09155
0.09033
0.09399
0.09766
0.08911
0.09521
0.09277
0.08667
0.09033
0.08667
0.08423
0.08423
0.08057
0.07813
0.0708
0.06836
0.05981
0.05371
0.05005
0.04272
0.03906
0.03174
0.02563
0.02441
0.01831
0.01587
0.01221
0.01099
0.01099
0.00854
0.00854
0.00732
0.00854
0.01587
0.00732
0.00977
0.0061
0.0061
0.00977
0.00488
0.00977
0.00854
0.00488
0.01099
0.00977
0.00977
0.01221
0.01221
0.01465
0.01587
0.02075
0.01953
0.02197
0.02563
0.02075
0.02319
0.02197
0.01953
0.02197
0.02075
0.02319
0.02197
0.01587
0.01221
0.00122
-0.00244
-0.01465
-0.02197
-0.02808
-0.03296
-0.03418
-0.04028
-0.04272
-0.04517
-0.05493
-0.05371
-0.05737
-0.06226
-0.06104
-0.0647
-0.06226
-0.06226
-0.06226
-0.06104
-0.06226
-0.05737
-0.05737
-0.05493
-0.05005
-0.05371
-0.05127
-0.05493
-0.05981
-0.06104
-0.06836
-0.06592
-0.06958
-0.07324
-0.06958
-0.07202
-0.07446
-0.07935
-0.08545
-0.09155
-0.10132
-0.10498
-0.11353
-0.11841
-0.12085
-0.12817
-0.12817
-0.13306
-0.1355
-0.13428
-0.13916
-0.13672
-0.13672
-0.13184
-0.1355
-0.1355
-0.13184
-0.13062
-0.12817
-0.13062
-0.12817
-0.12451
-0.12817
-0.12695
-0.12573
-0.12939
-0.12695
-0.12817
-0.13184
-0.13062
-0.13794
-0.14038
-0.14526
-0.14893
-0.15259
-0.15625
-0.15381
-0.15625
-0.15015
-0.1416
-0.1355
-0.12085
-0.11108
-0.09399
-0.07446
-0.0647
-0.03906
-0.02319
-0.00854
0.01221
0.02686
0.04517
0.05859
0.07202
0.08545
0.09399
0.10376
0.10742
0.1123
0.11963
0.11719
0.12329
0.12207
0.11963
0.12207
0.11963
0.11963
0.11597
0.11353
0.11353
0.1062
0.10376
0.09766
0.09155
0.09033
0.08301
0.08179
0.07446
0.0708
0.06958
0.06592
0.05981
0.05615
0.05127
0.04883
0.04272
0.04028
0.03906
0.03784
0.03662
0.03418
0.03296
0.02686
0.02441
0.02441
0.01953
0.02197
0.02197
0.01953
0.02197
0.02075
0.01953
0.01831
0.01953
0.02197
0.02197
0.03174
0.02686
0.02686
0.02808
0.02563
0.02686
0.02075
0.02563
0.02686
0.02563
0.03052
0.0293
0.02686
0.02686
0.02197
0.02075
0.01709
0.01709
0.01709
0.01465
0.01587
0.00977
0.0061
0.00366
-0.00488
-0.00854
-0.01221
-0.02197
-0.02563
-0.03906
-0.04272
-0.05127
-0.06226
-0.06104
-0.06836
-0.0708
-0.07202
-0.07324
-0.07324
-0.0769
-0.07568
-0.07813
-0.08179
-0.08179
-0.08911
-0.09155
-0.09644
-0.10132
-0.10132
-0.10498
-0.1062
-0.1123
-0.11963
-0.11841
-0.12329
-0.13062
-0.12939
-0.13184
-0.13306
-0.13428
-0.13306
-0.13672
-0.13794
-0.13794
-0.1416
-0.13672
-0.1355
-0.1355
-0.13428
-0.13672
-0.13794
-0.14038
-0.14404
-0.1416
-0.14526
-0.14404
-0.14648
-0.14648
-0.14771
-0.14648
-0.14404
-0.14648
-0.14648
-0.14404
-0.14648
-0.14404
-0.14404
-0.14526
-0.1416
-0.14282
-0.14038
-0.13916
-0.13794
-0.13306
-0.13062
-0.12329
-0.11719
-0.10742
-0.09155
-0.08301
-0.06836
-0.05737
-0.04395
-0.02808
-0.01953
0.00122
0.01587
0.03052
0.04883
0.05981
0.07324
0.08057
0.08789
0.09399
0.09521
0.1001
0.1001
0.10254
0.10498
0.10132
0.10254
0.09888
0.09521
0.09521
0.08911
0.08789
0.08423
0.08057
0.0769
0.0708
0.06958
0.06348
0.06104
0.06226
0.05859
0.05981
0.06104
0.05371
0.05493
0.04883
0.05371
0.05127
0.04761
0.05493
0.05249
0.05493
0.05371
0.05493
0.05493
0.05249
0.05371
0.05127
0.05005
0.05127
0.04883
0.05127
0.05249
0.05005
0.05249
0.04883
0.05127
0.04883
0.04761
0.05005
0.04883
0.05127
0.05127
0.05005
0.05127
0.05127
0.05493
0.05127
0.05005
0.05127
0.04395
0.04395
0.03662
0.03174
0.03052
0.02563
0.02563
0.02075
0.01709
0.01587
0.01099
0.01709
0.01099
0.01099
0.01221
0.01221
0.01587
0.01099
0.01587
0.01831
0.01465
0.01587
0.01099
0.0061
0.00244
-0.00854
-0.01465
-0.02319
-0.03296
-0.03784
-0.04639
-0.05127
-0.05981
-0.06714
-0.07202
-0.07935
-0.08301
-0.08789
-0.09888
-0.10132
-0.10864
-0.10742
-0.11108
-0.11475
-0.11108
-0.11475
-0.11108
-0.11108
-0.10986
-0.1062
-0.10864
-0.10498
-0.10986
-0.11108
-0.11353
-0.11719
-0.11719
-0.11963
-0.12695
-0.12695
-0.12817
-0.13062
-0.13428
-0.13916
-0.13672
-0.14038
-0.14038
-0.14282
-0.14526
-0.14526
-0.15137
-0.15015
-0.15503
-0.15381
-0.15503
-0.16357
-0.16357
-0.16968
-0.17456
-0.17456
-0.17822
-0.17578
-0.1709
-0.16357
-0.15137
-0.14038
-0.12329
-0.11108
-0.09521
-0.0708
-0.06104
-0.0415
-0.0293
-0.01099
0.00732
0.01709
0.03906
0.05249
0.0647
0.08301
0.09033
0.10132
0.10986
0.11597
0.12085
0.12451
0.12817
0.12451
0.12329
0.12207
0.11475
0.11353
0.10986
0.1062
0.10498
0.09766
0.09277
0.08423
0.07813
0.07446
0.06836
0.06714
0.06226
0.06104
0.05859
0.05981
0.06348
0.05615
0.05981
0.06104
0.05493
0.05737
0.05493
0.05493
0.05371
0.05249
0.05249
0.05127
0.05127
0.05127
0.04761
0.04639
0.04395
0.04028
0.04028
0.0354
0.0354
0.03052
0.0293
0.03174
0.02686
0.03052
0.0293
0.0293
0.03174
0.03052
0.03174
0.03174
0.03174
0.03418
0.03174
0.03296
0.03296
0.03296
0.0354
0.03418
0.0354
0.03784
0.0293
0.02808
0.02197
0.01953
0.01221
0.00488
0.00488
-0.00244
-0.00732
-0.01343
-0.01953
-0.02319
-0.0293
-0.03174
-0.03662
-0.04028
-0.03906
-0.04395
-0.04272
-0.04517
-0.04639
-0.04517
-0.05249
-0.04883
-0.05249
-0.05981
-0.05493
-0.05737
-0.06104
-0.0647
-0.06714
-0.06714
-0.0708
-0.06958
-0.07202
-0.07202
-0.06958
-0.07324
-0.0708
-0.07202
-0.0708
-0.0647
-0.06836
-0.06226
-0.06104
-0.06592
-0.06226
-0.06592
-0.06836
-0.07202
-0.07813
-0.08179
-0.09155
-0.09399
-0.10132
-0.1062
-0.10864
-0.11597
-0.11597
-0.12085
-0.12329
-0.12085
-0.12695
-0.12207
-0.12207
-0.12573
-0.11963
-0.12207
-0.12451
-0.12817
-0.13184
-0.13306
-0.13672
-0.13672
-0.13916
-0.13916
-0.1355
-0.13672
-0.1355
-0.13672
-0.1355
-0.13184
-0.13306
-0.12817
-0.12451
-0.11963
-0.10742
-0.10132
-0.09033
-0.07935
-0.06958
-0.05615
-0.04517
-0.0293
-0.01709
-0.00488
0.00977
0.01709
0.03174
0.04272
0.05005
0.05981
0.06226
0.06592
0.06592
0.06592
0.0708
0.06958
0.07324
0.0708
0.06836
0.0708
0.05981
0.05737
0.05737
0.04639
0.04272
0.03296
0.02808
0.01709
0.00366
0.00122
-0.00977
-0.01709
-0.02319
-0.02808
-0.03052
-0.03662
-0.03784
-0.04639
-0.05249
-0.05493
-0.06348
-0.06592
-0.06836
-0.07324
-0.07324
-0.07324
-0.07568
-0.07568
-0.0769
-0.06958
-0.06836
-0.06592
-0.06104
-0.05493
-0.04761
-0.0415
-0.03174
-0.02686
-0.01831
-0.00732
-0.0061
0.00244
0.0061
0.00977
0.01465
0.01343
0.01099
0.0061
0.00488
-0.00366
-0.01343
-0.01709
-0.02075
-0.02319
-0.02441
-0.02686
-0.02686
-0.03174
-0.0293
-0.02808
-0.03784
-0.03784
-0.04517
-0.05493
-0.06226
-0.07568
-0.08423
-0.09644
-0.10864
-0.11841
-0.13062
-0.13794
-0.14893
-0.15747
-0.16357
-0.1709
-0.17212
-0.17944
-0.177
-0.17456
-0.177
-0.16968
-0.16479
-0.16113
-0.15259
-0.14893
-0.14282
-0.1355
-0.13306
-0.12817
-0.12573
-0.11841
-0.11719
-0.11353
-0.10742
-0.10986
-0.10742
-0.11353
-0.11597
-0.11719
-0.12085
-0.12573
-0.13184
-0.13428
-0.14038
-0.14893
-0.15381
-0.15747
-0.16357
-0.16602
-0.17456
-0.18066
-0.19165
-0.19897
-0.20386
-0.21362
-0.21606
-0.22217
-0.22705
-0.22705
-0.22949
-0.22949
-0.23071
-0.23071
-0.23193
-0.23438
-0.23315
-0.2417
-0.2478
-0.24902
-0.25635
-0.25513
-0.25879
-0.25391
-0.24536
-0.23682
-0.21973
-0.2063
-0.18921
-0.16724
-0.15015
-0.12817
-0.10742
-0.09033
-0.0708
-0.05249
-0.02686
-0.01587
-0.00244
0.00732
0.01709
0.02441
0.02686
0.03174
0.03906
0.0415
0.05127
0.05615
0.05737
0.06592
0.0647
0.0647
0.06714
0.06836
0.0708
0.07324
0.07813
0.07446
0.07202
0.0708
0.06226
0.06104
0.05493
0.05005
0.05127
0.04761
0.04639
0.04395
0.04517
0.0415
0.03662
0.03418
0.03296
0.03052
0.02686
0.02686
0.02808
0.02563
0.02563
0.0293
0.02686
0.03052
0.03174
0.03296
0.03662
0.0354
0.03784
0.03784
0.03784
0.0415
0.04272
0.05127
0.05005
0.05249
0.05737
0.05981
0.0647
0.06348
0.06836
0.07324
0.0708
0.07324
0.0708
0.06958
0.0708
0.06592
0.06592
0.06226
0.05859
0.05615
0.05005
0.04883
0.04395
0.03906
0.03418
0.03052
0.02808
0.01831
0.01709
0.01587
0.00854
0.00977
0.0061
0.00122
0.00122
-0.00366
-0.00366
-0.00488
-0.00488
-0.00244
-0.0061
-0.00488
-0.00732
-0.00977
-0.01099
-0.01587
-0.01587
-0.02441
-0.02441
-0.02563
-0.03296
-0.03296
-0.0354
-0.03662
-0.03296
-0.03174
-0.02686
-0.02441
-0.02075
-0.01709
-0.01709
-0.00854
-0.01343
-0.01221
-0.01221
-0.00732
-0.0061
-0.00977
-0.01343
-0.01709
-0.03052
-0.03784
-0.05249
-0.06592
-0.0769
-0.09277
-0.10742
-0.12573
-0.13916
-0.15625
-0.1709
-0.17944
-0.18188
-0.18188
-0.177
-0.16846
-0.15503
-0.14404
-0.12939
-0.10986
-0.09644
-0.0769
-0.05981
-0.0415
-0.01953
0.00244
0.01953
0.03418
0.04761
0.06348
0.07446
0.08545
0.09888
0.10986
0.11841
0.12695
0.13306
0.13062
0.13306
0.1355
0.12695
0.12817
0.12329
0.11719
0.11597
0.10864
0.10254
0.09399
0.08179
0.07446
0.06348
0.05615
0.04517
0.03662
0.03418
0.01953
0.01465
0.0061
0
-0.00488
-0.01709
-0.01953
-0.02441
-0.02808
-0.02808
-0.03052
-0.02808
-0.02686
-0.02441
-0.01953
-0.01709
-0.01099
-0.00732
-0.00366
0
0.00122
0.00732
0.00732
0.01221
0.01831
0.01831
0.02686
0.03174
0.03662
0.04395
0.04517
0.05005
0.04883
0.04639
0.04639
0.04028
0.03906
0.03174
0.02563
0.02808
0.01465
0.01099
0.00366
-0.00366
-0.00488
-0.01343
-0.01099
-0.01221
-0.01343
-0.01221
-0.01343
-0.01343
-0.01831
-0.02075
-0.02197
-0.02686
-0.02563
-0.02808
-0.0293
-0.02197
-0.02686
-0.02197
-0.01953
-0.01343
-0.0061
-0.00732
0.00122
0.00488
0.0061
0.01221
0.01343
0.01831
0.01953
0.02075
0.02075
0.01587
0.01587
0.01343
0.01343
0.01831
0.01343
0.01587
0.01587
0.01709
0.02197
0.02197
0.03174
0.04028
0.05005
0.06714
0.08301
0.10254
0.12085
0.1416
0.16113
0.17578
0.19287
0.20874
0.22461
0.2417
0.25146
0.26489
0.27832
0.28076
0.29175
0.29297
0.30273
0.3064
0.30762
0.3125
0.31006
0.30762
0.31006
0.30762
0.30518
0.30151
0.30029
0.29175
0.28564
0.27954
0.26978
0.26489
0.25879
0.25269
0.25146
0.24536
0.24292
0.23926
0.24048
0.2356
0.23071
0.22949
0.22583
0.22339
0.22095
0.21729
0.21729
0.21362
0.21118
0.2124
0.20874
0.20874
0.21118
0.20996
0.21606
0.21606
0.21851
0.22095
0.22705
0.22461
0.22461
0.22583
0.22583
0.22461
0.22217
0.21851
0.21973
0.21606
0.2124
0.21118
0.20508
0.20142
0.19531
0.18677
0.18311
0.17456
0.16968
0.16479
0.16235
0.15625
0.15137
0.15015
0.14893
0.14771
0.14771
0.14648
0.14771
0.14404
0.1416
0.14038
0.13428
0.13428
0.13184
0.12817
0.13062
0.12695
0.12573
0.12451
0.12329
0.12451
0.12329
0.12207
0.12329
0.12329
0.12085
0.11475
0.11353
0.1062
0.10132
0.09766
0.08911
0.08545
0.07935
0.07324
0.07202
0.06836
0.06348
0.06104
0.05737
0.05859
0.05615
0.05493
0.05615
0.05493
0.05737
0.05493
0.05615
0.05493
0.05493
0.05615
0.05493
0.05737
0.06226
0.06714
0.08057
0.09399
0.10498
0.11963
0.13428
0.15381
0.1709
0.18799
0.2063
0.22095
0.23926
0.25391
0.271
0.28442
0.29663
0.30884
0.31738
0.32715
0.33447
0.33691
0.34302
0.34058
0.33936
0.33813
0.33691
0.33569
0.33203
0.32837
0.32227
0.31494
0.31006
0.30151
0.29663
0.28931
0.28442
0.2832
0.27588
0.28076
0.27954
0.2771
0.28076
0.2771
0.27588
0.27344
0.26855
0.26489
0.25635
0.25146
0.24414
0.23682
0.2356
0.22339
0.21973
0.21118
0.20874
0.20752
0.19897
0.20142
0.19897
0.19531
0.19653
0.19165
0.19043
0.18921
0.18799
0.18677
0.18311
0.18555
0.18311
0.18433
0.19409
0.18677
0.18921
0.18799
0.18555
0.18555
0.177
0.177
0.1709
0.16235
0.15869
0.14771
0.14038
0.13184
0.12207
0.11597
0.10864
0.10376
0.09399
0.08789
0.08667
0.07813
0.07813
0.07324
0.07202
0.07324
0.0647
0.06592
0.06226
0.05981
0.06226
0.05981
0.05859
0.05737
0.05371
0.05249
0.04639
0.04272
0.03662
0.03296
0.03052
0.02563
0.02563
0.02197
0.02075
0.02197
0.01465
0.01953
0.01587
0.01099
0.01221
0.0061
0.00366
0
-0.0061
-0.00732
-0.01099
-0.01099
-0.01465
-0.01587
-0.01343
-0.01709
-0.01587
-0.01221
-0.01709
-0.01831
-0.02441
-0.02441
-0.02808
-0.03296
-0.0293
-0.0293
-0.02075
-0.01221
0.00122
0.01343
0.02563
0.0415
0.05493
0.06958
0.09399
0.10376
0.12573
0.1416
0.16235
0.18188
0.19287
0.21118
0.22095
0.22583
0.23682
0.24048
0.24292
0.2478
0.2478
0.25024
0.2478
0.2478
0.2417
0.23682
0.23438
0.22461
0.21851
0.21118
0.20142
0.19897
0.19287
0.19043
0.18799
0.18555
0.18555
0.18311
0.18311
0.18799
0.19043
0.19287
0.19653
0.20142
0.20264
0.20508
0.2124
0.2124
0.21851
0.22217
0.22217
0.22705
0.22705
0.22949
0.23193
0.23682
0.23682
0.2356
0.2356
0.23438
0.22949
0.22705
0.22339
0.22339
0.21729
0.2124
0.21118
0.20142
0.19653
0.19043
0.18311
0.18066
0.17456
0.1709
0.16602
0.16357
0.15747
0.14893
0.14038
0.1355
0.12451
0.11719
0.10986
0.10376
0.09766
0.09033
0.08545
0.07813
0.07446
0.0708
0.0647
0.06104
0.05737
0.05005
0.04395
0.03662
0.0354
0.02686
0.02197
0.02197
0.01953
0.02075
0.01831
0.01831
0.01465
0.00977
0.00732
-0.00366
-0.00732
-0.01221
-0.01831
-0.02075
-0.02441
-0.03174
-0.03784
-0.05127
-0.05249
-0.06348
-0.0708
-0.07568
-0.08179
-0.08545
-0.08911
-0.09033
-0.09521
-0.10132
-0.10376
-0.11475
-0.12207
-0.13184
-0.14282
-0.14893
-0.16357
-0.16968
-0.17578
-0.18677
-0.18066
-0.18433
-0.18433
-0.18311
-0.18677
-0.19043
-0.19775
-0.2002
-0.20386
-0.2063
-0.20264
-0.20508
-0.20264
-0.19897
-0.2002
-0.19775
-0.2002
-0.19897
-0.19775
-0.19165
-0.18921
-0.18311
-0.17578
-0.16113
-0.14648
-0.13184
-0.1123
-0.09155
-0.07446
-0.05615
-0.0354
-0.02197
0.00122
0.02075
0.03784
0.05859
0.07446
0.09155
0.10742
0.12085
0.1355
0.14282
0.15259
0.16113
0.16235
0.16602
0.16357
0.16357
0.16602
0.15625
0.15869
0.15259
0.15503
0.15381
0.14648
0.15015
0.14771
0.14771
0.14893
0.14771
0.15259
0.15259
0.15869
0.15991
0.16113
0.16235
0.16235
0.16724
0.16724
0.17212
0.17822
0.17334
0.17944
0.17944
0.17578
0.17334
0.16846
0.16357
0.15991
0.15381
0.15137
0.14526
0.14404
0.14282
0.14038
0.14771
0.14038
0.1416
0.1416
0.14038
0.14282
0.14038
0.14404
0.14648
0.14771
0.15381
0.15381
0.15625
0.15625
0.15259
0.15503
0.15137
0.15259
0.15015
0.14648
0.14282
0.13306
0.12451
0.11108
0.1001
0.09399
0.07935
0.07202
0.06348
0.05127
0.04395
0.03296
0.02197
0.01343
0.00488
0.00122
-0.00854
-0.01465
-0.01831
-0.02441
-0.0293
-0.03418
-0.03662
-0.0415
-0.04517
-0.04517
-0.05249
-0.05493
-0.05615
-0.06226
-0.05981
-0.0647
-0.06226
-0.06104
-0.06592
-0.06226
-0.06958
-0.07568
-0.07813
-0.08301
-0.08789
-0.09277
-0.09644
-0.10254
-0.10986
-0.1123
-0.12329
-0.12939
-0.13306
-0.1416
-0.14526
-0.15137
-0.15381
-0.15747
-0.16357
-0.15991
-0.16357
-0.16479
-0.16357
-0.16602
-0.16357
-0.16479
-0.16235
-0.16479
-0.16846
-0.16113
-0.17212
-0.17212
-0.17578
-0.17456
-0.17334
-0.17578
-0.17456
-0.17456
-0.17944
-0.17822
-0.18311
-0.18677
-0.18799
-0.19409
-0.19531
-0.19897
-0.2002
-0.19775
-0.19653
-0.19165
-0.18555
-0.177
-0.16724
-0.15625
-0.14038
-0.12695
-0.10986
-0.09155
-0.07568
-0.05371
-0.03906
-0.01953
-0.00244
0.01221
0.03174
0.04272
0.05005
0.05615
0.05737
0.05859
0.05493
0.05371
0.05127
0.04639
0.04639
0.04028
0.03784
0.03418
0.02686
0.02808
0.02197
0.01709
0.01587
0.01221
0.01221
0.00854
0.00854
0.0061
0.00488
0.0061
0.00366
0.00488
0.00122
0
0.00122
-0.00244
0
0.00244
0.00244
0.0061
0.0061
0.0061
0.00732
0.00488
0.0061
0.00366
0.00366
0.00366
0.00244
0.00488
0.00488
0.00732
0.00732
0.00854
0.01099
0.00854
0.00977
0.00854
0.0061
0.00854
0.00488
0.00366
0.00488
0.00854
0.0061
0.00488
0.00488
0.00732
0.00366
0.00366
0
-0.00244
-0.00488
-0.01099
-0.01099
-0.01709
-0.02197
-0.02563
-0.03662
-0.03906
-0.04883
-0.05371
-0.05737
-0.06348
-0.0647
-0.0708
-0.07568
-0.07935
-0.08545
-0.08911
-0.09644
-0.1001
-0.10254
-0.10742
-0.10864
-0.11475
-0.11719
-0.12085
-0.12817
-0.12817
-0.13672
-0.13794
-0.13916
-0.14648
-0.14526
-0.15137
-0.15625
-0.16235
-0.1709
-0.177
-0.18433
-0.19165
-0.19775
-0.20386
-0.20386
-0.20874
-0.20996
-0.20996
-0.2124
-0.20752
-0.2124
-0.20996
-0.20874
-0.2124
-0.21362
-0.21851
-0.22217
-0.22827
-0.23804
-0.24658
-0.26245
-0.27954
-0.29541
-0.31616
-0.33691
-0.354
-0.37109
-0.38818
-0.40405
-0.41382
-0.42847
-0.43457
-0.43823
-0.44189
-0.43579
-0.42847
-0.41504
-0.39917
-0.38452
-0.35522
-0.33325
-0.30762
-0.27832
-0.25391
-0.22461
-0.19653
-0.16602
-0.13672
-0.11475
-0.08911
-0.07568
-0.05859
-0.04395
-0.03906
-0.0293
-0.02441
-0.02197
-0.02075
-0.02197
-0.02563
-0.03296
-0.03906
-0.0415
-0.04639
-0.05249
-0.05371
-0.05737
-0.06226
-0.06714
-0.06714
-0.07202
-0.07202
-0.06958
-0.0708
-0.06592
-0.06714
-0.0647
-0.06348
-0.06836
-0.06226
-0.06714
-0.0708
-0.06714
-0.06958
-0.06958
-0.0708
-0.0708
-0.06958
-0.06958
-0.06226
-0.06226
-0.05615
-0.04639
-0.04761
-0.04028
-0.03784
-0.02686
-0.02075
-0.01587
-0.0061
-0.00244
0.00122
0.00977
0.01343
0.01953
0.02197
0.02319
0.02441
0.02075
0.01953
0.01831
0.01831
0.01587
0.01709
0.02075
0.01709
0.01709
0.01465
0.00854
0.00854
0.00122
-0.00366
-0.00732
-0.01709
-0.01953
-0.02563
-0.03296
-0.0354
-0.0415
-0.04639
-0.05127
-0.05859
-0.06348
-0.07202
-0.07568
-0.08423
-0.08911
-0.09277
-0.1001
-0.10132
-0.1062
-0.1123
-0.11353
-0.12085
-0.12085
-0.12451
-0.12695
-0.12695
-0.13062
-0.13062
-0.1355
-0.13672
-0.13794
-0.13916
-0.13794
-0.1416
-0.14038
-0.13672
-0.14526
-0.14282
-0.15137
-0.14893
-0.14771
-0.15137
-0.14893
-0.14893
-0.15015
-0.15015
-0.15503
-0.15503
-0.16113
-0.16602
-0.16968
-0.177
-0.17944
-0.18921
-0.19165
-0.19653
-0.19531
-0.19165
-0.19531
-0.19409
-0.19287
-0.19775
-0.19653
-0.19653
-0.19287
-0.18555
-0.17944
-0.16357
-0.15137
-0.1355
-0.11475
-0.09521
-0.07446
-0.05249
-0.0293
-0.00977
0.01099
0.03418
0.05005
0.06592
0.08301
0.09033
0.10254
0.10986
0.11475
0.11841
0.11841
0.12085
0.11719
0.11841
0.11475
0.11108
0.10864
0.10376
0.09766
0.08911
0.08789
0.08545
0.0769
0.07202
0.06958
0.06226
0.06104
0.05493
0.05127
0.04883
0.04395
0.04517
0.0415
0.0415
0.04272
0.0415
0.04028
0.04517
0.04883
0.05005
0.05005
0.05493
0.05127
0.05127
0.05493
0.05249
0.05493
0.05249
0.05249
0.05249
0.05005
0.05249
0.05005
0.04639
0.05127
0.05005
0.05005
0.05005
0.05005
0.05005
0.04761
0.05249
0.04761
0.05005
0.04639
0.04028
0.03906
0.0354
0.03174
0.0293
0.01953
0.02319
0.01709
0.01221
0.01221
0.0061
0.0061
0.00488
0.00244
0
-0.00488
-0.00488
-0.01343
-0.01709
-0.01587
-0.02563
-0.02686
-0.0354
-0.03418
-0.03784
-0.04517
-0.04395
-0.04883
-0.05249
-0.05249
-0.05371
-0.05371
-0.05615
-0.05737
-0.05737
-0.06104
-0.06104
-0.0647
-0.06592
-0.06592
-0.06714
-0.0647
-0.06592
-0.06348
-0.06104
-0.0647
-0.06104
-0.06592
-0.06836
-0.06836
-0.07202
-0.06958
-0.07202
-0.0769
-0.07568
-0.08179
-0.08179
-0.08911
-0.09277
-0.09521
-0.10254
-0.10498
-0.11475
-0.12085
-0.11963
-0.13062
-0.12939
-0.13672
-0.13428
-0.13306
-0.13672
-0.13428
-0.1355
-0.13672
-0.1355
-0.13794
-0.13428
-0.13306
-0.12817
-0.11841
-0.10864
-0.09766
-0.08301
-0.06958
-0.05859
-0.04395
-0.02686
-0.01709
-0.00244
0.01465
0.02563
0.0415
0.05371
0.06226
0.07202
0.07568
0.08423
0.08423
0.08911
0.08911
0.08789
0.08911
0.08911
0.09155
0.09277
0.09277
0.09766
0.09277
0.09644
0.1001
0.09644
0.09766
0.09399
0.08911
0.08789
0.08301
0.08423
0.08057
0.07935
0.08057
0.07813
0.08179
0.08179
0.08423
0.08423
0.08545
0.08911
0.08545
0.08545
0.08545
0.08301
0.08423
0.08423
0.08423
0.08667
0.08423
0.08789
0.08545
0.08057
0.08545
0.08301
0.08423
0.08423
0.08545
0.08667
0.08301
0.08423
0.0769
0.07568
0.07813
0.07202
0.07446
0.06958
0.07568
0.0769
0.07446
0.07813
0.07568
0.07568
0.07813
0.07568
0.0769
0.07324
0.07446
0.06958
0.0647
0.06348
0.05737
0.05249
0.04883
0.0415
0.03662
0.02808
0.02197
0.01587
0.00488
0.00122
-0.00732
-0.01465
-0.01709
-0.02075
-0.02808
-0.03296
-0.0415
-0.04395
-0.05249
-0.05615
-0.06592
-0.07202
-0.07568
-0.08179
-0.08301
-0.09033
-0.09155
-0.09277
-0.09644
-0.09521
-0.10254
-0.1001
-0.09766
-0.10376
-0.09766
-0.09888
-0.09888
-0.09521
-0.09766
-0.09521
-0.09888
-0.1001
-0.10132
-0.10498
-0.10498
-0.11108
-0.11353
-0.11841
-0.12451
-0.12695
-0.1355
-0.13672
-0.1355
-0.13916
-0.1355
-0.1355
-0.13306
-0.12939
-0.12695
-0.12085
-0.11963
-0.11108
-0.1062
-0.10132
-0.09155
-0.0769
-0.06104
-0.04395
-0.02808
-0.00854
0.00488
0.02197
0.04028
0.05493
0.07568
0.09766
0.10864
0.12451
0.12939
0.14282
0.14648
0.14648
0.15259
0.14771
0.14526
0.1416
0.13794
0.13428
0.12939
0.12939
0.12207
0.12085
0.11963
0.1123
0.10986
0.10254
0.09521
0.09155
0.08301
0.08179
0.0769
0.0708
0.0708
0.06714
0.0647
0.0647
0.06348
0.06104
0.05615
0.05615
0.05005
0.04883
0.04883
0.0415
0.0415
0.04272
0.0354
0.0354
0.02686
0.02808
0.01953
0.01221
0.00977
0.00244
0
-0.00366
-0.00488
-0.00488
-0.0061
-0.00244
-0.00366
-0.00244
0
-0.00244
0.00122
-0.00366
0.00122
0.00366
0.00122
0.0061
0.00244
0.00244
0.00366
0.00244
0.00122
0
0.00244
0.00122
0
0.00122
-0.00244
-0.00488
-0.00732
-0.01099
-0.01099
-0.01587
-0.01709
-0.02075
-0.02686
-0.02808
-0.03418
-0.0415
-0.04272
-0.04883
-0.05615
-0.06226
-0.0708
-0.07202
-0.07935
-0.08179
-0.08911
-0.09399
-0.09766
-0.10376
-0.10498
-0.1123
-0.11353
-0.1123
-0.11963
-0.11719
-0.12451
-0.12085
-0.11963
-0.12207
-0.11963
-0.12085
-0.12573
-0.12573
-0.13062
-0.13062
-0.1355
-0.13672
-0.13672
-0.14038
-0.14038
-0.14038
-0.14038
-0.14282
-0.14282
-0.1416
-0.14771
-0.14771
-0.14893
-0.15381
-0.15381
-0.15747
-0.15991
-0.15991
-0.16479
-0.16357
-0.16846
-0.16968
-0.16724
-0.16724
-0.16113
-0.15503
-0.14648
-0.13428
-0.12329
-0.10498
-0.09277
-0.07568
-0.05859
-0.04517
-0.02686
-0.01587
0.00366
0.02075
0.0293
0.04761
0.05493
0.06348
0.07202
0.07568
0.07935
0.08057
0.08179
0.08057
0.07568
0.07446
0.06592
0.06104
0.05859
0.05005
0.04761
0.04028
0.0354
0.03174
0.02197
0.01709
0.00977
0.00366
0.00366
-0.00122
-0.00244
-0.00122
-0.00244
0
-0.00244
0.00122
-0.00366
-0.00366
0.00122
-0.00244
0.00366
0.0061
0.00732
0.01343
0.01099
0.01709
0.01831
0.02075
0.02686
0.02686
0.03174
0.03296
0.0354
0.03784
0.03784
0.04395
0.0415
0.04395
0.05005
0.04639
0.04883
0.04761
0.04639
0.04517
0.0354
0.03418
0.02686
0.01953
0.01587
0.00854
0.00488
-0.00244
-0.00732
-0.00977
-0.01587
-0.01465
-0.02441
-0.0293
-0.03418
-0.04395
-0.05005
-0.06226
-0.0708
-0.0769
-0.09033
-0.09644
-0.11108
-0.12085
-0.12817
-0.1355
-0.14282
-0.14893
-0.15747
-0.15991
-0.16724
-0.17456
-0.17822
-0.18066
-0.18188
-0.18433
-0.18066
-0.18311
-0.18188
-0.177
-0.17944
-0.17456
-0.16846
-0.16968
-0.16235
-0.16235
-0.15503
-0.15259
-0.15259
-0.14404
-0.14282
-0.13916
-0.13916
-0.13672
-0.13428
-0.13428
-0.13062
-0.13184
-0.12695
-0.12329
-0.12207
-0.11475
-0.11719
-0.11719
-0.11475
-0.11719
-0.11719
-0.11719
-0.11719
-0.11475
-0.11719
-0.11719
-0.11841
-0.11841
-0.11841
-0.11963
-0.11841
-0.11597
-0.1123
-0.10254
-0.1001
-0.08545
-0.07568
-0.06104
-0.04272
-0.02808
-0.0061
0.01221
0.0293
0.04761
0.06104
0.08057
0.09277
0.10376
0.11353
0.11719
0.12207
0.12329
0.12451
0.12939
0.11963
0.12207
0.11841
0.11353
0.11108
0.1001
0.09888
0.09155
0.08423
0.08301
0.07446
0.07324
0.06836
0.06592
0.06714
0.0647
0.06958
0.06714
0.06958
0.07202
0.0708
0.07446
0.06958
0.0769
0.08057
0.08057
0.08545
0.08789
0.08911
0.09277
0.09155
0.09399
0.09399
0.1001
0.09644
0.09399
0.08911
0.09033
0.08789
0.08667
0.08423
0.08545
0.08057
0.08179
0.08545
0.08423
0.08911
0.09399
0.09155
0.09521
0.09033
0.09888
0.09644
0.09644
0.1001
0.09888
0.09888
0.09766
0.09888
0.09766
0.09521
0.10254
0.09399
0.09277
0.08911
0.09033
0.09033
0.08667
0.08789
0.08911
0.08545
0.08911
0.08545
0.08423
0.08545
0.08423
0.08057
0.0769
0.07202
0.07446
0.0708
0.0708
0.06592
0.06348
0.05981
0.05249
0.04883
0.0415
0.03662
0.03906
0.02808
0.02686
0.01709
0.01953
0.02075
0.01465
0.01831
0.01587
0.01587
0.01831
0.01831
0.02197
0.02441
0.02563
0.02686
0.02686
0.02808
0.02686
0.02686
0.02563
0.02441
0.02563
0.02075
0.02197
0.02197
0.01709
0.01953
0.01587
0.01343
0.01343
0.00732
0.01099
0.0061
0.00488
0.01099
0.01221
0.02075
0.02686
0.03662
0.05005
0.06104
0.07813
0.08911
0.10742
0.12085
0.1355
0.15137
0.16235
0.17822
0.19165
0.19897
0.2124
0.21729
0.22339
0.23071
0.23193
0.23682
0.23804
0.23926
0.24048
0.23682
0.24048
0.23682
0.23682
0.23804
0.23438
0.2356
0.23804
0.22827
0.22705
0.21606
0.21851
0.21118
0.20874
0.20996
0.20874
0.21118
0.21118
0.21118
0.2124
0.21118
0.2124
0.21118
0.2124
0.21362
0.21362
0.21729
0.2124
0.21484
0.21606
0.21484
0.22339
0.22827
0.2356
0.24536
0.24658
0.25024
0.25146
0.25635
0.25269
0.24902
0.24414
0.2417
0.23804
0.23315
0.22705
0.22217
0.21484
0.21118
0.20996
0.20264
0.20142
0.19775
0.19287
0.19043
0.18433
0.18188
0.17578
0.16968
0.16846
0.16235
0.15869
0.15137
0.14526
0.14038
0.13428
0.12817
0.12207
0.11475
0.10498
0.09888
0.09399
0.08179
0.0769
0.0708
0.06104
0.05981
0.05127
0.04639
0.04395
0.03662
0.0354
0.0293
0.0293
0.02319
0.01709
0.00977
0.0061
0
-0.00732
-0.01587
-0.01831
-0.02808
-0.03296
-0.03418
-0.03906
-0.03784
-0.04272
-0.04272
-0.0415
-0.04272
-0.03662
-0.03784
-0.03906
-0.03662
-0.03906
-0.04028
-0.0415
-0.04272
-0.04272
-0.04639
-0.04639
-0.05371
-0.05737
-0.05737
-0.0647
-0.06226
-0.0647
-0.0647
-0.06348
-0.06348
-0.0647
-0.06714
-0.06836
-0.06592
-0.06836
-0.06592
-0.05981
-0.05371
-0.04517
-0.0354
-0.01831
-0.0061
0.01099
0.03052
0.04517
0.06592
0.07935
0.10132
0.12085
0.1355
0.15869
0.17334
0.18921
0.20264
0.20996
0.21606
0.21606
0.21729
0.21606
0.20996
0.21118
0.20264
0.2002
0.19653
0.18799
0.18677
0.177
0.17212
0.16846
0.15991
0.15625
0.14771
0.13794
0.1355
0.12939
0.12817
0.12207
0.11963
0.11475
0.10742
0.10498
0.09521
0.09033
0.08545
0.08057
0.07935
0.07202
0.07202
0.07324
0.0708
0.07446
0.07202
0.0708
0.07202
0.06836
0.06836
0.0647
0.06104
0.0647
0.06348
0.06348
0.06348
0.0647
0.06592
0.0647
0.06836
0.06836
0.0708
0.07568
0.07446
0.07935
0.07935
0.07446
0.07446
0.06592
0.06348
0.05493
0.04639
0.04028
0.03052
0.02686
0.01831
0.01343
0.00977
0.00366
0.00732
0.00122
0
-0.00244
-0.0061
-0.0061
-0.01343
-0.01709
-0.01953
-0.02686
-0.02686
-0.03052
-0.03296
-0.03296
-0.03784
-0.03662
-0.0415
-0.04517
-0.04639
-0.05127
-0.05371
-0.05615
-0.05615
-0.05859
-0.06226
-0.06226
-0.06958
-0.07324
-0.0769
-0.08179
-0.08423
-0.08789
-0.08911
-0.09033
-0.09399
-0.09033
-0.09277
-0.09399
-0.09155
-0.09521
-0.09521
-0.09644
-0.09888
-0.09888
-0.1001
-0.09888
-0.09888
-0.1001
-0.10132
-0.10376
-0.10376
-0.10986
-0.11108
-0.1123
-0.11841
-0.11719
-0.12207
-0.12451
-0.12451
-0.12939
-0.12695
-0.12817
-0.13184
-0.12817
-0.13184
-0.13184
-0.13672
-0.13672
-0.13672
-0.1355
-0.12573
-0.11963
-0.1062
-0.08545
-0.07935
-0.06226
-0.05493
-0.03662
-0.02197
-0.01099
0.00732
0.02319
0.0354
0.04639
0.05249
0.06348
0.06958
0.0769
0.08301
0.08667
0.09155
0.09399
0.09399
0.10132
0.09521
0.1001
0.09888
0.1001
0.10376
0.09888
0.10498
0.10132
0.09766
0.09399
0.08667
0.08301
0.07568
0.07324
0.0708
0.0708
0.0769
0.07324
0.07568
0.07935
0.08057
0.08423
0.08179
0.08423
0.08789
0.08789
0.09155
0.09155
0.09155
0.09399
0.09033
0.09399
0.09277
0.09521
0.09888
0.1001
0.1001
0.1001
0.09888
0.09888
0.09521
0.09888
0.09644
0.09766
0.09888
0.09521
0.09766
0.09399
0.09277
0.09277
0.08911
0.09399
0.09033
0.08911
0.09033
0.08667
0.08545
0.08301
0.08179
0.07813
0.07446
0.0708
0.06714
0.0647
0.06104
0.05859
0.05859
0.05371
0.05249
0.05127
0.04395
0.04395
0.03662
0.03052
0.02808
0.01953
0.01953
0.01465
0.00854
0.00854
0.00244
0.00366
-0.00244
-0.00244
-0.00366
-0.0061
-0.0061
-0.00854
-0.01221
-0.01587
-0.02075
-0.02075
-0.0293
-0.03052
-0.03296
-0.03906
-0.0415
-0.04639
-0.05127
-0.05249
-0.05981
-0.06104
-0.06592
-0.06958
-0.0708
-0.07446
-0.07446
-0.07568
-0.07568
-0.0769
-0.07935
-0.0769
-0.08179
-0.08179
-0.08179
-0.08545
-0.08423
-0.08911
-0.09033
-0.09033
-0.09644
-0.09399
-0.09644
-0.09888
-0.09521
-0.09644
-0.09521
-0.09521
-0.09399
-0.09277
-0.09399
-0.09155
-0.09155
-0.09155
-0.09155
-0.09155
-0.08667
-0.08545
-0.07935
-0.06836
-0.06104
-0.04639
-0.03296
-0.02075
-0.00366
0.00732
0.02808
0.0415
0.05493
0.06958
0.08057
0.09644
0.10498
0.11841
0.12939
0.13672
0.14648
0.14893
0.15503
0.15625
0.15381
0.15747
0.15259
0.15259
0.15381
0.14648
0.15015
0.14526
0.14038
0.13916
0.13184
0.12817
0.11841
0.1123
0.10742
0.10132
0.09888
0.09399
0.09155
0.08667
0.08545
0.08789
0.08057
0.08057
0.07935
0.0769
0.07935
0.07813
0.07935
0.08301
0.08301
0.08545
0.08423
0.08301
0.08545
0.08301
0.08179
0.08301
0.08301
0.08545
0.08545
0.09155
0.08789
0.08789
0.08423
0.08057
0.07813
0.07324
0.0708
0.06836
0.06226
0.0647
0.05981
0.05737
0.05859
0.05615
0.05615
0.05493
0.05249
0.05371
0.05005
0.05005
0.04639
0.04517
0.04395
0.04028
0.03906
0.03418
0.03174
0.0293
0.02197
0.01953
0.01221
0.00732
0.0061
-0.00244
-0.00244
-0.00366
-0.00854
-0.00854
-0.01465
-0.01587
-0.02319
-0.02563
-0.02808
-0.03174
-0.03052
-0.03662
-0.04028
-0.04639
-0.05249
-0.05371
-0.06226
-0.06348
-0.0647
-0.06958
-0.0708
-0.07324
-0.07568
-0.0769
-0.08057
-0.0769
-0.08057
-0.08057
-0.07813
-0.08057
-0.07935
-0.08179
-0.08179
-0.08301
-0.08667
-0.08545
-0.09155
-0.09155
-0.08789
-0.09521
-0.09521
-0.10254
-0.09766
-0.09888
-0.1062
-0.1062
-0.1123
-0.11475
-0.11597
-0.11841
-0.11841
-0.11963
-0.11963
-0.11719
-0.11841
-0.11597
-0.11597
-0.11475
-0.11353
-0.11475
-0.11108
-0.11108
-0.10742
-0.10254
-0.1001
-0.08911
-0.08545
-0.07202
-0.05737
-0.04761
-0.0293
-0.01465
0.00122
0.01587
0.02808
0.04395
0.05615
0.0769
0.08789
0.1001
0.11108
0.12085
0.12695
0.12695
0.12817
0.12817
0.12085
0.11719
0.11475
0.10864
0.10864
0.10498
0.10254
0.10254
0.09888
0.1001
0.09644
0.09399
0.09155
0.08423
0.07935
0.07568
0.06958
0.0647
0.05981
0.05981
0.05249
0.05127
0.05005
0.04517
0.04395
0.03906
0.03662
0.03662
0.03296
0.03784
0.03418
0.03296
0.03418
0.03174
0.03296
0.03174
0.03418
0.0354
0.03662
0.04028
0.03784
0.03906
0.03662
0.03784
0.0415
0.03784
0.0415
0.0415
0.03784
0.04028
0.0354
0.03418
0.03662
0.0354
0.03784
0.03906
0.03906
0.0415
0.0415
0.04028
0.0415
0.04395
0.04517
0.04639
0.05005
0.04883
0.04761
0.04639
0.03906
0.03662
0.0354
0.02441
0.02197
0.00977
0.00977
0.00244
-0.00488
-0.00854
-0.01953
-0.02441
-0.03418
-0.04028
-0.04272
-0.05005
-0.04639
-0.05127
-0.04639
-0.04517
-0.0415
-0.03784
-0.04272
-0.04272
-0.04395
-0.04517
-0.0415
-0.03906
-0.03784
-0.03418
-0.03418
-0.0293
-0.02808
-0.02686
-0.02075
-0.02075
-0.02197
-0.01953
-0.01953
-0.02197
-0.02441
-0.02441
-0.03052
-0.03296
-0.03418
-0.04028
-0.04272
-0.04761
-0.05249
-0.05615
-0.05981
-0.06104
-0.06592
-0.07202
-0.0708
-0.07568
-0.07813
-0.08179
-0.08301
-0.08423
-0.08789
-0.08789
-0.09277
-0.09399
-0.09521
-0.09888
-0.09888
-0.10132
-0.10132
-0.1001
-0.10132
-0.09766
-0.09644
-0.09277
-0.08545
-0.07568
-0.06714
-0.05615
-0.04761
-0.0293
-0.01709
-0.00244
0.00977
0.02319
0.03662
0.04883
0.06348
0.0769
0.09033
0.10498
0.10986
0.12207
0.12329
0.12817
0.12695
0.11841
0.11841
0.11353
0.10986
0.10742
0.10376
0.10376
0.09888
0.09766
0.09521
0.09033
0.08789
0.08057
0.0769
0.06714
0.06348
0.06348
0.05493
0.05371
0.05249
0.04761
0.05005
0.04761
0.04639
0.04639
0.04272
0.04517
0.0415
0.04272
0.04517
0.04272
0.04395
0.04395
0.04517
0.04517
0.04395
0.04761
0.04395
0.04395
0.04517
0.0415
0.0415
0.03662
0.0354
0.03418
0.02686
0.02808
0.02197
0.01709
0.01587
0.01099
0.00977
0.00732
0.01099
0.0061
0.00366
0.00244
0.00366
0.00244
0.00244
0
0
-0.00366
-0.00366
-0.00366
-0.00977
-0.00977
-0.01343
-0.02319
-0.02808
-0.03784
-0.03784
-0.04272
-0.04761
-0.05127
-0.05615
-0.05859
-0.06592
-0.06958
-0.07446
-0.07935
-0.08423
-0.08667
-0.08789
-0.09155
-0.09277
-0.09033
-0.09277
-0.09155
-0.08667
-0.08545
-0.07935
-0.07202
-0.07324
-0.06958
-0.07202
-0.06592
-0.06836
-0.06958
-0.06714
-0.07202
-0.07446
-0.07568
-0.07568
-0.0769
-0.08179
-0.07935
-0.08545
-0.08545
-0.08545
-0.08911
-0.08911
-0.09399
-0.09033
-0.09033
-0.09766
-0.09155
-0.09277
-0.09766
-0.09766
-0.10132
-0.10132
-0.10376
-0.10498
-0.10742
-0.11108
-0.10742
-0.11597
-0.11597
-0.11841
-0.11475
-0.10986
-0.10864
-0.10376
-0.10132
-0.10254
-0.09888
-0.10254
-0.10132
-0.09521
-0.08789
-0.08545
-0.08057
-0.07324
-0.06226
-0.05493
-0.04272
-0.03296
-0.02075
-0.00732
0.00488
0.01953
0.03052
0.04272
0.05493
0.06348
0.07813
0.08423
0.09033
0.09521
0.09277
0.09888
0.09766
0.09766
0.09766
0.09155
0.09277
0.08667
0.08423
0.08179
0.07568
0.0708
0.06714
0.06348
0.05737
0.05127
0.04883
0.03906
0.03296
0.03052
0.02319
0.02197
0.01831
0.01343
0.01221
0.0061
0.00977
0.0061
0.00366
0.00488
0.00244
0.00244
0.00122
0.00244
0.00366
0.00366
0.01099
0.00488
0.00732
0.00977
0.01343
0.01953
0.02197
0.02686
0.03174
0.03296
0.03906
0.03662
0.03662
0.03906
0.0415
0.03662
0.03662
0.03174
0.03784
0.03418
0.03662
0.0354
0.03662
0.03906
0.03784
0.0415
0.03906
0.04028
0.04272
0.03784
0.04028
0.03174
0.03296
0.03052
0.02441
0.02319
0.01953
0.01587
0.01587
0.01221
0.01465
0.01099
0.0061
0.00854
0.00488
0.00122
-0.00244
-0.00732
-0.01099
-0.01709
-0.01831
-0.02686
-0.03174
-0.03906
-0.04639
-0.04883
-0.05615
-0.05737
-0.06226
-0.0708
-0.07202
-0.08057
-0.08667
-0.09033
-0.09766
-0.10132
-0.10864
-0.10986
-0.11719
-0.12207
-0.12451
-0.12451
-0.12329
-0.12329
-0.12329
-0.12085
-0.12085
-0.12085
-0.11475
-0.12329
-0.11963
-0.12573
-0.11963
-0.11475
-0.11597
-0.10986
-0.10864
-0.1062
-0.10742
-0.11108
-0.11108
-0.11719
-0.11963
-0.12329
-0.12573
-0.12451
-0.12451
-0.11963
-0.11108
-0.10498
-0.09033
-0.08179
-0.06592
-0.04883
-0.0354
-0.01587
0.00122
0.01831
0.0354
0.05005
0.06958
0.08179
0.1001
0.10742
0.11597
0.12451
0.12939
0.13306
0.13184
0.12939
0.13184
0.12329
0.12207
0.11963
0.1123
0.10986
0.10376
0.09766
0.09521
0.08789
0.08667
0.07813
0.0708
0.06714
0.06104
0.05737
0.05371
0.05127
0.04883
0.04395
0.04395
0.03662
0.03418
0.03784
0.02808
0.0293
0.02075
0.02441
0.02319
0.01953
0.02197
0.01587
0.01343
0.01465
0.01099
0.01343
0.01343
0.01587
0.02075
0.02197
0.0293
0.03174
0.03662
0.04028
0.0415
0.04517
0.04395
0.04517
0.05005
0.04272
0.04517
0.03662
0.03662
0.0354
0.0293
0.0293
0.02563
0.02319
0.01953
0.01221
0.00977
0.00488
-0.00244
-0.00244
-0.00977
-0.01465
-0.02075
-0.02563
-0.0293
-0.0354
-0.03662
-0.04639
-0.05127
-0.05127
-0.06348
-0.0647
-0.07568
-0.07446
-0.0769
-0.08179
-0.08179
-0.08911
-0.09277
-0.09521
-0.10132
-0.10254
-0.1062
-0.10742
-0.10986
-0.11353
-0.11353
-0.11597
-0.11597
-0.11475
-0.11597
-0.1123
-0.11475
-0.11353
-0.11108
-0.11963
-0.11841
-0.12939
-0.12939
-0.13062
-0.1355
-0.13428
-0.13306
-0.13062
-0.12451
-0.12329
-0.11597
-0.11475
-0.11353
-0.10742
-0.10864
-0.1062
-0.10376
-0.09888
-0.08911
-0.07813
-0.06226
-0.05127
-0.03296
-0.01343
0.00122
0.01953
0.03418
0.05371
0.07202
0.08789
0.10986
0.12573
0.14282
0.16113
0.17212
0.18433
0.19165
0.19775
0.20264
0.20264
0.20752
0.20264
0.20386
0.20142
0.2002
0.2002
0.19653
0.19653
0.19531
0.18921
0.18799
0.17944
0.17212
0.16968
0.16357
0.15869
0.15259
0.14282
0.14038
0.13306
0.12939
0.12207
0.11963
0.11719
0.11597
0.11597
0.11353
0.11353
0.11353
0.10742
0.10864
0.09888
0.10132
0.10254
0.1001
0.10254
0.10376
0.10742
0.11108
0.11108
0.11353
0.11108
0.10986
0.11353
0.11353
0.11353
0.11475
0.11719
0.11963
0.11963
0.12451
0.12207
0.12451
0.13062
0.12573
0.13062
0.12695
0.13428
0.1355
0.12939
0.13184
0.12451
0.12207
0.11963
0.1123
0.1123
0.10742
0.10376
0.10132
0.09521
0.09155
0.08423
0.07813
0.07324
0.06714
0.06348
0.05737
0.05493
0.05859
0.04883
0.05005
0.04028
0.0415
0.04028
0.0354
0.0354
0.03052
0.02563
0.02197
0.01587
0.01343
0.00732
0
0.00122
-0.00488
-0.00854
-0.01221
-0.01465
-0.01709
-0.01831
-0.01587
-0.02075
-0.01953
-0.01831
-0.02319
-0.02319
-0.02808
-0.03052
-0.0354
-0.04272
-0.04395
-0.05127
-0.05371
-0.05493
-0.05493
-0.05249
-0.04883
-0.04517
-0.03906
-0.03784
-0.0354
-0.0354
-0.03296
-0.02686
-0.02197
-0.00854
0.00122
0.01587
0.03174
0.04517
0.0647
0.07568
0.09644
0.1123
0.12329
0.14038
0.15259
0.16602
0.18066
0.19165
0.20752
0.21729
0.22827
0.23804
0.24414
0.2478
0.24902
0.25146
0.25146
0.2478
0.24902
0.2417
0.23926
0.23438
0.22705
0.22217
0.21362
0.2063
0.19897
0.19165
0.18311
0.16846
0.15625
0.15137
0.14282
0.1355
0.12939
0.12329
0.11841
0.1123
0.1123
0.10864
0.10742
0.10742
0.10986
0.11597
0.11963
0.12451
0.12939
0.12939
0.13672
0.13672
0.1416
0.15015
0.15503
0.15991
0.16113
0.16113
0.16724
0.16724
0.16968
0.16846
0.16602
0.16235
0.15869
0.15625
0.15137
0.14893
0.14771
0.1416
0.14282
0.1355
0.13306
0.13062
0.12329
0.12329
0.11963
0.11719
0.11719
0.11353
0.11353
0.10986
0.10864
0.10498
0.1001
0.09399
0.08911
0.08423
0.07813
0.0708
0.06714
0.05615
0.05005
0.04517
0.0354
0.0293
0.02441
0.01465
0.00977
-0.00122
0.00244
-0.0061
-0.01099
-0.01221
-0.01587
-0.01709
-0.01953
-0.02075
-0.02319
-0.02686
-0.0293
-0.03296
-0.03296
-0.03296
-0.03296
-0.03052
-0.03418
-0.0354
-0.04028
-0.04639
-0.04883
-0.05493
-0.06226
-0.06714
-0.07935
-0.08057
-0.08789
-0.09399
-0.09766
-0.10132
-0.10132
-0.10742
-0.10864
-0.11353
-0.11841
-0.12573
-0.12695
-0.12939
-0.13062
-0.13184
-0.12451
-0.12207
-0.11353
-0.10132
-0.09277
-0.07568
-0.06104
-0.0415
-0.02197
-0.00488
0.01953
0.0354
0.05371
0.07324
0.09033
0.10864
0.12329
0.1416
0.15015
0.15869
0.16846
0.17212
0.177
0.177
0.18066
0.18311
0.17944
0.177
0.17334
0.16113
0.15747
0.14526
0.13672
0.12939
0.12085
0.11475
0.10498
0.09766
0.09033
0.07935
0.0708
0.05981
0.05371
0.04639
0.04028
0.03784
0.03174
0.03052
0.02563
0.02441
0.0293
0.02808
0.03296
0.03906
0.04028
0.04395
0.04517
0.04883
0.05127
0.05005
0.05249
0.04883
0.04517
0.04761
0.04517
0.04395
0.04272
0.0415
0.03662
0.03296
0.03296
0.02686
0.02686
0.02686
0.02563
0.0293
0.02808
0.03418
0.0354
0.0354
0.0415
0.03784
0.03662
0.03662
0.03296
0.03052
0.02686
0.02808
0.02319
0.01709
0.01465
0.01099
0.00854
0.0061
0.00122
0
-0.0061
-0.00854
-0.01343
-0.02075
-0.02441
-0.03052
-0.04028
-0.04517
-0.05493
-0.05493
-0.05859
-0.06226
-0.06592
-0.0708
-0.07202
-0.0769
-0.08179
-0.08179
-0.08423
-0.08545
-0.08911
-0.08911
-0.09155
-0.09155
-0.08667
-0.08911
-0.08667
-0.08545
-0.08789
-0.08789
-0.08667
-0.09277
-0.09521
-0.10376
-0.10254
-0.10986
-0.11475
-0.11597
-0.11963
-0.11597
-0.1123
-0.10498
-0.09521
-0.08545
-0.0708
-0.05859
-0.0415
-0.02441
-0.00854
0.01221
0.02563
0.04517
0.06348
0.07813
0.09766
0.10864
0.11841
0.12817
0.12817
0.1355
0.1355
0.13428
0.1355
0.13062
0.12939
0.12329
0.11963
0.11475
0.10986
0.10864
0.10132
0.09888
0.09399
0.08667
0.08545
0.07568
0.07446
0.0708
0.06592
0.06348
0.05859
0.05493
0.05249
0.04761
0.04517
0.03906
0.0354
0.03296
0.02686
0.02319
0.02197
0.02197
0.02197
0.02075
0.02563
0.02197
0.02563
0.02808
0.03174
0.03662
0.03662
0.03906
0.03906
0.0354
0.03784
0.03418
0.03174
0.03174
0.0293
0.03052
0.03174
0.03784
0.0354
0.0354
0.03662
0.03906
0.0415
0.0415
0.04028
0.0415
0.03662
0.03296
0.02808
0.01953
0.01587
0.0061
-0.00366
-0.00977
-0.02197
-0.02686
-0.03662
-0.04272
-0.04883
-0.05859
-0.06104
-0.06836
-0.07446
-0.0769
-0.08301
-0.08667
-0.09033
-0.09277
-0.09766
-0.10132
-0.10254
-0.11108
-0.11475
-0.11719
-0.12329
-0.12207
-0.12085
-0.12695
-0.12695
-0.13428
-0.12573
-0.12573
-0.12329
-0.11841
-0.11475
-0.11108
-0.10864
-0.1062
-0.10742
-0.1123
-0.11475
-0.12085
-0.12573
-0.13306
-0.13428
-0.13306
-0.13306
-0.12817
-0.12085
-0.11475
-0.1001
-0.09033
-0.07324
-0.05615
-0.04395
-0.02319
-0.00977
0.00366
0.01831
0.03174
0.04761
0.05371
0.0647
0.06958
0.07324
0.07935
0.07446
0.07446
0.07568
0.06958
0.0708
0.0647
0.0647
0.0647
0.05615
0.06104
0.05981
0.06104
0.06348
0.06348
0.06714
0.06714
0.0708
0.07568
0.08057
0.09033
0.08911
0.09521
0.09521
0.1001
0.10498
0.1001
0.09888
0.09521
0.08789
0.08301
0.07446
0.06592
0.05981
0.05005
0.05005
0.04028
0.03296
0.03052
0.02441
0.01831
0.01221
0.01099
0.00732
0.00732
0.00977
0.00854
0.00977
0.00977
0.00977
0.01221
0.00732
0.00977
0.00854
0.00488
0.00977
0.00854
0.00854
0.01343
0.01831
0.02075
0.02441
0.02563
0.0354
0.03784
0.04395
0.04517
0.04639
0.04639
0.04517
0.04883
0.04395
0.04272
0.03906
0.03174
0.0293
0.01587
0.00977
0.00244
-0.00732
-0.01099
-0.01709
-0.02075
-0.02319
-0.02686
-0.02563
-0.0293
-0.0293
-0.02563
-0.02441
-0.02075
-0.01831
-0.01465
-0.01465
-0.01465
-0.01099
-0.01343
-0.01221
-0.00854
-0.01465
-0.01343
-0.02197
-0.02197
-0.02808
-0.04028
-0.04395
-0.05493
-0.05859
-0.05981
-0.05859
-0.05249
-0.04639
-0.03662
-0.01953
-0.00244
0.01953
0.03784
0.05981
0.08423
0.1062
0.13306
0.15259
0.17578
0.19775
0.20874
0.22705
0.23438
0.25024
0.26001
0.26611
0.27588
0.27954
0.28442
0.28931
0.29053
0.29663
0.29663
0.30029
0.30151
0.30029
0.30396
0.30029
0.30029
0.29297
0.28687
0.2832
0.271
0.26489
0.25879
0.24902
0.24658
0.24048
0.23926
0.2356
0.23682
0.23315
0.23071
0.22705
0.23193
0.23071
0.23315
0.23438
0.23926
0.24048
0.24414
0.25024
0.25024
0.25146
0.25146
0.24902
0.2478
0.24048
0.23926
0.23682
0.23193
0.2356
0.23193
0.23071
0.23071
0.22583
0.22949
0.22583
0.22339
0.22217
0.21606
0.2124
0.20142
0.19409
0.18677
0.17944
0.18311
0.17334
0.17334
0.16846
0.17212
0.17212
0.16602
0.16357
0.16113
0.15625
0.15503
0.15015
0.15015
0.14893
0.14526
0.14771
0.14526
0.14648
0.15015
0.15015
0.15137
0.14771
0.14771
0.1416
0.1355
0.12817
0.12085
0.11353
0.10498
0.09644
0.09155
0.08301
0.07813
0.07202
0.0647
0.06348
0.06348
0.05737
0.05859
0.05371
0.05981
0.05737
0.05737
0.05737
0.05249
0.05249
0.04517
0.04028
0.0354
0.03052
0.02686
0.02075
0.01831
0.01099
0.00488
0.00122
-0.01099
-0.01953
-0.02686
-0.03784
-0.04395
-0.05249
-0.06104
-0.0647
-0.07324
-0.06958
-0.07324
-0.07324
-0.07446
-0.08057
-0.08301
-0.09033
-0.09155
-0.09644
-0.09644
-0.09033
-0.08301
-0.06958
-0.05493
-0.03784
-0.01831
0.00244
0.02441
0.04517
0.06714
0.09399
0.11108
0.13916
0.16357
0.18311
0.20508
0.22095
0.2356
0.24902
0.25635
0.26611
0.26978
0.27832
0.2832
0.28687
0.29175
0.29419
0.29907
0.30029
0.30151
0.30518
0.29907
0.30518
0.30396
0.29907
0.30029
0.29785
0.29663
0.29541
0.29053
0.29175
0.28809
0.28809
0.28931
0.28931
0.29053
0.29175
0.29663
0.29663
0.29785
0.30273
0.29907
0.30029
0.29907
0.29541
0.29419
0.28809
0.28687
0.2832
0.2771
0.27588
0.271
0.26855
0.26733
0.26611
0.26733
0.26611
0.26489
0.26245
0.26001
0.26001
0.25513
0.25513
0.25024
0.2478
0.24536
0.24414
0.2417
0.2356
0.22827
0.22461
0.21484
0.21118
0.20508
0.19653
0.19165
0.18433
0.17822
0.17212
0.16235
0.16235
0.15503
0.15259
0.15015
0.14526
0.14404
0.13916
0.14038
0.12817
0.11963
0.11108
0.10132
0.09277
0.08179
0.0708
0.06348
0.05249
0.04517
0.0354
0.02686
0.02441
0.01343
0.00977
0.00244
-0.00732
-0.01099
-0.01953
-0.02441
-0.03052
-0.03662
-0.04028
-0.04639
-0.05249
-0.05371
-0.05737
-0.06104
-0.0647
-0.06592
-0.07202
-0.07813
-0.08057
-0.09033
-0.09399
-0.1001
-0.10498
-0.10742
-0.11719
-0.11841
-0.12451
-0.13184
-0.13184
-0.14038
-0.14648
-0.15137
-0.15747
-0.16479
-0.17334
-0.18066
-0.18311
-0.18921
-0.19409
-0.20264
-0.20752
-0.21362
-0.22095
-0.22583
-0.23315
-0.23438
-0.23926
-0.2356
-0.23071
-0.23315
-0.22949
-0.23071
-0.23438
-0.2356
-0.23926
-0.24048
-0.24048
-0.2417
-0.23193
-0.22949
-0.22217
-0.21118
-0.2002
-0.18555
-0.1709
-0.15137
-0.1355
-0.11719
-0.09644
-0.07568
-0.05249
-0.03174
-0.01099
0.01221
0.03174
0.05615
0.07568
0.09033
0.10742
0.11353
0.12329
0.12695
0.12329
0.12939
0.12695
0.12329
0.12695
0.12451
0.12451
0.11963
0.11841
0.11353
0.10742
0.10498
0.09766
0.09644
0.09155
0.08789
0.09033
0.08545
0.08667
0.08789
0.08667
0.09277
0.08789
0.08911
0.08911
0.08423
0.08423
0.08057
0.0769
0.07935
0.07568
0.07446
0.0708
0.06958
0.0647
0.06104
0.06104
0.05493
0.05615
0.05859
0.05127
0.05371
0.04761
0.05005
0.04639
0.04272
0.04517
0.04028
0.03906
0.03906
0.0354
0.03784
0.03662
0.03662
0.03784
0.03662
0.03662
0.03174
0.03052
0.02563
0.02075
0.01831
0.00977
0.0061
-0.00366
-0.00854
-0.01221
-0.02319
-0.02563
-0.03052
-0.03784
-0.03906
-0.04517
-0.04761
-0.05127
-0.05249
-0.05737
-0.0647
-0.0708
-0.07324
-0.07813
-0.07935
-0.08301
-0.08179
-0.08667
-0.09155
-0.09155
-0.10376
-0.10864
-0.11963
-0.12329
-0.12695
-0.13428
-0.13672
-0.14282
-0.15015
-0.15381
-0.16602
-0.1709
-0.17822
-0.18555
-0.18799
-0.19409
-0.19653
-0.19897
-0.20264
-0.20508
-0.2124
-0.21362
-0.21973
-0.22339
-0.22705
-0.23193
-0.23315
-0.23926
-0.24292
-0.24414
-0.25269
-0.25513
-0.25757
-0.26245
-0.26123
-0.26245
-0.26611
-0.26855
-0.2771
-0.27466
-0.2832
-0.28687
-0.29297
-0.30273
-0.31006
-0.32104
-0.32715
-0.33813
-0.34546
-0.35034
-0.35278
-0.35156
-0.35156
-0.35156
-0.3479
-0.34912
-0.34668
-0.3418
-0.34668
-0.34302
-0.34424
-0.33325
-0.32349
-0.3125
-0.29663
-0.28442
-0.26611
-0.25146
-0.23315
-0.21118
-0.19287
-0.17212
-0.14771
-0.12573
-0.10498
-0.08179
-0.05859
-0.04272
-0.02686
-0.00977
-0.00244
0.00977
0.01587
0.01709
0.02197
0.01587
0.01953
0.01587
0.00977
0.01099
0.00244
0
-0.0061
-0.00977
-0.01343
-0.01587
-0.01465
-0.01709
-0.01709
-0.01709
-0.01709
-0.01343
-0.01343
-0.01221
-0.00732
-0.00854
-0.00488
-0.00244
-0.00244
0.00244
0
0.00366
0.00122
-0.00366
-0.0061
-0.01221
-0.01343
-0.02075
-0.02319
-0.02563
-0.0293
-0.03052
-0.02808
-0.02808
-0.02563
-0.02686
-0.02319
-0.02441
-0.02197
-0.01465
-0.01709
-0.01343
-0.01343
-0.01099
-0.00732
-0.00732
-0.00244
0
0
0.00488
0.00732
0.00488
0.00122
-0.0061
-0.00732
-0.01465
-0.01953
-0.02563
-0.03174
-0.0354
-0.04395
-0.04395
-0.05493
-0.06104
-0.06714
-0.07202
-0.07446
-0.08057
-0.08545
-0.08911
-0.1001
-0.10498
-0.10864
-0.12451
-0.13062
-0.14282
-0.14648
-0.15381
-0.15991
-0.16235
-0.16968
-0.17456
-0.17822
-0.17944
-0.18677
-0.19287
-0.19775
-0.2002
-0.20508
-0.2063
-0.2124
-0.21118
-0.21484
-0.21729
-0.21362
-0.22217
-0.22095
-0.22705
-0.22583
-0.22339
-0.22705
-0.22339
-0.22217
-0.22339
-0.21973
-0.21851
-0.22217
-0.22461
-0.22949
-0.22583
-0.23071
-0.23315
-0.23438
-0.23804
-0.23926
-0.24292
-0.24048
-0.25146
-0.25757
-0.26123
-0.26611
-0.26855
-0.27344
-0.27466
-0.27344
-0.2771
-0.27344
-0.26733
-0.271
-0.26733
-0.271
-0.26367
-0.26245
-0.25879
-0.24902
-0.24292
-0.23193
-0.22217
-0.20874
-0.19531
-0.18433
-0.17212
-0.15503
-0.13916
-0.12573
-0.1123
-0.09766
-0.08667
-0.07568
-0.06348
-0.05859
-0.04883
-0.04272
-0.04028
-0.03418
-0.03784
-0.03418
-0.03418
-0.03662
-0.03052
-0.03174
-0.03052
-0.03052
-0.0293
-0.0293
-0.03296
-0.03662
-0.04028
-0.04395
-0.04517
-0.05005
-0.05127
-0.05615
-0.05859
-0.05737
-0.05981
-0.05615
-0.05615
-0.05615
-0.05249
-0.05615
-0.05493
-0.05859
-0.06104
-0.05981
-0.06348
-0.06348
-0.06958
-0.07813
-0.08179
-0.09399
-0.10132
-0.10864
-0.11597
-0.12085
-0.12695
-0.12939
-0.13184
-0.13184
-0.13184
-0.13062
-0.12695
-0.12817
-0.12695
-0.12329
-0.12451
-0.11841
-0.11841
-0.11719
-0.11475
-0.12085
-0.12085
-0.12573
-0.13306
-0.13062
-0.13672
-0.13794
-0.13916
-0.1416
-0.13916
-0.14404
-0.14282
-0.14648
-0.14771
-0.14648
-0.15137
-0.15015
-0.15259
-0.15503
-0.15503
-0.16113
-0.16113
-0.16479
-0.16968
-0.17212
-0.17944
-0.18066
-0.18921
-0.19897
-0.19897
-0.20752
-0.21118
-0.21729
-0.22339
-0.22827
-0.23438
-0.23682
-0.24414
-0.24658
-0.25024
-0.25146
-0.25024
-0.25391
-0.25635
-0.25757
-0.26123
-0.26001
-0.26245
-0.26245
-0.26001
-0.26733
-0.26245
-0.26611
-0.26978
-0.271
-0.27588
-0.2771
-0.28076
-0.28442
-0.28442
-0.28687
-0.28931
-0.28687
-0.28687
-0.28442
-0.28564
-0.2832
-0.28564
-0.28564
-0.28198
-0.28442
-0.27832
-0.28076
-0.27222
-0.26733
-0.26855
-0.26367
-0.26611
-0.26611
-0.26245
-0.26733
-0.26733
-0.27222
-0.27832
-0.2771
-0.27954
-0.28076
-0.27588
-0.271
-0.26123
-0.25146
-0.2356
-0.22217
-0.20386
-0.18188
-0.16602
-0.14282
-0.12817
-0.10742
-0.08789
-0.07568
-0.05493
-0.04272
-0.03052
-0.01587
-0.00854
0
0.00244
0.00366
0.00488
0.00122
0
-0.00488
-0.00854
-0.01465
-0.01831
-0.01831
-0.02686
-0.0293
-0.0293
-0.0354
-0.03662
-0.03906
-0.04395
-0.04272
-0.04272
-0.03906
-0.03784
-0.03662
-0.03174
-0.03296
-0.03296
-0.03418
-0.03784
-0.03906
-0.04395
-0.04883
-0.05127
-0.05493
-0.05737
-0.06226
-0.06348
-0.06836
-0.06836
-0.06348
-0.06836
-0.0647
-0.0647
-0.05981
-0.05249
-0.05005
-0.04272
-0.04028
-0.03784
-0.03418
-0.03784
-0.03418
-0.03784
-0.04028
-0.0415
-0.04517
-0.04639
-0.05005
-0.05371
-0.05371
-0.05615
-0.05859
-0.05493
-0.05615
-0.05371
-0.05371
-0.04761
-0.04517
-0.0415
-0.0293
-0.03296
-0.02686
-0.03174
-0.03174
-0.03296
-0.0415
-0.04639
-0.05371
-0.06348
-0.06714
-0.07568
-0.07813
-0.08545
-0.09155
-0.09521
-0.09766
-0.09888
-0.10132
-0.10864
-0.11108
-0.11719
-0.12207
-0.12329
-0.12573
-0.12695
-0.13062
-0.12939
-0.13428
-0.13672
-0.13184
-0.1416
-0.14038
-0.14893
-0.14893
-0.15015
-0.15625
-0.15503
-0.15747
-0.15991
-0.15869
-0.16357
-0.16357
-0.16846
-0.17456
-0.17456
-0.18066
-0.18311
-0.18555
-0.18921
-0.18921
-0.19165
-0.19043
-0.19043
-0.19165
-0.19165
-0.19531
-0.19775
-0.20508
-0.20996
-0.21362
-0.21973
-0.21973
-0.22461
-0.21729
-0.20752
-0.20142
-0.18433
-0.16968
-0.15381
-0.13428
-0.11353
-0.09644
-0.07813
-0.06104
-0.03784
-0.02319
-0.00488
0.00977
0.02075
0.03174
0.03662
0.04517
0.04883
0.05127
0.05249
0.05249
0.05615
0.05127
0.05249
0.05493
0.05127
0.05371
0.05127
0.05127
0.05371
0.05005
0.05005
0.04639
0.04028
0.04395
0.0415
0.04272
0.04272
0.04395
0.04639
0.04639
0.05127
0.05127
0.05249
0.05737
0.05371
0.05615
0.05249
0.05493
0.05859
0.05615
0.05981
0.05981
0.05859
0.06104
0.05981
0.05737
0.05493
0.05249
0.05493
0.05127
0.05249
0.05249
0.05493
0.05493
0.05249
0.05493
0.05249
0.05249
0.05249
0.05127
0.05493
0.05249
0.05249
0.05493
0.05249
0.05615
0.05737
0.05493
0.05737
0.05249
0.05493
0.05005
0.04517
0.0415
0.0354
0.03174
0.02441
0.01953
0.01587
0.00977
0.0061
0.00244
-0.00244
-0.0061
-0.01343
-0.01465
-0.02319
-0.02808
-0.03296
-0.03662
-0.0354
-0.0415
-0.04272
-0.04272
-0.04761
-0.04761
-0.05127
-0.05737
-0.05615
-0.06104
-0.05737
-0.05737
-0.05737
-0.05249
-0.05371
-0.05371
-0.05737
-0.06104
-0.06226
-0.06592
-0.06592
-0.06592
-0.06348
-0.06348
-0.0647
-0.06226
-0.06592
-0.06714
-0.06836
-0.07324
-0.07446
-0.08301
-0.08179
-0.08179
-0.08667
-0.08301
-0.08423
-0.08423
-0.07935
-0.0769
-0.0769
-0.0769
-0.07935
-0.07568
-0.07813
-0.07813
-0.07935
-0.07935
-0.07446
-0.07202
-0.0647
-0.05249
-0.04028
-0.02563
-0.01099
0.00854
0.02197
0.03906
0.05737
0.07202
0.09033
0.10254
0.11963
0.13794
0.14648
0.16113
0.16479
0.16846
0.1709
0.16968
0.17212
0.16846
0.16724
0.16479
0.15869
0.15503
0.14893
0.14404
0.13794
0.13428
0.13062
0.12329
0.11719
0.1123
0.1001
0.09888
0.09033
0.08667
0.08667
0.07935
0.08301
0.08057
0.07935
0.08179
0.08057
0.08179
0.07935
0.07813
0.07813
0.07568
0.07446
0.0769
0.07813
0.08057
0.08057
0.08545
0.08545
0.08911
0.09521
0.09399
0.09888
0.09644
0.10254
0.1062
0.10498
0.10864
0.1062
0.10376
0.10498
0.10498
0.1001
0.09644
0.09155
0.09277
0.08789
0.08545
0.08057
0.07568
0.0708
0.06348
0.05859
0.05005
0.04517
0.03784
0.03174
0.0293
0.02319
0.01953
0.01953
0.01587
0.01709
0.01221
0.01221
0.01343
0.00732
0.00977
0.00732
0.00244
0.00366
0.00122
-0.00122
-0.00366
-0.00977
-0.00732
-0.01221
-0.01465
-0.01953
-0.02075
-0.02075
-0.02319
-0.02075
-0.02197
-0.01831
-0.01465
-0.01343
-0.00854
-0.00977
-0.00854
-0.00488
-0.0061
-0.00244
-0.00244
-0.00244
0.00244
-0.00244
0.0061
0.00366
0.00122
0.00244
-0.00244
-0.00366
-0.00732
-0.0061
-0.01099
-0.01465
-0.01465
-0.01465
-0.01221
-0.0061
0
0.00977
0.01221
0.01587
0.01709
0.01465
0.01587
0.01343
0.01465
0.01953
0.01709
0.02563
0.03052
0.03906
0.05005
0.05737
0.0708
0.07935
0.08911
0.10254
0.11108
0.12207
0.13184
0.14282
0.15259
0.15991
0.16846
0.1709
0.17212
0.17334
0.17578
0.17944
0.177
0.17944
0.18066
0.17456
0.17578
0.17212
0.16602
0.16479
0.15625
0.15503
0.15015
0.14282
0.14282
0.13672
0.1355
0.12939
0.12451
0.12207
0.11475
0.10864
0.10376
0.09766
0.09277
0.08545
0.08423
0.07813
0.0769
0.08057
0.07568
0.08179
0.08057
0.08911
0.09766
0.09888
0.1062
0.10986
0.11108
0.11719
0.11719
0.12329
0.12573
0.12695
0.12817
0.12329
0.12085
0.11475
0.11108
0.1062
0.09888
0.09644
0.09277
0.09033
0.09033
0.08911
0.09155
0.08789
0.08911
0.09277
0.08911
0.08911
0.08423
0.07935
0.07813
0.06958
0.06836
0.06104
0.05371
0.05005
0.04272
0.03662
0.0293
0.02319
0.01709
0.01099
0.0061
-0.00244
-0.00732
-0.01099
-0.01709
-0.01831
-0.02441
-0.02686
-0.02686
-0.03662
-0.0354
-0.04517
-0.04272
-0.04272
-0.04517
-0.04272
-0.04272
-0.04395
-0.0415
-0.04517
-0.0415
-0.04517
-0.04761
-0.04517
-0.04883
-0.04883
-0.05127
-0.05127
-0.05127
-0.05249
-0.05127
-0.05249
-0.05371
-0.05371
-0.05615
-0.05371
-0.05615
-0.05493
-0.04639
-0.05249
-0.04883
-0.05249
-0.05127
-0.05005
-0.05615
-0.05737
-0.06348
-0.06836
-0.0708
-0.0769
-0.0769
-0.08057
-0.08057
-0.07446
-0.07202
-0.06348
-0.05493
-0.04028
-0.02686
-0.01221
0.00854
0.02563
0.04517
0.06592
0.08301
0.10376
0.11841
0.13672
0.15381
0.16724
0.18311
0.18921
0.19653
0.20264
0.2002
0.20142
0.19653
0.19043
0.18799
0.177
0.17334
0.16479
0.15625
0.15259
0.14404
0.13672
0.13062
0.12573
0.12207
0.11597
0.11597
0.10864
0.1062
0.10132
0.1001
0.10132
0.09644
0.09644
0.09521
0.09033
0.09155
0.08667
0.08423
0.08545
0.08057
0.08301
0.08179
0.08179
0.08423
0.08301
0.08423
0.08301
0.08667
0.08423
0.08545
0.08911
0.09399
0.09888
0.10376
0.1062
0.11353
0.11597
0.12085
0.12207
0.12451
0.12817
0.12695
0.12939
0.13184
0.13062
0.1355
0.13428
0.1355
0.13916
0.1355
0.1416
0.1416
0.14038
0.1416
0.13672
0.13672
0.13184
0.12695
0.13062
0.12695
0.12695
0.12451
0.12329
0.12329
0.11963
0.11963
0.11597
0.11353
0.10864
0.10742
0.10864
0.10132
0.09888
0.09766
0.09033
0.09033
0.08789
0.08179
0.08179
0.0769
0.07935
0.07935
0.08057
0.08301
0.08301
0.08667
0.08789
0.09155
0.09644
0.09766
0.10132
0.10376
0.1062
0.11108
0.10986
0.11475
0.10864
0.1062
0.10254
0.1001
0.1001
0.09644
0.09644
0.09766
0.09399
0.09644
0.08911
0.09155
0.09277
0.08911
0.09521
0.09888
0.10498
0.11475
0.12207
0.13672
0.14526
0.15137
0.16602
0.17212
0.18188
0.18799
0.19775
0.20264
0.20508
0.20752
0.2002
0.19409
0.18311
0.17334
0.16602
0.15015
0.14282
0.1355
0.12329
0.11841
0.10864
0.1001
0.09644
0.08911
0.08423
0.07813
0.0708
0.0647
0.05615
0.05249
0.04761
0.04761
0.04883
0.04639
0.05005
0.04761
0.05005
0.05005
0.05127
0.05737
0.05371
0.05615
0.05615
0.05249
0.05371
0.05127
0.04883
0.05249
0.05249
0.05493
0.05371
0.05615
0.05859
0.05981
0.06104
0.06714
0.07202
0.07568
0.08057
0.08545
0.08423
0.08545
0.09033
0.08789
0.09033
0.08545
0.08911
0.09033
0.08545
0.08667
0.08301
0.0769
0.07813
0.0708
0.07446
0.0708
0.06714
0.06714
0.06348
0.0647
0.05981
0.05737
0.05859
0.05493
0.05249
0.05493
0.05493
0.05493
0.05493
0.05859
0.05615
0.05859
0.06348
0.06104
0.0647
0.06104
0.06104
0.06348
0.05859
0.05981
0.05615
0.05249
0.05249
0.04883
0.05127
0.04883
0.04761
0.04883
0.04639
0.05005
0.04639
0.05005
0.04639
0.0415
0.03784
0.03662
0.03174
0.02686
0.01709
0.01221
0.00122
-0.00732
-0.01343
-0.02075
-0.02319
-0.03052
-0.03052
-0.03052
-0.03296
-0.0293
-0.02686
-0.02808
-0.02563
-0.02808
-0.02319
-0.02075
-0.01709
-0.01221
-0.00488
0.0061
0.01709
0.03052
0.05127
0.06714
0.08789
0.10498
0.12451
0.1416
0.15381
0.16846
0.18311
0.19775
0.2124
0.22339
0.2356
0.2417
0.24658
0.24902
0.24292
0.24292
0.23071
0.22827
0.22217
0.21362
0.2124
0.2063
0.20386
0.20264
0.19775
0.19897
0.19287
0.19165
0.18799
0.18311
0.18188
0.18311
0.18555
0.18921
0.19165
0.20264
0.2063
0.2124
0.21729
0.22339
0.23071
0.23071
0.23682
0.23926
0.23682
0.2417
0.23804
0.23804
0.24048
0.2356
0.24292
0.24414
0.24536
0.2478
0.2478
0.25024
0.24658
0.24414
0.24292
0.23682
0.23071
0.22339
0.21606
0.20874
0.2002
0.19531
0.18799
0.18188
0.17212
0.16968
0.16724
0.15991
0.15625
0.15015
0.13916
0.13428
0.12207
0.11108
0.10376
0.09399
0.09033
0.08423
0.07935
0.07446
0.06714
0.06714
0.06104
0.05371
0.05615
0.05371
0.05371
0.05127
0.05249
0.05249
0.05127
0.05859
0.05249
0.05249
0.05127
0.05005
0.05005
0.04517
0.04395
0.04272
0.03662
0.03784
0.03174
0.03052
0.0293
0.02441
0.02563
0.02319
0.02075
0.01953
0.01343
0.01099
0.00366
-0.00488
-0.0061
-0.01343
-0.01953
-0.02686
-0.03174
-0.03906
-0.04639
-0.05371
-0.05859
-0.06592
-0.0708
-0.07935
-0.08301
-0.09155
-0.09888
-0.10742
-0.11719
-0.12085
-0.13428
-0.13428
-0.1355
-0.13794
-0.13672
-0.13672
-0.1355
-0.13306
-0.1355
-0.12939
-0.12939
-0.12451
-0.11597
-0.10864
-0.09644
-0.08423
-0.06836
-0.05249
-0.03662
-0.01709
-0.00366
0.01465
0.03174
0.04517
0.06226
0.0769
0.09277
0.10376
0.1123
0.12329
0.12451
0.13062
0.13428
0.13428
0.13794
0.13672
0.1355
0.13428
0.13062
0.13062
0.12451
0.12085
0.11963
0.11475
0.1123
0.10742
0.10376
0.1001
0.09399
0.09521
0.08789
0.08423
0.07935
0.07813
0.07935
0.07568
0.07813
0.08179
0.08179
0.08911
0.08667
0.09399
0.09888
0.1001
0.10742
0.11108
0.11475
0.11963
0.11841
0.12329
0.11963
0.11475
0.11719
0.11475
0.11353
0.1123
0.1123
0.10986
0.1062
0.10498
0.10254
0.1001
0.09766
0.09399
0.09399
0.09033
0.08911
0.08789
0.08179
0.08545
0.07568
0.07935
0.07935
0.0769
0.0769
0.07324
0.0708
0.06592
0.05859
0.05859
0.05127
0.04761
0.04761
0.04272
0.04272
0.04028
0.04028
0.03662
0.03174
0.02808
0.02319
0.01953
0.01465
0.00977
0.00977
0.00244
0.00244
-0.00366
-0.00488
-0.00488
-0.01343
-0.01465
-0.01709
-0.02197
-0.02075
-0.02563
-0.02686
-0.02808
-0.03662
-0.03418
-0.04272
-0.04639
-0.05127
-0.05615
-0.06104
-0.06836
-0.07568
-0.08057
-0.08911
-0.09277
-0.1001
-0.10498
-0.10864
-0.11353
-0.11475
-0.12451
-0.13062
-0.13916
-0.14282
-0.14404
-0.15137
-0.15259
-0.15503
-0.15869
-0.15747
-0.16113
-0.15747
-0.15381
-0.15625
-0.14893
-0.14893
-0.14526
-0.13916
-0.13306
-0.13184
-0.13062
-0.12939
-0.12451
-0.12451
-0.12207
-0.12451
-0.12573
-0.12817
-0.13184
-0.13184
-0.13672
-0.13672
-0.14282
-0.14526
-0.14648
-0.15503
-0.15747
-0.16113
-0.16724
-0.16479
-0.16724
-0.16479
-0.15991
-0.15625
-0.14526
-0.13794
-0.12817
-0.11108
-0.09644
-0.0769
-0.06104
-0.04272
-0.02319
-0.00732
0.01221
0.02563
0.04395
0.05737
0.06836
0.08057
0.08545
0.09277
0.09644
0.09766
0.10254
0.1001
0.10254
0.10376
0.10132
0.10376
0.10132
0.1001
0.09644
0.09155
0.08911
0.08301
0.08057
0.0708
0.06348
0.06104
0.05981
0.05981
0.05981
0.05859
0.06104
0.05859
0.05859
0.05493
0.05615
0.05859
0.05859
0.06104
0.06104
0.05981
0.06348
0.05859
0.06104
0.06348
0.05981
0.06348
0.06226
0.06226
0.06348
0.06104
0.0647
0.06348
0.06104
0.0647
0.0647
0.06836
0.0708
0.07446
0.07446
0.07568
0.07935
0.07568
0.07568
0.07446
0.07324
0.07446
0.07202
0.07324
0.07202
0.06958
0.0708
0.06104
0.06226
0.05859
0.05371
0.05127
0.04517
0.04395
0.04028
0.0354
0.03296
0.02563
0.02197
0.02197
0.01709
0.01587
0.01221
0.01099
0.00732
0.00366
0.00122
-0.00122
-0.00244
-0.00488
-0.00854
-0.00854
-0.01465
-0.01709
-0.02197
-0.0293
-0.03174
-0.0415
-0.04517
-0.05005
-0.05615
-0.05615
-0.05981
-0.06348
-0.06592
-0.07324
-0.0708
-0.0769
-0.08179
-0.08667
-0.09155
-0.09644
-0.10132
-0.1062
-0.10864
-0.11353
-0.11353
-0.11597
-0.11597
-0.11719
-0.11841
-0.11719
-0.11841
-0.11719
-0.11719
-0.11719
-0.11475
-0.11719
-0.11475
-0.11475
-0.11597
-0.11475
-0.12207
-0.11963
-0.12085
-0.12573
-0.12451
-0.13062
-0.13184
-0.13184
-0.13794
-0.13306
-0.1355
-0.13794
-0.13916
-0.14282
-0.14404
-0.15015
-0.15259
-0.15625
-0.15991
-0.16113
-0.15625
-0.14893
-0.13916
-0.13062
-0.1123
-0.10132
-0.08301
-0.06836
-0.04883
-0.02686
-0.00854
0.01221
0.03296
0.05005
0.07324
0.08911
0.10376
0.11353
0.11841
0.12695
0.12695
0.12939
0.13062
0.13062
0.13428
0.13062
0.12939
0.12817
0.12451
0.12207
0.11719
0.11719
0.1123
0.10986
0.10986
0.10254
0.10132
0.09766
0.09399
0.09521
0.08911
0.09521
0.09521
0.09399
0.09766
0.09644
0.09766
0.09888
0.09399
0.09888
0.09888
0.1001
0.10132
0.10132
0.1062
0.1062
0.11597
0.11597
0.11963
0.12329
0.12573
0.12939
0.12695
0.12695
0.12695
0.12573
0.12573
0.12085
0.12207
0.12085
0.11353
0.11108
0.10498
0.09644
0.09277
0.08301
0.0769
0.07202
0.0647
0.0647
0.06226
0.06226
0.06226
0.06836
0.06714
0.06714
0.06836
0.0708
0.0708
0.0708
0.06714
0.06836
0.06592
0.06348
0.06226
0.06104
0.06348
0.06226
0.06104
0.0647
0.06104
0.06348
0.06104
0.05981
0.05981
0.05249
0.05005
0.04395
0.03662
0.03296
0.02441
0.02075
0.01587
0.00488
0.0061
0.00122
0.00122
0.00122
0.00122
0.00366
0.00244
0
0
-0.00488
-0.00977
-0.01709
-0.02197
-0.02808
-0.03418
-0.0354
-0.0415
-0.0415
-0.04639
-0.04639
-0.04639
-0.05371
-0.05249
-0.05493
-0.05615
-0.05615
-0.05859
-0.05615
-0.05493
-0.05615
-0.05127
-0.05493
-0.05615
-0.05981
-0.06714
-0.0708
-0.07935
-0.08301
-0.08789
-0.09521
-0.09766
-0.10498
-0.10498
-0.11108
-0.11475
-0.11963
-0.12085
-0.12085
-0.12329
-0.12085
-0.11475
-0.11108
-0.09888
-0.08545
-0.06958
-0.04883
-0.03174
-0.00977
0.01221
0.03174
0.05615
0.07568
0.09766
0.11719
0.13062
0.14648
0.15259
0.15991
0.16235
0.16602
0.16968
0.16968
0.17822
0.17822
0.17822
0.17822
0.17944
0.18066
0.177
0.17334
0.17334
0.16724
0.16602
0.16235
0.15747
0.15625
0.15015
0.15137
0.14893
0.14648
0.14893
0.14282
0.14404
0.14282
0.14648
0.14038
0.13672
0.13428
0.13306
0.12939
0.12939
0.12451
0.12573
0.12329
0.12329
0.12329
0.12695
0.13062
0.13306
0.1355
0.14282
0.14282
0.14893
0.15015
0.15991
0.16724
0.16846
0.17578
0.177
0.17578
0.17944
0.177
0.17822
0.17578
0.16968
0.17456
0.1709
0.17212
0.17212
0.17334
0.17578
0.17334
0.17334
0.177
0.177
0.17822
0.17578
0.17578
0.1709
0.16479
0.16113
0.15137
0.14771
0.13794
0.13428
0.12939
0.12207
0.11963
0.11475
0.10986
0.10864
0.10376
0.10132
0.09888
0.09521
0.09766
0.09399
0.09277
0.08789
0.08423
0.08179
0.07446
0.07202
0.07202
0.06958
0.0708
0.06958
0.07202
0.0708
0.0708
0.07568
0.07202
0.07568
0.07446
0.0769
0.07935
0.07568
0.07935
0.07935
0.0769
0.07813
0.07202
0.07202
0.06836
0.06348
0.06226
0.05615
0.05371
0.05005
0.04883
0.04028
0.03418
0.02808
0.02441
0.02075
0.01831
0.01465
0.01953
0.01709
0.02197
0.03174
0.04028
0.05493
0.06958
0.08667
0.10864
0.12573
0.15015
0.16846
0.19165
0.21484
0.23071
0.25146
0.26855
0.28076
0.29297
0.29907
0.30396
0.30518
0.30273
0.3064
0.30029
0.29541
0.29053
0.2832
0.27832
0.271
0.26855
0.26245
0.25757
0.25757
0.25024
0.25024
0.24048
0.23682
0.23438
0.22705
0.22461
0.22095
0.21606
0.21606
0.21118
0.21118
0.21118
0.20874
0.21118
0.21118
0.20996
0.2063
0.2063
0.19897
0.19165
0.18677
0.18433
0.18066
0.18066
0.177
0.17578
0.17212
0.16846
0.16357
0.16235
0.15991
0.15869
0.15503
0.15503
0.14771
0.14648
0.13794
0.13672
0.13672
0.12939
0.12817
0.12207
0.11475
0.10986
0.1001
0.09399
0.08789
0.07813
0.07935
0.07324
0.06958
0.06348
0.05737
0.05371
0.04761
0.04395
0.03906
0.03296
0.0293
0.02075
0.01587
0.00732
0
0
-0.01221
-0.01465
-0.02319
-0.02808
-0.03052
-0.03906
-0.04028
-0.04395
-0.04639
-0.04517
-0.05371
-0.04761
-0.05127
-0.05615
-0.05737
-0.0647
-0.06836
-0.07324
-0.08057
-0.08179
-0.08667
-0.08911
-0.09155
-0.09399
-0.09521
-0.10132
-0.10132
-0.10742
-0.11108
-0.11353
-0.11597
-0.11353
-0.11475
-0.11719
-0.11719
-0.12085
-0.11719
-0.12085
-0.11597
-0.1123
-0.1123
-0.10986
-0.10864
-0.1123
-0.1123
-0.11841
-0.11963
-0.12329
-0.12939
-0.12939
-0.13428
-0.1355
-0.1416
-0.14282
-0.14648
-0.15137
-0.15137
-0.15259
-0.15137
-0.15015
-0.15137
-0.15137
-0.15259
-0.15381
-0.15381
-0.14893
-0.14038
-0.12939
-0.11719
-0.09766
-0.08301
-0.06104
-0.04517
-0.01831
0.00732
0.0293
0.05493
0.07935
0.1001
0.12695
0.14526
0.16968
0.18311
0.19165
0.19897
0.19653
0.19531
0.19287
0.18921
0.18799
0.18311
0.18555
0.17578
0.16968
0.16235
0.15625
0.15259
0.14526
0.14038
0.13794
0.12817
0.12451
0.12085
0.1123
0.1123
0.1062
0.10742
0.10742
0.1062
0.10742
0.10742
0.10498
0.10376
0.1001
0.10254
0.1001
0.09888
0.09644
0.09277
0.09277
0.09033
0.08301
0.08301
0.07813
0.07568
0.06836
0.06714
0.06104
0.05615
0.05371
0.05249
0.05371
0.05249
0.05371
0.05737
0.05493
0.05737
0.05371
0.05737
0.05981
0.05493
0.05737
0.05493
0.05249
0.05249
0.05127
0.04517
0.04028
0.0354
0.03418
0.0293
0.02563
0.01953
0.01465
0.01099
0.00244
-0.00366
-0.00732
-0.00977
-0.01099
-0.01343
-0.01343
-0.01587
-0.01709
-0.02197
-0.02319
-0.02441
-0.03052
-0.0354
-0.03784
-0.04639
-0.05127
-0.06104
-0.0647
-0.06592
-0.07446
-0.07568
-0.08057
-0.08545
-0.08545
-0.08911
-0.08667
-0.09033
-0.09277
-0.09155
-0.09399
-0.09399
-0.09277
-0.09399
-0.09033
-0.09155
-0.09155
-0.09399
-0.09521
-0.09888
-0.10498
-0.10864
-0.10864
-0.11108
-0.1123
-0.11475
-0.11597
-0.11963
-0.12329
-0.11841
-0.12817
-0.12695
-0.13062
-0.13062
-0.13062
-0.1355
-0.13794
-0.14404
-0.15015
-0.15381
-0.16846
-0.16968
-0.17578
-0.18311
-0.18433
-0.18921
-0.19043
-0.19287
-0.20142
-0.19653
-0.20142
-0.2002
-0.19775
-0.19775
-0.19653
-0.19653
-0.19531
-0.19287
-0.19287
-0.18555
-0.17944
-0.16724
-0.15503
-0.1416
-0.12329
-0.10864
-0.08911
-0.07202
-0.05371
-0.03174
-0.01709
0.00488
0.02319
0.04517
0.06958
0.08789
0.10864
0.12329
0.13672
0.15137
0.15747
0.16724
0.17334
0.17822
0.18555
0.18677
0.19043
0.18799
0.18311
0.18188
0.17456
0.17212
0.16602
0.15869
0.14893
0.14282
0.13916
0.13306
0.12695
0.12573
0.11841
0.11719
0.10986
0.10986
0.11108
0.10864
0.10986
0.10986
0.10864
0.11108
0.10864
0.11108
0.10986
0.10864
0.1123
0.1123
0.11353
0.11353
0.11108
0.11719
0.11353
0.11597
0.11597
0.11475
0.11475
0.1123
0.11108
0.1123
0.11108
0.11108
0.10498
0.1062
0.10254
0.1001
0.1001
0.09521
0.09521
0.09155
0.08911
0.09033
0.08545
0.08423
0.08057
0.0769
0.07568
0.06958
0.0708
0.0647
0.05981
0.05859
0.05493
0.05005
0.04517
0.04028
0.03662
0.0293
0.02319
0.01465
0.01221
0.00122
-0.00732
-0.01465
-0.01953
-0.02563
-0.02808
-0.03174
-0.02808
-0.03418
-0.03418
-0.03418
-0.03784
-0.03784
-0.04272
-0.04395
-0.04272
-0.05127
-0.05127
-0.05737
-0.05859
-0.06104
-0.06714
-0.06836
-0.0708
-0.08057
-0.08179
-0.09155
-0.09155
-0.09766
-0.10498
-0.1062
-0.11108
-0.11597
-0.11963
-0.12695
-0.12451
-0.13062
-0.13062
-0.13428
-0.13672
-0.13672
-0.1416
-0.14038
-0.1416
-0.14282
-0.14282
-0.14404
-0.1416
-0.14404
-0.14404
-0.14771
-0.15015
-0.15137
-0.15869
-0.16357
-0.16479
-0.17212
-0.17334
-0.17944
-0.18188
-0.18188
-0.18677
-0.18555
-0.18921
-0.19165
-0.19287
-0.2002
-0.20386
-0.20996
-0.21606
-0.21729
-0.22095
-0.21851
-0.21484
-0.20996
-0.19653
-0.18677
-0.17334
-0.16113
-0.14526
-0.12939
-0.11597
-0.10132
-0.08423
-0.06592
-0.04639
-0.03052
-0.01343
-0.00122
0.01099
0.02197
0.02563
0.0354
0.03662
0.04517
0.05127
0.05127
0.05737
0.05981
0.06104
0.06836
0.06714
0.07202
0.07324
0.0708
0.07446
0.06958
0.0708
0.0708
0.06714
0.06714
0.06104
0.05493
0.05249
0.04761
0.04517
0.04028
0.03906
0.03418
0.03174
0.03296
0.02441
0.02441
0.02075
0.01831
0.01953
0.01587
0.01831
0.01953
0.01221
0.01221
0.00488
0.00732
0.00488
0.00244
0.00244
0
0.00122
-0.00366
-0.00854
-0.00854
-0.01343
-0.01587
-0.01953
-0.02197
-0.02197
-0.02441
-0.02686
-0.02441
-0.02563
-0.02319
-0.02563
-0.02319
-0.02686
-0.02808
-0.03296
-0.03296
-0.03418
-0.03906
-0.04272
-0.0415
-0.04639
-0.04639
-0.05127
-0.05127
-0.05127
-0.05615
-0.05737
-0.06226
-0.06714
-0.06714
-0.07446
-0.07324
-0.0769
-0.08179
-0.08301
-0.08911
-0.09155
-0.09521
-0.10132
-0.10376
-0.11108
-0.11353
-0.12085
-0.12451
-0.12939
-0.1355
-0.13916
-0.14282
-0.14648
-0.14893
-0.15381
-0.15381
-0.15869
-0.15991
-0.16113
-0.16235
-0.15869
-0.16113
-0.15991
-0.15503
-0.15747
-0.15137
-0.15503
-0.15137
-0.14893
-0.15137
-0.14893
-0.15137
-0.15137
-0.15015
-0.15625
-0.15625
-0.15991
-0.16357
-0.16235
-0.16479
-0.16357
-0.16602
-0.16479
-0.16479
-0.1709
-0.17578
-0.18188
-0.18799
-0.19287
-0.2002
-0.19897
-0.20874
-0.20996
-0.20752
-0.20752
-0.2002
-0.19409
-0.18311
-0.16724
-0.15869
-0.1416
-0.13062
-0.11475
-0.09521
-0.08301
-0.06226
-0.04639
-0.0293
-0.01099
0
0.01465
0.02197
0.02808
0.03296
0.03052
0.03174
0.0293
0.02686
0.02686
0.02197
0.02197
0.01953
0.01587
0.01831
0.01587
0.01587
0.01465
0.01343
0.01099
0.01099
0.01221
0.00977
0.00732
0.00977
0.00366
0.00488
-0.00244
-0.00122
-0.00122
-0.0061
-0.0061
-0.00977
-0.01465
-0.01465
-0.02563
-0.02441
-0.02808
-0.03174
-0.03174
-0.03296
-0.03296
-0.03418
-0.03784
-0.03052
-0.03174
-0.02563
-0.02441
-0.02075
-0.01709
-0.01587
-0.01465
-0.01099
-0.01221
-0.01221
-0.01587
-0.01343
-0.01831
-0.01831
-0.02197
-0.02197
-0.01953
-0.02319
-0.02441
-0.02319
-0.02808
-0.02563
-0.03052
-0.02686
-0.02686
-0.03174
-0.03174
-0.03662
-0.04272
-0.04517
-0.05615
-0.05371
-0.05981
-0.0647
-0.06592
-0.07202
-0.07568
-0.08179
-0.09277
-0.09155
-0.09888
-0.10376
-0.10742
-0.11108
-0.11475
-0.12085
-0.12573
-0.12573
-0.13062
-0.13062
-0.13428
-0.13428
-0.1355
-0.13672
-0.13794
-0.13672
-0.1355
-0.1416
-0.14404
-0.14404
-0.15015
-0.14893
-0.15625
-0.15381
-0.15381
-0.15869
-0.15503
-0.15747
-0.16235
-0.16113
-0.1709
-0.16968
-0.17456
-0.18066
-0.18188
-0.18555
-0.18555
-0.18433
-0.18921
-0.18188
-0.18311
-0.17944
-0.177
-0.17456
-0.1709
-0.1709
-0.1709
-0.16968
-0.16724
-0.16357
-0.16357
-0.15625
-0.14893
-0.13794
-0.12573
-0.11108
-0.09277
-0.07935
-0.06104
-0.0354
-0.02686
-0.0061
0.00977
0.02808
0.04761
0.06104
0.07568
0.08301
0.08911
0.09399
0.09155
0.09644
0.09521
0.09399
0.09521
0.09277
0.09399
0.09033
0.08667
0.08423
0.0769
0.06958
0.06714
0.06226
0.05981
0.05249
0.05005
0.0415
0.0354
0.03052
0.02563
0.02197
0.01587
0.01221
0.01099
0.00732
0.00977
0.00488
0.00854
0.01221
0.00732
0.01099
0.01099
0.00732
0.01099
0.00488
0.00854
0.0061
0.00488
0.00732
0.00488
0.0061
0.00366
0
0.00244
0
0.00122
0.00122
0.00122
0.00488
0.00488
0.01221
0.00977
0.01099
0.01221
0.01099
0.01221
0.00854
0.00488
0.00732
-0.00366
-0.00488
-0.00977
-0.01099
-0.00854
-0.01099
-0.00732
-0.00854
-0.00732
-0.00488
-0.00977
-0.00732
-0.01099
-0.01709
-0.01831
-0.02319
-0.0293
-0.03784
-0.04761
-0.05249
-0.06348
-0.06958
-0.0769
-0.08179
-0.08789
-0.09521
-0.10132
-0.1062
-0.11108
-0.1123
-0.11719
-0.11475
-0.12085
-0.12207
-0.12207
-0.12207
-0.12085
-0.12207
-0.12085
-0.11475
-0.12085
-0.11719
-0.11841
-0.11719
-0.11475
-0.11963
-0.11719
-0.11597
-0.12207
-0.11963
-0.12451
-0.12329
-0.12451
-0.12695
-0.12451
-0.12451
-0.12939
-0.13428
-0.13794
-0.13428
-0.13428
-0.13184
-0.13062
-0.12817
-0.13062
-0.13306
-0.13428
-0.13672
-0.13916
-0.13794
-0.13916
-0.12939
-0.12817
-0.11963
-0.10742
-0.09521
-0.07935
-0.0647
-0.05127
-0.03418
-0.02319
-0.00732
0.00732
0.02319
0.04272
0.05493
0.0708
0.07568
0.08301
0.09033
0.08545
0.09644
0.1001
0.10254
0.10864
0.10986
0.11353
0.11353
0.11719
0.11353
0.1123
0.10864
0.10864
0.1062
0.10498
0.10132
0.09888
0.09399
0.09033
0.08545
0.08301
0.08057
0.07568
0.07324
0.07324
0.06836
0.06958
0.0647
0.0647
0.06836
0.0647
0.06836
0.07324
0.06958
0.07324
0.07202
0.0769
0.0769
0.0769
0.07935
0.07935
0.07446
0.07202
0.06836
0.07324
0.07202
0.07446
0.07568
0.07935
0.07446
0.07202
0.07324
0.07324
0.07324
0.07446
0.07324
0.07568
0.06958
0.06714
0.06714
0.06348
0.0647
0.06104
0.05737
0.05859
0.05005
0.05005
0.04272
0.03906
0.03662
0.02808
0.02808
0.02197
0.01709
0.01587
0.00977
0.00854
0.00366
-0.00366
-0.00488
-0.00732
-0.01465
-0.02075
-0.02686
-0.0293
-0.03662
-0.03906
-0.04517
-0.05127
-0.05249
-0.06104
-0.0647
-0.06836
-0.07446
-0.07813
-0.08423
-0.08789
-0.08911
-0.09277
-0.09399
-0.09888
-0.09644
-0.09766
-0.09766
-0.09644
-0.09277
-0.08911
-0.09033
-0.08911
-0.08545
-0.08911
-0.08667
-0.08545
-0.09277
-0.09277
-0.10254
-0.10132
-0.10864
-0.11719
-0.12207
-0.13062
-0.13184
-0.13184
-0.13062
-0.13184
-0.13428
-0.13794
-0.14038
-0.14404
-0.14648
-0.15259
-0.15381
-0.15625
-0.15259
-0.14771
-0.13672
-0.12207
-0.10864
-0.09277
-0.07446
-0.06104
-0.0415
-0.02686
-0.00854
0.00977
0.02441
0.04272
0.05615
0.06592
0.07813
0.08057
0.08667
0.08789
0.08911
0.09277
0.09155
0.09399
0.09277
0.08911
0.08911
0.08179
0.07568
0.07446
0.06958
0.06958
0.06348
0.06104
0.05493
0.04883
0.0415
0.0354
0.03296
0.02808
0.02686
0.0293
0.02686
0.0293
0.02686
0.02686
0.03052
0.02563
0.02808
0.03052
0.0293
0.03296
0.0293
0.03296
0.03174
0.02808
0.03052
0.02808
0.02686
0.0293
0.02686
0.03296
0.03296
0.0354
0.03662
0.03662
0.03906
0.03662
0.03906
0.04028
0.03906
0.0415
0.0415
0.04395
0.0415
0.04028
0.0415
0.03906
0.04028
0.04028
0.04028
0.04272
0.03906
0.03906
0.03418
0.03052
0.03052
0.02197
0.02197
0.01953
0.01465
0.01221
0.00122
0
-0.00854
-0.01709
-0.01831
-0.02686
-0.03052
-0.03418
-0.04272
-0.04272
-0.05005
-0.05249
-0.05615
-0.06104
-0.06348
-0.06714
-0.06958
-0.06958
-0.0708
-0.06836
-0.06836
-0.06592
-0.06836
-0.0708
-0.0708
-0.07446
-0.0769
-0.08179
-0.08423
-0.08423
-0.09033
-0.08911
-0.09155
-0.09155
-0.08789
-0.08911
-0.08545
-0.08423
-0.08911
-0.09155
-0.10498
-0.10498
-0.11475
-0.12451
-0.13062
-0.1416
-0.14648
-0.14893
-0.15381
-0.14648
-0.14282
-0.13306
-0.12207
-0.10864
-0.08911
-0.07324
-0.05127
-0.0293
-0.0061
0.01831
0.03784
0.05615
0.07568
0.09033
0.10498
0.11108
0.11719
0.11963
0.11841
0.11719
0.11108
0.10986
0.1062
0.10132
0.10132
0.09521
0.09644
0.09399
0.09155
0.09277
0.08911
0.08911
0.08911
0.08301
0.08789
0.08301
0.08179
0.08057
0.07568
0.07568
0.0708
0.06592
0.06226
0.05615
0.05249
0.04395
0.04028
0.03174
0.02441
0.01953
0.01587
0.01587
0.01099
0.01099
0.01465
0.01099
0.01465
0.01465
0.01709
0.02197
0.02441
0.0293
0.03174
0.03418
0.0415
0.04028
0.04639
0.04883
0.04883
0.05493
0.05615
0.06348
0.06714
0.06958
0.08057
0.08179
0.08545
0.08667
0.08301
0.08423
0.08057
0.07935
0.07813
0.07568
0.07568
0.06958
0.06714
0.0647
0.06104
0.05737
0.05493
0.05371
0.04883
0.04639
0.04395
0.03784
0.03784
0.03174
0.0293
0.0293
0.02441
0.02441
0.02075
0.01831
0.02197
0.01709
0.02075
0.02075
0.01953
0.02075
0.01587
0.01709
0.01343
0.0061
0.00732
0.00122
0
-0.00366
-0.00732
-0.0061
-0.00977
-0.01343
-0.01709
-0.02441
-0.02808
-0.03662
-0.0415
-0.04639
-0.05005
-0.05127
-0.04761
-0.04028
-0.03174
-0.02075
0.00244
0.01099
0.03174
0.05005
0.0708
0.09399
0.1123
0.13306
0.14893
0.16846
0.18921
0.19897
0.21362
0.22217
0.22827
0.2356
0.2356
0.24048
0.24048
0.2356
0.23926
0.2356
0.23315
0.23193
0.22827
0.22827
0.22339
0.22583
0.21729
0.20996
0.2063
0.19897
0.19653
0.19165
0.18799
0.19043
0.18433
0.18555
0.18188
0.18066
0.18188
0.17578
0.17456
0.177
0.16602
0.16479
0.15747
0.15869
0.15625
0.15259
0.15625
0.15625
0.15869
0.16235
0.16479
0.16846
0.1709
0.17212
0.17334
0.17334
0.17822
0.17822
0.18188
0.18799
0.19043
0.19653
0.19775
0.20142
0.2002
0.2002
0.2002
0.19531
0.19287
0.18921
0.18555
0.18188
0.17822
0.17578
0.17212
0.16846
0.16968
0.16357
0.16235
0.15869
0.15869
0.15869
0.15625
0.15747
0.15259
0.14893
0.14771
0.13794
0.13794
0.13428
0.12817
0.12573
0.11963
0.11597
0.1123
0.10254
0.1001
0.09033
0.08301
0.0769
0.06714
0.06104
0.05127
0.04639
0.03906
0.03296
0.03052
0.02686
0.02563
0.02319
0.01953
0.01587
0.01221
0.01099
0.0061
0.00366
0.00488
0
0.00244
0.00244
0.01343
0.02441
0.03418
0.04883
0.0647
0.07935
0.1001
0.11353
0.13794
0.15869
0.17456
0.19531
0.20874
0.22705
0.2417
0.25024
0.26733
0.27222
0.27832
0.2832
0.28564
0.28687
0.28564
0.29175
0.28564
0.28442
0.28442
0.28076
0.27954
0.27588
0.27222
0.26978
0.26367
0.26245
0.25879
0.25635
0.25757
0.25269
0.25391
0.25513
0.25391
0.25879
0.25513
0.26123
0.26123
0.25757
0.25879
0.25146
0.2478
0.24414
0.23438
0.23438
0.22949
0.22583
0.22217
0.21606
0.21729
0.21362
0.2124
0.21484
0.21362
0.21729
0.21729
0.22217
0.22217
0.22339
0.22827
0.22705
0.22949
0.23071
0.22949
0.23438
0.22705
0.22583
0.22217
0.21851
0.21729
0.20874
0.20386
0.20264
0.18921
0.18677
0.17944
0.177
0.17212
0.16602
0.16357
0.15747
0.15137
0.14648
0.14038
0.13916
0.1355
0.13306
0.13062
0.12573
0.12695
0.12085
0.11841
0.11475
0.10864
0.10254
0.09277
0.08301
0.07935
0.06958
0.06348
0.05249
0.04639
0.04028
0.03174
0.02686
0.02197
0.01953
0.01587
0.01099
0.01343
0.0061
0.00366
0.00122
-0.0061
-0.00977
-0.02197
-0.02808
-0.03418
-0.04395
-0.04517
-0.05249
-0.05249
-0.05249
-0.05493
-0.05249
-0.05249
-0.05249
-0.05249
-0.05981
-0.05249
-0.05493
-0.05249
-0.04639
-0.04028
-0.02808
-0.01465
0
0.01831
0.03296
0.05493
0.0708
0.08789
0.11108
0.12939
0.15015
0.16846
0.18921
0.2063
0.21973
0.24048
0.24292
0.25146
0.25879
0.26489
0.27222
0.27466
0.28198
0.28687
0.28809
0.29419
0.28931
0.29053
0.29053
0.28442
0.28442
0.2771
0.27222
0.26611
0.25391
0.25391
0.24536
0.23926
0.2356
0.23071
0.22827
0.22461
0.22461
0.22461
0.22339
0.22583
0.22339
0.22339
0.22217
0.21851
0.21851
0.21362
0.21118
0.20752
0.20142
0.20142
0.19287
0.19043
0.18433
0.18311
0.18311
0.17944
0.17822
0.17944
0.17578
0.17822
0.17212
0.177
0.17822
0.17456
0.177
0.17578
0.17822
0.177
0.17212
0.177
0.17334
0.17212
0.16968
0.16235
0.15869
0.15259
0.14282
0.13672
0.12695
0.12085
0.10986
0.10254
0.09399
0.08423
0.0769
0.06958
0.06348
0.05737
0.05005
0.05249
0.04028
0.03662
0.03296
0.02808
0.02808
0.02319
0.02197
0.02319
0.01587
0.01709
0.01099
0.00854
0.0061
-0.00244
-0.0061
-0.01709
-0.01953
-0.02441
-0.03296
-0.03418
-0.04272
-0.04761
-0.04883
-0.05249
-0.05371
-0.05737
-0.06226
-0.0647
-0.06958
-0.07324
-0.08301
-0.09155
-0.09399
-0.10254
-0.10864
-0.11719
-0.12329
-0.12939
-0.1355
-0.13794
-0.14038
-0.13916
-0.13794
-0.13672
-0.13184
-0.13306
-0.13184
-0.13184
-0.13062
-0.12573
-0.12329
-0.11475
-0.1062
-0.09644
-0.08057
-0.06714
-0.04639
-0.02563
-0.00977
0.01343
0.02686
0.04517
0.0647
0.0769
0.1001
0.11475
0.13184
0.14526
0.15747
0.16968
0.17578
0.18188
0.18555
0.18433
0.18555
0.18311
0.18311
0.18188
0.177
0.17578
0.17212
0.16968
0.16846
0.16724
0.16968
0.16724
0.16602
0.16235
0.16113
0.16113
0.15625
0.15625
0.15747
0.15747
0.16235
0.16235
0.16846
0.17212
0.17334
0.18066
0.18555
0.18066
0.18188
0.177
0.17578
0.16846
0.16479
0.16113
0.15625
0.15381
0.14771
0.14282
0.14282
0.13916
0.13794
0.13428
0.13306
0.13062
0.12573
0.12451
0.11963
0.11841
0.11719
0.11475
0.11108
0.11108
0.10986
0.10498
0.1001
0.09888
0.09155
0.09033
0.08789
0.08301
0.08179
0.07446
0.0708
0.06226
0.05737
0.05371
0.04272
0.03662
0.02808
0.01709
0.01099
0
-0.00488
-0.00977
-0.01709
-0.01831
-0.02563
-0.03174
-0.03418
-0.04272
-0.0415
-0.04272
-0.04639
-0.04639
-0.04517
-0.05127
-0.05737
-0.06226
-0.06592
-0.0708
-0.07202
-0.07568
-0.0769
-0.07813
-0.08179
-0.08301
-0.08789
-0.09033
-0.09277
-0.09888
-0.10376
-0.10254
-0.10376
-0.10498
-0.10864
-0.1062
-0.11108
-0.1123
-0.11597
-0.12207
-0.12451
-0.13062
-0.13428
-0.13306
-0.14404
-0.14404
-0.15015
-0.15381
-0.15747
-0.16357
-0.16479
-0.16968
-0.17334
-0.177
-0.18555
-0.18555
-0.19409
-0.20264
-0.20752
-0.22095
-0.22217
-0.22827
-0.23193
-0.23315
-0.23682
-0.23315
-0.23682
-0.23926
-0.23804
-0.23926
-0.23804
-0.2356
-0.22949
-0.22583
-0.22095
-0.20996
-0.20386
-0.18921
-0.17212
-0.15503
-0.13916
-0.11597
-0.09644
-0.07813
-0.06226
-0.03906
-0.02441
-0.0061
0.01221
0.0293
0.04517
0.05493
0.0647
0.07324
0.07446
0.08301
0.07935
0.08179
0.08179
0.07568
0.0769
0.07202
0.06958
0.06836
0.06714
0.0647
0.05981
0.05493
0.05493
0.05127
0.05127
0.05127
0.05737
0.05615
0.05493
0.05737
0.05371
0.05371
0.05127
0.04761
0.0415
0.0415
0.03906
0.03662
0.03296
0.0354
0.03174
0.03174
0.03174
0.03174
0.0354
0.03296
0.03296
0.03418
0.03052
0.0354
0.03174
0.03418
0.03662
0.0354
0.03784
0.03662
0.0354
0.03662
0.0293
0.0354
0.03174
0.03174
0.03296
0.03052
0.03296
0.03052
0.0293
0.03296
0.03174
0.03418
0.03174
0.03174
0.02808
0.01953
0.01465
0.00854
0.00244
-0.00732
-0.01587
-0.01709
-0.03296
-0.0415
-0.04883
-0.05737
-0.06226
-0.0708
-0.07446
-0.07568
-0.08057
-0.07935
-0.08667
-0.08667
-0.08789
-0.09521
-0.09644
-0.10254
-0.10864
-0.11475
-0.12329
-0.12695
-0.1355
-0.14404
-0.14771
-0.15869
-0.15625
-0.15991
-0.16235
-0.16357
-0.16846
-0.16724
-0.1709
-0.17334
-0.16968
-0.17212
-0.17334
-0.17334
-0.1709
-0.17456
-0.17822
-0.17822
-0.18188
-0.18433
-0.18555
-0.18921
-0.19043
-0.18921
-0.18799
-0.18677
-0.18799
-0.18555
-0.19043
-0.19287
-0.19775
-0.20142
-0.20386
-0.20996
-0.21484
-0.21851
-0.22705
-0.22583
-0.23193
-0.23071
-0.22949
-0.23193
-0.22949
-0.23071
-0.23071
-0.22827
-0.22949
-0.22095
-0.21851
-0.2124
-0.20264
-0.19775
-0.18066
-0.16968
-0.15625
-0.14038
-0.12451
-0.11353
-0.10132
-0.08911
-0.0708
-0.05615
-0.03418
-0.01709
0.0061
0.01709
0.02808
0.03906
0.04395
0.04883
0.05249
0.05249
0.05371
0.05005
0.04761
0.04395
0.04028
0.04028
0.03174
0.02808
0.02563
0.01709
0.01343
0.00488
0
-0.00366
-0.01099
-0.01099
-0.01343
-0.01465
-0.01343
-0.01709
-0.01221
-0.01221
-0.01465
-0.01465
-0.01587
-0.01709
-0.02319
-0.02808
-0.03052
-0.03662
-0.04028
-0.04517
-0.05005
-0.04883
-0.05127
-0.04639
-0.04639
-0.04028
-0.03418
-0.03174
-0.02808
-0.02441
-0.02197
-0.01709
-0.01343
-0.00366
-0.00488
0
0.00122
0.00122
0.00122
-0.00244
-0.00488
-0.0061
-0.01221
-0.01221
-0.01831
-0.02075
-0.02197
-0.02686
-0.02686
-0.0293
-0.03174
-0.03296
-0.0415
-0.0415
-0.04761
-0.05371
-0.05615
-0.06348
-0.06836
-0.07324
-0.08301
-0.08301
-0.08911
-0.09155
-0.09766
-0.09888
-0.10132
-0.10742
-0.10986
-0.1123
-0.11597
-0.11841
-0.12329
-0.12451
-0.12939
-0.13428
-0.1355
-0.14282
-0.14404
-0.15259
-0.15747
-0.16724
-0.1709
-0.17334
-0.17944
-0.18188
-0.17822
-0.18799
-0.18677
-0.18921
-0.18799
-0.18433
-0.18677
-0.18433
-0.19409
-0.19287
-0.19409
-0.20142
-0.20386
-0.21118
-0.21973
-0.22583
-0.23682
-0.23682
-0.24292
-0.24658
-0.24658
-0.24902
-0.25024
-0.25146
-0.25513
-0.25391
-0.25879
-0.25879
-0.26001
-0.25757
-0.25146
-0.24658
-0.23682
-0.22705
-0.21484
-0.19897
-0.18555
-0.16357
-0.15137
-0.13306
-0.1123
-0.09521
-0.07324
-0.05615
-0.0354
-0.01587
0
0.01709
0.02563
0.03296
0.0415
0.0415
0.04639
0.04639
0.04883
0.05249
0.05249
0.05981
0.05859
0.06104
0.0647
0.06226
0.06714
0.06592
0.0647
0.0647
0.06104
0.05615
0.05249
0.04517
0.04517
0.03906
0.03662
0.03052
0.02441
0.02075
0.01221
0.0061
-0.00244
-0.00854
-0.01221
-0.01587
-0.01831
-0.01831
-0.01953
-0.02075
-0.02441
-0.02441
-0.03174
-0.0354
-0.04028
-0.04395
-0.04639
-0.05249
-0.05615
-0.05249
-0.06226
-0.06104
-0.0647
-0.06226
-0.05859
-0.05981
-0.05249
-0.05371
-0.04761
-0.04272
-0.04639
-0.04272
-0.0415
-0.05005
-0.05127
-0.05859
-0.06104
-0.06592
-0.07202
-0.07446
-0.08545
-0.08423
-0.09033
-0.09399
-0.09277
-0.09277
-0.09155
-0.09033
-0.08667
-0.08057
-0.07813
-0.07446
-0.0769
-0.08179
-0.07935
-0.08545
-0.08789
-0.09277
-0.09033
-0.09521
-0.09888
-0.09644
-0.09888
-0.09888
-0.09644
-0.09888
-0.10132
-0.09766
-0.09888
-0.1001
-0.10498
-0.10498
-0.11719
-0.12451
-0.13062
-0.14038
-0.14526
-0.15503
-0.16235
-0.16724
-0.17456
-0.17456
-0.18311
-0.18555
-0.18677
-0.18921
-0.18555
-0.18433
-0.17944
-0.1709
-0.16602
-0.15381
-0.14771
-0.13184
-0.11719
-0.1062
-0.08911
-0.07446
-0.06104
-0.04272
-0.03052
-0.01221
0.00244
0.01587
0.03052
0.0354
0.05249
0.06104
0.06714
0.0769
0.08179
0.08667
0.08911
0.09033
0.09399
0.09277
0.09277
0.09033
0.08911
0.08789
0.08423
0.08423
0.07324
0.06714
0.06104
0.05249
0.05005
0.04395
0.0415
0.0354
0.03418
0.0354
0.0293
0.02563
0.02686
0.01709
0.01587
0.00854
0.00488
0.00244
-0.00366
-0.00732
-0.01465
-0.01831
-0.02075
-0.02686
-0.02563
-0.02686
-0.0293
-0.02686
-0.03174
-0.02686
-0.02808
-0.0293
-0.02441
-0.02808
-0.02075
-0.02075
-0.01953
-0.01709
-0.01587
-0.01343
-0.01343
-0.01587
-0.00977
-0.01099
-0.00977
-0.01099
-0.00732
-0.01343
-0.01831
-0.01953
-0.02319
-0.02441
-0.02441
-0.02808
-0.03174
-0.03296
-0.0354
-0.0354
-0.03784
-0.03174
-0.03784
-0.0415
-0.04028
-0.04395
-0.04272
-0.04761
-0.05127
-0.05859
-0.06104
-0.06226
-0.06836
-0.0708
-0.06592
-0.0769
-0.07568
-0.08179
-0.08545
-0.08911
-0.09888
-0.10254
-0.11353
-0.11719
-0.12207
-0.13184
-0.13306
-0.1355
-0.14038
-0.13916
-0.1416
-0.13916
-0.14038
-0.14282
-0.14038
-0.14526
-0.1416
-0.1416
-0.14038
-0.13306
-0.12817
-0.11841
-0.10986
-0.10132
-0.08545
-0.07568
-0.05981
-0.04517
-0.03296
-0.01587
-0.00244
0.01587
0.03174
0.04761
0.06592
0.07813
0.08911
0.10254
0.10864
0.11719
0.12085
0.12817
0.12817
0.12817
0.13184
0.12939
0.13062
0.12573
0.12207
0.11963
0.11353
0.11108
0.10376
0.10132
0.09888
0.09155
0.09033
0.08789
0.08423
0.08545
0.07935
0.08057
0.07446
0.06836
0.06592
0.05371
0.05249
0.04639
0.0415
0.0415
0.03662
0.03662
0.0354
0.0293
0.03418
0.03174
0.03418
0.0354
0.04272
0.04395
0.04272
0.04517
0.04639
0.04639
0.04883
0.04517
0.04272
0.04272
0.04028
0.0415
0.03906
0.03906
0.03906
0.03906
0.04028
0.04028
0.0415
0.0415
0.04028
0.03784
0.03662
0.0354
0.03174
0.0293
0.0293
0.02197
0.02075
0.01099
0.01099
0.00977
0.00488
0.00488
0
-0.0061
-0.0061
-0.01343
-0.01465
-0.01953
-0.02686
-0.02808
-0.03662
-0.03784
-0.04272
-0.05005
-0.05127
-0.06104
-0.06592
-0.07202
-0.08423
-0.08667
-0.09766
-0.10498
-0.11475
-0.12329
-0.12817
-0.1355
-0.1416
-0.14404
-0.14526
-0.14526
-0.14648
-0.15137
-0.14893
-0.15137
-0.15137
-0.15259
-0.14282
-0.14038
-0.13184
-0.12085
-0.10986
-0.09399
-0.08057
-0.06592
-0.04517
-0.03296
-0.01465
0.00122
0.01709
0.0354
0.04883
0.06714
0.08423
0.09277
0.1062
0.11475
0.12695
0.13306
0.1355
0.1416
0.13794
0.14526
0.14404
0.14282
0.14648
0.14282
0.14282
0.14282
0.1355
0.13794
0.13306
0.13184
0.12817
0.12695
0.12573
0.11963
0.11841
0.11475
0.11353
0.11353
0.11108
0.10986
0.10742
0.10376
0.10254
0.09521
0.09399
0.08545
0.08057
0.0769
0.07202
0.0708
0.0647
0.06104
0.05615
0.05493
0.05615
0.05371
0.05371
0.05615
0.05371
0.05493
0.05249
0.05249
0.05493
0.05127
0.05127
0.04761
0.04883
0.04883
0.04639
0.04883
0.05005
0.04639
0.05005
0.04272
0.04761
0.04639
0.04272
0.04395
0.04395
0.04028
0.03906
0.03418
0.03662
0.03418
0.03296
0.03296
0.02686
0.03052
0.02563
0.02441
0.02075
0.01587
0.01343
0.00488
-0.00366
-0.00732
-0.01465
-0.02075
-0.02808
-0.03174
-0.03784
-0.04272
-0.04517
-0.05127
-0.05249
-0.05493
-0.05615
-0.05615
-0.05859
-0.05859
-0.05981
-0.0647
-0.06714
-0.0769
-0.08179
-0.08911
-0.09399
-0.09644
-0.10376
-0.10742
-0.11353
-0.11597
-0.11597
-0.12451
-0.12573
-0.12817
-0.13306
-0.13184
-0.13672
-0.12573
-0.11841
-0.10864
-0.09033
-0.07446
-0.05615
-0.0354
-0.01587
0.00977
0.03052
0.05371
0.07568
0.09644
0.12085
0.1355
0.15259
0.16602
0.177
0.18799
0.19409
0.19775
0.20508
0.20508
0.20752
0.20264
0.2002
0.19531
0.18799
0.18555
0.17334
0.16846
0.16113
0.15259
0.14771
0.13916
0.13306
0.12695
0.12207
0.11963
0.11353
0.11108
0.10742
0.10132
0.10132
0.09033
0.09155
0.08667
0.07935
0.07446
0.06836
0.05371
0.0415
0.02686
0.01709
0.00122
-0.01099
-0.01953
-0.03174
-0.03418
-0.0415
-0.0415
-0.0415
-0.0415
-0.03784
-0.03784
-0.0354
-0.03418
-0.0354
-0.03418
-0.0354
-0.0354
-0.03662
-0.03662
-0.03784
-0.04028
-0.04272
-0.04395
-0.04883
-0.05127
-0.05371
-0.05737
-0.06104
-0.06592
-0.06836
-0.07202
-0.07446
-0.07813
-0.08301
-0.08179
-0.08667
-0.08545
-0.08911
-0.08911
-0.08789
-0.09399
-0.09644
-0.09766
-0.1062
-0.10986
-0.11719
-0.12207
-0.12817
-0.1355
-0.13916
-0.15259
-0.15503
-0.16235
-0.1709
-0.17456
-0.17944
-0.18555
-0.18677
-0.19043
-0.18555
-0.18677
-0.18555
-0.18555
-0.18921
-0.18799
-0.19043
-0.19287
-0.19409
-0.19897
-0.19775
-0.20142
-0.20142
-0.19775
-0.19653
-0.19287
-0.19531
-0.19775
-0.19897
-0.20386
-0.20386
-0.21118
-0.2124
-0.2124
-0.2124
-0.20752
-0.19897
-0.18799
-0.17456
-0.15869
-0.13794
-0.11841
-0.09521
-0.07202
-0.04883
-0.02319
-0.00244
0.02319
0.04272
0.06592
0.08911
0.10376
0.11963
0.13062
0.13794
0.14282
0.13794
0.1416
0.13672
0.13184
0.13062
0.12329
0.11963
0.11841
0.10864
0.11108
0.10498
0.10132
0.09766
0.09277
0.08789
0.07813
0.0708
0.06714
0.06226
0.05981
0.05737
0.06104
0.05615
0.05249
0.05371
0.05005
0.05127
0.05005
0.05127
0.05127
0.05493
0.05859
0.06104
0.06226
0.06592
0.0647
0.06836
0.06958
0.06836
0.07202
0.07202
0.07568
0.07568
0.07935
0.08545
0.08545
0.09033
0.09399
0.09399
0.09766
0.09399
0.09644
0.09521
0.08911
0.08911
0.08667
0.07935
0.0769
0.06958
0.06958
0.06592
0.0647
0.06592
0.05981
0.06592
0.06348
0.06226
0.06348
0.05981
0.05859
0.05493
0.05127
0.05005
0.04517
0.04395
0.03662
0.03296
0.03174
0.02686
0.02441
0.02197
0.02075
0.01587
0.01221
0.00977
0.00366
0.00122
-0.00366
-0.00854
-0.01221
-0.01587
-0.02075
-0.02441
-0.03052
-0.03174
-0.0415
-0.04272
-0.04639
-0.04639
-0.04517
-0.05005
-0.05005
-0.05005
-0.05981
-0.06226
-0.07202
-0.0769
-0.08179
-0.09033
-0.09277
-0.10132
-0.09766
-0.09399
-0.08911
-0.07568
-0.06104
-0.05005
-0.03174
-0.01587
0.0061
0.02563
0.04395
0.0647
0.08057
0.10254
0.11841
0.13306
0.14893
0.15747
0.16479
0.16846
0.16968
0.16968
0.16724
0.16724
0.15991
0.15503
0.15137
0.14648
0.14282
0.14282
0.1416
0.13916
0.1355
0.13306
0.12451
0.11719
0.10986
0.10376
0.10132
0.09766
0.09521
0.09033
0.09155
0.09399
0.08911
0.08789
0.09277
0.08301
0.08423
0.08179
0.08301
0.08545
0.08423
0.08911
0.08301
0.08911
0.09277
0.09155
0.09644
0.10254
0.09888
0.10132
0.1001
0.10376
0.10376
0.10376
0.10742
0.10376
0.10864
0.10742
0.10498
0.10498
0.10254
0.10376
0.1001
0.09888
0.09766
0.09521
0.09399
0.09033
0.08545
0.08667
0.08301
0.08179
0.0769
0.07446
0.07324
0.06836
0.0647
0.06104
0.05737
0.05249
0.04639
0.0415
0.0354
0.03174
0.02808
0.02319
0.02686
0.01831
0.01831
0.01709
0.01709
0.02075
0.01587
0.01587
0.01221
0.01099
0.01099
0.00488
0.00366
0.00488
-0.00366
-0.00366
-0.00977
-0.00854
-0.01099
-0.01709
-0.01587
-0.02319
-0.01953
-0.01831
-0.02319
-0.02075
-0.01953
-0.02319
-0.01831
-0.01587
-0.00488
0.0061
0.01953
0.03418
0.04395
0.06348
0.07446
0.08911
0.1062
0.12085
0.1416
0.16113
0.177
0.19287
0.20264
0.21362
0.21606
0.21729
0.22095
0.21851
0.21851
0.21606
0.21729
0.21606
0.2124
0.21484
0.21118
0.21118
0.20996
0.20752
0.20752
0.20264
0.19897
0.19165
0.18799
0.18433
0.17578
0.16968
0.16357
0.15503
0.14771
0.13916
0.13184
0.12451
0.11353
0.10864
0.09766
0.09521
0.09399
0.08911
0.09033
0.09277
0.09521
0.09888
0.09888
0.10498
0.1062
0.10742
0.11108
0.10986
0.11475
0.11475
0.11597
0.11841
0.11475
0.12085
0.11841
0.11719
0.11963
0.11841
0.11963
0.11719
0.11475
0.11719
0.1123
0.1123
0.10986
0.1062
0.10742
0.10376
0.10132
0.09644
0.09155
0.08911
0.08301
0.08057
0.07324
0.06714
0.06348
0.05615
0.05249
0.04883
0.04517
0.03906
0.0293
0.02563
0.01099
0.00244
-0.00732
-0.01709
-0.02075
-0.0293
-0.03296
-0.03906
-0.04272
-0.04272
-0.05005
-0.05249
-0.05005
-0.05737
-0.05737
-0.06104
-0.06226
-0.06348
-0.06958
-0.0708
-0.08057
-0.08057
-0.08057
-0.08545
-0.08423
-0.08545
-0.08423
-0.08301
-0.08789
-0.08667
-0.08911
-0.08911
-0.08179
-0.07935
-0.06226
-0.05005
-0.03296
-0.01099
0.00977
0.03418
0.05493
0.07813
0.10254
0.12695
0.14771
0.16968
0.19165
0.21362
0.22949
0.24658
0.25757
0.27222
0.2771
0.28076
0.28687
0.29053
0.29541
0.29907
0.30029
0.30884
0.30396
0.30396
0.30396
0.30273
0.30518
0.29907
0.29541
0.29053
0.28442
0.2832
0.27588
0.27466
0.27466
0.271
0.27466
0.27344
0.27588
0.27832
0.27466
0.27954
0.271
0.27466
0.27466
0.26855
0.26733
0.26855
0.26245
0.26245
0.25757
0.26123
0.25757
0.25635
0.25635
0.25024
0.25391
0.25269
0.25024
0.25146
0.24414
0.25024
0.24658
0.24536
0.24658
0.24414
0.24536
0.24292
0.24048
0.24048
0.2356
0.2356
0.23071
0.22583
0.22217
0.21729
0.2124
0.2063
0.2002
0.19653
0.18799
0.18311
0.17578
0.16846
0.16235
0.15381
0.14648
0.13672
0.13062
0.12451
0.11597
0.11475
0.10254
0.09399
0.08789
0.07813
0.07202
0.06104
0.05249
0.0415
0.0354
0.03296
0.02319
0.01831
0.01221
0.0061
0.00488
0
-0.00122
0.00122
-0.00488
-0.00366
-0.01099
-0.01343
-0.01587
-0.02319
-0.02563
-0.03296
-0.03418
-0.03662
-0.04272
-0.04395
-0.05127
-0.05371
-0.05615
-0.06348
-0.0647
-0.06836
-0.0708
-0.0708
-0.0769
-0.06958
-0.06714
-0.05981
-0.04761
-0.03296
-0.02197
-0.00854
0.00488
0.02319
