-0.0005034987181686365,0.0002808484497283238,0.0010267432940182391,0.0016335197837833626,0.002057283279902108,0.0023089362208051174,0.0024283141363394445,0.0024507933790007207,0.002383511626170374,0.0022029295537314268,0.0018753641186688604,0.0013889673618112058,0.0007756356798179719,0.00010418152210421214,-0.000555090724760328,-0.0011708850916350728,-0.0017642816001643413,-0.0023788429230712366,-0.0030227031117430157,-0.0036217613811838152,-0.004020843219997742,-0.004041218459403579,-0.0035668935359281094,-0.002612341319430091,-0.0013330240988178477,2.8832359135759662e-05,0.001235650219881976,0.0021358997080097486,0.0026953051868794063,0.002968230824044852,0.0030355113345807852,0.002952334387382863,0.002736620402055224,0.0023955326702832518,0.00196055505659246,0.001499098044709223,0.00109185556286146,0.0007919459183221961,0.0005940374577476685,0.00043253628179234534,0.00020806763329215693,-0.00017270695215537788,-0.0007601345549557974,-0.0015371075191026038,-0.0024109749222219353,-0.0032241038164944748,-0.0037852858153734556,-0.003921093718040869,-0.0035373869388287023,-0.0026689023876811436,-0.0014887043416835903,-0.0002599249370074889,0.0007598051758697062,0.0014202994922940732,0.0017342376810262241,0.0018519805351160166,0.0019645129968042124,0.002186201486318271,0.0024846728642952927,0.0027006107642491843,0.0026477296933973696,0.0022335870345199776,0.001526430375359748,0.0007239685043459374,4.0519542626551476e-05,-0.00041768167919500865,-0.0007087616657061626,-0.0010046372581105642,-0.0014635828400954292,-0.002106129225169598,-0.0027733576243140767,-0.0031955176892092124,-0.0031316410642423537,-0.0024998951951790255,-0.0014268787525397821,-0.00019279223914069686,0.000893411287948615,0.0016214692088137232,0.001947543952180108,0.001976241259141186,0.0018765855586388963,0.0017826327866242496,0.0017313677646177976,0.0016652042753895573,0.0014890628699569548,0.0011427002858384583,0.0006430345721292372,7.201159027233023e-05,-0.0004784404328302336,-0.00096372995311194,-0.0014036939257916332,-0.001845848078946448,-0.0023015593224740842,-0.002703689350632146,-0.002919923382142609,-0.0028157178793882047,-0.002325388536122051,-0.001486358190950911,-0.000420986320397576,0.0007130151441356565,0.0017680966231488594,0.002627563513630046,0.003206322155932185,0.003449805916586452,0.003342769861415159,0.0029239353389915543,0.0022920415931190004,0.001590454800130685,0.0009685432214247788,0.0005313902405077535,0.00029785967040654184,0.00018644693785827048,3.943130882790198e-05,-0.0003175019357333597,-0.0009971351067305117,-0.001982993432679189,-0.003105086024464816,-0.00408083871469141,-0.004614677373801507,-0.004516882469096937,-0.0037858669459961605,-0.002611592665758434,-0.0012960918499024822,-0.00012870359886109947,0.000724268944048766,0.0012642741331358235,0.001622232662452238,0.0019617228804970506,0.002376822888339366,0.00283837189118401,0.00321420482008063,0.0033476629314870623,0.0031480353292027696,0.002643402395336678,0.0019702476681786674,0.0013090941832464603,0.000801278014552985,0.0004873135553132989,0.00029357454792830126,7.09974387232467e-05,-0.00033207236850258683,-0.00099371678755148,-0.0018709463001935157,-0.0028021635951678003,-0.0035611680217611163,-0.003941835424326519,-0.0038369366552485056,-0.0032749788388543102,-0.002398310220174546,-0.001395573899060462,-0.00042507664932490193,0.0004316244115890771,0.0011661996570340545,0.0018000936092818455,0.00233345326238848,0.0027211639918234888,0.0028919996340946398,0.0027976799132447437,0.0024568456719407743,0.0019599108995247408,0.0014258595725821276,0.0009355987010999107,0.0004855145295833181,-4.518628480249085e-06,-0.0006275832494016657,-0.0014063082047674688,-0.0022422678753396394,-0.0029353592668237855,-0.0032695034260913055,-0.003119266612467855,-0.002516141323078546,-0.0016347133505114364,-0.0007057355026307826,9.334307098033269e-05,0.0007070924146692504,0.0011931650066129263,0.0016472091281807297,0.0021124219632173554,0.002531138891220288,0.002768168853262692,0.002691903149576613,0.0022645742091399646,0.0015858293596863761,0.0008581124869006146,0.00028638767097570895,-3.4640716464383325e-05,-0.0001791703275771518,-0.0003530877173901145,-0.0007726607082240804,-0.001523688867674515,-0.0024840175921129544,-0.003360238964424302,-0.0038230328491303455,-0.003666056089251736,-0.002899746802471161,-0.0017330014631110973,-0.0004638727512458101,0.0006505340469594317,0.0014744717745058481,0.001995735437396349,0.00227160793100766,0.002366211494772283,0.0023174584247193297,0.002142073575994286,0.0018608005089625881,0.001517527581349791,0.001175551564909063,0.0008922047670677655,0.0006885427978574574,0.0005351387746086285,0.0003651713428860586,0.00010764584865304147,-0.00027977395627197315,-0.0007958310199127736,-0.001399507447454298,-0.0020197807469005007,-0.002561503172729893,-0.0029126524566352773,-0.0029661491135032744,-0.002658336039336031,-0.0020058229819854456,-0.001114341380543277,-0.000147890954878141,0.0007276838041265961,0.0013967409430874515,0.0018170498847330137,0.002009842168421336,0.0020310387649915673,0.0019431921179394712,0.001799147828923249,0.0016355558629622536,0.0014680516372741763,0.001284459090335482,0.0010426283359661428,0.0006847686384443216,0.00017229684949781904,-0.0004726562773124498,-0.001146254572147825,-0.0016841296947433429,-0.0019223330616437461,-0.0017695542509834734,-0.0012529603419411083,-0.0005140373536420598,0.00024246866501821597,0.0008210252042635041,0.001096566056448675,0.0010407374126957468,0.0007082903844973134,0.00019859001767318996,-0.00038256005866445946,-0.000941669211963731,-0.0013965726148154312,-0.0016727746154701012,-0.0017154637006364525,-0.0015179997018693334,-0.001144911594372918,-0.0007205257766895594,-0.0003745044264607093,-0.0001710710717142854,-7.002794652379013e-05,4.778835878786335e-05,0.00030258025079825195,0.0007362949530516278,0.001284692982499222,0.0018160722694636835,0.0022051366358465385,0.0023901187143755822,0.002380347526891469,0.0022212757121929942,0.0019519414348885683,0.0015873304610423183,0.0011327124999504232,0.0006111539083750208,7.694226538474368e-05,-0.00040024703355800474,-0.0007730655384902176,-0.0010511966399072035,-0.0013068954006127385,-0.001640878638877887,-0.0021216798424180095,-0.0027299976841835064,-0.003341442584393552,-0.0037627279841222537,-0.0038067362948389465,-0.0033698195670176343,-0.0024750371592954954,-0.0012656235492382343,4.2773831066076056e-05,0.001229556606077241,0.0021344291587604438,0.0027023410675782768,0.0029925682486866894,0.0031420588421996196,0.0032894431394603443,0.0034903896654050427,0.003670620931401993,0.0036518330720459987,0.003246961743367505,0.002376210324511187,0.0011347260375784663,-0.00023479157425264233,-0.0014547695435706567,-0.002344923522438115,-0.002891996128368527,-0.003213977038889756,-0.003445426199112187,-0.0036233558086220044,-0.003652046488923159,-0.0033707895646501174,-0.0026782819688682515,-0.0016287468414668317,-0.00043322887734706947,0.0006376756123749856,0.0013881609717425595,0.0017835438237278826,0.001937435576588296,0.0020156135234246776,0.0021251090325387087,0.0022598157568572592,0.0023282777647926703,0.0022308413126209377,0.0019248476789253295,0.001436333514495573,0.0008247432645340961,0.00014191669621927013,-0.0005784464112294388,-0.0012986793795001967,-0.0019494983837813904,-0.00242575688493641,-0.002614036717710836,-0.0024378829175561263,-0.001896544175948157,-0.001077503208340123,-0.0001360154468316938,0.0007502027151838693,0.0014318165776243219,0.0018230144672357236,0.0019094369672555361,0.0017333148966980265,0.0013706204321173722,0.000911783738316089,0.00044548255859341206,3.8460757115299634e-05,-0.00028803955195221947,-0.0005703536403576275,-0.0008843269166353101,-0.0012943979786668503,-0.0017932398513826402,-0.002270524383041474,-0.0025390664353799287,-0.002415017416196817,-0.0018150930232745167,-0.000818622029481549,0.00034445590299694265,0.0013817854898810025,0.002063113619519928,0.002317207734659271,0.0022477211356623974,0.0020579549695920324,0.0019277832338010052,0.0019158080494338589,0.0019442275184293712,0.0018706177472488895,0.0015948674581857465,0.0011290990014917815,0.0005869109257365204,0.00010447636370686892,-0.0002497032948060628,-0.0005163648786222573,-0.0008148146185832509,-0.001264136067967377,-0.0019065410188942862,-0.0026746209411301486,-0.003413296751670796,-0.003937323842612981,-0.004092775880668245,-0.0037980614088799556,-0.0030576617928114542,-0.0019566425923001514,-0.0006464363993963589,0.0006764970528328924,0.0018058954210137443,0.002577144028579139,0.002920416485898766,0.002886870693169027,0.0026251198170134118,0.0023128167928640688,0.002079034614007513,0.001961795449312393,0.001921311040769891,0.0018898133342169264,0.0018151579410690642,0.001667266341388364,0.0014130906604134046,0.0009954072573469255,0.00034852660453098445,-0.0005480241679537715,-0.0016129930737958868,-0.002650990664316161,-0.003407835318796463,-0.0036735621937319914,-0.003378285633461075,-0.0026250824394723573,-0.0016395626868851024,-0.000665561037907143,0.0001327775721749777,0.0007107079478701518,0.0011126408532865042,0.0014029358821761985,0.001606834393227082,0.0016966527684422511,0.00162518269649581,0.001377194849789667,0.000998753090435315,0.0005796048396174993,0.00019788964606313368,-0.000133264719574699,-0.0004740313107441754,-0.0009067943868594191,-0.0014548037089483108,-0.0020267571787241107,-0.00243262236293821,-0.002471158534725357,-0.0020400344434662525,-0.0012007275583219195,-0.0001577491946142288,0.0008336735914954981,0.001574789088300706,0.001986608472044628,0.002105275183582913,0.002028454272041525,0.0018538962842976042,0.001643437177755494,0.0014198396630041375,0.0011813520019905632,0.0009142790528469773,0.0005961854676571655,0.00019789407793140796,-0.0003032591358015411,-0.0008972469075760961,-0.001516936075175327,-0.0020369563895276097,-0.002306978672457392,-0.0022094874920267774,-0.0017153734368390294,-0.000909085769137145,3.1100275784679e-05,0.0008910818469864794,0.0014929952032156513,0.0017512017450264728,0.0016897539403767509,0.001415997826627676,0.0010638677073075238,0.0007333843649688695,0.00045398542619384287,0.00018717755774165512,-0.00013584455447337128,-0.000562824993156916,-0.0010814413501969086,-0.0016106155858637847,-0.002025015907216277,-0.0022014201046302896,-0.0020671196391714307,-0.0016297868727523112,-0.0009759588254029236,-0.00023969647287080714,0.0004427755415592784,0.0009717514560950548,0.0013030759096134257,0.0014475731367652866,0.0014578718033318918,0.0014069776817012083,0.0013587114780301227,0.001334122140581762,0.0012891083222195446,0.001123782406147301,0.0007318117944015161,7.145622120409683e-05,-0.0007816916599123385,-0.001637564345510903,-0.002257703863749496,-0.002453824780422332,-0.002166840179279115,-0.001484785711718502,-0.000593767020292808,0.00030594841785936897,0.00107043411653678,0.0016359819185695632,0.0019972717736119767,0.0021688542122114,0.0021617692187862695,0.0019861681459452368,0.00166584280980373,0.0012419945898098877,0.0007564555656071092,0.00022671851286945426,-0.0003623704908460928,-0.001034336780678689,-0.0017741858934561565,-0.0024922932595185104,-0.0030326387355346794,-0.0032315314997646465,-0.002996549539729803,-0.0023579763231843425,-0.0014609835725823204,-0.0005047494751294068,0.000333763013524762,0.0009508374565200025,0.0013254012997970157,0.00149843808446385,0.0015441676153409867,0.0015448938706992456,0.0015676190037530935,0.001638489378136244,0.0017217394134726365,0.001720315941336513,0.0015121654182053447,0.0010165498352470922,0.0002598246547435975,-0.000601717469348575,-0.001329206969329255,-0.0017064603332084087,-0.0016493369819674986,-0.0012526026856656079,-0.0007392477574268601,-0.00033723794838678035,-0.0001573592696277626,-0.00014751877430087832,-0.00014970180159502248,-1.843760825255905e-05,0.00027936711338207455,0.0006471273783061286,0.0009285002194673354,0.0010096696232175188,0.0008813626509140736,0.0006226036315045372,0.00032722660963295297,3.333945316794443e-05,-0.0002914399850315009,-0.0007012398994418762,-0.0011996352581022697,-0.0016996868389883794,-0.00204724236082864,-0.00209330155503491,-0.0017693472346274172,-0.0011216182379178944,-0.0002904802864161015,0.0005459341891761126,0.0012314794879766907,0.0016721474635274162,0.0018506407658521774,0.00181913122601964,0.0016743740622812142,0.0015189927676455943,0.0014186961057057624,0.0013738825776980676,0.001323987349851493,0.0011870132649368314,0.0009126811680230164,0.0005143367612413133,5.613373218870874e-05,-0.0003967603013504673,-0.0008284167049574188,-0.0012828407822993097,-0.001821466941834331,-0.0024521452416502955,-0.0030778323992826347,-0.003505626452671933,-0.003522231076453776,-0.0030009236667267653,-0.0019821324256304256,-0.0006795553447785172,0.0005976405611335565,0.0015701233254476372,0.002098201406272868,0.002221425316217156,0.0021117032220267814,0.0019698306489238622,0.0019228428067432056,0.0019742905165883017,0.0020272131250381946,0.001959832779027902,0.0017074035745085437,0.001302494178182696,0.0008508127862285057,0.0004586795740275851,0.00015985826743756463,-0.00010773947895258065,-0.0004567359644295924,-0.0009649376558829538,-0.0016076177121569124,-0.002253342210081561,-0.002725055292999659,-0.0028848092684065877,-0.002689283220740653,-0.0021892629904105795,-0.001486771569520089,-0.0006874281061047204,0.00012195697269033799,0.0008682949964942941,0.001480085853708259,0.0018893871983384387,0.0020513989282531946,0.0019667340653142266,0.001687020667630097,0.0012957561683845354,0.0008736684738846188,0.0004685458219799508,8.620408975629928e-05,-0.00029501658225744587,-0.0006977692399350337,-0.001122436611181699,-0.0015357698189487831,-0.0018719101777933955,-0.0020436652329720215,-0.0019638779824119527,-0.001576403981504721,-0.0008895261175289461,4.115745533950395e-06,0.0009383564754464144,0.001720535192206261,0.002199560508299335,0.002323606142991712,0.002156829118183725,0.001844518167010126,0.0015438484979544097,0.0013551270129905629,0.0012852050973446998,0.0012549513928780051,0.001140885570162899,0.000829389697131081,0.0002626085155002147,-0.000537019572375961,-0.0014681872038705898,-0.002376569090398895,-0.003098434920930589,-0.0035092217887006194,-0.003559253341581254,-0.003280637469257116,-0.0027613119230868862,-0.0020998015161590665,-0.0013665359903843673,-0.0005942954795039187,0.00019929957884673184,0.0009781427884831021,0.0016733052209622486,0.002203937846486882,0.0025199937555498266,0.002632735298208654,0.002605811702585717,0.002510436672914661,0.002378079852358206,0.002187268856499042,0.001893417228505761,0.0014747778251241,0.0009548177971675461,0.00038342968900440325,-0.0002027797491517345,-0.0008013182071591898,-0.0014227929458793115,-0.002043969746600724,-0.0025774744391282686,-0.0028912936725621406,-0.002872857127859128,-0.002496338898119122,-0.0018465991955804787,-0.0010823680506624085,-0.00036205643157769625,0.00022174500315007718,0.000662455920205256,0.0010094621121524206,0.0013135572866888531,0.001584157251693915,0.0017815728002974864,0.0018425768898287776,0.0017177510652697972,0.0013962048683585566,0.0009062570479696106,0.0002986352709818898,-0.0003706786468847525,-0.0010440263925280044,-0.0016520620465802739,-0.002103964257505751,-0.0022944196036241288,-0.002133351056665107,-0.0015883566609942528,-0.0007189303438721297,0.0003183332477013104,0.001303333195381489,0.0020174333084332797,0.002316710067253948,0.0021837976733937985,0.0017344348111449559,0.001171049183003322,0.0006975848341615386,0.00043011542164532533,0.00034594860274162224,0.00030019518535846995,0.00010523153755532264,-0.00036634060564938366,-0.0011077674239031276,-0.001968846374545496,-0.0027122996084277965,-0.003106274363988982,-0.003011367199034073,-0.00242791550283969,-0.0014882372608116278,-0.0004006713591503565,0.0006286583058467412,0.0014611790647178062,0.002050071704914896,0.002417792188936303,0.002608066461364726,0.002646673349811155,0.0025348792053006865,0.0022725608056804354,0.0018852163601195513,0.0014274844407526402,0.0009559610809021368,0.0004903139259796347,-5.6648706528406815e-06,-0.0006021941897368766,-0.0013476469540994386,-0.0022113792979253366,-0.003063431679969313,-0.0037091997126273246,-0.00396400739302381,-0.003728410299558854,-0.00302596579142562,-0.0019892259880948063,-0.0008089102905496243,0.0003241633903788429,0.0012611489778597163,0.001914993169553356,0.0022637543037569755,0.0023437640667415232,0.0022341764925815225,0.0020329908825847992,0.0018282815247226778,0.0016727090598561605,0.0015706452838678473,0.0014845258169546463,0.0013600444097976365,0.0011594773622171887,0.0008843817296216691,0.00057139744226758,0.0002604820872082929,-4.472738859592312e-05,-0.00039430515522608775,-0.0008668330318131511,-0.0015083720185001175,-0.0022704880582981885,-0.0029910340295150467,-0.0034412560231446565,-0.003423637129067316,-0.002871225152077166,-0.0018933650320512561,-0.0007393554289736153,0.0003048808840157917,0.0010359092556201936,0.001407257966686947,0.001522077200050005,0.0015512407487278394,0.001625525937142506,0.0017640317481294032,0.0018774230618255256,0.0018380175554079813,0.0015685783118510339,0.0010934328708197046,0.0005234721153564957,-9.148575288275406e-06,-0.00042002539045479575,-0.0007007225160631186,-0.0008931028935632783,-0.0010345650300178084,-0.0011169007837335866,-0.0010881567669908134,-0.0008939141034250619,-0.0005266418824344502,-4.8072865167809054e-05,0.0004301394628947303,0.0007944024458287719,0.0009766033234634847,0.0009755130613529784,0.0008439543321643014,0.0006515066770631792,0.00044281014988706464,0.0002124746189976817,-8.97573477998436e-05,-0.0005237618807182236,-0.0011092814526075638,-0.0017867787561064807,-0.0024123438616053326,-0.0027970486622054887,-0.002780288886607146,-0.002305311543265749,-0.001455810936759841,-0.00042705426769193205,0.0005589660845825455,0.0013491974474707875,0.0019117966808149876,0.002316651453520697,0.0026598499299956,0.0029814607296345095,0.0032284372061703835,0.003284606973669336,0.0030462654027946052,0.002492632860718156,0.0017047579119991924,0.0008214972962431427,-3.6877950842961705e-05,-0.0008261406704220505,-0.0015786866542042597,-0.002347186490514237,-0.003129136132566957,-0.003824166795483886,-0.004256893025265274,-0.004256704590841933,-0.0037482403244584865,-0.0027981315427605775,-0.0015914667922533,-0.0003554007761424247,0.0007238013016391148,0.0015476460813472397,0.0021019814309341262,0.00241962821447996,0.0025397550412986,0.0024884486720956997,0.0022861471450752193,0.0019688133712666466,0.0016014271167170678,0.0012684825781519797,0.0010420291220656704,0.0009430864302927538,0.0009183380769169687,0.0008488153327164362,0.0005937975442377638,5.589901903595146e-05,-0.000761210270478836,-0.0017335441126963339,-0.0026513706939142716,-0.003294509374213261,-0.0035115914308542066,-0.0032647585759336545,-0.0026232874988609337,-0.0017197101857479424,-0.0006992648016753268,0.00031187484693837833,0.0012144468074684754,0.0019326331274829042,0.0024146223332553443,0.0026416128475658237,0.0026365940593859718,0.002459936503262694,0.0021859234863750325,0.0018677142604458833,0.0015095948164745422,0.0010668310760006106,0.0004805768058787829,-0.000267429447571064,-0.001113269198020045,-0.0019122061578615776,-0.0024878674901519923,-0.0027038101266678447,-0.002518244011004327,-0.0019947789941406756,-0.0012699815369782833,-0.0005016133112306976,0.00017485764899387388,0.0006678409252846582,0.000933389508172676,0.0009729695626669295,0.0008312717835203391,0.0005889717430862282,0.00034144646603640285,0.00016354075782891984,7.562989431033208e-05,3.346235419273635e-05,-4.5318085292953285e-05,-0.00022755441527749982,-0.0005140533551362869,-0.0008250749826490274,-0.0010345350619842902,-0.0010346488016535064,-0.0007927421697201827,-0.0003668711586055414,0.00012747585821640955,0.0005781766547309666,0.0009282959369226411,0.0011896781364879037,0.0014136276306201225,0.001640428931604473,0.0018610678029750529,0.0020145081093189527,0.0020199138616131124,0.0018215376244806064,0.0014182022067353358,0.0008617052004688765,0.00022928537464488182,-0.0004100993248928907,-0.001016062644464386,-0.001575673995639339,-0.0020859269353370492,-0.0025316928118411467,-0.0028714897542951373,-0.0030399043170101173,-0.0029689089992458867,-0.0026207936441658814,-0.0020167064142647957,-0.0012436430393365206,-0.0004322742313781812,0.00028667055518217296,0.0008279504884068749,0.0011781452361384068,0.0013906696993824417,0.0015522390583787037,0.0017367167910921884,0.0019674757131731683,0.002204989352831323,0.002365227573766705,0.0023610512963790895,0.0021475814796064214,0.0017482866722423347,0.0012456264559290399,0.0007381311482081373,0.0002865328438783491,-0.00011818636458397124,-0.0005417497747507453,-0.0010527437194960123,-0.0016605594630234777,-0.002286205970580343,-0.0027868646810420743,-0.0030196394855702357,-0.002905811553565508,-0.002460675990360412,-0.001779096859098138,-0.0009922127422029334,-0.0002203265286815488,0.0004591749557836046,0.0010213678007678327,0.001481262381277683,0.0018647973421124283,0.0021754629278988424,0.002374627334604751,0.0023909260632966603,0.0021587333181853387,0.0016655698072524205,0.0009781235903464729,0.00022617011401997796,-0.00045065518947368116,-0.0009627465536457517,-0.0012996242083222172,-0.0015096080877987663,-0.001644900286636023,-0.0017114848359611632,-0.0016601420010045175,-0.0014253257712718102,-0.000983981165790312,-0.000391912605482438,0.00022854160995081492,0.0007412970587296859,0.001054873420251054,0.0011521159419515122,0.0010815003560717996,0.000925331573033493,0.0007663668733551504,0.0006633636501595428,0.0006346587751675759,0.0006488006652337198,0.0006280803946250206,0.0004724775728737027,0.0001027332046655493,-0.0004923991107013048,-0.0012281287397813004,-0.0019343437229607657,-0.0024078660743849876,-0.0024869789454481906,-0.0021144590482194774,-0.0013589022636759244,-0.000385177100347713,0.0006092103444848622,0.0014598594616410257,0.002074526496017721,0.00243424156755518,0.0025660851758699263,0.002509737291499255,0.00229764458923029,0.001954405162185714,0.0015057772160923574,0.000982566019802641,0.0004119470717066835,-0.0001979394739691467,-0.0008644548758069763,-0.0016135575405174236,-0.002440031294074021,-0.003266764078800462,-0.003935778144459894,-0.0042499340599742395,-0.004051681899631381,-0.0032982039801227265,-0.0020919703354863924,-0.0006512222121594449,0.000763438667642087,0.0019318589502936722,0.002732880666171664,0.0031589565358290917,0.003286231171343527,0.003218116314681796,0.003032453392045295,0.0027597839664307245,0.002400368853259765,0.0019610540085981433,0.0014794101029171267,0.0010139739041766234,0.0006080368386406672,0.0002571059592394954,-9.198595280450673e-05,-0.0005073960931105517,-0.0010279285136620651,-0.001638392586857832,-0.0022769198376959687,-0.002861250679655641,-0.0033111563598980744,-0.00355591783421375,-0.003534617598455774,-0.003204155814762811,-0.0025603051664539562,-0.0016609619585806698,-0.0006319204250685897,0.00035893999175581816,0.0011556637899453092,0.0016733684389808386,0.001930409981664288,0.002031629755654262,0.0021071500914559213,0.0022382991368937624,0.002411915537127769,0.002529302562305242,0.0024655382880660517,0.002146724887901132,0.0016019843723857692,0.0009587451815285465,0.0003793547402058512,-2.8841821781019905e-05,-0.00027752307736441783,-0.0004919993850436449,-0.0008315032572103003,-0.0013781316985098887,-0.0020626509373378723,-0.0026772391570712315,-0.002972679039749212,-0.002785154225261974,-0.002120477940861927,-0.0011510452448831952,-0.00013299119359904592,0.0007056617572457121,0.0012453747498721312,0.0014893845745715185,0.0015193873604319526,0.001431020839918464,0.0012895896805479377,0.0011225036713897259,0.0009356535169794061,0.0007287573146408559,0.0004957023052931566,0.00021645849275575636,-0.00014218002250099867,-0.0006068794880080316,-0.0011658139949246734,-0.0017438128597049446,-0.002204095533601561,-0.0023848331056113524,-0.0021620084182462558,-0.001514288586370342,-0.0005576807844709683,0.00047580207940879247,0.0013184101246149441,0.0017773088048078842,0.0018234649408144278,0.0016077350019358977,0.0013847419337851342,0.0013751753684629437,0.0016383255573674527,0.002030207573801718,0.0022786433581341733,0.002136832435378355,0.0015253410446155996,0.0005762783333877453,-0.000445712598143031,-0.0012921869943100677,-0.0018530183439509026,-0.002178116733923523,-0.002395708756611489,-0.0025926258301711257,-0.0027419995712419463,-0.0027248684979652624,-0.0024246247711547427,-0.001824641900902584,-0.001041356501760514,-0.0002721013318213914,0.00030644972995526754,0.0006252285177746073,0.000745917062522272,0.000813769240330499,0.0009737500520390541,0.0012976385704276258,0.0017549801699473584,0.0022330540680294757,0.0025890479293437236,0.0027092208207156626,0.002551499114686285,0.002154724760669618,0.0016098430753047474,0.0010064300482531016,0.00038479813064005997,-0.00027460152838088394,-0.0010137569258867373,-0.0018333508749316285,-0.00264527627963637,-0.0032773001792348643,-0.003535066618879988,-0.00329148526823456,-0.0025557546242636845,-0.001484454468644056,-0.0003284013474445901,0.0006584508930275227,0.0013061294134133808,0.0015758339533145952,0.0015514140085739932,0.00138367100432118,0.0012161617295604835,0.0011283418797842656,0.001119862511453254,0.0011339105497030818,0.001095479920287172,0.0009389990281112829,0.0006184516106374164,0.00011357417403086217,-0.0005526022908010136,-0.0012896093826031585,-0.0019354474024730068,-0.0022974162687551206,-0.002231786095335317,-0.0017198867611122202,-0.000890050626206228,3.360105785183624e-05,0.0008266703280115364,0.0013491497874587239,0.0015775943287273167,0.001580938788903702,0.001466831913267616,0.0013301462698965775,0.001220010249545679,0.0011262758546024345,0.000983960666856244,0.0006992155397069644,0.00019726216337477933,-0.0005231733889252683,-0.0013590310627553182,-0.0021210286302029346,-0.0026000950138629353,-0.002651909576147332,-0.0022571887747548213,-0.001528272028295836,-0.000661031094514136,0.00014257755957780517,0.0007456001142166358,0.0011126068502883247,0.0013009258641821205,0.001414179848185523,0.0015400404210763824,0.0017012819372980174,0.001844648655003968,0.001873844676470277,0.001708167643851679,0.0013317594501163533,0.0008027834370939841,0.00021676796432998124,-0.0003513281355731314,-0.0008864911669542183,-0.0014256311522254353,-0.0020046568615599216,-0.0025952314850083914,-0.0030773367318734975,-0.003274891550930512,-0.0030416324938771886,-0.00234856222482839,-0.00131831649584929,-0.00018231679403424837,0.0008164767036810213,0.001521038513456048,0.0019073394456357523,0.0020628652771793854,0.00211700358635236,0.002165927279207367,0.0022309705199070368,0.002265687277891444,0.0021985530357327386,0.00198179407404152,0.0016191476280546736,0.0011613267891090108,0.0006760297915723052,0.0002105146617367458,-0.00023329701151558624,-0.0006970119973318125,-0.0012348499505722697,-0.0018662098351897877,-0.0025362844291939492,-0.00311024459542542,-0.0034125764159287954,-0.0032992756934897083,-0.0027295928445934207,-0.0017994583365861633,-0.0007155355388608613,0.0002813586959900886,0.0010086241763943233,0.001406693314488787,0.0015457279640662775,0.0015714697236778835,0.0016181260962163729,0.001734653343159583,0.0018648570086404813,0.0018907574444202602,0.0017096561705678733,0.0012949895812335423,0.0007054202099268019,4.558247883708463e-05,-0.0005850150000459313,-0.001117335996435547,-0.0015045606335417547,-0.001704724285262681,-0.0016835627713335788,-0.001440587665236236,-0.001031193861666347,-0.0005549403230413752,-0.00010923916086499875,0.0002589145361610934,0.0005648225939111643,0.0008513436856872896,0.0011351435824551565,0.0013773731128540567,0.0015033161114034544,0.0014570375164057328,0.0012488806436019568,0.0009573043804629378,0.0006790368973343965,0.00045901964649281324,0.00024825556747110544,-7.717372130044932e-05,-0.0006396537258661972,-0.0014666419172820648,-0.002435208632239853,-0.0032922780806964877,-0.0037486557826754514,-0.003604298940301513,-0.0028430740664882968,-0.0016483222142452435,-0.0003292293046602598,0.0008077621024740133,0.0015805756131749187,0.0019869763569791156,0.002168114719026183,0.0023033536711940827,0.0024977648426676457,0.002726712619648421,0.0028656402705128175,0.0027800139963986567,0.0024152376077854745,0.0018313460366716652,0.0011663167268935865,0.0005565877765268748,6.508947687550322e-05,-0.00034368409281600426,-0.0007727342316344061,-0.0013263486117851063,-0.002043221623866977,-0.002860197513448793,-0.003622700196037681,-0.004137418886790829,-0.0042442591754227686,-0.0038760727317608086,-0.0030811326635042362,-0.0020012281112546915,-0.0008175843623257279,0.0003110541773808577,0.0012917468036867772,0.0021035235522352154,0.002765063975820746,0.003284128171783923,0.003622575661587216,0.003704125376432021,0.003465270309992257,0.0029188329538319623,0.002185325062090347,0.0014611251702786512,0.0009295001562299027,0.0006600710647359351,0.0005579748108573189,0.00040110567492633717,-4.6303394643248345e-05,-0.0009013768396460183,-0.002082002566208552,-0.0033215075355705935,-0.004272564191904159,-0.004649758258614604,-0.0043434508325609815,-0.003454704560627803,-0.002240528008637766,-0.0010000673492368498,4.262588042523458e-05,0.0008051534251297175,0.0013362206628036546,0.001742764185125605,0.002102680628034109,0.002416160799782465,0.002620581033910586,0.0026494386986773513,0.0024861317575739744,0.0021716970938120313,0.0017654755063337742,0.0012957648844746335,0.0007429565608939219,6.899806479026307e-05,-0.0007294724317169535,-0.0015830768699302523,-0.0023532055035286547,-0.0028760168449572443,-0.0030226849097073375,-0.002745271552608352,-0.0020888257577042556,-0.0011703666443221542,-0.00014127196633873396,0.000847907028421712,0.0016706267643393947,0.0022371948790501626,0.00250292464291986,0.002473158956655059,0.0022003346654102607,0.0017663324710750544,0.0012496825604541419,0.0006899152447059357,7.176563316961651e-05,-0.0006515347036191864,-0.0014987982842137454,-0.0023982415403588043,-0.003169099937708545,-0.0035753736831314236,-0.0034329424083161496,-0.0027103009841204476,-0.00156093048962096,-0.0002658546862655633,0.0008812045272527224,0.0016840545719102487,0.0020978371105342866,0.002210795915310149,0.0021746741962197975,0.0021231936296526787,0.0021159083834399565,0.0021271190169568953,0.0020760720542834497,0.0018763715891989762,0.0014774829575021232,0.0008803384759776059,0.00012624550583548145,-0.0007259733230449331,-0.0016144483580296661,-0.002469598336999641,-0.003198213080560367,-0.0036777864397665345,-0.0037785584258970568,-0.0034101995786913553,-0.0025692386776394217,-0.0013595656820927014,2.6026862056331766e-05,0.0013543637935539271,0.0024107025170581396,0.0030497823228845767,0.0032271595024253633,0.0030032836189302567,0.0025173357334935297,0.0019363600290174285,0.0013958842139825652,0.0009544055520651306,0.0005808512712494683,0.00018204420797348971,-0.00033910081220636646,-0.0010187261494572894,-0.0017914127983111895,-0.0024975418703454405,-0.0029409862250138713,-0.0029730082913361176,-0.0025616085947075167,-0.0018100687263967238,-0.0009138032266095882,-7.76086940308088e-05,0.0005634820735420426,0.0009804410154801283,0.0012305680441071897,0.0014006082573017864,0.0015490877949255175,0.0016790943822034051,0.0017508682799474296,0.001719760072589668,0.0015719557678993776,0.0013335082411045783,0.001046544653264893,0.0007309655487259024,0.0003638927910551399,-0.00010109824050116237,-0.0006833080264510696,-0.0013290097141603397,-0.001908442312214252,-0.0022661408042408994,-0.0022974537678404454,-0.0020041501338390515,-0.0014942201910100367,-0.0009264829456888676,-0.0004342874574621314,-7.202360686154772e-05,0.0001902211256897086,0.0004289812326657139,0.0007135045598304091,0.0010645470308688785,0.0014413434427119765,0.0017553590422365293,0.0018996662391301607,0.001782588168367591,0.0013583873515119198,0.0006498476344588935,-0.0002434354157608037,-0.001157284198238375,-0.001897585108811894,-0.002291386799834075,-0.00224038997893444,-0.0017577357666147052,-0.0009702415778175641,-7.84098933588617e-05,0.0007151334651874815,0.0012788769279742222,0.0015899944676632245,0.0017136914560747325,0.0017358286240515977,0.0016932312813964534,0.0015515219572758653,0.0012481851903625258,0.0007686920933051573,0.000194292452869846,-0.00032264352065407216,-0.0006466592528124745,-0.0007522970162636895,-0.0007555034755750473,-0.0008548709406150488,-0.001212225966421526,-0.0018418262039248002,-0.002574864543123859,-0.0031236289311063785,-0.0032133587481914467,-0.0027129024346842097,-0.0016980546308658475,-0.0004192849118814394,0.0008055382995146063,0.0017190193150448028,0.002213734094281594,0.0023475506550381013,0.0022862741773470793,0.0022077261921648,0.0022143256030918894,0.0022918009182855905,0.002328703412245449,0.0021856558273186666,0.0017813106691144285,0.001150631790386159,0.00044006578045182004,-0.000163901215071682,-0.0005363606465978698,-0.000687412874219621,-0.0007619687321028848,-0.0009617991362465307,-0.0014303140235447194,-0.0021619253158789735,-0.0029844441035219113,-0.0036239885781450248,-0.0038202636313266107,-0.0034375241115503622,-0.0025215148196734375,-0.0012793885756574536,5.241696555758615e-06,0.0010811426314268735,0.0018116809041568674,0.0021957048100235458,0.00232634831280695,0.0023195413992923965,0.002255086657322956,0.002157501989610915,0.0020146607667861356,0.0018102681114063155,0.0015440108869827283,0.0012282969607778787,0.0008699778697061729,0.00045619418690508043,-4.016792023896643e-05,-0.0006342716711347412,-0.001296784864789518,-0.0019367711141343742,-0.002416288678010336,-0.0025964793736914064,-0.0023959318535554416,-0.001832429633501314,-0.0010261264042792971,-0.00016158679064800412,0.0005745110100144196,0.0010539475102796557,0.0012422635483403171,0.0011963223114615576,0.0010271786720450276,0.0008456873747273886,0.0007149400473433678,0.0006293113021591409,0.0005273967694520655,0.00033157154353281653,-4.179146595577679e-06,-0.00046027976825564493,-0.0009479681669267016,-0.0013390083656748537,-0.00151579971788543,-0.0014186918510742125,-0.0010682602384350477,-0.0005528536563997676,1.0407565910046252e-05,0.000520215547059357,0.0009198489410852281,0.001199601035235813,0.0013772070267485405,0.0014716111053621787,0.0014870662543451346,0.001415633713286649,0.001251847392002626,0.001004068322591359,0.0006908845662185882,0.00032524589238418873,-9.83179377839179e-05,-0.0005983019059121425,-0.0011810821668911343,-0.001810606695122945,-0.0023938266929404346,-0.0027950339225950543,-0.0028767864274917834,-0.002551840820433542,-0.0018249484683485135,-0.000805883189261191,0.00031510141450956353,0.001322974007553126,0.002043962492768444,0.0023958339829287163,0.0024037623159535613,0.0021785959577338703,0.001868847379512168,0.0016048921243471178,0.0014534222450515966,0.0013955167415315027,0.001335054312138812,0.0011357432222583825,0.0006758284047620876,-9.702660149308348e-05,-0.001129273934768749,-0.002257979174987602,-0.0032469734638248403,-0.0038571721601722408,-0.003929555712362311,-0.003446460125939247,-0.002539093839538975,-0.0014323289341557407,-0.000351727172678572,0.0005591510165645874,0.0012679325045366306,0.001817876571721915,0.0022565226285050605,0.0025798654627547275,0.002731187946540847,0.0026528119541197248,0.0023481267655074264,0.0019022824306011918,0.0014412794624181539,0.0010565222686562375,0.0007482249104386844,0.00042764172410376423,-2.2375834944451944e-05,-0.0006661399154142818,-0.0014609635092685458,-0.0022584224562470162,-0.0028568410183477284,-0.003076627780334192,-0.00282581828979746,-0.0021343636970666403,-0.0011496864716178036,-9.545694318724147e-05,0.0007968443761893706,0.0013636803418134457,0.0015630810831984345,0.001478492688409583,0.0012651517082812001,0.0010627475877128627,0.0009217157438989164,0.0007868256818547848,0.0005483926597678215,0.000128854994689751,-0.00045002196577505075,-0.0010609191179130279,-0.0015283307170696502,-0.0017137663548174953,-0.0015790272560479407,-0.0011943523927878067,-0.0006923643269085649,-0.00019861862216862198,0.00022136050432272972,0.0005726844683131523,0.0008996981956465074,0.0012359359888339276,0.0015673495416650969,0.0018313926902300127,0.00195169728356059,0.001883750417738254,0.0016379267630870788,0.0012624632641016803,0.0008009739154478519,0.0002611334789882681,-0.00037663323142281073,-0.0011139298859678807,-0.0018868532677819591,-0.0025554577120780325,-0.0029457347188331746,-0.0029247817383410398,-0.0024678089629500367,-0.001679430988341848,-0.0007567280900954659,8.830760979989957e-05,0.0007100317398660543,0.0010765238583166808,0.0012621923951089851,0.0013909552994636736,0.0015592937363321196,0.001778497648568939,0.00196589153756092,0.001989896859613023,0.001745625909401589,0.0012203237650714011,0.0005108337482145971,-0.00022058510646575085,-0.0008297502054914799,-0.0012628810938203204,-0.0015686862039664398,-0.0018382439768769626,-0.0021122582577319305,-0.0023233112566006927,-0.0023202834251413048,-0.0019644977208654393,-0.0012343251441869017,-0.00026678214132290837,0.0006933771277901162,0.0014063165470348553,0.001744467481233568,0.001736054281855067,0.0015285407493333637,0.0013017551138578601,0.0011827638096074903,0.0012036964972220476,0.00131168837229841,0.0014106284682162428,0.0014052966319518824,0.0012296419840817038,0.0008580290424379186,0.00030704538956584197,-0.00036707107751582976,-0.001076735966444824,-0.0017198710935897037,-0.0022027601701581825,-0.0024601574114771424,-0.0024640582220578603,-0.002219976842874256,-0.0017580927334383406,-0.0011287806046025287,-0.0004054706607376807,0.00031275779438104395,0.0009120145564398836,0.001294653148507703,0.0014204831295419674,0.0013326168255090166,0.0011433750097123343,0.0009777652371875361,0.0009021516382398136,0.0008813312381471216,0.0007946763092059705,0.0005077304527709672,-3.86524559423567e-05,-0.0007721601556634796,-0.0014996377640514886,-0.001982315137770838,-0.0020389911228918993,-0.0016259229466481194,-0.0008546802829788001,5.812354591371938e-05,0.0008805651423021543,0.0014488458576731194,0.001708056931677947,0.0017015528247865935,0.001527320312176848,0.0012906337088483633,0.0010739326100178345,0.0009266808362442674,0.0008642196418415433,0.0008644835871761435,0.0008628682116839301,0.0007572469672908803,0.00043552554967288596,-0.00017543258554963612,-0.0010592415154914753,-0.0020869042075845326,-0.0030415615101533453,-0.0036875978969400447,-0.0038552295379861478,-0.003500686631927319,-0.0027138326690898515,-0.0016735925873067766,-0.0005786646194386553,0.00041120692197227403,0.001202608721941653,0.0017664193251230654,0.0021215477087001724,0.002317287112156196,0.00241680824038769,0.002477825919531786,0.0025296620713990718,0.002555321676434643,0.0024928617917255504,0.002263531275741525,0.0018163805406998046,0.0011637567780357048,0.0003839638393462048,-0.00041222421623062617,-0.0011301797963214754,-0.001724444441268578,-0.00219749772202776,-0.0025698585476157834,-0.00284527749070418,-0.0029944808352999684,-0.0029649455158762108,-0.0027070010643194886,-0.0022007511018019878,-0.0014734866912711304,-0.0006034519885018122,0.0002925882895180224,0.0010885027789219516,0.0016869295252790423,0.0020490831675040963,0.0021995859777787993,0.0022038565067452713,0.0021323830291048256,0.0020315943942167064,0.0019124630163335112,0.0017552736349697512,0.0015224261909739362,0.0011723709416446185,0.0006724221979552355,1.2094275242685235e-05,-0.0007811327872093251,-0.0016271639440578712,-0.0023918893277079193,-0.0029132101331078297,-0.003055529972097937,-0.002770615301334089,-0.002128792725256878,-0.001295823466523519,-0.00046314240304795216,0.00023063602553859543,0.0007433934761775055,0.001117404113310802,0.0014248921263665523,0.001708000882366074,0.0019486710800790447,0.0020814430404306524,0.0020346241618191744,0.0017702948031954506,0.0012995052562150685,0.0006699615939422834,-5.63013802562086e-05,-0.0008135792685480536,-0.001524891013413881,-0.002091090087635193,-0.00240005164796732,-0.002364746756375078,-0.0019719800627112883,-0.0013072080083830703,-0.0005312251886623147,0.00018416917794766797,0.000725596977356058,0.0010721641900165789,0.0012766381599110211,0.0014102904160835457,0.0015101658008682963,0.0015632199132808405,0.0015335342699101552,0.001405972840861096,0.0012066795628255167,0.0009793506707619654,0.0007337248235045801,0.00041027602079220194,-0.00010027795437562818,-0.0008809884303915109,-0.0018981516386721892,-0.002957806710552403,-0.003750826395157611,-0.0039778584968451,-0.0034937684017111582,-0.0023910881933606673,-0.0009700506705753077,0.00039378655952534156,0.00141286963791127,0.0019925802954979177,0.0022256172829090877,0.002291586300761603,0.002331759907544555,0.0023758345398271715,0.0023563675652878754,0.00218762834243119,0.0018473376136194748,0.0014040585110105357,0.0009735629613358105,0.0006361953475820144,0.00037304441027251464,6.701155410710776e-05,-0.00042568287854308044,-0.0011730475074318084,-0.00209651609318688,-0.002980067493828914,-0.00356128552571954,-0.003655182481473284,-0.003239105742918157,-0.0024502346430709176,-0.0015023298355502073,-0.000578395599215094,0.00023392097940664453,0.0009330295336166028,0.0015426741790495494,0.0020539276436302807,0.0024129304531028497,0.0025568466031986974,0.0024641779578435533,0.002178741557744402,0.0017890594562161883,0.0013771583395323149,0.0009713579929054634,0.0005354418251233709,4.150642612514056e-06,-0.0006544560164825747,-0.0013880139855144786,-0.0020542925842458406,-0.0024693906478611967,-0.002486717939755991,-0.0020664214111749666,-0.0013006180261247613,-0.00038290560692058953,0.0004626214789789486,0.0010602980381778046,0.001336388633762881,0.0013281103479360575,0.0011496431076051254,0.0009328158996103212,0.0007670709286215843,0.0006622133802235521,0.0005502221394051115,0.00032819558276868887,-7.522309696370022e-05,-0.000643496267754826,-0.0012587577913289558,-0.0017428193100281308,-0.0019335019346469592,-0.0017566990375041764,-0.0012574387367919838,-0.0005767011346933758,0.00011079081468946665,0.0006653997937407414,0.0010263128305800717,0.001213527529946259,0.001292548510842928,0.0013243249287402492,0.0013295346351429897,0.0012866968504663076,0.0011615270923163651,0.0009437249549521442,0.0006623428441091634,0.00036706007139207476,8.905160526678367e-05,-0.0001878091605739937,-0.000520001119836373,-0.0009606775714194137,-0.0015047401771447894,-0.002058470507354079,-0.0024572621773098205,-0.0025284093231510117,-0.0021705989602035748,-0.0014108915878532015,-0.00040864997286041015,0.000599822362392664,0.0013931110642783425,0.0018501211750154214,0.001986472255936035,0.001922658243168176,0.0018018067722129659,0.0017049335079051269,0.0016138931709185635,0.0014418037749747371,0.0011063696819505718,0.0005945588412208775,-2.318581362424502e-05,-0.0006333309207287353,-0.0011416227100181859,-0.001514243872838619,-0.0017737286594646324,-0.001957752941832703,-0.002071940717314213,-0.0020693018997238093,-0.0018711066686912434,-0.0014188223021411874,-0.0007276123099458091,9.151067820986126e-05,0.0008585848409102068,0.0013914084364848665,0.0015798834075139404,0.0014317572372911631,0.0010696239564680714,0.0006823149598699048,0.00045070853052988475,0.00047545820298642194,0.0007348205081350335,0.0010929303261490594,0.0013587930247673078,0.0013699353518062136,0.0010595367041987787,0.0004756409879042914,-0.0002498111862619635,-0.0009573985009756281,-0.0015106913019072045,-0.001823058092939519,-0.00186230739092744,-0.0016448831437679465,-0.0012287615815581325,-0.0007051287951193823,-0.00018269904203053306,0.00023906198045147906,0.0005017665886936322,0.0006094405636357376,0.0006236397412292095,0.0006290457350611751,0.0006846832108356787,0.0007875026342128162,0.0008703016843250275,0.0008366257489714876,0.0006138501586751047,0.0001959310913014678,-0.00034564887297457907,-0.0008866333271884177,-0.0012972547224864269,-0.0014899683538974712,-0.0014467475101168016,-0.0012145407965830507,-0.0008725248976807314,-0.0004897173299467459,-9.747590447697473e-05,0.0003078528080422354,0.0007370622839836226,0.001176825269570551,0.00157786332013159,0.0018703877578640823,0.001995633670247351,0.0019326324377715977,0.0017040754882888796,0.001359193417592112,0.0009453498797163347,0.0004858447082409863,-2.315300133288805e-05,-0.0005955169666219593,-0.0012290549005546415,-0.0018862473279140056,-0.0024920955597480775,-0.002948521415331927,-0.0031577728480719288,-0.003047848690156993,-0.0025959557794240627,-0.0018451355158633233,-0.0009057196998242094,6.582514385262256e-05,0.0009093957225058576,0.0015117337252498007,0.0018440150863321405,0.001967882548584357,0.002003210727571002,0.002068356259313513,0.002219258634870958,0.0024185267321426406,0.00255339789344277,0.0024954061772100413,0.0021693504966259058,0.001592275326620732,0.000860994766531592,9.790498301472973e-05,-0.0006109710138259023,-0.001249070913035448,-0.0018557722149639495,-0.0024765246401673396,-0.0031072301149984733,-0.0036651408263897694,-0.0040029300082345615,-0.003960889310574414,-0.0034357388847050833,-0.002437829090964607,-0.001111157094914959,0.00029788017320033487,0.0015174770590941108,0.002345238657742405,0.0027189375449841596,0.0027272670341707507,0.00255251934101002,0.0023736796148103897,0.002281245728123698,0.002248196411378515,0.0021681569433225955,0.0019327739477605385,0.0014996206607982808,0.0009113314783495547,0.0002594030875298522,-0.000378034997362225,-0.0009786422100082526,-0.0015672927962499634,-0.0021629191167460856,-0.0027214582138522687,-0.003120422874260137,-0.0032021388131477906,-0.002852893978396809,-0.0020724754894159104,-0.0009951760664726793,0.0001492126275448437,0.001115803822081851,0.0017298867191937275,0.0019407880806224017,0.0018240737067018703,0.0015352918565152635,0.0012384674809853445,0.0010405635023444475,0.0009571235174252596,0.0009191082158692978,0.0008143076003778115,0.000544836826725059,7.764729909676149e-05,-0.000532312838267754,-0.0011569938207099033,-0.0016431331872018022,-0.0018712941352526386,-0.0017969059208685979,-0.0014544558956448464,-0.000928861117799698,-0.00031646956587960624,0.0003014537483882068,0.0008647866399038315,0.0013279049651287466,0.0016533117930616992,0.0018131119257480154,0.0017969974306560597,0.0016197267225393414,0.0013209501207431334,0.0009542317407447375,0.0005676763927037602,0.00018372499401295367,-0.00021124039428684676,-0.0006581230674195933,-0.0011954599317726912,-0.0018197917371659841,-0.002457532394169299,-0.002969199031876701,-0.0031918935355912375,-0.0030041292482742123,-0.0023821650710807926,-0.0014190981862435134,-0.0002966262910868536,0.0007765224936114161,0.0016304776743929052,0.0021771414418278053,0.0024175875059209615,0.0024187400158366197,0.0022751298746132263,0.0020731062697345415,0.0018689357272319781,0.0016831482852019358,0.001506439325557638,0.0013109056589003163,0.00106317065878934,0.0007378684464457483,0.00032813657450225244,-0.00015208737026946854,-0.000675538584980295,-0.0012123747409258008,-0.0017334117700567885,-0.002201120718844943,-0.0025568451514733116,-0.0027212268025305826,-0.002618685963358554,-0.0022180093114108545,-0.001564053390017583,-0.0007756803348901057,-4.885302596192723e-06,0.0006219927302933287,0.0010472746624305034,0.0012855503668998919,0.0013905991780213565,0.0014122739318856963,0.001373717688138766,0.0012795062793473334,0.001137947041998535,0.0009693551149086295,0.0007877018974294952,0.0005728633441143182,0.0002673767320410461,-0.00018337051480971997,-0.0007665877367628149,-0.0013619474663457264,-0.0017678697060197405,-0.001793184341087872,-0.0013646405005833932,-0.0005836487198723453,0.0003066849165658926,0.001029808201189138,0.0014007892068415215,0.001401280753368872,0.0011673737992458984,0.0009020309869715959,0.0007627437613666341,0.0007838046350916578,0.0008693267484905919,0.0008535373815315261,0.0005918088523590389,3.61817730744863e-05,-0.0007362453370898963,-0.0015483298901146775,-0.0021868001410623988,-0.002479835980959107,-0.0023597424220451846,-0.0018851789493782379,-0.0012104864660341763,-0.0005135624032152451,8.177283378984205e-05,0.0005459474182016033,0.0009243115101552253,0.0012747179603579478,0.0016073336672435372,0.0018689007416181525,0.0019798355091450704,0.001893177772937715,0.001629173447991659,0.0012591535769669456,0.0008513117204221671,0.00041950718856190226,-8.527996702765311e-05,-0.0007298708258915938,-0.0015254124576493623,-0.002372488053621954,-0.0030660629680667813,-0.003369679145974961,-0.0031264218829687358,-0.0023466139498171776,-0.0012187231379271475,-3.152291789905058e-05,0.0009513602685547037,0.00159431355233905,0.0019161262251825369,0.00203581555086073,0.0020807707302855486,0.0021138130201358673,0.0021140982829582337,0.002010890469686358,0.0017424776146613393,0.0013055697850648516,0.0007707487529831081,0.00025786638843510877,-0.00011710772730582085,-0.000300632209000368,-0.00033848569531990915,-0.000368965380827877,-0.0005659662438652649,-0.0010499356375795724,-0.0018073850535205544,-0.0026645741407822707,-0.0033392190224018872,-0.0035538803110382253,-0.0031587484757575066,-0.0022027150793545456,-0.0009171791801136676,0.0003775284463742076,0.001395309723872032,0.0019801445026340673,0.0021383671797219677,0.0020047944728592555,0.0017673986608350428,0.00158626570004316,0.0015379023535073576,0.0016009740088834105,0.0016810788771624676,0.0016576248078428778,0.0014312912963606091,0.0009566165623885884,0.0002550863398043642,-0.0005880426840582063,-0.0014385310429515141,-0.0021376816421156187,-0.0025368114747758444,-0.0025389919088225905,-0.002136984197120383,-0.0014285255636906588,-0.0005932244145314849,0.0001667955352011362,0.0006981468033746482,0.0009460177677281046,0.0009610998274439961,0.0008646632415419899,0.0007898694610699876,0.000822044923280154,0.0009577300071393633,0.0010977831111028905,0.001082686383944867,0.0007642592041782938,8.878494111313139e-05,-0.0008474076758340217,-0.001804836151480447,-0.00247930410259565,-0.0026240382424385653,-0.0021597813178273356,-0.0012160985574374247,-7.808032894644499e-05,0.0009377445944228335,0.0016141464834375902,0.0019025474888509004,0.0019008955209932222,0.001765467390302966,0.0016170210385510109,0.0014936835493347478,0.0013625765044653461,0.001163120139443058,0.0008448062521845398,0.0003815148148958603,-0.00022911095835613168,-0.000962549502047212,-0.001753823694501188,-0.0024868910576982942,-0.0030084847866276958,-0.0031744559074160707,-0.0029109927979472285,-0.0022558614601280178,-0.001351538018516432,-0.00038995886472772403,0.00046200347546836737,0.0011169357705395587,0.001576213368487843,0.0018967619780321352,0.0021397856244463886,0.0023308618824837476,0.002449167073899122,0.002445247074228849,0.0022725953311376755,0.0019141045093474716,0.0013900841249212751,0.0007462897649718166,3.2490516042739636e-05,-0.0007122481270632392,-0.0014564251346112877,-0.0021574696936234898,-0.002743310007516005,-0.003113097266027375,-0.0031650215352281253,-0.0028400035681993125,-0.002156727875894517,-0.0012170548550503421,-0.00017878652440102955,0.0007893372271590428,0.0015501649026456743,0.0020250302904798612,0.002202042810805588,0.0021282493968374856,0.001888615489445413,0.0015748381632897082,0.0012504271004079295,0.0009248122139234777,0.0005530621793150405,7.115922859873358e-05,-0.0005433466739860941,-0.0012190197375410278,-0.0017871916051971932,-0.002045586984377708,-0.0018641032027367033,-0.0012730160469579693,-0.00047373523660834216,0.000247281922690925,0.0006611494924934982,0.0007143348882661725,0.000548352119777294,0.00040541228174844187,0.00047542664292494347,0.0007771780636371805,0.0011444290381885539,0.0013223377284899505,0.0011147992337240949,0.0004981141389196858,-0.00035924984601246545,-0.0011763401016254803,-0.001691726499069408,-0.0017770232238461933,-0.001476066990822803,-0.0009572196805951889,-0.00041360705431913374,2.85311776422749e-05,0.0003438137737394943,0.0005746347503181384,0.0007659357383837121,0.000920410976571098,0.0010043985122387953,0.0009903438484266274,0.0008921670668382048,0.0007592773890334206,0.0006335413693494246,0.0005069074123634992,0.00031768403468992963,-7.440671784039987e-06,-0.0004935809205180942,-0.001080394742638106,-0.0016316993061808805,-0.0019865176823892043,-0.0020233297922399524,-0.0017058086023016405,-0.0010924488726951806,-0.0003124084890203877,0.0004768376655530939,0.0011325233594475573,0.0015584938827768154,0.0017210988945985497,0.0016487875885300323,0.001417315655984914,0.0011236275127303637,0.0008533767858239059,0.0006507152975683997,0.0005022498339987472,0.0003449958927661577,9.844795689783873e-05,-0.0002918208562237146,-0.0008187262718339825,-0.0014025852339821427,-0.001909336203304164,-0.0021918385044248207,-0.002141514742209206,-0.0017341630763097271,-0.001051584214011122,-0.0002638511779001296,0.0004289838892608058,0.0008753439975537622,0.0010340768245286507,0.0009857853269914037,0.0008839366450182065,0.000870610884865685,0.0010039711172427248,0.0012373578047357404,0.0014567223843592711,0.001547330783152397,0.0014469978482953404,0.001158341393665355,0.0007229144270080191,0.00018409255390085645,-0.00043101860362201785,-0.0010976321435580338,-0.0017600047338096273,-0.0023091974285109522,-0.002599502650176732,-0.002507194490396128,-0.0020032474358317376,-0.0011935804950327289,-0.0002927375549020305,0.0004639399345960304,0.0009237332380607915,0.0010765226162757803,0.0010377826624884648,0.0009682369103563206,0.0009804894117109789,0.00108557450952972,0.0012022714905360094,0.0012128146149502671,0.001027327076918451,0.0006256975624290709,6.695075917683476e-05,-0.0005277895468853056,-0.0010099087978243837,-0.0012491244118211298,-0.0011810226274643883,-0.0008383029522233273,-0.0003454042186641365,0.00012976460852912882,0.0004474527918938234,0.0005532888419876511,0.0004899162630269654,0.00036040495156137824,0.0002693613566142151,0.0002753303200803554,0.0003731443165614256,0.0005036508888850072,0.0005778523170006523,0.0005056589899970105,0.00022572990409412525,-0.00026730570050192656,-0.0009070095845619061,-0.0015608299705375385,-0.0020608422404996365,-0.002252370797027038,-0.0020452904049176788,-0.001450433655867963,-0.0005862506701874792,0.0003517919602326978,0.0011539185130733816,0.0016695073932523827,0.0018585619658670663,0.0017935157656067584,0.0016087714191142864,0.0014270443311805996,0.001306176469089941,0.0012337312487212804,0.0011606945596209927,0.0010394739349414042,0.0008365419742947149,0.0005198435083058049,4.7586137440097567e-05,-0.0006150936612604714,-0.0014516004713312765,-0.002352463372023229,-0.003117348268921103,-0.0035177514375938027,-0.003395897723341865,-0.002744888398142015,-0.0017201334695226525,-0.000571803809520135,0.0004639526306734038,0.0012537175833226806,0.001789887439966469,0.002144962126426989,0.0023939241214875444,0.0025554632657275216,0.0025854203967768494,0.002420454926679685,0.0020382905091931415,0.0014912659583740558,0.0008880377495820862,0.0003335940427342197,-0.0001320943612196897,-0.000552567917596114,-0.0010133881976616083,-0.001564545591595412,-0.0021577584377155965,-0.002643773684770319,-0.002838486667479215,-0.002622416723253584,-0.0020140715326508263,-0.0011707584398216071,-0.0003142061135866644,0.0003746822273782564,0.000829377896411966,0.0011000486556782248,0.0012921250678749592,0.0014859410889942128,0.0016864297452233404,0.0018253620062606182,0.0018043363427791917,0.0015479441547762399,0.0010405402775970872,0.00033685720100138446,-0.0004492053785377077,-0.0011698786461127324,-0.0016784936166289659,-0.0018701498907493438,-0.0017175395652072362,-0.00128467523157505,-0.0007055952181551582,-0.00013267057651820133,0.00032174674105495864,0.0006212427109306994,0.0008024596366702761,0.0009380113849290692,0.0010856190059224588,0.0012484065243482706,0.001365548936994201,0.0013390621128695568,0.0010848348067235259,0.0005816506112452039,-0.00010885669989841642,-0.0008620936558575577,-0.001537238556768125,-0.002023136873469092,-0.0022601148047019584,-0.0022335405851784404,-0.0019540499913960154,-0.0014450064728981538,-0.0007473153887896341,6.549098697618792e-05,0.0008796175102508349,0.0015556773782762511,0.0019669311208331416,0.0020463218187088735,0.0018182121146099028,0.0013948595617910265,0.0009350522732963014,0.0005830196457948026,0.00041567983127529753,0.0004191278860641816,0.000498361816450139,0.0005114295052633533,0.0003171839070253433,-0.00017133960401928658,-0.0009384610444451626,-0.0018416998808477056,-0.002634762661924391,-0.0030458880073826167,-0.002888921325110662,-0.0021566403396667067,-0.001043504129551161,0.0001245141570826772,0.0010267179406362717,0.0014856047222930957,0.0015344985459187172,0.0013774912151037007,0.0012625369864344722,0.0013387832618338663,0.0015797076507138522,0.0018145562162928948,0.0018441889417495575,0.0015658824425244494,0.0010289876715753727,0.0003916047566891159,-0.0001852219242139101,-0.0006307142494020124,-0.000984803165710032,-0.0013400645765999314,-0.0017518016253687927,-0.00217801726102217,-0.002485018001117714,-0.002511312948352831,-0.002151145366553416,-0.0014137733407290913,-0.000431776111883486,0.0005823984094171447,0.0014107625791521688,0.0019037772038230278,0.002025277913995791,0.0018526469645021527,0.001534471513074486,0.0012235569286362133,0.0010114856847466649,0.0008907133034074772,0.0007618031685589144,0.00048729739282234733,-2.7072147483703474e-05,-0.0007604993271082931,-0.0015542453812998256,-0.002159480174302235,-0.0023426493772350327,-0.001999949421929179,-0.0012188407296519304,-0.00024671488221944906,0.0006221691049836398,0.0011804099725585653,0.0013867112068558706,0.0013499346768635944,0.0012372926150426367,0.0011690322071422384,0.0011596273136257646,0.0011262402984691423,0.0009439005829725843,0.0005118454953952167,-0.00019396770140205858,-0.0010925389186912675,-0.002000571347224271,-0.0026747053483957587,-0.002892251264268014,-0.0025457444553376274,-0.0017055912715387184,-0.0006089461126906716,0.0004322620910419527,0.0011639724469559537,0.0014943774195127933,0.001512736405539491,0.0014136619304094722,0.001373987182530382,0.0014565641815699692,0.0015951173053010597,0.001660075003106829,0.0015539626364045643,0.0012707216184823019,0.0008837815370836984,0.0004792526027582525,8.688821377724593e-05,-0.0003403298739715053,-0.0008826357090241919,-0.0015747164350177626,-0.002345160554601269,-0.0030177473024503927,-0.0033798354910517785,-0.003280386358263175,-0.002701614972482029,-0.001766248696354986,-0.000682417049331192,0.00033889076922144555,0.0011522959743616406,0.001707298685926198,0.002035954202079708,0.0022126904564646393,0.002306703126278184,0.0023471382108194803,0.00231542939907667,0.002167229985547886,0.0018707970742681775,0.0014376839185965664,0.0009245106520049907,0.00040276835338928655,-8.359908931146031e-05,-0.0005421284886322636,-0.0010172644368359968,-0.001543982752957191,-0.0021003900701606114,-0.002593065662137703,-0.0028875874919891587,-0.0028667481823161775,-0.002482669106276676,-0.0017768069260999185,-0.0008644537011076122,0.00010141997719777859,0.0009693803999279706,0.0016220314660499236,0.0019985149588937507,0.002103717257363486,0.001999038018474073,0.001772871453797122,0.001498911361387354,0.0012010799902547119,0.0008460182448351171,0.0003725110248332009,-0.00025370378948371677,-0.0009893221596581894,-0.0016992982135540335,-0.0021943747327613262,-0.002306780827557296,-0.0019665711953744023,-0.0012378103405506242,-0.0002952746964303535,0.0006440338468828237,0.0013966195436591567,0.0018594326591633023,0.002015686868238289,0.0019127052832832677,0.001633424308179116,0.001272693058848153,0.0009146493161123499,0.0006049971086709397,0.00032512605055986816,-1.0450650613644513e-05,-0.0005146922203277634,-0.001252995237379912,-0.0021698006235055826,-0.0030657890083716807,-0.003653371393141587,-0.0036738900942425274,-0.0030201597444562897,-0.0017993083326748416,-0.0003006549070528207,0.0011160896420399687,0.002156715077132116,0.0026895390754769887,0.002765939819809499,0.0025660167137831237,0.0023027872390233954,0.002130285730672357,0.0020917868103982407,0.0021215332983346795,0.0020889647451418805,0.0018596146907126601,0.001346257300475002,0.000534710636590154,-0.0005164562223951862,-0.0016923471658672642,-0.002842942868984987,-0.0038044122677233757,-0.004422813260738985,-0.004582073000267299,-0.004231093374844542,-0.003399689719667147,-0.002196482646821033,-0.0007906630852798405,0.0006156149173255894,0.001820780825833122,0.002664428663554065,0.003071288633538903,0.003081129743707627,0.002839119803284361,0.0025348084929821516,0.002310988224426507,0.0021921467834960934,0.0020787202318803795,0.001813658135468685,0.0012795233221336367,0.0004656385954408147,-0.0005296823188065743,-0.001549576704780203,-0.002439279698744203,-0.003081277507451013,-0.0033997061020070176,-0.003352937981478474,-0.0029336056996519685,-0.0021789239330400893,-0.001180306271927765,-8.015218676101464e-05,0.0009493104057942335,0.0017431090747853997,0.00218846742051876,0.0022624604062692582,0.0020424718830251406,0.0016753617641833945,0.0013108130490622938,0.0010283147753221904,0.0007985685123777852,0.0005070318366505723,3.366772033832168e-05,-0.0006523363771995035,-0.0014384766178088186,-0.0020931912583532653,-0.002364122222569092,-0.002102814247724343,-0.0013492450261207752,-0.00032794945006168,0.0006452622299135177,0.0012984267336961083,0.0015120356789243817,0.0013504200927940693,0.0010076542024023843,0.0007010884674514444,0.0005657819344362124,0.0005972399051014988,0.0006652259621549514,0.0005891848159252364,0.00023760857953884903,-0.0003980623657147365,-0.001190944365831848,-0.001929767795496788,-0.002402204863151099,-0.0024679922934427415,-0.002094530436372713,-0.0013532642407596874,-0.0003916679795173437,0.0006039792117699299,0.0014484105945581005,0.0019987033314398514,0.0021922027057757745,0.0020671137293072697,0.0017493479939069815,0.0014017722545335053,0.0011545330184038307,0.0010503259921068272,0.0010321338439415696,0.0009766141834976036,0.0007525653705151539,0.00027658324604069124,-0.0004530224432932132,-0.0013496604092948696,-0.0022566893631983773,-0.0029848964129534747,-0.0033612331521012374,-0.003277317805248169,-0.002723945730542684,-0.0017994494956725309,-0.0006862072519283798,0.00039978762163175304,0.0012700688356022955,0.00181357848632463,0.002017698496996728,0.0019551998866993263,0.001745096905774237,0.001503845994414688,0.0013054231915862822,0.0011646067373741614,0.0010477958469138054,0.0009028231623700231,0.0006898577149388161,0.0003964750939108964,3.244064122159677e-05,-0.00038459219743872033,-0.0008353613966935929,-0.0012898388824856587,-0.001692328839231203,-0.001959506886734476,-0.002002484636421719,-0.0017659669767297772,-0.00126352322770089,-0.0005875481794624668,0.00011556330051078678,0.0006976520302983593,0.0010665764151996087,0.0012214866908246745,0.00124470025695099,0.0012499258100486402,0.0013113127209292577,0.001411458984853286,0.0014392552011533164,0.0012433226391391139,0.000717327515670048,-0.00012488139831340805,-0.001124012950238209,-0.0020173022821746802,-0.0025332840736078796,-0.002499272930222829,-0.0019145453679725137,-0.0009569223719518712,8.130255652369573e-05,0.0009031307416130134,0.0013179694538925139,0.0013068026807064761,0.0010117315822891718,0.0006549015571432668,0.00042765789743633555,0.00040581825816413656,0.0005303622143627441,0.0006552111008590619,0.0006296362259357791,0.00037191166077145486,-9.570953302936449e-05,-0.0006577561233966087,-0.0011521982195893171,-0.0014348640305002342,-0.0014377206213869345,-0.0011940907133202335,-0.0008136037447257887,-0.0004167973094816507,-6.877107101232246e-05,0.0002428863023505619,0.0005699555325807217,0.0009349751030734625,0.0012874952334410601,0.00152269795230919,0.0015507612108459677,0.0013643878972260128,0.0010523445257956004,0.0007471775247002144,0.0005425585214999519,0.00043512357232492474,0.00032695767535007427,8.514086324732306e-05,-0.0003782864089466097,-0.0010503544499505413,-0.001812089791859264,-0.0024828188535463754,-0.002889594342936955,-0.0029292659883287005,-0.0025970643374454206,-0.0019723482158909493,-0.0011732753717841114,-0.0003080854656028467,0.0005491562263446706,0.0013487912085268909,0.002037577156487481,0.0025420516523245174,0.002783969854948315,0.0027226072328828503,0.002394104758257589,0.0019136751544446687,0.001428541272002654,0.0010445120831836644,0.0007714009657969279,0.0005238233296003692,0.0001792985660821068,-0.00034069393410724575,-0.0010148406973086816,-0.0017231333737230147,-0.002302009886118296,-0.0026191194057130643,-0.0026245240778125364,-0.002353344281512543,-0.0018869385093029955,-0.0013040482269030859,-0.0006547289127715007,3.063964463893235e-05,0.0007119451341365368,0.001318736177011687,0.001759969505495711,0.001961781522199328,0.0019082962218083892,0.0016555461516263637,0.0013050266729261897,0.0009498974552440072,0.0006257261055262777,0.0002968758635178055,-0.00011044023953249308,-0.0006452210586387584,-0.0012753658822790529,-0.001874083473109603,-0.002262507755475349,-0.0022885677532141916,-0.0018988932382929358,-0.0011643470267116134,-0.0002487633735110163,0.0006563165853134248,0.0013938774239571675,0.0018748734851012712,0.002080299407489921,0.0020449625436349443,0.001836283110720824,0.0015330512892756318,0.0012030042978620325,0.0008798170974007426,0.0005476581381757004,0.00014719807914376692,-0.00038842647049699844,-0.0010780642981330513,-0.0018484183623241892,-0.002535021091220566,-0.002937912929758579,-0.0029056001662599255,-0.002401143592268862,-0.0015166066764587247,-0.00043527999001483964,0.0006316473373331604,0.001503249420654229,0.0020653167864273982,0.002283750018725171,0.0021993607749420958,0.00190810212657467,0.001530996728497547,0.001179960142721633,0.0009264535790164701,0.0007793349876753623,0.0006785300166420494,0.0005112684893413995,0.0001533795363868439,-0.0004724447394654095,-0.0013423042458804808,-0.00230832118690313,-0.0031284389487077078,-0.0035480710141369094,-0.0034039596138265723,-0.0027010988810421974,-0.001619825724485973,-0.0004439468602532807,0.0005565618294462909,0.0012299441032589192,0.0015836621211848252,0.0017459784379171368,0.0018732887009938882,0.0020552116814623734,0.0022686453963711188,0.0024033747661877697,0.002340194293248432,0.0020321012784457015,0.001538818333364807,0.0009945224742857442,0.0005291715536941389,0.0001911229491827887,-8.184482541617136e-05,-0.0004233433216963378,-0.0009502929486675289,-0.0016746182942805692,-0.0024663876348375562,-0.003093922179189041,-0.003324721473276495,-0.0030366798097573025,-0.0022814410931899266,-0.0012659912404413942,-0.0002619512020136756,0.0005099307752972409,0.0009616600720893773,0.0011491472233587452,0.0012147332148495721,0.001297118159148365,0.0014566159189556792,0.001650868116368858,0.0017676369774284814,0.0016915418002783015,0.0013654753244878026,0.0008141017368724991,0.00012301697677379205,-0.0006038310277172269,-0.0012746356088321822,-0.0018101020514091418,-0.002126569435575462,-0.002134185825357374,-0.0017707773532782993,-0.001056444403047321,-0.00012541967303203206,0.000801555891073807,0.0015009103650586567,0.0018405804910780457,0.0018294497346123353,0.0015947965267498324,0.0013050942335252878,0.0010849894118895988,0.0009674715904267222,0.0009007351268745889,0.0007941850693867394,0.0005701632025674342,0.00019373758252101074,-0.000325742613858043,-0.0009479793168934748,-0.0016120815431435343,-0.0022372448067699236,-0.002722499172167772,-0.0029599556841305645,-0.0028662876372583176,-0.00241976930407583,-0.0016801370094693016,-0.0007755268042738842,0.00013967243421586108,0.0009348090818493969,0.0015366565474467212,0.0019345561072598007,0.0021613024252375565,0.0022641159956726265,0.0022799335604511287,0.0022229436157152407,0.0020854241133156813,0.0018481886041190328,0.001494699990576877,0.0010232101683244526,0.00045349463203980204,-0.00017292012181383616,-0.0007989008501532956,-0.0013630051479033532,-0.0018124065982480526,-0.0021117318161654706,-0.0022437084786854178,-0.002203828573889513,-0.0019967010324184256,-0.0016394296489187926,-0.001168210422550493,-0.0006381914744598484,-0.0001111048464318924,0.0003634496855655332,0.0007600174667973998,0.0010737093347291226,0.0013044470837598181,0.0014425528802696516,0.001468324467634164,0.0013665799862858739,0.0011440686801721595,0.0008341486388335233,0.00048289962730768416,0.00012676976516734213,-0.0002192855591148143,-0.0005515446666833763,-0.000852770940057142,-0.0010753620722387736,-0.0011508322473201497,-0.0010239089152343272,-0.0006902527798120076,-0.0002132850848535837,0.0002917668886551328,0.0007002712864880296,0.00092735477705963,0.0009603997351089238,0.0008579753686307729,0.0007135803626212214,0.0006011433055430817,0.0005310562610251854,0.0004417798066885262,0.0002333685310812093,-0.00017316301016477098,-0.0007796897699966425,-0.0014852915138091716,-0.0021054181909160473,-0.0024326449055476983,-0.0023178988914108662,-0.0017382422755280427,-0.0008175768832315077,0.00021480375775358423,0.0011121469803135045,0.001703324525263647,0.0019461099439551475,0.0019177758303090605,0.0017547567399941206,0.0015785775470708073,0.0014460021549223979,0.0013396845915353713,0.0011902248748791957,0.0009105823314080487,0.00043143111221181983,-0.000264218162230202,-0.0011118422071113847,-0.0019585654397398016,-0.0025977175790386792,-0.0028436131664063193,-0.0026143685778824755,-0.0019759164493227768,-0.0011181364448530576,-0.00027317818318760116,0.0003809715316087578,0.0007824177065681936,0.0009848033207688987,0.001100638375995161,0.0012238757910258086,0.0013761212335529802,0.001504692877964826,0.001528285681400573,0.001397436356911321,0.001130447335303392,0.0008034775367689452,0.0005025090556090614,0.00026695265599353184,5.953380467897608e-05,-0.0002156908810724944,-0.0006506865702842137,-0.0012577599777667515,-0.0019276302904184016,-0.0024556580857900507,-0.002631675716631746,-0.002346262851892656,-0.001650980951516578,-0.000736014111709061,0.0001603199876211367,0.0008549879158453349,0.0012787715540823429,0.0014670158268893184,0.0015044743107259686,0.0014683327481521146,0.0014012048736541825,0.001315114948609756,0.0012057599181872001,0.0010586112590241618,0.0008468791288982569,0.0005358141149345736,0.00010427045065540172,-0.0004238163038424637,-0.0009614968390007051,-0.0013758560218834182,-0.001540053517725873,-0.0013947989013174604,-0.000983502552335618,-0.00043855798219189597,7.595143055091251e-05,0.00043501090556549715,0.0005994339130024201,0.0006152057636180481,0.0005695447380545031,0.0005326673148760537,0.0005204467928414915,0.0004961682016753592,0.00040188683853411775,0.00019290208618854567,-0.00014522910904318721,-0.0005971795733048595,-0.0011212971050011651,-0.0016457478878986386,-0.002063939435968538,-0.0022467832686551346,-0.0020815170584976713,-0.0015246620291926476,-0.0006388762776632811,0.0004132164386293761,0.0014207995677207564,0.0021970066817591774,0.0026351483668114947,0.0027250285413715665,0.0025304412068448395,0.002149026813893932,0.0016786533786435356,0.0012011486274526504,0.0007769920319566912,0.000438246585632632,0.00017625949169834627,-6.449863463640188e-05,-0.00037029087494587693,-0.0008156730860538646,-0.00141196082914011,-0.0020775468329406687,-0.0026546720641518794,-0.002971781096545739,-0.0029212307479249814,-0.0025091068802852853,-0.001848222187955783,-0.0010992224601623418,-0.00039551268407500085,0.00020522987449059704,0.0007197254347496632,0.0011956272936810306,0.0016564450393132134,0.0020693640194521168,0.002355849923860031,0.0024391708426616974,0.002298443370162685,0.001990696997314265,0.0016204363613823193,0.001272645153935359,0.0009546560572620909,0.0005901574739752542,7.381172119950329e-05,-0.0006469811250678203,-0.0015149805956017183,-0.002365784404232535,-0.002988015487389954,-0.0032070216835896888,-0.0029504231979446864,-0.002269667337726976,-0.0013161799685401888,-0.0002885048015198546,0.0006273216252769285,0.0013045215368280487,0.001696601093244895,0.0018297208567837745,0.001774864085228929,0.0016150207476173834,0.001419435769260431,0.001227507705379028,0.0010396329339882136,0.0008162759505904241,0.0004927090571632591,1.3739242896164308e-05,-0.00062171059829903,-0.0013306346477413634,-0.001954674994505654,-0.0023126769276192614,-0.002275746617743518,-0.0018272929267741417,-0.0010760036407890974,-0.0002140512632868301,0.0005585469616675959,0.0011060604734368772,0.0013926845572654225,0.001470323314148115,0.001432651682429132,0.0013638121387734735,0.0013059510596738963,0.0012529603253059382,0.001161979630196994,0.0009703732131083875,0.000613873506748251,5.0650900907941196e-05,-0.0007059962614648727,-0.0015584387399205204,-0.0023246415542576672,-0.0027865022265066318,-0.0027765664010242744,-0.0022608689704140656,-0.0013679847181502331,-0.000341652934900644,0.0005603863950966149,0.001167050516604727,0.0014430925179906022,0.00146943335614943,0.001376581458210681,0.0012736812555124504,0.0012091293129844445,0.0011737850183152982,0.0011318535267235842,0.0010521746005287382,0.0009189721142199099,0.000720255854010839,0.000430882078410563,1.2620008357879138e-05,-0.0005593160174546627,-0.0012565729694169827,-0.0019736329038979126,-0.002543422733298136,-0.002793180602455993,-0.0026152159347971864,-0.0020161711290664743,-0.0011191527356644703,-0.00011817412270318396,0.0007916828313193547,0.0014751741882967312,0.0018837361872571885,0.0020429338432412228,0.0020150350141394362,0.0018606236021960361,0.0016184841358546451,0.0013087521699088455,0.0009496824985556433,0.0005716455307277783,0.00021599515495722248,-8.249721530358427e-05,-0.00031969308866953126,-0.0005360932854679307,-0.0008048210462222297,-0.0011881674158225129,-0.0016785037367078599,-0.002160851281943251,-0.002435310217525482,-0.00230582008899158,-0.0016934436908157065,-0.0007046556471394266,0.00039556177823474396,0.0012990130052530561,0.0017954832415530276,0.001860834730310397,0.001645133936286951,0.0013723398238114832,0.0012115214299195053,0.0011910134094203291,0.0011978884446043857,0.0010554605303521227,0.0006309555793354332,-8.475570234847446e-05,-0.0009622112143926572,-0.0017837413547645805,-0.0023293643878056214,-0.002457054708423121,-0.0021451312909800038,-0.0014857655012791113,-0.0006407157463718528,0.00021642302471788321,0.0009469850539536523,0.0014689368917226333,0.0017539433611729347,0.0018116792609105437,0.001676090444566184,0.0014006176527904762,0.0010560994520494912,0.0007176648689686275,0.0004350269257926344,0.00020044536659679366,-5.76465477439052e-05,-0.00043683694651977826,-0.000991202345246544,-0.0016719622058029154,-0.0023221427042046383,-0.0027376170730388366,-0.002762980031018924,-0.002365752166739325,-0.0016446386339799923,-0.0007694018220780643,0.00010670288745250078,0.0009055011399691441,0.0016198281859843239,0.0022580292479723527,0.00278409864432177,0.003102739800288638,0.003105411970210941,0.0027471037174749274,0.0020966728624722884,0.0013174379357020552,0.0005828261657941306,-1.8976321682453762e-05,-0.0005247094495629021,-0.0010491164641874726,-0.0016802268069625705,-0.0023870367134888157,-0.0030038222905720197,-0.003306133070515595,-0.0031341748227198462,-0.002488795710122142,-0.0015423797272608375,-0.0005588173313960065,0.00023034844886697236,0.0007240999125148085,0.000973728942605458,0.0011233319258168967,0.0013090126995768175,0.0015761762340406834,0.0018595526579351675,0.0020316153428023365,0.001984482628457991,0.001692369665564442,0.0012177206531166454,0.0006637549675447788,0.00011192109071965625,-0.00041020157835747174,-0.0009106139060482637,-0.001383100731147945,-0.0017686904271201204,-0.0019631248745677655,-0.0018709085156059964,-0.0014707220764625583,-0.0008461052108197013,-0.00015791787078811982,0.0004257095393365818,0.0007996543192125476,0.0009539740675339127,0.0009575366502561824,0.0009113457418605218,0.0008997841240099167,0.0009582257778210732,0.0010604809813820816,0.0011234998552603404,0.0010303525945949995,0.0006744238785065234,1.799641972786135e-05,-0.0008595752154841455,-0.0017583780957626189,-0.0024184066132035102,-0.002625830012128409,-0.002311568169436355,-0.0015847872144185457,-0.0006793950156204925,0.0001564932331566309,0.0007657049173811494,0.001126989377956834,0.0013245368701673469,0.0014703532754190664,0.0016291608775528287,0.001785644238168199,0.0018634702378139776,0.0017752290566687321,0.0014695397592939423,0.0009507565266178668,0.0002690819485890708,-0.000501629433886564,-0.0012777227798267204,-0.001965100859803676,-0.0024578867439321818,-0.002656336775796359,-0.0025069688177594184,-0.002040775276297607,-0.0013750849864936306,-0.000666019952309943,-3.684162774714986e-05,0.00047035930281160245,0.000887156315024251,0.0012641363304242282,0.0016122001946506429,0.0018841503446299327,0.0020091392423124584,0.001952085747097802,0.0017502833526594698,0.0014944443489301653,0.0012618401988225506,0.0010474716597712811,0.0007472804158708382,0.00021661615627677444,-0.0006237538654505313,-0.0016985677185154897,-0.002766992386233619,-0.0035072866665985065,-0.0036579882856573754,-0.003140964821819107,-0.0020994901664035293,-0.0008312356734925585,0.0003454476102965631,0.0012177945571898408,0.001732325373201978,0.001959398392137333,0.0020076028194421875,0.0019512241170549145,0.0018118882780416643,0.0015876296637402196,0.0012883377966748572,0.0009412334015578378,0.0005652943735047665,0.00014645515283972935,-0.0003526791289391001,-0.0009452051805150253,-0.001568064407660587,-0.0020723510549521427,-0.002277943675030782,-0.0020688467473929505,-0.0014710357001115055,-0.0006582950540214302,0.00012528103365932246,0.0006829453397970307,0.0009527116034941121,0.0010140356577081166,0.0010156603081060138,0.0010742239339110885,0.0012054694113305033,0.0013232141853049297,0.001297718958744436,0.00103354870708211,0.0005236462589455208,-0.00014308478645593502,-0.0008164667717584055,-0.0013404996998672937,-0.0016051533422058108,-0.0015771148782359034,-0.001302581738386809,-0.0008844605558118322,-0.00044279220389006,-7.168186463409596e-05,0.00019142750369052208,0.0003705808123140551,0.0005266643158649785,0.0007145673869203297,0.0009442881385959604,0.0011667896173026154,0.0012916288953670352,0.0012258977440603052,0.0009143684804753713,0.0003641018070628124,-0.0003520479204703528,-0.0011094270804611534,-0.0017572423282015389,-0.002151720334665529,-0.002192459744771803,-0.0018538413548088895,-0.0011994424739118338,-0.00036902205103958065,0.00046255804243616706,0.00114074787043151,0.0015773744799057682,0.0017665230741694537,0.0017652491093477726,0.0016529782688384806,0.0014925199127833013,0.0013099109717336587,0.001096094501811993,0.0008219745597728791,0.00045642981350514904,-1.7722750688621254e-05,-0.0005897864443223013,-0.0012103835853623274,-0.0017903708168252996,-0.0022176549811437456,-0.0023919006915756216,-0.002263292528876427,-0.0018543463847330113,-0.00125183862292269,-0.0005741642017673839,6.707557962593502e-05,0.0005936771308457699,0.000969643416890893,0.0011963582414273378,0.0013010674151642668,0.0013239283616515302,0.0013066280510308746,0.001283027089289155,0.0012699043246918232,0.0012567784201038324,0.0011994591393795352,0.0010275596151913921,0.0006732337503813147,0.00011419964202699596,-0.0005919340950408151,-0.0013074695708040628,-0.0018566168906742307,-0.0020919017377042993,-0.0019523182438912787,-0.0014865488401002466,-0.000834295011446092,-0.0001770994007799791,0.00032199241145205613,0.000570952771541538,0.0005771551086820201,0.0004394457604380052,0.00030218473648344285,0.0002873063068134429,0.0004356659087496952,0.0006876033190330686,0.0009118333008092194,0.0009654879069791626,0.0007552982512746018,0.0002764473063848457,-0.00037938271499155006,-0.0010454262161197594,-0.0015264287384298644,-0.0016618655350221318,-0.0013874347045249643,-0.000768487978679315,1.5665722741013406e-05,0.0007366619218402615,0.0012054468536977275,0.001343825879846613,0.0012054175559769124,0.000937450924824013,0.0007054517103364179,0.0006208434278004035,0.0007050766961422847,0.0008979301981364181,0.0010919315010246497,0.001167932615786184,0.0010198096283596946,0.0005734566228160658,-0.00018983975022687945,-0.0012064334659229916,-0.0023164156900081,-0.0032845858001843723,-0.003864064088900892,-0.0038833260473378367,-0.0033160254432826304,-0.0022950147189339095,-0.001059823225148508,0.0001365527425727139,0.0011146330540891078,0.0018096643878908662,0.002256090545768076,0.0025343016385589354,0.002713008025804431,0.002815016522095656,0.002816600924172918,0.002672940528518226,0.0023521527717650253,0.0018598280379924178,0.0012425817686262848,0.000569979311539515,-9.461966226392523e-05,-0.0007174324393118274,-0.0012977772761298798,-0.0018490299748541526,-0.0023679158459086486,-0.002810851505267363,-0.003093327906123323,-0.003116287794849243,-0.0028084934698804874,-0.002164393211932479,-0.0012586700190281234,-0.00023057287331559807,0.0007541532898710784,0.001547324231906967,0.0020532479277245684,0.0022468523322704227,0.0021738008759518077,0.0019332685505955524,0.0016441422964995082,0.0013994436861068374,0.0012232511445496865,0.0010525062666218376,0.0007622636723688012,0.00023323971311836004,-0.0005661739166367204,-0.0015275265645431002,-0.002415540605293302,-0.0029510731007841686,-0.0029292414863565314,-0.0023157789066554297,-0.0012725693523583815,-9.750328580690285e-05,0.0008941620709909717,0.0014917703940054462,0.0016593561775608899,0.0015255227499471964,0.0013035631020353877,0.0011829359742949424,0.001242103080064559,0.0014188049779190223,0.0015462921305201302,0.001435700447514478,0.0009668860771088172,0.00014898059360851168,-0.0008729518331496251,-0.0018651685866818881,-0.0025853131765994223,-0.0028637268638083413,-0.0026563139251805402,-0.0020506455150462967,-0.0012244381474628462,-0.000374705390468094,0.000351087031860198,0.0008920530014962921,0.0012663965817136533,0.0015299190035894328,0.001727086297654718,0.0018620183598284665,0.0019026849809522883,0.0018100025641033257,0.0015668422594623164,0.0011829651271898756,0.0006733647924626555,3.4511467183965e-05,-0.0007490309065560185,-0.0016585472652194183,-0.0025860322491977113,-0.0033219186062565407,-0.003617803441119991,-0.0033043773561404356,-0.00239793544394568,-0.001123778485134739,0.0001702766417581037,0.00116925259516961,0.001728479134940892,0.0019150505746235366,0.0019338627822647622,0.001988435495568406,0.002161550408459054,0.0023813059027377936,0.002481980495860865,0.0023138504109860335,0.0018333223409986545,0.0011231363875993012,0.00033752008341847103,-0.00038792768270023645,-0.0010025135063829417,-0.0015413266047888702,-0.002063609619473119,-0.002574492112464207,-0.0029874777553939107,-0.003156135591716879,-0.002954872121396122,-0.002355811119602998,-0.0014540266864439986,-0.0004295882992919999,0.0005263047267985978,0.0012780254711936066,0.0017743122773364224,0.0020351478312083567,0.0021153036487811536,0.0020700091278182844,0.0019388353088431302,0.001746775343157082,0.0015090582934004862,0.0012276161814096277,0.0008813526617073662,0.0004267733048290874,-0.00017565129064223378,-0.0009147582067888938,-0.001691740427332527,-0.0023278981495284835,-0.002627014521440805,-0.0024639510177026833,-0.0018494629647563903,-0.0009337409682992971,5.2036099768437314e-05,0.0008828727773627599,0.0014127398902918748,0.0016052051346197233,0.0015195311910531006,0.0012684641114399451,0.0009686381131877859,0.0006994243080887289,0.00047985347231852026,0.00027019243599632925,8.80260853975876e-07,-0.0003790411037603045,-0.0008564815583271491,-0.0013402516573585124,-0.001693004254495939,-0.0017946819580300728,-0.0015993916770268507,-0.001150523849770381,-0.0005489388554454258,9.797531048731859e-05,0.0007106434196565126,0.0012407903196763733,0.0016574411750364102,0.001936872248362029,0.0020641105012439293,0.0020370001253512777,0.0018619156930649778,0.001542087270876086,0.0010710426082133236,0.0004426901987437358,-0.00032396995356787333,-0.0011622096938527276,-0.001956404450155326,-0.0025691614030153255,-0.0028853197848332716,-0.002850884158926938,-0.0024883307240664426,-0.0018831121435192858,-0.0011506386666891664,-0.00040069442204205066,0.00028586674137047853,0.0008625629315533616,0.0013093693444927062,0.0016209633047783753,0.0017989786112577596,0.0018510450350405568,0.001794919930574424,0.0016627394226454524,0.001497890933053805,0.0013387282529170538,0.0011930710823753238,0.0010199225542558488,0.000737370070048508,0.00026192576192021327,-0.00043694725531137277,-0.0012970142931299328,-0.002163754880994915,-0.0028362022640854123,-0.003138129756012241,-0.0029803872147500664,-0.002386307583459815,-0.001474470604334158,-0.00041577989258448106,0.0006109454223332979,0.0014509703307273177,0.0019943982336457808,0.0021922157767747088,0.002067667985680983,0.0017144072318221537,0.0012723892477748437,0.0008822728486315997,0.0006332357827665111,0.000528082903837321,0.0004854578598337063,0.00038153447305543185,0.00011220606694200392,-0.0003545612759754312,-0.000959992766339237,-0.0015738726195825758,-0.0020386963769182774,-0.002219559570127312,-0.0020452852778403948,-0.0015319069192970185,-0.0007819740846681483,4.319494042742461e-05,0.0007717434700383464,0.0012726441205032615,0.0014901322646920108,0.0014495341308160396,0.0012359091750998908,0.0009563126800225443,0.0006993595356738669,0.000504679221421972,0.0003524922004049325,0.00017930839907208613,-8.276332351466473e-05,-0.0004579100708991291,-0.000894085305438197,-0.0012678608842093186,-0.001430617473514087,-0.0012761462341076724,-0.0007960086984398663,-9.480599802513611e-05,0.0006423058521455162,0.001216190409874322,0.001487714106981624,0.0014295413953244079,0.0011325566660631043,0.0007599270684310374,0.0004656868083123681,0.0003161234621871407,0.00025625990525124137,0.00014290631130589853,-0.00017048691552248212,-0.0007417473059099234,-0.0014899012705282355,-0.002213710613936107,-0.0026700554609047807,-0.0026747569242079,-0.0021792568283755813,-0.001289176918933842,-0.00021882376807136523,0.0007940045645300879,0.0015717155023156214,0.0020431995962898555,0.0022389589423992694,0.0022462717904644072,0.0021513227303257493,0.001997548850232258,0.0017789873900753727,0.0014675292622671932,0.0010522184043947973,0.000560440719179142,4.3880572730591516e-05,-0.0004598987686367607,-0.0009569395361054483,-0.0014867243077083406,-0.0020710891773243886,-0.0026568353104815074,-0.003099896223261145,-0.0032151949102653516,-0.002870368176650447,-0.002067224732086578,-0.0009583604044034225,0.00021387804393099212,0.0012203492726335183,0.0019299724914091992,0.0023321047429092465,0.0024951132459912085,0.0024986876307767757,0.002385788972593321,0.002157059250820964,0.0017982984908430637,0.0013139925119988313,0.0007433930192411469,0.00015092950979967711,-0.00040154942005158636,-0.0008825991340327894,-0.0012990106608299422,-0.0016742878545949588,-0.0020092717268864134,-0.00225344291998629,-0.0023126624364081362,-0.0020952212632489205,-0.001570122385612176,-0.0008006614659707056,6.933771391228068e-05,0.0008699349727164147,0.0014690390039096802,0.0018111477220807103,0.0019139530026200395,0.0018318139202826442,0.0016124137547470357,0.0012731028260549431,0.0008087793178640861,0.00022300837715876626,-0.000440058642460901,-0.0010854927033478983,-0.0015883795500208288,-0.0018369182142118402,-0.001776491826863593,-0.001431859507801623,-0.0008952038181085691,-0.0002861258118149854,0.0002941208838820649,0.0007887734500307243,0.0011801758156283107,0.0014627040017104263,0.0016185774620831443,0.0016173764716542476,0.0014395492618680841,0.0011025423898492338,0.000663882271468881,0.00019385930819631287,-0.0002627838805516016,-0.0007043757453621969,-0.0011512375736498057,-0.0015989380774699506,-0.0019823238836325684,-0.0021834141380344925,-0.002086450371640694,-0.0016482468479844935,-0.0009377885155085829,-0.00011707503257248522,0.0006270215016602108,0.0011594618488304852,0.0014393615671725456,0.0015104725859436485,0.0014557075937572457,0.001349093414879835,0.001230923593209251,0.0011092144107511697,0.0009722631568683186,0.0007962957206171573,0.000546182318710212,0.00018090844207226163,-0.0003250407652734032,-0.0009487333893096297,-0.001595954339223507,-0.0021127389835264724,-0.0023372540141522683,-0.00217007909784473,-0.0016246557354539378,-0.000828562867163286,2.584853554361993e-05,0.0007559513929975283,0.001253111365001619,0.001510269634649663,0.0016046141120100062,0.001644978124296643,0.0017067081383140446,0.001783054563764619,0.0017781633824191165,0.0015502035456434098,0.0009888339366714441,9.100520625696335e-05,-0.0010049784064824537,-0.002050514845594418,-0.002774877851519248,-0.002991862950269252,-0.002674030450069611,-0.0019585994275653747,-0.0010836044857500896,-0.0002873607182822374,0.00028042018580849823,0.0005978507849320418,0.0007498247150710757,0.0008642876941510971,0.0010390947738660396,0.001291947880200886,0.0015524363617152868,0.0016959256008229778,0.0016015865017938518,0.0012084906034065465,0.0005478368819845252,-0.0002579081726533049,-0.0010258216557568487,-0.0015639819886022273,-0.0017317901840301258,-0.0014928054229914316,-0.0009381582005691502,-0.00026160402792331375,0.00031387195664904646,0.0006298436337269311,0.0006600015101981256,0.0005127574385328324,0.00036441833292758744,0.0003589623467610265,0.0005302869942810948,0.0007881485419076739,0.0009700839328948539,0.0009249389864110264,0.0005819610716191761,-2.4108577843858815e-05,-0.0007726089249230923,-0.0015008074266139372,-0.002048682810705481,-0.0022923051157467027,-0.0021659059910130968,-0.0016762097692252472,-0.0009066880595645726,-3.2868746192645133e-06,0.0008632197510016102,0.0015491592129381515,0.0019812382713408723,0.0021676062141224523,0.002170137483894177,0.0020558499557069695,0.00185839152766945,0.0015705496208172323,0.0011643910423480865,0.000618586261491886,-6.450107453526447e-05,-0.0008540366889653271,-0.0016900414381573496,-0.0024819252568874495,-0.003111704338358691,-0.0034517974552275045,-0.003399464825892,-0.002916163034947362,-0.0020526438949589245,-0.000945497809530346,0.00021680397275060089,0.0012483980678388126,0.0020222585495623543,0.002504025463425101,0.0027432923514909644,0.0028226478701883595,0.0027944506219643632,0.00264991782778687,0.002345215796829751,0.0018647675074358323,0.0012684023210229973,0.0006766341683490577,0.00019509017128611455,-0.00016965292180777568,-0.0005352777284640475,-0.0010777956900831637,-0.0019052157409193732,-0.0029481982392654243,-0.0039427122721189456,-0.004528315797734105,-0.0044163270118219074,-0.0035373144977051086,-0.0020855942432111813,-0.0004362124804729887,0.0010182228636429918,0.0020223649525637414,0.0025291272899610005,0.0026653119127888264,0.0026276854152887004,0.0025726319762651943,0.0025511116694647185,0.002506703690062035,0.002322556647568314,0.0018881916906079202,0.001158652070374197,0.00018722785644145623,-0.0008776812428803816,-0.001831160805660075,-0.00247392252177899,-0.0026760977441353676,-0.0024185127832721167,-0.0017958662873230524,-0.0009821661598468836,-0.0001737490108010409,0.00046825533210194403,0.000857586552317789,0.000995105791518887,0.000952887571145464,0.0008362946702769993,0.0007362067626789828,0.0006881244020193994,0.0006547195223841004,0.0005414257664330263,0.00024245980945132283,-0.0002986356927042531,-0.001039379445203869,-0.001825794937909732,-0.0024311091722888775,-0.00263707689734699,-0.0023254011494315582,-0.0015360973155465066,-0.00046158437983704606,0.0006242663803809999,0.0014703682647665603,0.0019379482507560501,0.002036041190341599,0.0018915883045544707,0.001674550772610972,0.0015175249832099487,0.0014667689238283042,0.0014806030187765886,0.0014655411859323488,0.001325518847625243,0.001001270749844445,0.0004887806379737277,-0.00016324734292969928,-0.0008715772700641559,-0.001544390145281818,-0.0021044376818520174,-0.002498785050552339,-0.002691654649648392,-0.0026499637863082025,-0.002340353573169679,-0.001750397227078459,-0.000924988650459038,1.1852846862932774e-05,0.0008782068247454094,0.0014990814641147486,0.0017810820737063874,0.0017507095283483783,0.001531149064660746,0.0012717726747806183,0.0010732445530948148,0.0009498358437232491,0.0008434952164871324,0.0006726753793405107,0.0003832431567826029,-2.4813424457912822e-05,-0.0005014319053926396,-0.0009699753015636723,-0.0013534978710668575,-0.0015932156138068296,-0.0016571605465196559,-0.0015408145462238944,-0.0012612682135210746,-0.0008471913553197481,-0.0003304723462931893,0.00025315733691236146,0.0008538643875961017,0.0013989582212047633,0.001801128093693915,0.0019876396547138203,0.0019347775994154972,0.0016820224057757787,0.0013112993537497497,0.0009013345925117106,0.00048685075880098335,5.113881786150882e-05,-0.0004417616701495085,-0.0009964782934835997,-0.0015516904603582217,-0.0019866691301908468,-0.0021697612420026554,-0.002024892289952751,-0.0015800743575029256,-0.000968348589937302,-0.0003744685583827314,4.972705648438277e-05,0.0002572889055643189,0.00032377943837590866,0.0003973293397705152,0.0006073656945148167,0.00098337267599335,0.0014291727048285124,0.001765651647546532,0.0018166069251636273,0.001491142254943009,0.0008224457959838696,-4.9429065891466034e-05,-0.00093258051735849,-0.0016434371937471496,-0.0020475746138269523,-0.0020768343075061816,-0.0017328897371905881,-0.0010865858222038447,-0.00027142996161679835,0.0005386022011234638,0.0011729521055079603,0.0015207119274844485,0.00157348962527158,0.001426534097565237,0.001228520738275834,0.0011017620298260917,0.001076679277014853,0.001078967212623092,0.0009764281872507256,0.0006563332165335923,8.82713578946395e-05,-0.0006592346147955897,-0.0014497830298527351,-0.002133533510554551,-0.0025941329555837036,-0.002769690184986265,-0.0026493020335655757,-0.0022598422626496756,-0.001656743205125169,-0.0009209037947651385,-0.0001528192089324254,0.0005454268860447568,0.0010986942029527305,0.0014831833501318548,0.001728976365161388,0.001894594180766551,0.002026487246001915,0.0021285216984753726,0.0021614964741297447,0.002073057110588888,0.0018375202778151598,0.0014772903028160052,0.0010486911798475128,0.0005995169255990842,0.0001281095990869059,-0.0004222973329339768,-0.0011205995887286233,-0.001976278352374648,-0.0028840661424807644,-0.0036273073200999576,-0.0039512622474542425,-0.0036751299989913407,-0.0027851005195539263,-0.001458204573086089,-3.34031864248816e-06,0.0012517985772991915,0.0020753403522216166,0.0023990078544298063,0.0023158290508567933,0.00201628678761599,0.001696204631971228,0.0014782753801015481,0.0013782186248582427,0.0013216505738683495,0.0011933287073484663,0.0008913592408239604,0.0003677154572081608,-0.00034956561029788583,-0.0011520260076690824,-0.0018681136581941767,-0.0023076873227946748,-0.0023284754134710256,-0.0019005480958942762,-0.0011339584427398255,-0.00024565958230190067,0.0005264502233089891,0.0010208767504639674,0.0012086920098560066,0.0011782607792041255,0.0010614968303642562,0.0009499841660840014,0.000851972853747412,0.0007094742564628935,0.00045281250845424,5.0144582847790444e-05,-0.0004754377947762126,-0.0010564677771324254,-0.001597077699410134,-0.001983220839673299,-0.002097969843868386,-0.0018566364922334622,-0.0012548229479209573,-0.0003979983709151858,0.0005183368428681872,0.001279630889816314,0.0017408327158892523,0.001884118269070219,0.0018128380941877236,0.001684321348794291,0.0016187642664221673,0.0016345835554984003,0.0016440670277396204,0.00150739398716929,0.0011111968691373548,0.000428701386729123,-0.0004657943106895115,-0.0014277843509232992,-0.0022960677779830284,-0.002940011331270813,-0.003282239365197071,-0.0032967867896694526,-0.0029960784770799646,-0.0024206341047759237,-0.0016358375593155828,-0.0007299395621546682,0.00019565444733006545,0.0010471728757727391,0.001762654627210716,0.002322958311150823,0.002736617521610168,0.0030047298045448867,0.003093324215867768,0.0029417778741076725,0.002509364673224341,0.0018275413452854181,0.0010137795515254228,0.00022662012931158268,-0.00041543016605724537,-0.0008984609709283078,-0.0013141143067565508,-0.0017893040515196497,-0.0023848251250140036,-0.003026621773981592,-0.0035160006200439606,-0.0036173562815446764,-0.003175404373626753,-0.0021981073936804406,-0.0008638868420384185,0.0005453112782849785,0.0017472677759206331,0.0025496802478708214,0.0028920688140397165,0.002832198305933494,0.0024957612078740795,0.002019816436978732,0.0015147163519287836,0.0010521051167054062,0.0006697884428365473,0.0003781881374679493,0.00015991554028180609,-3.321120054084706e-05,-0.0002729394807196683,-0.0006271576311493499,-0.0011164255826631585,-0.0016764591091849566,-0.0021562575907252035,-0.002367790680918203,-0.002171741352467782,-0.0015555941141054182,-0.0006577035207446201,0.0002813322158173766,0.0010175941150330208,0.0014022207033295281,0.0014298990502526732,0.0012174896523937293,0.0009310689266597877,0.0007041754000446068,0.0005883546355391579,0.0005529926015014246,0.0005216408642795553,0.00041595406840885894,0.0001846312501433459,-0.00018577905607843894,-0.0006676078557352597,-0.0011888003093033863,-0.0016355345717863684,-0.0018737932535742457,-0.0017936901346578724,-0.0013606214113333769,-0.0006444305041588255,0.00019508710892811526,0.0009641020254582133,0.0015060877508722946,0.0017547822114289775,0.0017460935306212032,0.0015872162874073644,0.0014000639135226534,0.0012652839929752496,0.0011906663949977237,0.0011156032206630251,0.000946385712579357,0.0006034163132084202,5.8462284930337635e-05,-0.0006510513083309546,-0.0014306040186320707,-0.0021521021892513858,-0.002684425217754121,-0.0029252692053768547,-0.002827765021491513,-0.0024131778340690862,-0.001763089668418785,-0.000992617461818638,-0.00021556394670294666,0.0004837667571441625,0.0010615800989418236,0.001507371239095318,0.0018265688166447785,0.0020248713699446367,0.002102485923961633,0.0020584680728595174,0.0018989754540721516,0.0016425534918691979,0.0013193048168018936,0.0009642972774544477,0.0006064975169800622,0.0002556487696715214,-0.00010613398405121858,-0.0005174122186744482,-0.0010095366657238,-0.0015679704634796708,-0.0021077586090682172,-0.002486376843592808,-0.002556284404630044,-0.002233912515498193,-0.0015497187214514926,-0.0006518888089119454,0.00024211652602989576,0.0009275639336519699,0.0012919794909901309,0.0013539060412224835,0.0012395677414704237,0.0011071884152333454,0.0010580736257127506,0.0010829697490383735,0.001073714101151484,0.0008932162254116213,0.0004634196113550836,-0.00017819271124122626,-0.0008827520706857126,-0.0014490564473132088,-0.001704874796584867,-0.0015726194642531727,-0.0010948072719162115,-0.0004143378451403196,0.0002791470899993643,0.0008157108045739012,0.001099871917907241,0.001133302044147816,0.0009977390032571947,0.0008078852523311895,0.000657445852000265,0.000582572543890159,0.0005558238120619498,0.0005081863568320696,0.00036531772532686117,8.096305402432156e-05,-0.0003447912301592637,-0.0008650840859971685,-0.0013974149748880362,-0.0018384292784625667,-0.002080807462065457,-0.0020369094887109965,-0.0016702113192332414,-0.0010230542822519824,-0.00022046517679526634,0.0005632350216707663,0.0011668269651452024,0.0015040568434344453,0.00159116547653346,0.001524310331341917,0.001419775048546128,0.0013499091998764733,0.0013078380379862005,0.001217042318921329,0.0009789588551488088,0.0005337246837940721,-9.657161865628716e-05,-0.0008039226498639408,-0.0014321406367095388,-0.0018381943016934298,-0.0019473469169610524,-0.0017751681119169407,-0.0014062674136302562,-0.0009431967131790452,-0.00045683280214226077,3.117941338743406e-05,0.0005253205820990668,0.0010131044803588325,0.0014372010824200158,0.0017060893904462648,0.0017376161166065924,0.0015061910864388288,0.0010625765722717365,0.0005141567699898627,-2.184646113169127e-05,-0.0004653262625012992,-0.0007959368431673672,-0.0010423881608572381,-0.001247865499131198,-0.001432615675207988,-0.0015742962022508111,-0.0016159110495014648,-0.0014962036977069742,-0.0011854489001944203,-0.00070668218214655,-0.00013084267475777235,0.0004501995507479189,0.0009561409978932621,0.0013386096231687286,0.0015823295075283257,0.001693565364421614,0.0016885497913059168,0.0015896706596491565,0.001426327537952302,0.001230585884836384,0.001021997294181387,0.0007887459181471578,0.00048237738043143427,3.9596288192095464e-05,-0.000573180453930607,-0.0013157408346116798,-0.002058668657218497,-0.0026119390628274505,-0.002790864100914115,-0.00249359261877384,-0.0017557839063961573,-0.000753648598511191,0.0002532681293382365,0.0010193943667201302,0.0014072039171153625,0.0014326449114608316,0.0012398794207067964,0.0010196976746640093,0.0009137624886899484,0.0009504327025406519,0.0010384264212121256,0.001016560533339199,0.0007358752562901031,0.00014008463713535964,-0.0006893754117392071,-0.0015463478965692414,-0.002171173018347086,-0.002352527915256781,-0.0020141464655761263,-0.001245704575365507,-0.00026459801597816064,0.0006709342055715095,0.001356140719586849,0.001701917892428675,0.0017448143021928022,0.0016096824178213503,0.001446477252233027,0.0013655928584976756,0.0013900577928082588,0.0014374136624643907,0.0013420375081283676,0.0009220035929777532,7.510591002036484e-05,-0.001137066689612593,-0.0024686379068672415,-0.003561397235113686,-0.00408722463347856,-0.003890963886917466,-0.003054727191040932,-0.001847155362654572,-0.000589682916376236,0.0004806237892374791,0.0012774951386500715,0.001838015263068268,0.0022370621473969624,0.002508157005361695,0.0026203522025104713,0.0025172662874345967,0.0021824209328181483,0.00168040842021777,0.001142759608598541,0.0007055035023287899,0.0004363348616752543,0.00029453197519232793,0.00014682659595652585,-0.00016746514163227654,-0.0007522439441865683,-0.0015897716545922498,-0.0025250061212042704,-0.0033077622052205746,-0.0036768648681844056,-0.0034541721305445406,-0.0026145230092988335,-0.0013074175152682967,0.0001792591582928489,0.0015065300402778337,0.002396490607288808,0.0027268042636916616,0.0025643647475882547,0.002118661068271383,0.0016349532121312166,0.0012797876276878257,0.0010757772824037887,0.0009156733429181535,0.0006433274190150762,0.00015498501294237765,-0.0005333955638731117,-0.0012854042675761988,-0.0019051668655669922,-0.0022240623648628523,-0.0021686220468347082,-0.0017802246066832945,-0.0011842101015002461,-0.0005295897458242637,6.951723203099083e-05,0.0005649287978524442,0.0009677282289422716,0.0013118739434251308,0.001609798203131067,0.0018253904291870172,0.001880672841575917,0.0016935860267455333,0.0012257594536781344,0.0005132093478317766,-0.00033606020303741946,-0.0011740112717894618,-0.0018563642111983666,-0.0022789137376141404,-0.002394770399481389,-0.002210983567297962,-0.0017714346164347697,-0.0011380866817908373,-0.0003818740291044011,0.0004144025952968743,0.001151307782189671,0.0017213619906659297,0.0020370140363181522,0.002066747547401662,0.0018569345847563369,0.0015207770684164178,0.0011920152396191878,0.0009614328555312642,0.0008282541248197539,0.0006965386435447927,0.00042513990482436674,-9.157854672954958e-05,-0.0008559500540732123,-0.0017499270261016834,-0.002576368370518456,-0.0031331452328179493,-0.003281097401896742,-0.0029788215659064584,-0.0022806515329599794,-0.001310741629869965,-0.00022868240153902015,0.000804084998243788,0.0016535521156191594,0.0022352797700256177,0.0025242707269324425,0.002548357594890025,0.002367956735911587,0.002053053730649682,0.0016683026561999416,0.0012677402359000775,0.0008914555823615127,0.0005575231378083064,0.00025217544322309217,-7.087261705851787e-05,-0.0004727802965826399,-0.0009952220805544431,-0.0016238126094862896,-0.0022701294436559974,-0.00278695472098111,-0.0030145364639571175,-0.0028385737675041705,-0.002234678904328383,-0.0012822059174508434,-0.00014515836334101027,0.0009706444294119838,0.0018706479421762771,0.0024209620563695727,0.002580231060582975,0.0024025877958973496,0.002009007212569661,0.001537700805375492,0.0010938911490060439,0.0007184655223376551,0.00038553749585196846,2.839794671428866e-05,-0.0004146975547823105,-0.0009513366934104971,-0.0015061159210900872,-0.001934243422213251,-0.002081145966585796,-0.001862443077409548,-0.0013190913699112285,-0.0006109011106249971,5.328501496460001e-05,0.0005112510494337547,0.0007153121116795255,0.0007367903627521046,0.0007099283017214502,0.0007508442041806922,0.000895017790658712,0.001080356390671992,0.0011774308376276007,0.0010493581641985346,0.0006164599344966798,-9.788275188422419e-05,-0.0009578457347864285,-0.001749640605382588,-0.002251588876297932,-0.0023141330828957015,-0.0019148516732237775,-0.001161877678061995,-0.0002444576057124403,0.0006422861909390221,0.001358951042766261,0.001842952477118247,0.0020905933392446215,0.0021247115955572962,0.001974359704320372,0.0016748614149804742,0.0012753433516431488,0.0008342496079807154,0.00039623009103311813,-3.4746241498582846e-05,-0.0004992904531939714,-0.0010469810502181168,-0.0016741271747049218,-0.002276460838793473,-0.002660990211764432,-0.0026281161039156727,-0.0020851998293679014,-0.0011230922059181408,-2.5908994001392315e-06,0.0009502596567233582,0.0014871723385441763,0.0015436147290881688,0.0012529130588803433,0.0008632443441915184,0.000603145878577553,0.0005663597786072711,0.0006743753460389002,0.0007329642501169703,0.0005499285561286619,5.05033139700903e-05,-0.0006700602080846555,-0.001382519119658198,-0.0018270869278354629,-0.0018295394918384535,-0.0013723629612986351,-0.0005907475464590945,0.0002961140410935189,0.001077217554523749,0.0016191235112962069,0.0018862067996655242,0.0019152881725161119,0.0017693444950842882,0.0014982960740175905,0.0011236318067868638,0.0006476718044302703,7.617036275564646e-05,-0.0005611272189458088,-0.001203521864218523,-0.001769182558679471,-0.0021767543526119816,-0.0023686817213083374,-0.0023251479008807342,-0.00206177316473524,-0.0016139712970663416,-0.0010206345273419749,-0.0003201980145487169,0.0004394336498918369,0.0011891197121243154,0.0018393844105911558,0.002298343625785406,0.002498770808779801,0.002421722313533129,0.002106446555778219,0.00164030323610106,0.0011277486767508876,0.0006473514863145224,0.00021756042223886063,-0.00020542548299526224,-0.0006892041919266429,-0.0012638897311164755,-0.0018747815239799344,-0.002381943840528176,-0.00261361853598213,-0.0024483722763181093,-0.0018827314927233497,-0.0010473562493960977,-0.00016123193064129142,0.0005552140657065928,0.0009670432327962364,0.001071252170887126,0.0009822429601274816,0.0008649585766733365,0.0008481025127258002,0.0009579251940736942,0.0011036783400410566,0.001123720720097085,0.0008739400995885173,0.00031772286610987234,-0.0004292505580488007,-0.0011288292191313223,-0.0015186960993970162,-0.0014354966868973685,-0.0009000771597863035,-0.00011563203386327943,0.0006264411599833819,0.0010857499706517385,0.001181280267670599,0.0010092585106940759,0.0007646000768022703,0.0006175367005699785,0.0006204163012281463,0.000694519280014793,0.0006928144445281797,0.0004906047177363985,4.9679770862531966e-05,-0.0005702998840023733,-0.0012439416941571206,-0.0018286887082294538,-0.0022068080492687776,-0.0023108198458276323,-0.0021312909227880045,-0.0017088157941379468,-0.0011144974903752915,-0.0004276519224477005,0.0002789140525480665,0.0009414920987560271,0.001501411750823694,0.0019051900370507242,0.0021150056855249164,0.0021243850722685457,0.001965833733039289,0.0016994752819166632,0.0013840366902070384,0.0010455842823574172,0.0006648824736360274,0.00019553781956062506,-0.0003938709432909596,-0.001077685754275478,-0.0017583799259142641,-0.0022922127782800347,-0.002544805056426171,-0.002447643881572302,-0.002025357472695605,-0.001381031810908486,-0.0006515284655786646,4.010784462603464e-05,0.0006123126753544463,0.0010281524478370535,0.0012854714941898501,0.0014070608279197934,0.0014332906332973992,0.0014107257362455648,0.00137332449263722,0.001324206936624656,0.0012321132758764395,0.0010487760250241646,0.0007375269083608647,0.00029486858828808036,-0.0002460049404861874,-0.0008253176299489041,-0.0013681927875850933,-0.0017918414873317934,-0.0020145317529348334,-0.0019747415925479494,-0.0016582500526141492,-0.001117979213633754,-0.0004692467483747688,0.00014504481519295436,0.0006066738407105865,0.0008667196974107188,0.0009587655748414655,0.0009720476302533922,0.0009965814945519956,0.0010674470034844933,0.0011377473271359745,0.0010978077166819435,0.0008356222919902122,0.0003097893001220856,-0.0004050585941928961,-0.001129092658679243,-0.0016433181080162543,-0.001779061566554262,-0.0014869225745114528,-0.0008538377927060954,-6.485429988627547e-05,0.0006678747405873598,0.0011757404655717493,0.001377762540291074,0.001288542056217052,0.000995866061284425,0.0006212346885800464,0.0002771114227516616,3.265918379234678e-05,-0.00010302529211629629,-0.00017583716269166998,-0.0002619785503793614,-0.0004317773473071768,-0.0007134909958238565,-0.0010697963135678254,-0.0013984110776881068,-0.0015620753005391227,-0.0014410304603769575,-0.000987967517496585,-0.00025984627302396324,0.0005912946174329186,0.0013678962697500291,0.0018963839222980474,0.0020859591249255505,0.0019512544572656016,0.0015915868127064242,0.0011403576798334123,0.0007096436424095674,0.0003521410111042999,5.089572168835059e-05,-0.00026333618227860917,-0.0006725204756591993,-0.0012195052429854615,-0.001862336304617628,-0.0024606115118611595,-0.0028136716312343927,-0.0027450883322147858,-0.002195533681343958,-0.0012709180154561886,-0.00021101733486997366,0.0007117549427032811,0.0013112081496127678,0.0015593836491108156,0.001573959729949812,0.0015324166176988565,0.0015655617400150913,0.0016918138824284052,0.0018257189260487145,0.0018476356907743178,0.0016858415640090497,0.0013592882012524725,0.0009583474588385733,0.0005808302621850136,0.00026595661144749564,-3.277459871884217e-05,-0.0004188830198895041,-0.0009826033278660014,-0.001726200515200181,-0.0025272524002628548,-0.0031664924492517984,-0.003414609150574385,-0.003137875269097919,-0.002366520862486546,-0.0012866817520987837,-0.00015957146786235526,0.0007869003788616519,0.0014359430654258209,0.0017937416112269098,0.001941276813222106,0.0019648640854517075,0.0019096471336724216,0.001778075048246662,0.0015621477267977082,0.0012765279586084107,0.0009634215993485806,0.0006651046433307541,0.00038683224397432527,8.21093720447454e-05,-0.0003217371158689207,-0.000866880622154551,-0.0015094762585277114,-0.0021028601040618284,-0.0024401427274027367,-0.002344688410317596,-0.0017661772990847327,-0.0008295947501843629,0.0001961032555752451,0.001002238220572921,0.0013707876578804182,0.001268481413796236,0.0008584957214339332,0.0004221514423089321,0.0002245555572476437,0.00038497066650916204,0.0008138776009368081,0.0012513050868849472,0.0013935673713270727,0.0010495612076145452,0.00024872260770208987,-0.000756315079117653,-0.0015976319085066054,-0.0019597395822312843,-0.0017247256744573301,-0.0010220921536746104,-0.00015826315234456216,0.0005368138825972992,0.0008647056154236625,0.0008341232544768419,0.0006217807733737259,0.0004483693355590693,0.0004453981828517609,0.0005877843435219718,0.0007225801213325603,0.0006671802857667235,0.0003163915120073979,-0.000297749258002287,-0.001017110543021857,-0.0016257439131181428,-0.00193759432094839,-0.0018631563073988559,-0.0014300759017016151,-0.0007570016297227164,-1.0846962022444465e-06,0.0006928088213114417,0.0012218117175379394,0.0015317801426564933,0.0016120800885264005,0.0014899478346005722,0.0012266777500546066,0.0009082400874567194,0.000621492659786704,0.0004171640790156645,0.00027706990569231977,0.00011216800166682742,-0.00019291747723330314,-0.0007032400999569053,-0.0013681618430684422,-0.0020138380943568093,-0.0024092752307961485,-0.0023754182808911123,-0.0018770970650435542,-0.0010455353494488394,-0.00011906466997790681,0.0006646520493389402,0.0011676599030764289,0.0013936927749138492,0.0014578486868508447,0.0015063586031955727,0.0016319324757242705,0.0018282570403649976,0.00200278403560251,0.002034286056979564,0.0018392244512653066,0.0014104285120226218,0.0008110569716169597,0.00013330523636119755,-0.0005501303686263818,-0.0012118717603532706,-0.0018577551638923183,-0.002485878818478911,-0.003046402488170702,-0.003433825040644744,-0.0035225287183833485,-0.003225750867149441,-0.002541230566874957,-0.001557107606579187,-0.0004201551195447562,0.0007088953578909227,0.0016884683427919706,0.002411635974197003,0.0028142593352191445,0.002885492043605045,0.002676499007783684,0.002292691198668908,0.0018606933438737182,0.001480568833873794,0.0011892899790233026,0.0009577183374743047,0.0007218814980560711,0.000427048435646674,5.7055262330236176e-05,-0.00036533702183406307,-0.000800094509846631,-0.0012132286328279825,-0.0015840567957850263,-0.0018938104277560288,-0.0021091036719719887,-0.0021790621823896427,-0.0020549599151652768,-0.001722642847954078,-0.001224891416351101,-0.0006544493125512558,-0.000117384469996408,0.0003130710543668479,0.0006249272066470369,0.0008612273108717174,0.001082625510004879,0.0013202211170936875,0.0015466378134945944,0.0016845393988976646,0.0016508477582733113,0.0014122223317429591,0.0010166567479861055,0.0005766650022140182,0.00020865192955598375,-3.5974271303829694e-05,-0.00020171525635917276,-0.0003966459989187927,-0.0007130001756982823,-0.0011506966954703266,-0.001595333697163587,-0.0018687111481933496,-0.0018234860415944657,-0.0014252142176806992,-0.0007732444709202158,-5.0395567581669253e-05,0.0005656986781200906,0.0009766087981852765,0.0011834169458581631,0.0012507644640415237,0.001246329979628297,0.0011978421060775577,0.0010916798340801527,0.0009046829435755128,0.0006370791742285522,0.0003165763956999236,-2.9409565491582803e-05,-0.0004054807957017863,-0.0008476520882392325,-0.0013788232307172209,-0.001949185481028739,-0.0024128010143615896,-0.0025732258266009736,-0.0022817438670575205,-0.0015287683037666193,-0.00046700099833143994,0.0006527017701162562,0.0015954879230723705,0.002238404095742553,0.0025937681087729405,0.002753792521019616,0.002799881144148312,0.0027391500884956285,0.0025081889107221584,0.002036493896166762,0.0013215284640758051,0.0004599958112455379,-0.0003901118989949625,-0.0010940507297200323,-0.0016142912932544532,-0.0020206065000584975,-0.0024252942419676453,-0.002885441668604177,-0.0033394519516780673,-0.0036229417869242508,-0.003554977745423744,-0.003039273080182016,-0.002119053702177547,-0.0009589287713067539,0.0002269054428087132,0.0012551680053875212,0.0020232529789215043,0.0025138287040373285,0.0027651976920276917,0.002831238270032314,0.002753192829069563,0.002554472561553168,0.0022552881627837117,0.0018918588162775108,0.0015209739463295901,0.0011992196896027504,0.0009450233429324074,0.0007094762328881425,0.00038427781302219615,-0.0001440760231342154,-0.0009163063293353498,-0.0018439824634168,-0.002715913125742554,-0.0032754065208919197,-0.0033336725486259964,-0.002859425051122467,-0.0019947210275013767,-0.000988140505975562,-8.410866791667818e-05,0.0005692281647157356,0.0009478841565539057,0.001114840646765627,0.00115645669296219,0.0011372469107471888,0.001090995992478493,0.0010331331283667125,0.0009677523192450667,0.000878545623330439,0.0007180647422199106,0.0004192523629690612,-6.304258994557581e-05,-0.0007015686143055287,-0.0013740722655774795,-0.0018929713668093492,-0.0020784453331595567,-0.0018365737688600258,-0.0011998079597587475,-0.0003101383342401262,0.0006412912529257148,0.0014829506727562468,0.002106862327416967,0.0024744967974280113,0.0025938538673642084,0.0024882829967253607,0.0021747861739178998,0.0016592625324098318,0.000946816307748918,6.037137952379838e-05,-0.0009408061038111972,-0.0019512266444587337,-0.0028250991886104174,-0.0034014517070932093,-0.0035454820548296616,-0.003194919213534727,-0.0023927391381458165,-0.0012869368939217713,-8.992045078349588e-05,0.0009883751641466786,0.0018022506733417999,0.002296997127793797,0.0024923836508173505,0.002441614225302421,0.0021970425921787103,0.0018023337012999542,0.0013043131196615412,0.0007596085286638626,0.0002187933897124373,-0.00030226900254169,-0.0008338561414155358,-0.0014240290333953514,-0.0020794354041637868,-0.002714467611523892,-0.0031511510064261552,-0.0031827798099459278,-0.0026724013736040345,-0.001632836173110296,-0.00024408230097552343,0.0012020638355228223,0.002404131260291417,0.0031537304931230723,0.0033952103398761464,0.0032199989205356134,0.002804214503828943,0.002323718627197542,0.0018875680975589974,0.0015152568701118346,0.0011561865002137721,0.0007299300873243062,0.0001646614322148507,-0.0005757334711244868,-0.0014732054279738022,-0.002443499888019301,-0.0033380431565502,-0.0039720849096756,-0.004180643261491959,-0.003882452893378876,-0.003118274726211866,-0.002038859429040519,-0.000846888134000122,0.000274160183446193,0.0012051513400256455,0.0018930426474137148,0.0023242800165519176,0.0025018254832974924,0.0024458854232433614,0.002209804900640048,0.0018841378747556162,0.0015702851570928386,0.0013323355460021233,0.0011581458659564534,0.0009601390940254025,0.0006233561637430918,7.868912342243791e-05,-0.0006385518755000113,-0.0013798458518301476,-0.0019343274454761928,-0.002117231506935426,-0.0018533140290357586,-0.0012150624827676712,-0.000398195391472885,0.00035381265339436314,0.000842943990886468,0.0009881484399232262,0.0008456390179865608,0.0005704993266307478,0.0003378203818382847,0.0002597258373824309,0.0003360731790261963,0.00045999843750427444,0.0004735141350360986,0.0002466855709202329,-0.00025424692578509926,-0.0009385112109874779,-0.001615478860691589,-0.002065437840361249,-0.0021294051205366284,-0.001778346000515783,-0.0011262748514127498,-0.00037638127956775053,0.000274691119442932,0.0007234775489411475,0.0009901303997661647,0.0011790013788845154,0.0013969572056284712,0.001679475304510391,0.00196618110340328,0.0021360414212917107,0.0020775265841943814,0.001750381055730594,0.001203196253671795,0.0005398439706428937,-0.00013975779541204386,-0.000783732941079902,-0.001388372204915975,-0.0019570751483003693,-0.002450878336363251,-0.0027712655495633503,-0.002795628418596597,-0.0024493171700102523,-0.0017693466496234349,-0.0009141717206903875,-0.00010441014916189506,0.00047773352467794897,0.0007749505888788265,0.0008767908902352303,0.0009614068176506329,0.0011865716083207273,0.0015901850219074338,0.00205835715258015,0.002382841256134755,0.002377919093358243,0.0019899940842805957,0.0013345631597171314,0.0006359045147124487,0.00010171569697553355,-0.00019493216714634655,-0.00035450540550825476,-0.000582338250496399,-0.0010481568087515776,-0.0017572048183221456,-0.0025148518813262423,-0.003012135332870634,-0.0029854368096379506,-0.002358316373429782,-0.001286062743171542,-8.237818974520439e-05,0.0009264793603352831,0.0015398576561679385,0.0017444170617288883,0.001677511838036399,0.0015243394539508023,0.0014118884312317955,0.0013552900204001454,0.001274824198122656,0.0010606152229855506,0.0006421643214301973,2.851235416250885e-05,-0.0006909357154283654,-0.0013747523085512903,-0.001871087952507382,-0.002060958967118872,-0.001895194257964196,-0.0014149197183243884,-0.0007436999924203276,-4.710549254430659e-05,0.0005273584828503727,0.0009020702201514904,0.0010859166832705958,0.0011482758303309657,0.0011684254759969492,0.0011913079259603997,0.0012116526075094415,0.0011866897997774768,0.0010616306000750758,0.0007921482348450376,0.00035860510027852486,-0.00022486449420959764,-0.0009034369492582235,-0.0015796300758187207,-0.002123819950466972,-0.002403006549319723,-0.0023236904509219567,-0.0018718413273749865,-0.0011277386883443432,-0.00024335722890599174,0.0006095692462193605,0.0012957563225194629,0.0017502218203352354,0.0019771510713210132,0.002020829736472016,0.0019294018208776572,0.0017331716890527842,0.0014473612199578036,0.001091046080896207,0.0007009179225533988,0.0003215447822813751,-2.610943562434461e-05,-0.0003726978815129188,-0.0007933279646743322,-0.0013544595959851494,-0.002041607460114059,-0.002720392478622858,-0.0031720801840640126,-0.003196838909793839,-0.002726095578024792,-0.0018709771630238128,-0.0008718755085640245,2.179486105779462e-05,0.0006690917327426662,0.001085359403402587,0.0013993916573013484,0.001752108460169599,0.002198366871188862,0.0026671154927737878,0.0029998578586796923,0.003042830849023087,0.002737993452055403,0.0021589360383599773,0.0014703895755687037,0.0008353957114664804,0.0003255155874399857,-0.00011165593061193343,-0.0006065036626929855,-0.0012684117596659765,-0.0020924906067256365,-0.0029296858550521302,-0.0035416338012620088,-0.0037116117942590744,-0.003350409924217127,-0.0025405181505326387,-0.0014985825229845658,-0.00048033666880736576,0.0003213233392253688,0.0008371919933457084,0.0011194900750502047,0.0012869569814634527,0.0014505162506391672,0.0016567155051608932,0.0018719693134286958,0.0020074560696220966,0.0019657389876075355,0.0016852121475854158,0.001166265857747351,0.0004746353929771857,-0.0002749536767792228,-0.0009485280370609853,-0.001427319223102849,-0.0016359880222492668,-0.0015553012675944113,-0.0012177519351785026,-0.0006939183777290663,-7.96027086849534e-05,0.0005139869595750146,