-0.003073424827084881,-0.0018746309305010544,-0.0005144565137141061,0.0007436110420769667,0.0017052828379431238,0.0022980172260968538,0.002561365646134241,0.002592304593920251,0.002484739126760156,0.0022968660621143855,0.002054070098540363,0.0017688274260378692,0.0014513558738991704,0.0010995565296846048,0.0006812017784695713,0.0001346241546911391,-0.0005964303498895037,-0.0015062492397178765,-0.002485200453686615,-0.0033279175344452716,-0.0037994130774060197,-0.0037300770927074026,-0.0030898132391552436,-0.002001583738000318,-0.0006894049047547695,0.0006071549165960023,0.0017049118599469842,0.0025044254365951322,0.0029753430778691357,0.0031273674544402543,0.002993881958919786,0.0026339801324154607,0.002137030544084844,0.0016094016487273246,0.0011377189423088046,0.0007450145567752654,0.0003689581938113914,-0.00011503657989769703,-0.0008263519154872326,-0.001795205035937337,-0.002905756119220485,-0.0039037703789644635,-0.00447837761994597,-0.004388811460380669,-0.003577225235228362,-0.002207514917055832,-0.0006043933712157958,0.000878954216903611,0.00199525888494908,0.0026702393851918077,0.002975530315726807,0.0030380757466798164,0.002951036409725406,0.002740520842659942,0.0023960292446902694,0.0019256517199812003,0.0013842322457956289,0.0008503847250293219,0.0003717169049946944,-7.656183415585528e-05,-0.0005828452813098226,-0.0012373587434801113,-0.002050885255752164,-0.0029041653976460977,-0.0035660874312286985,-0.0037836053349847823,-0.0034049032379186517,-0.002471415051698814,-0.0012215895950082,7.610983338814987e-06,0.0009361792911161015,0.0014682184948247722,0.0017148006291024802,0.00189609553124339,0.0021820790978804277,0.0025730205141319086,0.002897251660033162,0.0029268264753908,0.002533096530230612,0.0017783636513509647,0.0008839317614939785,9.76812024595158e-05,-0.0004504672066220984,-0.0008113741840328385,-0.0011598395035403626,-0.0016587635072237098,-0.002334008534374572,-0.003038397718291963,-0.0035229335538395656,-0.0035669742601194144,-0.003089353064950063,-0.002182368932720831,-0.0010601696506076725,4.106041421545988e-05,0.0009551343036679458,0.0016270337462560521,0.002092630085701993,0.0024195615909177203,0.00264891647453716,0.002770778455273861,0.002741752766328767,0.0025250668794643593,0.002121398530829229,0.0015690228590402092,0.0009167650755340388,0.00019409815518503949,-0.0005949962763878745,-0.0014451098413571853,-0.0023054941697779868,-0.0030520157227254385,-0.0035038097763213528,-0.003488544819353048,-0.002928312213160437,-0.0018994037413999267,-0.0006270654527515403,0.0005913694728564226,0.001501773237987168,0.001989478507624527,0.0021063667040714584,0.0020159618074621615,0.0018901998590599562,0.0018184832734446017,0.001778829497568784,0.0016787619566943893,0.0014287517272680275,0.000994905737834987,0.00040090551763077034,-0.0003071634423430468,-0.0010907975397536258,-0.0019116451210088089,-0.002694589011038367,-0.003303860155376077,-0.003571015127137581,-0.003371721562992061,-0.002702990166413913,-0.0017035194145956778,-0.0005965930473095161,0.00041154233574826115,0.0012158924332277353,0.001831939704779111,0.00234540977376883,0.002828954746748718,0.003277094983626275,0.003595475304885967,0.0036473013202227072,0.003328134676631842,0.0026262421728272312,0.0016354448069169432,0.0005148545700858348,-0.0005799988857115572,-0.0015543166690700607,-0.0023874469905673227,-0.0030987889952307974,-0.0036927220892082908,-0.004121069027862533,-0.004287272212533256,-0.004087332537856768,-0.003460719371615021,-0.0024241702955577066,-0.0010777327646422637,0.0004114904133003347,0.0018384352196501549,0.0029975298536172694,0.0037267152433084565,0.003950837249563736,0.003708697303409065,0.003146237701338297,0.0024690575462796246,0.0018675203605351724,0.0014453534772566508,0.00118460884073935,0.0009626826664252983,0.0006117782166771145,-5.870117872375973e-06,-0.0009349698102926303,-0.0020952370654812175,-0.0032894893641716443,-0.004252530143562626,-0.004730845403895932,-0.0045683339811957435,-0.003763478831057268,-0.0024711543406161175,-0.000948032839195206,0.00053203938318994,0.001755544215360564,0.0026120102362197153,0.0030936638067637274,0.0032614375982465338,0.003197678111505185,0.002968493395971961,0.002611345304958264,0.002147446999996044,0.0016023038033792108,0.0010134491916547648,0.0004168032276701803,-0.00017670983476693257,-0.0007906348823893323,-0.001461558452131515,-0.002192139957575643,-0.0029072066611478932,-0.0034480345743833516,-0.0036213529957899605,-0.0032851714239718567,-0.002426363228426164,-0.0011854720976844394,0.0001866129749511431,0.001417572076592701,0.002303883400784626,0.0027634112223155404,0.0028353403207022065,0.0026378114283065,0.0023079751011458967,0.0019497978019169494,0.0016058837987212211,0.001257317393528305,0.0008456837196798592,0.0003065965355483124,-0.0003962243715842002,-0.0012450727554827448,-0.002156752053112235,-0.002989821053846365,-0.003572991826205436,-0.003752229423854743,-0.00344486484207174,-0.0026792526219004452,-0.0015971936793891337,-0.00041018377618438494,0.0006750070026543624,0.0015264350452047612,0.0021181003730215836,0.0025088228449927515,0.0027844409231343767,0.0029973931759258166,0.0031362159978017587,0.0031383686338943397,0.0029343975745692724,0.002494108081109254,0.0018464320047800918,0.0010634531213549114,0.0002227692057105258,-0.0006253359101524645,-0.001465704363818597,-0.0022988784139817606,-0.0031086214185631024,-0.0038364657039101323,-0.004378271884892933,-0.004606661750434625,-0.004411742700034691,-0.003744832684954064,-0.002648281871289575,-0.0012593337834048818,0.00021528800103651495,0.001548764631138897,0.002555481862976265,0.0031462027380606133,0.003354840379226357,0.0033185208891280157,0.0032107768596191656,0.003154909649044173,0.003162777168861153,0.003135745372517205,0.0029291229530557026,0.0024408790996097805,0.0016688648521368714,0.0007019560900895509,-0.0003435964396131517,-0.0013925139132651343,-0.002429931711577678,-0.003454687915673255,-0.004401572286679688,-0.005098274363339243,-0.005305856559793501,-0.0048342472874857685,-0.0036657223303988447,-0.0020041279201443952,-0.0002103954299508162,0.00134319261363863,0.0024173715587194698,0.0029714525193605843,0.003125731597843082,0.0030583784637021848,0.0029052177560761326,0.00271589481317426,0.002475134989979178,0.0021548884506445145,0.0017493695404090849,0.0012677217115840658,0.0007006173732741,4.472362941990176e-06,-0.000864854094944268,-0.0018820399255478231,-0.002900581501991571,-0.003673370581872131,-0.003951574563764321,-0.0036079984566293843,-0.0027073142206830406,-0.0014781027507136388,-0.00020625131941119944,0.0008829434795998506,0.0016887335741858278,0.0022237407143235214,0.002554577899663091,0.002740555725433352,0.0028029556055972865,0.0027292977328045383,0.0024962005858298365,0.0020902388728399265,0.001515071184356782,0.0007858865126940267,-7.86453041429904e-05,-0.0010551891149340616,-0.0021004875275306137,-0.0031292265477379675,-0.004001770104037836,-0.004538150791860312,-0.004563079468163736,-0.003969745137207127,-0.0027770829637883796,-0.0011532118902593596,0.0006116933554307078,0.002180984225437753,0.0032731195773730497,0.0037521390320241353,0.0036683030006583166,0.0032265798847855927,0.0026919295066783573,0.002272378480683063,0.0020349268595159955,0.0018944067594795842,0.0016775610823244794,0.0012248405239724655,0.0004741858715561519,-0.0005146509884528188,-0.0015990155998295362,-0.0026223349208735845,-0.003467374690896103,-0.00406634262699567,-0.004375127129532084,-0.004344576559435632,-0.003920379846940027,-0.0030774154806384106,-0.0018649099125668232,-0.00042724773819402453,0.0010213186244056216,0.002261905643812962,0.003145161615081449,0.0036355895695416827,0.0038018032230871476,0.003758736725359519,0.0035964081990491744,0.003337924504271763,0.0029502911033487036,0.0023964954179191557,0.0016888400387525466,0.0009017504761706589,0.00013113471915401963,-0.0005714523749685103,-0.001238350071027915,-0.0019618844527873706,-0.0028139950038435276,-0.003759605291384631,-0.004624941889607947,-0.005151241338142246,-0.005110731749924597,-0.00442045094835258,-0.003188299579197365,-0.0016662599219668822,-0.00014104618020642382,0.0011740977788949017,0.0021910970529971027,0.0029270429969967884,0.003439830988756008,0.0037659471430680287,0.0038962575960175484,0.003797046515268939,0.003455503611827577,0.0029155567721858926,0.002276718433325822,0.0016515463150964778,0.0011042348330246822,0.0006081418568913998,5.365687229042464e-05,-0.0006882365955365297,-0.0016740476133238107,-0.0028166282578642177,-0.0038804862661932825,-0.004557959127281591,-0.004595794404771121,-0.003909967901699783,-0.0026300528450867258,-0.0010524660362255544,0.0004704522903463505,0.0016510797424852783,0.0023468911325504375,0.002576387954490666,0.0024752266517377094,0.0022179414943881057,0.0019402399591032654,0.0016935498150191428,0.0014465362758149492,0.0011242145650115492,0.0006583484865296679,2.381274470131714e-05,-0.0007492209051948375,-0.001582470810182375,-0.002366997399204512,-0.002985977983746329,-0.0033412543607371156,-0.003379113969931538,-0.0031044142959816166,-0.002570999788745433,-0.0018467148290520828,-0.0009699148046131119,7.224397383151786e-05,0.0013193831497909552,0.0027698243975326684,0.0043043376994848954,0.005654881089996891,0.006458993174869407,0.0063978612198658516,0.005361112657517051,0.0035464274527339562,0.00141861380507781,-0.00047475613915272266,-0.0017441104515566578,-0.002322835284218799,-0.0024620944068221235,-0.0025611940561328416,-0.002934548805789035,-0.003645493365145471,-0.004487738626425443,-0.005106438454357542,-0.005179591875337127,-0.004562925799027098,-0.0033365873816018398,-0.001751045184292184,-0.00011669648022019503,0.0013049655783623259,0.002367936787831531,0.0030527836808305377,0.003430009862146152,0.003596458796445765,0.003614441754793852,0.003484244728006388,0.003164878127202561,0.002628049681148628,0.001906205985651916,0.0010980822069198441,0.0003252951053879015,-0.00033099927742332607,-0.000869650494486475,-0.0013571602671083565,-0.0018694094320746456,-0.0024231284261953295,-0.0029396126637185496,-0.0032639748592896284,-0.003230976007951852,-0.0027432103621748394,-0.0018229442470353988,-0.0006147598069425682,0.000659436813573514,0.0017713840779641997,0.0025531552644155503,0.0029343772873182553,0.0029413579641619824,0.0026685917276389626,0.002241750912372992,0.0017844034662991323,0.001388416059528712,0.0010855699465153155,0.0008283762666856126,0.0004982092842711685,-4.663736191553803e-05,-0.0008927861876049234,-0.001998115443121545,-0.003165875157027254,-0.0040928008818048155,-0.004480276127935774,-0.004159967763808552,-0.0031714080521353105,-0.0017507187880084047,-0.00023582871173779906,0.0010634905557346684,0.0019674181082975552,0.002456229691358246,0.0026267896388769254,0.002611371159050185,0.0025076268495534603,0.0023515984912051077,0.002133343025655148,0.0018294752865562595,0.0014241595937800652,0.0009087703946105553,0.00027376831595914326,-0.00048591754050328903,-0.0013451787036322565,-0.002219302908066913,-0.0029587118404872294,-0.0033842453071299163,-0.0033528012397042025,-0.002820338799370518,-0.0018666752415931955,-0.0006672251586614137,0.0005718933685684729,0.00167780997719067,0.002540255864118401,0.0030997879785471766,0.0033192327629566988,0.0031730219797134374,0.0026691935366151536,0.0018842151037192108,0.0009716230336059165,0.0001207906577185185,-0.0005188187355128238,-0.0009023202882163248,-0.0011011264017198024,-0.001253703830902198,-0.001484702946781112,-0.0018374813207160088,-0.0022532167322810246,-0.002602585740555734,-0.002750119618634432,-0.002617503592397168,-0.0022139809605879234,-0.0016194054595740533,-0.0009323126782973129,-0.00021707595945522182,0.0005151649701021206,0.001280371600033474,0.002070490619632555,0.0028154207809286996,0.0033880602827495183,0.0036541198325975486,0.0035385548339769476,0.0030686333114727554,0.0023674387403538315,0.0016013094218536507,0.0009101030135473875,0.0003547978389267048,-9.669056167233193e-05,-0.0005444021062407912,-0.0011046720561208234,-0.0018500668942892208,-0.0027602077329348966,-0.003702115991281941,-0.0044537568955297134,-0.004771409424332936,-0.004481474066855945,-0.003559392703043149,-0.0021556725303236253,-0.0005492133826358191,0.000955337148635225,0.002136955009469618,0.0029188490879661997,0.0033524952893527592,0.0035430537636896913,0.0035676385081183436,0.003436684771602418,0.003115446087897861,0.0025821942524218906,0.001878679721199825,0.0011169854497493981,0.00043582876544507264,-6.969079546383398e-05,-0.0004039509279737223,-0.0006764492035320154,-0.0010468099056257295,-0.0016324841668343487,-0.0024264836011175963,-0.0032719806530764235,-0.0039135935938028645,-0.004104811713089577,-0.0037190667592337297,-0.00280735176399005,-0.00157303032464135,-0.0002801642537864626,0.0008522145961876562,0.001713780458090136,0.0022986790442025918,0.002650902817266882,0.0028051019187222527,0.002764825759775493,0.0025284302506320775,0.0021353649078978596,0.0016880348480490112,0.0013196900568939773,0.0011181871594069107,0.0010533051722104486,0.0009638076377250489,0.0006288103999470559,-0.0001063908711021874,-0.0012204424159918904,-0.002489754641003824,-0.0035680341531494665,-0.004133376623896269,-0.004026610350016644,-0.003310057507577239,-0.002220851472286798,-0.0010507398318686718,-2.0926975454000013e-05,0.0007844875297395141,0.00140293845829685,0.0019193921555862843,0.002384310460973454,0.002769961614097467,0.0029849393145788055,0.0029341247713716733,0.002587797058609287,0.0020186204807008286,0.0013807085104530776,0.0008348979626504783,0.0004561862929757083,0.0001768735481290619,-0.00019138165637731818,-0.0008533272697368298,-0.0018920005461604524,-0.003175855148455586,-0.004374774506431451,-0.0050897466002751334,-0.00503275389519986,-0.004160031169486405,-0.0026870988695075633,-0.0009827947779856027,0.0005930549960736717,0.0018198731719462375,0.0026555147792296074,0.0031832121397575453,0.0035139357855935114,0.003706602622102923,0.0037468378509996503,0.0035840862461101308,0.0031923506753475006,0.0026106175838070816,0.0019370430314056468,0.001282075661439759,0.0007101034517287385,0.00020396196520227326,-0.0003276157309139461,-0.0010016604133429431,-0.0018921430920723176,-0.0029703874101755954,-0.0040838220124254756,-0.0049900944483120815,-0.005439812531084115,-0.005274122049103327,-0.004489907942760096,-0.0032385309542583354,-0.0017591544995727362,-0.00028357738467745295,0.0010369587795033954,0.002149493111776338,0.0030634229633627035,0.0037929014010758613,0.004316703694738352,0.004578180056317221,0.004520987189401589,0.004135108213617729,0.003482593016481016,0.0026849344540836135,0.0018765614721700514,0.0011487281858978415,0.0005140413861669683,-8.901014766626641e-05,-0.0007535191688177261,-0.0015454288509108695,-0.002457876674672997,-0.0033998200765289217,-0.00422232903977105,-0.004768248424255469,-0.0049215773623110595,-0.004635615702043322,-0.003932268705369462,-0.0028818276218599012,-0.0015822157594565004,-0.00015139370131756166,0.001270094330893383,0.002523058899587494,0.0034540863757183187,0.003957080417901043,0.004011530652537189,0.0036943734766692526,0.0031550497361399715,0.002561966681174262,0.002042109895561138,0.0016382893496683008,0.0013006864318299608,0.0009153688067517537,0.00035848295648015146,-0.0004436152344855801,-0.0014688490521760132,-0.0025842057277179883,-0.0035691877543137275,-0.004177031790749836,-0.004219384829397308,-0.0036442989189699447,-0.0025697301038385815,-0.0012479051632955228,3.0155711611623982e-05,0.0010451840786416325,0.0017188842728848041,0.0021082291752657226,0.0023348438562725495,0.0024960727789205646,0.002610834246984032,0.002626561160240323,0.0024722756561345893,0.0021153148133334293,0.0015826719171260148,0.0009369280349398591,0.00022946386743928572,-0.0005312595657276156,-0.0013691239990763263,-0.002289348720657367,-0.003219382200286401,-0.003986518845842612,-0.004360380353153772,-0.004149004215225161,-0.0032995922793091323,-0.0019460036728468503,-0.0003728062719616033,0.0010882634050200307,0.0021786640823952593,0.0027941545091491595,0.0029937496587758754,0.00294039900754356,0.0028084829291189733,0.0027043661622082864,0.002633937940639776,0.0025240896809991943,0.002278418298199733,0.0018338278153974812,0.0011890239165640803,0.00039449984528336195,-0.0004831763533152803,-0.0013944971644365258,-0.002311831956021889,-0.0032015557004282996,-0.003986170747524167,-0.004531219627885117,-0.0046772707970969265,-0.004305293863768622,-0.003398670199816517,-0.0020660049508443726,-0.000513502608198071,0.0010160429850291461,0.00230777937093606,0.00321962115777879,0.0036998055895452473,0.003781129359828375,0.003558561111617684,0.003156182243845616,0.002691322759742896,0.002246733432385383,0.001859144608365234,0.0015233668852911593,0.0012027674576158226,0.0008378231672522529,0.0003538666547552308,-0.00032263405363858324,-0.0012324615543125258,-0.0023434073511444577,-0.003522658924101112,-0.004546229457168626,-0.005155963902221977,-0.005149315537137544,-0.0044645016436332145,-0.0032187039422903307,-0.0016756572132032885,-0.00015287029028778764,0.0010908893743100596,0.001937411032351308,0.00242526437487813,0.0026974015742548324,0.0029090613629528246,0.0031420884157156532,0.0033667302876495275,0.003467178721446087,0.0033144582490232076,0.002846354655576222,0.002111585328233769,0.0012551173008237878,0.00045224195433417,-0.0001747897007037313,-0.0006142575425359424,-0.0009653793944397902,-0.0013792063273535765,-0.0019685097735801663,-0.0027316032275680685,-0.003528771874759754,-0.0041252511582342884,-0.00428368640297479,-0.0038653355661414724,-0.0028938688169403114,-0.0015525833313623947,-0.00011773855031251766,0.0011398937711267782,0.00204202959020695,0.002545018197435016,0.002725525895177114,0.0027212901471804505,0.0026559845978616024,0.002583518625749454,0.0024774537724899974,0.002267171136776238,0.0018956525339040831,0.001361221644416532,0.0007175123305396238,3.595126438219452e-05,-0.0006375142295698709,-0.0012955198379359448,-0.001940065846249386,-0.0025340572601740474,-0.0029761897216214954,-0.0031283108667303,-0.002886126145861188,-0.0022498158323027116,-0.001347050638766315,-0.000389832770411407,0.00041276544340561707,0.0009388941884778004,0.0011924164956982103,0.0012797830536123446,0.001341381399213022,0.0014738767064051083,0.001681519244409132,0.0018784126517179226,0.0019380794822081982,0.0017627616366305005,0.0013347527011539138,0.0007226258379630192,4.223339468757486e-05,-0.0006002106943396109,-0.0011464386474353153,-0.0015852270672570062,-0.0019206941018643229,-0.0021381068888928303,-0.0021928197908050347,-0.0020284849365564466,-0.0016114546431174946,-0.0009610862559144681,-0.00015999189846912758,0.0006620482631234054,0.0013657899303216824,0.001846939924810653,0.0020673393132817925,0.002058045454979025,0.0018937497256453404,0.0016531213492075936,0.0013860737332092718,0.0011027081488205028,0.0007838507033936521,0.00040001967739301656,-7.525575701113506e-05,-0.00066000711896824,-0.001356248402674475,-0.0021313765068020924,-0.0028948049423378358,-0.003490942462420951,-0.003728737223271753,-0.0034485623117685004,-0.002601159625315352,-0.0012979543867314,0.00020147696182463504,0.0015712093405091283,0.0025397042135754536,0.002993294261686365,0.003008943229714127,0.0027970640257565273,0.0025838140768782536,0.0024962445653449014,0.0025106980809346145,0.002486018332226063,0.0022536880409709257,0.0017087009638905712,0.0008534827525881725,-0.00021742825004861303,-0.0013679434193096878,-0.0024679684178547322,-0.0034128154144166534,-0.004116303935430802,-0.0044987198706760234,-0.004489811786307269,-0.004050287546330566,-0.00319839275197398,-0.0020232777837607243,-0.0006746094252832867,0.0006694347389625819,0.001843853624498786,0.0027328253303290115,0.003287742942267045,0.003523131053717988,0.003495965801202044,0.0032799557173510117,0.002945323418005118,0.0025482067768638527,0.0021271944913392312,0.0017015794999350364,0.0012670707808900318,0.0007893774791608995,0.0002033652889953588,-0.0005694489786630088,-0.0015778404274382576,-0.0027838056613289225,-0.004023798197820856,-0.005024205078585361,-0.005483383719469484,-0.00519246571264795,-0.0041367731394921,-0.0025219415219053646,-0.0007055085232009532,0.0009356391764957806,0.0021386102299876587,0.002827110572935713,0.0030954233505415827,0.003121876802866065,0.0030638340949348548,0.0029906328819620733,0.002883881081506959,0.0026919947800761734,0.00239388209572419,0.0020253910375462644,0.001651508958425592,0.0013065057228830352,0.000946728811972713,0.0004532383023647689,-0.00030883588135333984,-0.0014010489797426145,-0.0027390586652703153,-0.004080478756872141,-0.005091597559735797,-0.00547195341713854,-0.005080583831676987,-0.00399912973122081,-0.0024959239651528697,-0.000908796148435611,0.0004901521672082048,0.0015773272011155512,0.002372714538787836,0.0029645246307009364,0.0034168902925350323,0.003715783396591961,0.003780024736862679,0.0035245194011932885,0.0029328725406584234,0.0020917713406980155,0.0011628462386968055,0.0003066200120634753,-0.000395209944039684,-0.0009692056559111787,-0.0015103134568487306,-0.0020961520793526802,-0.002709730106696891,-0.003220899315718011,-0.0034406467210377806,-0.003217671021678182,-0.0025218096877242316,-0.001468240099942679,-0.00027235357083764584,0.0008360209898808849,0.0016923656951694378,0.0022350412859896505,0.0024925839253841842,0.002539132131203931,0.0024474289170210647,0.00226197463385063,0.0019974432396495873,0.0016512817976406598,0.0012144510510962523,0.0006726927090187506,5.042715144989258e-06,-0.0008058945807997818,-0.0017446087389951597,-0.0027262619880523203,-0.0035818697651144988,-0.004091001093314125,-0.004061307686165874,-0.003419518547613832,-0.002262129359795807,-0.0008315281238535857,0.0005745537606405371,0.0017137295189734584,0.0024736400317081526,0.0028783664982528373,0.003034007867416812,0.003051324261101816,0.002988924636661938,0.0028420551773649604,0.0025729627526251296,0.00215568047792449,0.0016028905091082409,0.0009576024920724545,0.0002585723093964467,-0.0004910561185763266,-0.001321830281801132,-0.00225461416908233,-0.003239702150966051,-0.00412310223827045,-0.004675750204836612,-0.004683335060665081,-0.0040513343935229765,-0.002863929934882093,-0.0013605405138404304,0.00015736753350619777,0.0014379287516496364,0.0023532016765069825,0.0029075745104519476,0.0031891335631292904,0.003298590266897901,0.00329416748559363,0.0031755904117609797,0.0029068842405290084,0.0024585198609903356,0.0018425778244363067,0.0011208213960808204,0.0003805855571447603,-0.0003089101992929331,-0.000934049795487191,-0.0015416009383637155,-0.0022002001759547866,-0.0029348068303491166,-0.003672179843826384,-0.004235672784405077,-0.004402754585058158,-0.004002528073322901,-0.003005177318138971,-0.0015561034266154401,6.560460542490653e-05,0.0015463699694914326,0.002648026929731475,0.003277539581760325,0.00348843554692883,0.0034218323437218375,0.003223703415290774,0.002981484545620333,0.002706192957119879,0.002358444304199251,0.0018949171282781766,0.0013061036379886834,0.0006260633805763135,-8.718489043444506e-05,-0.0007852607877317402,-0.0014538258488364173,-0.0021097296795521874,-0.0027691304117482825,-0.0034044256397384033,-0.003919156804160587,-0.004163840002533076,-0.003992875769830907,-0.0033365381497518034,-0.002249540984750578,-0.0009074822495790172,0.0004503930268865237,0.0016044539943729564,0.0024223919337578582,0.0028804845426460696,0.003036450183184671,0.0029793831366732946,0.0027893903654778755,0.002523771379814202,0.002223223406836711,0.001919383484298525,0.0016305107959446907,0.0013472180035255204,0.0010221423984151893,0.00057858981544431,-5.6623069162925065e-05,-0.0009061882596339138,-0.001903669258796443,-0.002887398311525911,-0.0036390510189486035,-0.003957502995624521,-0.0037377715032655863,-0.003016868787308392,-0.0019610712422256575,-0.0007988233262990047,0.0002664564189715331,0.0011187689238943838,0.0017386819460679238,0.0021637430039330744,0.0024328289355291365,0.002552565832769448,0.002503960809815789,0.002276698497299574,0.0018991656517727176,0.0014370833766119016,0.0009579326960361014,0.0004850647642853717,-2.3111996156199795e-05,-0.0006456910096412304,-0.001431128296392684,-0.0023273882329504594,-0.0031595634333418097,-0.003681468504451399,-0.003682287198906679,-0.003090683239616713,-0.002015852076371028,-0.0007023784459400796,0.0005724680917357119,0.0016004942227277968,0.0022943001721066024,0.0026759163736262337,0.0028243539508933263,0.002818294304461049,0.0027019479346360375,0.002482560738466961,0.002150194258206648,0.0017020534675698867,0.0011556483014994508,0.0005439237443910217,-0.00010310690040490152,-0.0007758225408068149,-0.0014842916651457596,-0.002231622175641136,-0.002973447991432382,-0.0035928452266263205,-0.003918688647321473,-0.003791593311671175,-0.0031484080089112065,-0.0020761223113479796,-0.000795841480816818,0.00042396248730702053,0.0013805130845045278,0.0020109632479175022,0.002384081856607963,0.0026178629996482525,0.0027800539446728926,0.002839991350075257,0.0027050884132283426,0.002315327150563086,0.001724287750317817,0.0010994733625401612,0.0006299275149204053,0.00039841603299237,0.0003075179977354292,0.00011854965030622133,-0.0004101900044281997,-0.0013647618055163842,-0.002591844186809057,-0.0037433534692910215,-0.004428801078402859,-0.004393231466886539,-0.003626193597402771,-0.002349889428634968,-0.0009041472366205112,0.000401250152169004,0.0013897238862860786,0.0020365416357171207,0.0024148280063986133,0.0026151746770799824,0.0026873260747689895,0.002629418717645945,0.002419619306054348,0.0020625151088487425,0.0016165407964598953,0.0011805244291981341,0.0008424928178824553,0.0006202456606535433,0.0004342321884043896,0.00013831882484742405,-0.0004005989341187855,-0.0012158587057495105,-0.002197328294131575,-0.0031182610920923908,-0.003720465120131069,-0.003814316706683042,-0.003346545834228748,-0.002411242886361806,-0.0012093124543157464,2.003329147014319e-05,0.0010694270399927422,0.0018141031878318617,0.0022292231926622024,0.0023699860865191045,0.0023260238627592937,0.002174936987971678,0.0019594516082950026,0.0016952572379026975,0.0013938219972705532,0.0010746076206285973,0.0007530467323166466,0.00041527886635153694,7.346634927695482e-06,-0.0005398048718222021,-0.0012545995612213538,-0.00207112385627685,-0.0028182267644884526,-0.0032716141658077754,-0.0032499452912001132,-0.00270366251793882,-0.0017446263925008465,-0.000599016838973472,0.00048808836984113365,0.0013426441372429393,0.0019024407536741956,0.002199759880594954,0.002310534131944034,0.002306637402027339,0.002234504094287882,0.0021182416817906364,0.0019689150977057496,0.0017845242033559632,0.0015411295496283164,0.0011886335662941935,0.0006639709371976717,-7.796296683989482e-05,-0.001028818511147865,-0.002105187371218503,-0.0031537817823209394,-0.003983793532694068,-0.0044150268597851795,-0.004325797116748433,-0.003687721999679306,-0.002580253664269383,-0.001181183217709176,0.00026901144732975407,0.001526108997766309,0.0024102915939744098,0.002857502306391184,0.0029276087417762953,0.0027616115217699057,0.002509485701034679,0.0022686965414925432,0.0020645488015934433,0.0018729231123811641,0.0016579113902591774,0.0013930661337167283,0.0010560924366907836,0.0006133893166523814,2.0789482202226615e-05,-0.0007471369113557431,-0.0016533517000441457,-0.0025728787179451116,-0.0033136406016442592,-0.00368430041905909,-0.0035769570006709307,-0.0030176385028472612,-0.0021535250193801085,-0.0011840123383683955,-0.0002772202505372498,0.00048020612389295606,0.0010783665377682385,0.0015412354082018913,0.0018840025609819563,0.002099590353609058,0.0021748692006693182,0.0021149039031514334,0.001952974306144064,0.00173966075058594,0.0015195661660281354,0.0013089439345187206,0.0010839477444316197,0.0007848996138794346,0.00033899819290832123,-0.00030196823376708827,-0.0011226741825234483,-0.002025150763844725,-0.0028447151638992486,-0.0033974030788686527,-0.0035375393938097245,-0.0032011048043590375,-0.0024222443027187806,-0.0013240845864891508,-9.092928115887224e-05,0.0010716783988306273,0.001982459095662831,0.0025256809983452934,0.002676221187219819,0.0024995956878438278,0.002126057313449491,0.0017060882667154088,0.001359965329039104,0.0011364525253998946,0.0009954467012006608,0.0008247649479842527,0.0004901351626402287,-9.786692923012858e-05,-0.0009278629032484522,-0.0018702145136371912,-0.0027106181048791797,-0.003223900333223141,-0.003257065571150888,-0.002784912061805769,-0.001914296457522849,-0.0008384665151199875,0.0002330814964318417,0.001135096441268961,0.0017745524177071252,0.0021256999068924,0.0022096822428108137,0.0020781919399975226,0.0018072986350137327,0.0014910355955314424,0.0012197496451284728,0.0010415480392297935,0.0009265015341327438,0.0007635617167076606,0.00040705679954004446,-0.00024142987005160068,-0.0011583935986231855,-0.0021776004894527284,-0.0030427896471998143,-0.00351057915234211,-0.0034494167751431453,-0.0028830977879299637,-0.001962117498642256,-0.000888619634596264,0.0001583635600558864,0.0010627233452437513,0.0017717408515535616,0.00227542876739245,0.002584856435461063,0.0027185622036383465,0.0026971690612341793,0.0025442458298175555,0.0022904804962134923,0.0019743486780018737,0.0016307230383952832,0.0012665664333525335,0.0008381573678982241,0.00025431194203207074,-0.0005786418833299586,-0.0016820496687162132,-0.0029415946253377482,-0.00410379933909287,-0.004853256377156999,-0.004942156375414135,-0.004304841506686966,-0.0030915280318320705,-0.001600379739439878,-0.00014711956354524023,0.0010543482463791346,0.0019399995977374906,0.002560050440142371,0.0029957279255253405,0.0032849299319472583,0.003398804885548593,0.00327543983307914,0.0028818196080386237,0.002260431715567292,0.0015294423823161642,0.0008357293415869372,0.00028800715193321553,-9.355327708166611e-05,-0.0003857973812571597,-0.0007242352048168409,-0.0012324596522985188,-0.001948026609521172,-0.002779069582200297,-0.003517553441549791,-0.003911010942187104,-0.0037646002858610014,-0.0030272478225101184,-0.0018216012807832568,-0.000404026887549919,0.000927147389563164,0.001934969556290151,0.0025152217009411877,0.0027078204787191543,0.002647983084910224,0.002484761706272448,0.0023094279062788976,0.0021290100631072843,0.001892525913959649,0.0015446925190933621,0.0010668864529885067,0.000480157814245185,-0.0001811683969100579,-0.0008922924027525317,-0.001630085746630261,-0.0023393606105468175,-0.0029080871916004414,-0.0031868278430333056,-0.0030549327901464576,-0.0024952787893764146,-0.0016241958856997138,-0.0006484176838855238,0.00022993760207453882,0.0009016904161713926,0.0013760252247524874,0.0017295924684849354,0.0020191829363542906,0.00222285548559532,0.0022521766325384507,0.00202498209251667,0.0015430650291821451,0.0009149775669745421,0.00030305588236611734,-0.000171987278178377,-0.0005036046683299732,-0.0007964082471241528,-0.0011846349059074816,-0.0017229273484178228,-0.002321288721897753,-0.0027692991736475926,-0.0028383356272053987,-0.0024024984390642167,-0.0015091686714873503,-0.0003614294448114404,0.0007751391647219317,0.0016890359265574362,0.002300742272541617,0.002662773072103842,0.002886504461444666,0.003043459915559602,0.0031059837427895587,0.0029687796713001174,0.0025383451077493555,0.0018262769490584516,0.0009728649170059752,0.00017186985584965607,-0.00046101056543684446,-0.0009849618322133845,-0.001616926135752354,-0.002590140298633145,-0.003962053918226772,-0.005491232930111605,-0.006677243121003714,-0.006968028435596901,-0.006034993970059459,-0.0039629896644169625,-0.0012416610346406734,0.0014420113578745908,0.003494739559568578,0.004634877932011191,0.0049363528474621375,0.004705730389574809,0.0042864934224851456,0.0039025152218424195,0.0036054882895061903,0.0033204947787219418,0.002935758391256353,0.002377824468059973,0.0016411559177755663,0.0007748120528181971,-0.00015131700278196757,-0.00107590888844383,-0.0019555983976998165,-0.0027529513889732295,-0.0034153872811525368,-0.0038641408321983687,-0.0040070340139999674,-0.0037737133556879996,-0.0031567828709383955,-0.0022363967073924973,-0.0011717794586763035,-0.00015723190307862683,0.0006428773077970253,0.001152384796650892,0.0014056194024594745,0.001519413514677768,0.0016265270371097517,0.0018040299992697526,0.0020334542236062035,0.0022118484211617034,0.0022056573003328855,0.0019184888823363315,0.001339187422773286,0.000548559299536256,-0.0003151985529796107,-0.0011116506726977513,-0.0017443329634375317,-0.002176406145208069,-0.002413561084122236,-0.002470564531122108,-0.002344654828806618,-0.002011790238239705,-0.0014469203798954037,-0.000656073715644533,0.0002979509626329783,0.0012919361873409932,0.0021669418337288337,0.002774601528883143,0.0030262486267087123,0.0029218468085904477,0.002544188630931596,0.0020215535847863857,0.001476944485227619,0.0009844792107342453,0.000546157042612441,9.506635823288606e-05,-0.0004722732204692096,-0.0012378984229331922,-0.0021964975515453657,-0.003214760084603482,-0.004049144621694662,-0.004429861688937861,-0.004178198483339285,-0.0032960362631774456,-0.0019751712168808383,-0.0005186521409860675,0.0007826897661548553,0.0017528331063761085,0.00236502599845173,0.0027034070884895097,0.002884725316871173,0.002986667102455683,0.003017536818636637,0.0029352866905103135,0.0026959384723726546,0.0022958105219044334,0.0017778617012685887,0.001197843026799773,0.0005753952752926649,-0.00013099603797509386,-0.0009982941889530752,-0.0020672513361890705,-0.0032632107436367207,-0.0043633076943005705,-0.0050479767677317836,-0.005029176624898964,-0.00419593474613021,-0.002694907928255344,-0.0008917021852557412,0.0007749821833273656,0.001971734397937707,0.0025885153752917976,0.0027400854600184398,0.0026611996930361276,0.0025627728911889924,0.002531156788498282,0.0025191581620346067,0.002417684356085146,0.002149351236799717,0.0017197842473999489,0.0011992067153824987,0.0006580992518285835,0.00011060160518114236,-0.0004905038134602123,-0.0012032656908808447,-0.0020271165883989444,-0.0028642191088055825,-0.003539428521710813,-0.003867711705839645,-0.0037301961998120257,-0.0031199459449545107,-0.0021402280771538225,-0.0009634909561883234,0.00022538583703804406,0.001276459686812996,0.0020970752659988314,0.0026486157849663744,0.002930117896943874,0.002964626348357354,0.0027956690190321615,0.0024872746658802366,0.002113298147842825,0.001728755032526735,0.001334465304838227,0.0008623006055313816,0.00020552711431315654,-0.0007074084310489211,-0.0018322877489281944,-0.0029758667496103544,-0.003845506471040201,-0.0041688258588835955,-0.0038227338764003204,-0.00289818106377183,-0.001660911868599682,-0.00042901585592515794,0.0005640294713679043,0.0012469608606769944,0.0016937441867061309,0.0020331728516552318,0.0023460206505698253,0.00261201345748886,0.002733493799088037,0.0026134156858054255,0.002232078111477733,0.0016696000889065863,0.001058034168283023,0.0004953508134350631,-1.8207295077692563e-05,-0.0005729139194486083,-0.001269603248225921,-0.0021166795469613605,-0.0029753048878924607,-0.003597969550706143,-0.0037458503822354805,-0.0033157035051783676,-0.0023968065757204613,-0.0012228093605739653,-5.239468321618251e-05,0.0009429326574334732,0.0017169129320642345,0.0023018957531333265,0.002725940605684424,0.0029617159322498036,0.0029440735444392014,0.0026367213476755098,0.002089587420150542,0.001435819072623228,0.0008240643877484106,0.00033154141589162754,-8.057203063415916e-05,-0.0005359913480748445,-0.0011538078952584557,-0.001956208838168402,-0.0028299320101648354,-0.003562854257890477,-0.003931346697354008,-0.0037883288242573773,-0.0031103727622648143,-0.0019935244849602564,-0.0006160987194708637,0.0008062767613282266,0.0020605239833065892,0.0029721419068627665,0.003440013623839019,0.003462843927828201,0.0031419517749455366,0.002648992106972831,0.0021627678693448473,0.0017973310997302623,0.0015527482591528247,0.0013139739892469044,0.0009042538954402998,0.00017553507384325003,-0.0009007718721818896,-0.0021854540795520593,-0.0033961292367633445,-0.004204984152699837,-0.004371231089138157,-0.003844273040619151,-0.00278233373846006,-0.0014764496482308827,-0.00022408223073711638,0.0007779333493568622,0.0014713392018218044,0.0019025619964084125,0.0021536498222267057,0.0022839481503083205,0.002309324764188715,0.0022166972361846427,0.0019917178949475653,0.001635517135141274,0.001159759212877241,0.0005688114117329253,-0.0001482312353354404,-0.000996057047906735,-0.0019259691866124822,-0.0027965141724335483,-0.0033850338796525374,-0.0034664562161551846,-0.0029261325848065887,-0.0018392797539798415,-0.0004614199101465377,0.0008723722818506068,0.0018845028199339102,0.002453019609884745,0.0026240100179841033,0.002545005398919466,0.0023683379542329026,0.0021802622936139622,0.0019853339046936357,0.001738083140099764,0.0013901871814620131,0.0009223541867188459,0.00034886380361783193,-0.00029742119179630266,-0.0009828024082157052,-0.0016795680210646544,-0.0023578087207959475,-0.0029686245722355805,-0.003432263818575412,-0.00364471867088881,-0.003507249750774274,-0.002968819666560332,-0.002060519476440582,-0.0009020213318806767,0.0003267224933524546,0.0014377193773140793,0.0022882395013555613,0.002812126382338214,0.003018226623339957,0.0029633157370464206,0.0027198283602193644,0.0023568026067011705,0.0019371730681830412,0.0015191021673739778,0.0011472680309279613,0.0008332895460245209,0.0005401788069077424,0.0001892310456096415,-0.00030462845989676925,-0.0009822096348180642,-0.0017999203854395366,-0.0026238561241173374,-0.0032660561132513977,-0.0035496892444224224,-0.003374785162893145,-0.002755589892235009,-0.0018147515495488078,-0.0007393663924987801,0.0002813802392758178,0.001112306240496799,0.0017009095053756493,0.0020682129529585296,0.0022687210957133023,0.002344153494510802,0.0023006740425683394,0.002123214633697235,0.001811765596945976,0.0014058946865601444,0.0009726635172633887,0.0005639423672893894,0.00017659459886102628,-0.00024960644913131675,-0.0007872206401186917,-0.0014539415928416712,-0.002165397991111746,-0.0027419060526171933,-0.002974007459334795,-0.0027187694269608874,-0.0019796856841290023,-0.0009273448612799915,0.00015574710072731725,0.0009862742423292824,0.0013971034553175118,0.0014022942896083916,0.001174934344830141,0.0009483377236912418,0.0008949851319807163,0.0010501962130242141,0.0013177996093682238,0.0015423910131548131,0.0015944727486476415,0.001416839345339715,0.0010170621075600386,0.00043087499095748863,-0.0003042559238511045,-0.0011428515846054052,-0.0020013664728475793,-0.0027362285960836627,-0.0031610060473878585,-0.003109160125285639,-0.0025155517233735954,-0.0014700386845845424,-0.0002056843813409659,0.0009808624298024873,0.0018401297236323114,0.0022571784364625973,0.0022748127804809054,0.002047050064492721,0.00175243079118216,0.0015133165110176395,0.0013579262836469364,0.001233740704473087,0.0010525920779768149,0.0007370729313580968,0.0002483712408873743,-0.00040545383553606087,-0.001170978825252049,-0.00195416476772478,-0.002631269887339036,-0.0030724535877584354,-0.0031771372991155475,-0.0029075868841480137,-0.0023018637296316276,-0.001457220324183373,-0.0004943077697609887,0.0004754304042537376,0.0013633033908531475,0.0021002284542178465,0.002631482268590693,0.0029202730436515014,0.0029582336244390116,0.0027725295946745727,0.00242155165136354,0.001979472696350967,0.0015160203241893606,0.0010780576588764394,0.00067679991250338,0.00028327537118788565,-0.00016415459317930034,-0.0007365153614582262,-0.0014770319132811495,-0.002361960656460129,-0.003279056818456706,-0.004041036592053069,-0.004437558065619596,-0.004309830518684639,-0.0036171106927930744,-0.002463230891440362,-0.0010670834439155414,0.00031255234842128836,0.0014640302800065078,0.0022813389508963985,0.0027694609126515286,0.0030021109042147305,0.003063397654891392,0.003009414556389957,0.0028660340403318008,0.0026506510745157403,0.0023899565975139124,0.002113759990501286,0.0018283133503857166,0.0014924430886749918,0.0010216321118520662,0.0003283502898397369,-0.0006176448679982573,-0.0017424866770841246,-0.002866668688840453,-0.0037591302647698214,-0.004226540843559147,-0.004193975384734401,-0.003731913524223459,-0.003010757598307253,-0.0022066984266202773,-0.0014150420576954986,-0.0006240354207364559,0.00023706568114479493,0.0012104975754294862,0.002241985006872391,0.0031760500148294898,0.0038169537097637665,0.004018360730447719,0.003751210060856849,0.003114921789853644,0.002288250797112675,0.0014455009543371557,0.0006802707522900395,-2.3090672182353856e-05,-0.0007524097677140288,-0.00158332288045815,-0.002497185525917356,-0.0033538739459218246,-0.003939742440262539,-0.004063619858069295,-0.003645193093318176,-0.0027491885088773258,-0.0015548555176007532,-0.0002857895923630551,0.0008612495941270949,0.0017602035234957842,0.0023648686394351554,0.0026923493597624244,0.002795590593774268,0.002737545251597227,0.002573744181143465,0.002343641581919193,0.002067115814294223,0.0017430102180611305,0.0013497356423576507,0.0008500102405925872,0.00020214268633191642,-0.0006200771395848312,-0.0015999263681356047,-0.0026521207909857196,-0.003616947682195404,-0.004289765623023333,-0.004483648102249049,-0.004100037503115919,-0.0031724294261479347,-0.0018605379569909776,-0.00039859449187127857,0.000976777343752196,0.0020884687913479095,0.0028502466699143894,0.003263824084227403,0.00339145886644755,0.0033193126960023005,0.0031245388923560906,0.0028539036703062294,0.002517581749298333,0.002097883700455938,0.0015673541312629384,0.0009065733652151646,0.00011391974535095162,-0.0007926048997643133,-0.0017743858053220845,-0.002765962483109326,-0.003666799685350963,-0.004343866395187693,-0.004657027089857685,-0.0045047729954058174,-0.0038693577204706882,-0.0028343188735095136,-0.0015613851777500354,-0.00023823382211002526,0.00097525221470643,0.001977743117028343,0.0027274154831422636,0.0032239191189463645,0.0034882651008796414,0.003551069089516354,0.0034482693908047595,0.0032167941319455593,0.002885423060299908,0.0024648597604960513,0.0019464933560901928,0.0013147692950971422,0.0005668916617248456,-0.0002734136975375644,-0.0011568948169310474,-0.0020213540965705852,-0.0028042198336188425,-0.0034460015759117772,-0.0038857430876801297,-0.004057894254644736,-0.003899853580084699,-0.003371926958579914,-0.0024823907831403647,-0.00130537619697763,1.8843898800231015e-05,0.0013045497413924812,0.002358479850697427,0.0030271345813274817,0.0032424579276471945,0.003049501705619827,0.002596729537965251,0.0020794983777270306,0.0016524659963471362,0.0013526294483614425,0.0010791844092960627,0.000650108989495243,-8.761280121576348e-05,-0.0011497325772893722,-0.002366260807028458,-0.0034221679826255827,-0.003973614775809025,-0.003789559592712111,-0.0028552076633492278,-0.0013895749976265167,0.00023255183594438522,0.0016211141665005409,0.0025122360071018522,0.0028481165410655946,0.002761154124038677,0.0024751556998333637,0.0021795657911013364,0.0019455683248789037,0.0017242666851575612,0.0014138365077796288,0.0009413143152617318,0.0003043113243726706,-0.0004439929098411546,-0.001238215509269715,-0.0020273675395589153,-0.002762145036192422,-0.003361222956276586,-0.00369852645208987,-0.0036392683212822362,-0.003111374007438028,-0.0021645174024618767,-0.0009706769228252669,0.00024154471271535695,0.001280546957265403,0.0020560751939476263,0.0025786328880934026,0.0029035270250277754,0.003064965970059304,0.0030475307814550067,0.0028109637330970554,0.002343613692476626,0.0016992160522783595,0.000984693921672379,0.00030346330480399955,-0.00030631002759464896,-0.0008906623534804259,-0.0015344669389962557,-0.0022757307975996297,-0.0030368337636324234,-0.003625103097086186,-0.0038120933442916116,-0.003448240722921713,-0.002544381641262084,-0.0012724689965337751,0.00011010736098263428,0.001362543264349084,0.0023310981448558922,0.0029609490434648437,0.0032640139107795382,0.003278815466850482,0.0030496335975213878,0.0026270161242563242,0.0020726167661519568,0.0014514587396723688,0.0008106399891629815,0.00016031743196060974,-0.0005238062749758903,-0.0012706838498380093,-0.0020713982086220783,-0.002850511449987758,-0.003472442477824565,-0.0037844295890897945,-0.0036760089153431005,-0.003124408303432114,-0.002203078521463832,-0.0010529127417762208,0.00016268517230009737,0.0012933178495635699,0.0022173092632869285,0.002846370416750221,0.0031328280657636947,0.0030815990994722234,0.0027560004094029835,0.0022655537801291063,0.0017346794233294154,0.0012627771643573629,0.0008904966299361136,0.0005847052389985227,0.0002504562821943746,-0.00022734538560206612,-0.0009208945341785239,-0.0017992551640955779,-0.0027047537813350295,-0.00338988588344807,-0.0036091651913745066,-0.003227787574819207,-0.002294012770119515,-0.0010355367436349198,0.00022358609817669018,0.0011888354176443614,0.0017056895462797136,0.001804677565475863,0.00166317169373285,0.0015047686490098637,0.001484781400389486,0.001615986364422996,0.0017698031852143835,0.0017514132309532618,0.0014092524311289962,0.0007204595352118928,-0.000192631468080572,-0.001119952276865477,-0.0018582824864690978,-0.0022889078923645696,-0.002400665245026,-0.0022567238293928716,-0.0019349142818894393,-0.0014810336209493144,-0.0009007224902690752,-0.0001894779981458841,0.0006224723075199532,0.00144214335690099,0.0021252100151515846,0.0025272504320646453,0.0025702132186336477,0.0022855105073661354,0.0018030759936066513,0.00128502915138953,0.0008376514489879824,0.0004534422246378286,2.1841648930189786e-05,-0.000591604474198569,-0.0014395644960401254,-0.0024219908507957105,-0.003295884349863058,-0.0037689649326015477,-0.0036329520564638085,-0.0028666437270653137,-0.0016523307634040679,-0.00029655422757007073,0.0008996392357565917,0.0017496522504506214,0.0022171235991271044,0.002375448710174402,0.0023322537406403657,0.0021708370047079347,0.0019360738168715454,0.0016552236475370977,0.0013621296202571446,0.00109864606105057,0.0008906944305579874,0.0007186144241534855,0.000507959401975253,0.0001554007640875013,-0.00041719751327965056,-0.001206764779864024,-0.00210278077221873,-0.002909698176520238,-0.0034121907027589373,-0.0034548109685896755,-0.0030000384420586007,-0.0021398519346392925,-0.0010589222503233086,3.094115863368403e-05,0.0009563914082304513,0.001624588037729502,0.0020305939627328104,0.0022320999095240893,0.002304933328613507,0.0023010207483869934,0.0022298580139149373,0.002071136290705429,0.00180619389783212,0.001443803736626046,0.0010212993820651248,0.0005810009894940224,0.0001398338808318156,-0.0003254078075212602,-0.0008645918515310315,-0.0015159508686518634,-0.002259730055030209,-0.0029880558659793823,-0.003514709950267896,-0.0036347763433598294,-0.0032165434378710407,-0.0022803837364265274,-0.0010149676036687503,0.00028837725574764846,0.0013532079695795821,0.0020240629129350232,0.0023050129535001455,0.002317417374086493,0.002211574729095605,0.0020879368798780115,0.001967375777607981,0.0018130695097341542,0.0015760057774675657,0.0012292757142184326,0.0007728099964719086,0.00021635508336640132,-0.00043391488754064583,-0.001164001077522125,-0.0019192484843534785,-0.0025791712359981263,-0.0029727180925383737,-0.002941558362381385,-0.0024222275890729765,-0.0014975963299251327,-0.00038076337067505857,0.0006664139824502924,0.0014376993067313263,0.001853327309611517,0.0019630630560097183,0.0018895820814064917,0.0017528397806119197,0.0016184615097056244,0.0014890669778198783,0.0013279989633103648,0.0010901280980679883,0.0007398878579007232,0.0002537795381243887,-0.0003809204155572974,-0.0011575231499749896,-0.0020284036490357277,-0.0028829162917559884,-0.0035458512999037035,-0.0038125513746571148,-0.0035186511350564272,-0.0026196015362119907,-0.0012406030467433855,0.00033745193000653544,0.0017634672076732923,0.002742709382273733,0.003146875057031732,0.0030522017107493535,0.0026841995394169694,0.0022965148005630446,0.002047619225458824,0.0019397674157487245,0.0018472249764317885,0.0016075856372666417,0.0011160639385380255,0.0003700668833160416,-0.0005483464614934984,-0.001523205393220344,-0.0024464506057184344,-0.003227946288347874,-0.0037822494312694022,-0.004018777423118212,-0.003855471721843311,-0.003253758593942315,-0.002253475495021538,-0.0009837187105058145,0.0003614169540842488,0.0015748620930382158,0.0024955575280450515,0.0030500858207165625,0.0032598711098504314,0.0032124865184553473,0.0030127569878686165,0.0027381960299446436,0.002418108482440397,0.0020403052155101124,0.0015743010284899575,0.0009941285819301728,0.0002897399855684845,-0.000531756671876694,-0.0014447696722818984,-0.0023957867169637275,-0.0032902953822124548,-0.003992068643753639,-0.004348856106252108,-0.004241477247850892,-0.003633935792399655,-0.002596913459036256,-0.0012911916225974037,7.943137786646374e-05,0.0013216058518942437,0.0022912325979938175,0.0029111230828435175,0.003172756578716636,0.0031281512191787472,0.002872633328639378,0.002517882853043467,0.0021593802190866735,0.001847165261635671,0.0015690645560223365,0.0012532553731480738,0.0007944577418210075,0.00010226275386100401,-0.0008415378353485246,-0.001941907377857193,-0.00299274432283904,-0.003733797410885039,-0.003946001909555047,-0.003543570861957625,-0.002615725203423543,-0.0013934814897135338,-0.0001569489703849669,0.0008689484510216649,0.0015791138355950667,0.0019888726335711795,0.0021833414492164896,0.0022523549618934918,0.0022470864041894212,0.0021739008473567476,0.0020151407936279393,0.001752015656887619,0.001370865815808948,0.0008549953942259284,0.00018131983232314388,-0.0006617409149058809,-0.0016393194185437073,-0.002642385391660425,-0.003493422785378307,-0.003992968210142804,-0.00398850782666159,-0.0034322937003281396,-0.0024009218909633876,-0.0010715790653125818,0.00032910474627211245,0.0015815321398540525,0.002520572113695681,0.003068089398110596,0.0032448083666840218,0.003152873809523082,0.002927238257608797,0.0026724812901280084,0.0024170473912262583,0.0021117286194580255,0.0016727788960188455,0.0010412380663197946,0.0002210904216406724,-0.000723487045150962,-0.0017010078507773826,-0.002624815757188791,-0.0034194299874454456,-0.004002907693186781,-0.004272005498203095,-0.004117579541499876,-0.003472519466430958,-0.0023650068079571164,-0.0009407569045410271,0.0005645006580947064,0.0018918408666192058,0.002835030738621718,0.0032948857709724187,0.0032954390844221896,0.002961951338323132,0.0024721820964358605,0.0019970265343594315,0.001646927282084787,0.0014387607580385947,0.0012942486876307059,0.0010732558594357144,0.0006332191776947309,-0.00010544861017956764,-0.001111747424918176,-0.0022327244211297814,-0.0032271096380210706,-0.0038403167850690795,-0.0038997762863720933,-0.003391361705258256,-0.0024740070298507697,-0.0014136241064683997,-0.0004622227676081196,0.00025410317651531397,0.0007732440448268036,0.0012378563215371336,0.0017758673522239943,0.002396165742665596,0.0029647787668318198,0.0032752287022820266,0.0031684027256537696,0.002628610985211465,0.001798596973080423,0.0009050404469828864,0.0001386396047502009,-0.00044011529718545017,-0.0009122646003055145,-0.0014201596465649002,-0.002043753186947457,-0.0027119023734337297,-0.0032096878578517485,-0.003284709300392847,-0.002792020842519264,-0.001790380721285117,-0.0005309522928886203,0.0006545937616246741,0.0015001232422967655,0.0019039247261612381,0.0019351760436943407,0.00176126898453563,0.0015498708470792829,0.001399480045110416,0.001320423754363168,0.0012542438915295177,0.0011072944619793324,0.000784790786832022,0.00022576111402709738,-0.0005604414097919225,-0.0014686647320525856,-0.0023055967359592645,-0.0028427464384128596,-0.0029004127542578218,-0.0024242865938343284,-0.0015144000657727843,-0.00038976392234159297,0.0006939099285396999,0.0015332449986133118,0.0020336527681437916,0.002214282214662279,0.0021684630661539675,0.002004650708349487,0.0017967292213728358,0.0015632245102010865,0.0012783345079628754,0.0009019393937128046,0.00040872821859937403,-0.00019826420436457165,-0.0008907811020232491,-0.0016237217269112368,-0.0023357971676138956,-0.0029410396567453334,-0.0033251722072260986,-0.0033649515864275373,-0.002973790147881519,-0.0021529104403738898,-0.001014618492742998,0.00024369800210100685,0.0014060818054474793,0.002309628250169866,0.002882687753075476,0.0031344913930453173,0.00311389500607438,0.0028723792211246767,0.0024553455726509877,0.0019163644096776107,0.001327175556818859,0.0007611696905182669,0.0002555016179568505,-0.00021726442378272747,-0.0007364212757737832,-0.0013753233633710523,-0.0021303859183561466,-0.002884964510095547,-0.0034386799766481773,-0.0035924159636968917,-0.0032438865612206677,-0.0024416753517373267,-0.0013693942557503303,-0.00026916046120287966,0.0006565881425365989,0.0013171218787426462,0.0017457673124268611,0.002049578102934435,0.002326193210237081,0.002595506203550882,0.0027846865040030595,0.002773050045874285,0.002467533470084107,0.0018621879406708162,0.0010465652977140357,0.00016065664411210804,-0.0006724830715439059,-0.0013926044303059738,-0.001999413578252426,-0.002508488257243198,-0.002901820988199213,-0.0031106494156364155,-0.0030431307739141886,-0.0026372610868702884,-0.0019038760409119601,-0.0009345343512391207,0.0001261079715703032,0.0011236469532587049,0.0019303749881579143,0.002464499070486501,0.0026959725037563114,0.0026463902146054265,0.0023830009928359273,0.0019999779581726263,0.0015847278901687696,0.0011813127812334314,0.0007731819844967462,0.00030120360009258006,-0.0002880558593270849,-0.0009901390182710836,-0.0017185428733018995,-0.0023257051235440395,-0.002660379911570983,-0.0026319356174971586,-0.002248497505579891,-0.0016106862503748039,-0.0008668251838596894,-0.00015478260124417934,0.00044052272411187793,0.0008970144919460067,0.0012348957098552668,0.0014824043766439848,0.0016480224196019533,0.0017118666819399436,0.001636886244589421,0.0013910681404818658,0.0009691863748210487,0.00040534531311614184,-0.00022833166795924078,-0.000837572889073704,-0.001331926100230384,-0.0016505228541224784,-0.001775356572544006,-0.0017253364243893325,-0.001535069763315965,-0.0012310853254045761,-0.0008194251980247,-0.00029210996571992897,0.000350112713406208,0.0010706671747062922,0.0017825408496873166,0.002360105504228318,0.0026790782665925585,0.002668701493698543,0.002347422741008704,0.0018166699151258773,0.001209543992507488,0.0006206669825888948,5.939291250598225e-05,-0.0005425229100414453,-0.0012701936877388361,-0.0021458803192362513,-0.0030767735185199996,-0.003862621754654751,-0.0042639083993391,-0.004099458857438585,-0.0033269239765246245,-0.002068318702119235,-0.0005701263955195856,0.0008820705036753086,0.002056081353230211,0.0028346336852367116,0.0032241701542017926,0.0033136596081105737,0.0032088685072915587,0.002978126563128184,0.002637200475810327,0.002175899898081039,0.0016014285603259723,0.0009618634439355765,0.00032787088230982434,-0.00025571653001139525,-0.0008082813140215066,-0.0014024955768248706,-0.00209974068098768,-0.002872489260281199,-0.0035728196845068567,-0.003979742276053203,-0.0039035387656079687,-0.003283821164975223,-0.0022216679568096065,-0.0009314570028999305,0.00035135112500087257,0.0014511552516411402,0.002285891110573812,0.0028521871381807177,0.003184569421774636,0.003315802966121285,0.003257401500117129,0.0030064099806151314,0.002570225687650671,0.0019899182395577628,0.0013417381585244116,0.0007098327827707147,0.00014355788210745923,-0.00037367920529542803,-0.0009200117576669615,-0.00158925371858027,-0.0024214789914076182,-0.0033452630415006,-0.004167618245345574,-0.004628083940708353,-0.004500514114784963,-0.003697400350968859,-0.0023251052296332578,-0.0006595362704440465,0.000950371529173124,0.002208803290205539,0.0029710594023795865,0.003268683086565219,0.003253563988571879,0.003095212850929822,0.002890247811960465,0.002634135284518172,0.002264864614356323,0.0017407721200614072,0.0010931153020201046,0.00041517611517914623,-0.00020133394268655245,-0.0007316530279687735,-0.0012323763519941574,-0.0017889168384546748,-0.0024286421557662943,-0.003059366092063938,-0.0034805074236223662,-0.0034701456271840807,-0.002902980453373289,-0.0018321179152972766,-0.0004859049862394937,0.0008210878417091749,0.0018155795720175272,0.0023646557924478814,0.002499261491058059,0.002360382310028773,0.002108424312712026,0.0018497515543349156,0.0016132946282767324,0.001372822649536169,0.0010852252767382493,0.0007174908948894786,0.00025568144750297685,-0.00029438603415276877,-0.0009052933249525559,-0.0015255834312684566,-0.0020831349409809615,-0.0024972330100433717,-0.002695187637271359,-0.002626599813873922,-0.0022719088259531557,-0.0016472557179581238,-0.0008088870282054987,0.0001445518499145988,0.0010795453987131394,0.001852269109150607,0.0023475482003583164,0.002516755805297329,0.0023941557983698705,0.0020795698173423686,0.0016925258721079903,0.0013184508203897024,0.0009723448022329061,0.0005982173692224389,0.00010734319308053044,-0.0005593547507663338,-0.0013735201177179739,-0.0021979706577731103,-0.00282057874257783,-0.0030359050650406614,-0.002738980092185627,-0.00198263061582811,-0.0009638013584748871,5.8364474520576626e-05,0.0008709030766467692,0.0013850166532496655,0.0016456802915072318,0.0017745202223998441,0.001882834140952164,0.0020033560183844025,0.0020748731915015218,0.001983977932833578,0.0016385527413134433,0.00103121605099767,0.00025573195826847025,-0.0005350126897744767,-0.0012060553982958838,-0.001705379533726774,-0.0020745225564893616,-0.0023954512577709676,-0.002706242007695786,-0.00294154864888781,-0.002942187108985714,-0.002536856184978338,-0.0016529283899554335,-0.00039096120799286214,0.0009865939787727645,0.0021558819045897184,0.0028730816280664083,0.0030806636009343335,0.002917270777572066,0.0026235717521187305,0.0023986699301182996,0.0022926790645681747,0.0021983051916527763,0.001940850438363603,0.001403736289889131,0.0006069423751780283,-0.00030904090830120433,-0.0011759769379118073,-0.0018989368075657993,-0.0024947448873997233,-0.0030430905574453083,-0.0035878360835477907,-0.004061234013055073,-0.004287804553226031,-0.004069486875940067,-0.0032989179275108617,-0.0020310699661572236,-0.00047312914235362756,0.0010961928797274215,0.002428911755992802,0.0033786130741621898,0.0039132272595332855,0.004079538546559796,0.003952977680429064,0.0036049437110793753,0.0030984411634086585,0.0024988194596044623,0.0018770856743692524,0.0012935958704475485,0.000770194571904338,0.00027265498881674235,-0.00027796642257458474,-0.0009638896661598647,-0.001817039521206351,-0.002780247619246873,-0.003704765423012342,-0.004389498652934771,-0.004648363873978238,-0.004378861442237958,-0.003603274389177344,-0.0024647222934947666,-0.0011791665389438728,3.6685731008603644e-05,0.0010312626644785965,0.001750764659542595,0.002227743530823196,0.002536727349622866,0.0027439439264918164,0.002878081891336883,0.0029324321634766597,0.0028874107027249043,0.00273186075956824,0.0024680422693935116,0.002101347288513896,0.0016278834195744393,0.0010330500678752393,0.0003044411637276907,-0.0005484289253569925,-0.0014792923729777848,-0.002403012811372116,-0.0032067308313520806,-0.0037701348387747012,-0.003990320748736512,-0.0038073234290349435,-0.0032248348138891403,-0.002318116540498191,-0.0012220221059491222,-9.88577277112922e-05,0.0009039532569755936,0.0016892534139862584,0.002223409328128416,0.002523781892478756,0.0026307520283703027,0.0025817236772471197,0.002400239675345036,0.002101094159428279,0.0017007040562205052,0.001219713566742284,0.0006745373831500076,6.867588399053557e-05,-0.0006006134795672321,-0.0013163739352130576,-0.0020125355883541954,-0.002567335682521387,-0.0028361574862124884,-0.002714590394974465,-0.002197535593264904,-0.0013951467244444791,-0.000489215293284299,0.0003479370211870135,0.0010228952925959343,0.0015359493319487224,0.001935752800201549,0.002250509369607587,0.0024477442677944177,0.002451419832147684,0.0022006902471464677,0.0017028935966705448,0.00103848692308529,0.00031326166751140846,-0.0004053567160236275,-0.0011170727918681708,-0.0018563437159513645,-0.0026193222384433244,-0.003305627737829285,-0.0037263234045774966,-0.0036855270647183553,-0.003089143017382025,-0.0020107418867438827,-0.0006710289611488623,0.0006555587893992646,0.0017486237271288287,0.0025037259408806655,0.002926003275439201,0.00307886543448921,0.003032181857902473,0.002839923802057504,0.002544435332091862,0.002183063759837983,0.001779137723885106,0.0013230397772613389,0.0007658674790624692,4.284473636182042e-05,-0.0008783165024785171,-0.0019497022220908355,-0.0030263736601851086,-0.0038962380473137204,-0.004347841979034081,-0.004246951197046754,-0.0035879240332257704,-0.0024983715701286146,-0.0011971308706142834,7.584520790963038e-05,0.0011307435922915643,0.0018752833308227114,0.0023225281841316933,0.002558100500344011,0.0026828652222649413,0.002759108542060929,0.00278617575113767,0.0027141378665255355,0.002481737252349901,0.002052652651130177,0.001429787633325895,0.0006457199538264677,-0.00025503114119320585,-0.001222255770037701,-0.002187603608136692,-0.003046034889012055,-0.0036556637077964985,-0.0038732385718257176,-0.003617409445105525,-0.002924707675581574,-0.0019561078280422705,-0.0009368093301804616,-5.570102651827587e-05,0.0006171481272431159,0.0011420684640203731,0.0016400002492983818,0.0021840751848407574,0.0027238828121745502,0.0030961924890275418,0.0031204540236680475,0.0027195627429103877,0.0019860857451053774,0.0011470258351233373,0.00044511513708083144,8.154429141348234e-06,-0.0002147453957286026,-0.0004124663877331897,-0.0007906966395359864,-0.001439159828137686,-0.0022617857551681074,-0.0030097478390775697,-0.003400549549003268,-0.0032577406420930266,-0.0025943746419123843,-0.0015974590135947185,-0.0005293015719226744,0.00039251841652863364,0.0010695228815199632,0.0015195721726974673,0.0018161291838948218,0.0020201320613656955,0.002147983524030013,0.0021835231440041672,0.0021083084940716258,0.0019182809468456848,0.0016155937381795524,0.0011904781406722846,0.0006177253469232999,-0.0001199400738720695,-0.0009922795698057438,-0.0018926912968306752,-0.0026455456082009427,-0.0030566925395867713,-0.0029889062098063966,-0.002426214312404619,-0.0014922326403373082,-0.0004094744827488827,0.0005824044005816559,0.0013098736264638827,0.0017117102359302705,0.0018319129782369825,0.0017724604841234466,0.0016367171534127617,0.0014908056471764348,0.0013517164121489686,0.0011936831927176685,0.0009611464271919174,0.0005858657388330995,1.3857690936892864e-05,-0.0007569592936655168,-0.0016429644226217837,-0.0024704664866602105,-0.003018765296636576,-0.003102351965316222,-0.0026551752286286083,-0.001770308046764911,-0.0006685734295450202,0.0003908012382991198,0.0012113730010063326,0.0017216387821695496,0.0019724198696110767,0.002080325695747287,0.0021529939562993272,0.002233261657355786,0.0022826322852137677,0.0022036806683616676,0.0018872683553643101,0.0012650880132311906,0.00034805289179171356,-0.0007640301547764408,-0.0019049951867072634,-0.0028867002462029554,-0.0035464559674570372,-0.0037809504235308076,-0.003559929971244747,-0.0029223358343869674,-0.001961682074165915,-0.0008069613745229356,0.00039669052954688843,0.0015055495334620028,0.0023933605071712405,0.002967392199722991,0.003184067137389654,0.003059314551604406,0.0026662420561453667,0.0021159270090229114,0.0015248900232111896,0.0009798267211264789,0.0005120399320180846,9.064267035613816e-05,-0.00036183053573635436,-0.0009328301098694211,-0.0016694543319544465,-0.002530374148814426,-0.0033646566781822037,-0.0039403920705562015,-0.004025661149550719,-0.003491947029516307,-0.002387602374599125,-0.0009369582297962146,0.000541138564076954,0.0017562373044161575,0.0025481458735375543,0.0029186004308775475,0.002984965445911315,0.002891455673631237,0.0027321752534595145,0.0025251924687274083,0.002240408257666925,0.0018505660001098597,0.0013647898467492566,0.0008222329864948964,0.00025630102122358106,-0.000336211834577661,-0.0009899476936508543,-0.0017272920982626542,-0.002506403471967299,-0.0032026465498921526,-0.003644946437753812,-0.0036898904287517385,-0.0032878823863877475,-0.002500657964645508,-0.0014653134862273993,-0.0003373028170957975,0.000747375283952143,0.0016763417034217432,0.002350414391418979,0.002688627591503733,0.002659158323980629,0.002315416657317406,0.0018016795464225947,0.0013080218497088453,0.0009891275738679924,0.0008896953493019672,0.0009201044692784036,0.0008995965108501407,0.0006478235935217654,8.003080287970866e-05,-0.0007413283121276422,-0.0016249603140304635,-0.002331473507176421,-0.0026773949643048942,-0.00261006252402903,-0.0022146749256943075,-0.0016515372072161262,-0.0010627066658834815,-0.0005065183093341591,4.0547806387297367e-05,0.0006224058690554916,0.0012317774838382636,0.001782778670125754,0.002147514058124178,0.0022304288915719404,0.002029672859550574,0.0016452928471104716,0.0012281712872961145,0.0008980452624868876,0.0006756107388342373,0.0004672833414236836,0.00011619647451673943,-0.0005006866800523406,-0.0013777520209744905,-0.0023432594258296037,-0.0031098097251229316,-0.0033958208763293614,-0.0030571945533075786,-0.002158103722174651,-0.0009430372678457538,0.0002718600663197317,0.0012279092927824091,0.0018092315782535498,0.002051218358004146,0.0020817552290854956,0.002034327154247481,0.001977544462930174,0.0018907593411219494,0.0016908212017131253,0.001291305803538885,0.0006617037034178742,-0.00014386774204527418,-0.00100113990815816,-0.001761977320450038,-0.0023051504656445513,-0.0025660660237479906,-0.0025365024781772026,-0.0022443235325110516,-0.0017324050846227457,-0.0010512505150507621,-0.0002655045187888383,0.0005385628346638381,0.0012593486152412798,0.0018036130763281534,0.002116230807676522,0.002197967637047619,0.0020997925197867315,0.0018963224336307205,0.001651937912319352,0.001394331905654058,0.0011042116181735522,0.0007237689964622908,0.00018337827668934328,-0.0005580104129012301,-0.0014713897147175616,-0.0024355280994887525,-0.0032529191751322945,-0.0037072658994228395,-0.0036429615905354913,-0.0030305616447202084,-0.0019847329949333036,-0.0007236741111236194,0.0005110260942966046,0.0015353466953857316,0.002267111230921798,0.0027169071999417495,0.002938233937162086,0.002971529525735713,0.002818127930771491,0.0024584895447321434,0.0018973403363950635,0.0011980120345383954,0.00047408585227999296,-0.00016389411380417023,-0.0006740296504139192,-0.0011125822067916055,-0.0015965943445954063,-0.002212684785239083,-0.0029271125216014035,-0.003560543868493096,-0.0038545796253237124,-0.003597999889083067,-0.0027400478938529437,-0.0014250703017381875,6.820825379991353e-05,0.001443606735423503,0.0024947926357379016,0.0031517788523793087,0.003456073718414614,0.0034935727039744455,0.003331608155972791,0.00299543661984182,0.0024892437439045464,0.0018365503553437435,0.0011032609439109845,0.00038077990612938337,-0.0002625105913809457,-0.0008261661944941215,-0.0013801419859104551,-0.0020112821391089822,-0.0027406173166184275,-0.0034659558350508806,-0.003976227222615464,-0.004041220406422243,-0.003530736633990254,-0.0024952939313155095,-0.0011608394181596014,0.00016194224350954216,0.0012069924584998761,0.0018551367868724447,0.0021596664316154853,0.002286983296964695,0.0024084605392727257,0.0026037003159229675,0.002825552079074349,0.002939142623098229,0.0028044460743496436,0.002351310800712887,0.0016078918263811443,0.0006763435805803618,-0.0003195208018312261,-0.001278901518052939,-0.00213748043945173,-0.002850747652887868,-0.003368416150861863,-0.003624554637006488,-0.003554033648798807,-0.00312522004271939,-0.0023665511334857647,-0.0013691228030745094,-0.0002641293959932447,0.0008106032064603446,0.0017375291011403852,0.00243146258975101,0.0028411643210500825,0.002950382123962933,0.0027828337453561407,0.0024045586156643825,0.0019115325275725803,0.00139790502301018,0.000916829679140753,0.00045799951222086984,-3.8588150950696594e-05,-0.0006340917003404593,-0.0013327692709642716,-0.002049775125235974,-0.0026285121614179887,-0.002903157184354242,-0.002774020885140365,-0.002254179969810015,-0.001462609251040675,-0.000570671738289824,0.0002662517287439803,0.0009567630700417129,0.0014820037006648152,0.0018682020208102513,0.0021430453323805897,0.0023008321889943554,0.0022954919404772566,0.002065998370621425,0.0015801033786827221,0.0008688236645805277,2.67872893071632e-05,-0.0008246337509408731,-0.00158682683523467,-0.0022105108132407774,-0.0026809591801581316,-0.0029764462498624283,-0.003036843325704028,-0.0027732013990281927,-0.0021194514789158944,-0.0010956818962289372,0.00015978270157740579,0.001417193227828373,0.0024348581878324066,0.0030519240203430147,0.003243522051554197,0.003107201925705117,0.0027906416325426567,0.002406222742849158,0.001983238454087802,0.0014799784692677911,0.000837576131997416,3.493832910190706e-05,-0.0008870897432745203,-0.001836099333576396,-0.0026948120318123553,-0.0033453406156465698,-0.0036866949718411847,-0.0036519257046283065,-0.0032274406330299312,-0.002465361488990906,-0.00147589642538492,-0.0003976912760942431,0.0006394871459007354,0.001539821984846626,0.0022452170490340835,0.002725354978085588,0.0029689007832421413,0.002983720157566724,0.002801043508785121,0.002472022240829155,0.0020506239393468092,0.0015692473002664573,0.0010224689150168825,0.0003728681916008957,-0.0004184673750042614,-0.0013487927183664242,-0.002340030929256151,-0.0032366279861289517,-0.003844876535536268,-0.004002701681552051,-0.0036488765142231143,-0.002854920389161561,-0.0017991247626593229,-0.0006932546990077867,0.0003005048659049747,0.001119054693685121,0.0017899957021430238,0.0023736922421680054,0.0028926029563058064,0.0032926745319237193,0.003462621095793421,0.0033004806825598157,0.0027856107931149105,0.002009520704046918,0.0011441157635447559,0.0003638155105397876,-0.0002356321189740982,-0.0006779189505375181,-0.0010845907348168936,-0.001600197638927641,-0.0022989372748522087,-0.003117820130103244,-0.0038524198892648394,-0.004225452375994951,-0.004004539456923679,-0.003117913556850549,-0.0017106583104157325,-0.00010685063134415912,0.001312416029593102,0.0022601824331956494,0.0026499187840268814,0.002604362208386393,0.0023666813592948654,0.0021664165109732555,0.00211330380483385,0.0021692993955545184,0.0022001244345132695,0.002065053402090594,0.0016915238196196017,0.0011002132495338424,0.0003788220534414683,-0.00037102522690321625,-0.0010802493791131221,-0.001727065457298674,-0.0023149306979755348,-0.002830689205707024,-0.003212812154891104,-0.0033546806795687898,-0.0031461060249012075,-0.0025314936583448926,-0.0015525978544410387,-0.00035353594361057556,0.0008541318034135594,0.0018518157637068117,0.0024780715376580818,0.0026748710044863246,0.0024996228893100028,0.0020974439410713468,0.0016430424718651712,0.0012747029295340773,0.0010472829529776528,0.0009231921243713652,0.0008026304357498556,0.0005760198619650834,0.00017342637802845708,-0.00040779135100237957,-0.001101253437867729,-0.0017889023763414049,-0.002329569545130354,-0.0025951479751200545,-0.0025102414032379325,-0.0020830870234148455,-0.0014095896818124422,-0.000640712215555866,7.492897267891944e-05,0.0006437644397565948,0.001048320429562194,0.0013302865825101933,0.0015505410271241175,0.0017488805522058537,0.00192066584288363,0.002017044801655166,0.0019660117723498253,0.0017046716640995916,0.001209049921435262,0.0005086748766576625,-0.00031926766865581787,-0.001170147390283699,-0.0019336396646548507,-0.002508088225818367,-0.0028094927331586026,-0.0027836679912230716,-0.0024246249520087013,-0.0017895548354813669,-0.0009941220531581182,-0.00017989406369559773,0.0005352604334594808,0.001097129356357192,0.0015199973744642028,0.0018517531854526652,0.0021220412746905306,0.0023093918310722415,0.0023505203239469227,0.002184738317858501,0.0018011539561725706,0.0012545769541788395,0.0006382682740759647,3.1670039558256546e-05,-0.0005410629330255012,-0.0011118633643419924,-0.001725354921828905,-0.0023781119299289863,-0.002981627257635826,-0.003377580939252931,-0.0034021122315158695,-0.0029646249952000837,-0.002096245531294735,-0.0009409456372051524,0.0003024065111153376,0.001450270003261061,0.0023783312799434183,0.003024915488140269,0.0033697672133427507,0.003416274412297241,0.00319208923754147,0.002758173928997442,0.0022026985047266367,0.0016072953971079742,0.0010008377524228698,0.0003366720315499329,-0.0004770997813364895,-0.00149854791338664,-0.0026678365440254343,-0.003777070938328771,-0.004527886856232502,-0.004657720840561693,-0.004069278244460677,-0.0028898155343917496,-0.00142431025034003,-2.6072022794578322e-05,0.0010470995325332724,0.0017188744575354585,0.0020851899352890193,0.002324011456039904,0.002577767991662555,0.002871507110500217,0.0031066439896930767,0.0031275431033903657,0.0028184077249278983,0.0021725240136931225,0.0012941785850788972,0.0003361293813432297,-0.0005829265539851713,-0.0014234479628251983,-0.0022020030699546503,-0.0029194895718732405,-0.0034980400048789956,-0.0037808049289309665,-0.0036047317424553285,-0.002902827944166914,-0.001768519515603517,-0.0004377907827500146,0.0008028851687780279,0.0017303586987127161,0.002258964946634529,0.0024415588822395053,0.0024077634973616404,0.002281928119324818,0.0021260618056529726,0.001929016060182468,0.0016328800985283447,0.0011725235362603915,0.0005099757590545053,-0.0003407487283112807,-0.001297408334882634,-0.0022081908379197887,-0.0028785605887855677,-0.0031302315221426445,-0.002871940209446063,-0.002144456866784011,-0.0011120434363141266,-4.100431241762289e-06,0.0009618294531427234,0.0016409359406219324,0.0019877903402936,0.002049510639169184,0.0019346828379943988,0.0017673475310904995,0.0016358605198477669,0.0015512528878305048,0.001433932243311512,0.001142946841341811,0.000545094495845184,-0.00040196532911811704,-0.001593594089500813,-0.002784267704364094,-0.003663461314655435,-0.003972803928874384,-0.003611084473318981,-0.0026752940935229393,-0.0014164287406559812,-0.00013343729987077516,0.0009390130561795462,0.001694319263312603,0.0021477687148741182,0.002380614223211357,0.002476900187866979,0.0024868134887851934,0.0024225298695988422,0.002269854711362352,0.0019975864627363926,0.0015622683932270097,0.0009203500734498715,5.771033847024477e-05,-0.0009710929226060367,-0.002019621087993205,-0.0028697804061249207,-0.0033015880325129687,-0.0031853988264182844,-0.002547530355846375,-0.0015684984319467399,-0.0005099828099608148,0.0003915928607056779,0.0010087307254942536,0.0013440871241173482,0.0014878711252023645,0.0015448134932312492,0.001574991808021025,0.0015759492410099066,0.0015029773863712021,0.0013024848755469618,0.000934527730000458,0.0003801148624494892,-0.00035295410990018313,-0.0012127396558240097,-0.0020806497380588284,-0.002769387888524489,-0.003065113550856237,-0.0028101914061293186,-0.0019886234218652373,-0.0007627620105498531,0.0005690263459188876,0.0016804777139730511,0.0023404799056618688,0.002492116552332044,0.002252832024086354,0.0018403679702883053,0.0014622621447453392,0.0012196932320914116,0.0010674387162489995,0.0008470976411047999,0.00038004507358029374,-0.0004202323463923779,-0.0014695915629484248,-0.002511943724071029,-0.0032057804212067597,-0.003265770934615245,-0.0025953096126240987,-0.0013449857411702614,0.00013565594275102066,0.0014347451681278986,0.002240421186343629,0.0024522286322950335,0.002190888572850412,0.001708709330353071,0.0012528650671464012,0.0009524945621322868,0.0007802173205509424,0.0005954496484030926,0.00023759083786506973,-0.00037952085549028126,-0.0012126680954840279,-0.0020925853384346988,-0.0027801996123152047,-0.0030521209770412844,-0.0027830086102162248,-0.001994795972191675,-0.0008551788265025907,0.0003742533725168731,0.001422694199625898,0.0020984192153201135,0.0023477730957348454,0.0022586674088390436,0.00200234656042011,0.0017367929036798497,0.001520074173259935,0.0012834240615047236,0.0008840640354856653,0.00021064496913239398,-0.0007203467209512028,-0.001736154679507518,-0.0025669022443492685,-0.002961681832097522,-0.0028003560024994767,-0.002144325862986791,-0.0012036419650475513,-0.00024152728122533139,0.0005331674951844509,0.0010346456921912963,0.0013044185496122692,0.0014588402537323063,0.001610676544444256,0.001801175198640469,0.0019707074488225463,0.001979846454096471,0.0016738289525089268,0.0009659211852933619,-9.573159251906349e-05,-0.001311732001579798,-0.0023818179889167597,-0.0030082151357082435,-0.0030095485373360527,-0.0023932385309525764,-0.001351850988768669,-0.00018492770375861127,0.00081759827483509,0.0014784107571473352,0.0017784962949391357,0.0018288106183336973,0.001785443130470043,0.001752433003195273,0.0017222232807601293,0.0015842423037284944,0.0011961146613817027,0.0004786537532285014,-0.0005163405752987729,-0.001601405521379399,-0.0025155924777169056,-0.003025287411051638,-0.003017328709289656,-0.0025401001250359885,-0.0017712924558618505,-0.000928257513757481,-0.0001702008481261636,0.0004522049263993573,0.0009743676327897115,0.0014458921786486441,0.0018646686013020222,0.002163155065718678,0.0022507750784535384,0.002074510092018178,0.0016498297275176924,0.0010415993832029022,0.00031684353025290314,-0.00048504859875611866,-0.0013336192005537458,-0.0021526676098312975,-0.0027810262032953565,-0.0030001751805073676,-0.0026346265248415068,-0.0016707148354641104,-0.00031152539686396313,0.0010829293987688097,0.0021479755002772796,0.0026731743603927464,0.0026752698906885907,0.0023485260874311882,0.0019340691233104184,0.0015947040102134455,0.001364656172901946,0.001183559525679706,0.0009684663452826732,0.0006645914717798976,0.00024712418425588837,-0.0003067115925659288,-0.0010308570892580496,-0.0019396191422084812,-0.00296785343883541,-0.0039344825991949545,-0.0045775247886147945,-0.004659714051851297,-0.004085952816565414,-0.0029559887988331156,-0.0015164478541226346,-4.521227983405486e-05,0.0012561819253257066,0.0023013269647177313,0.0030842113003386644,0.0036169467300217386,0.003894233708872562,0.0039050049237540755,0.003668071775173312,0.003250614010588974,0.0027465353436371296,0.002227004215204508,0.0016987352322985344,0.0011011533166744726,0.00034768510748227355,-0.0006117506054242703,-0.0017423938517950122,-0.0029160903692441492,-0.003944660146858735,-0.00463640168458651,-0.004850881283392155,-0.0045351710977139265,-0.0037360959604570646,-0.002588939411542104,-0.0012843650437754746,-1.8897962927048677e-05,0.0010572967468063742,0.0018747609417751837,0.0024445934417004003,0.0028240701749619682,0.003068613268884069,0.0031989850165522237,0.0032006422325582297,0.0030483712385665357,0.002732794045238322,0.0022685376104011378,0.0016815328502152679,0.00098920592977039,0.00019134222431810616,-0.0007182666387641203,-0.001722287986055095,-0.002747972743496311,-0.0036553509188615874,-0.0042626263022199655,-0.004406462675796046,-0.004010543699088453,-0.0031245504822992156,-0.0019097544594945015,-0.0005795521916793549,0.0006702722239997278,0.0017060384882397774,0.0024629388153607655,0.002927331880733682,0.0031165820350651133,0.0030684315476068964,0.002836481773691812,0.002481623386704268,0.0020548057289488005,0.0015776051343775362,0.0010339658330305898,0.00038371031388976894,-0.0004031252231031211,-0.0013062549607352292,-0.0022326014211608933,-0.003029253856317215,-0.0035315677808606437,-0.003624366281374557,-0.003283908545815951,-0.002578379369852675,-0.0016300637142749686,-0.0005656825775753673,0.0005143387638949718,0.001534059537421027,0.002419072293272286,0.0030789353422572816,0.003417429720785338,0.0033725999031519443,0.002963654061587431,0.0023086444515389866,0.0015877353530497705,0.0009601646365052144,0.0004791268794619577,6.061940213718459e-05,-0.00046423166640316833,-0.0012354866158010378,-0.0022541979667848886,-0.003343683324755262,-0.004209620442014086,-0.004567927211463971,-0.004270637664952826,-0.0033640954173694585,-0.002055809511402772,-0.0006180518315059976,0.0007145826726485876,0.001804657760060482,0.0026133620647968946,0.0031621726584224186,0.0034863038591125264,0.003604619210429081,0.003515243509476195,0.00321232407148676,0.0027103891036914956,0.002059058453405963,0.001334658574914589,0.0006080287354803939,-9.472378722501294e-05,-0.000810092406157375,-0.0016107857029043176,-0.002537936739292706,-0.0035279901474066728,-0.004386756016282038,-0.004844081397379106,-0.004673628940560975,-0.0038145729953989174,-0.002421646979489743,-0.0008088899364303007,0.000683703143295908,0.0018260669270915102,0.0025644143925574623,0.0029912176646001275,0.0032481392926525018,0.003424427516369089,0.0035081339730601343,0.0034116394126383234,0.003048553793033106,0.002410322579710992,0.001593127247613761,0.0007573494505007492,4.380136732746781e-05,-0.0005026349296667927,-0.0009555751667191812,-0.0014601287591315723,-0.0021390606191782594,-0.003001158953178075,-0.003902384597521542,-0.004585877884370202,-0.004786875266064389,-0.004352724284235466,-0.0033170713147161746,-0.0018897307701785195,-0.0003684176138197405,0.0009806164692632308,0.0020125269529774,0.002723711707511428,0.0032008476086177206,0.0035360896596883093,0.0037603774449538156,0.003831120297803949,0.0036745603635028237,0.003250137226123516,0.002593968529972555,0.00181423999190104,0.001040829693860436,0.0003581950354875466,-0.00023866443993831807,-0.0008362057056036388,-0.001541636107843928,-0.0024003406029619984,-0.003338576155462871,-0.004167944350510421,-0.00465467717134317,-0.004619697992819884,-0.004017491209403232,-0.00295419967931625,-0.0016400080119260418,-0.0003057081652700041,0.0008725218550461415,0.0018081246598875564,0.002493289525316313,0.002959487417429759,0.0032358431705491915,0.0033271252211968766,0.0032198274030708915,0.002908651023233462,0.0024232476445032146,0.0018332765251572519,0.001221873868133856,0.0006390318349860623,6.517810315973482e-05,-0.0005826196454287775,-0.0013907598445097986,-0.002360816454273774,-0.0033469041736908164,-0.004070681136797228,-0.004226887244405861,-0.003635595087984482,-0.002358805822290493,-0.0007078178491242165,0.0008753505167328278,0.002006036701053522,0.0025144433658785726,0.0024885553868319154,0.002186350725444118,0.0018775966430320853,0.0017101807699913978,0.00166826942467259,0.0016240264051056107,0.0014302842796169147,0.000993134360253516,0.00029682077543991567,-0.0006054780146327955,-0.0016057787095179615,-0.0025476151642945836,-0.0032383021318378013,-0.0034886223506921206,-0.0031810142669705128,-0.0023360378899982743,-0.0011326648263378014,0.00014390628524797516,0.0012115937103214529,0.001904151634463772,0.0022248045734484224,0.0023089416285229404,0.0023183772260443026,0.002333733791966214,0.0023131803817634934,0.00213983264219812,0.0017175543315112174,0.0010428099384074852,0.0002038862173016422,-0.0006811795779538415,-0.0015294191908758067,-0.0023056118052890468,-0.002977812317921372,-0.0034636288529884705,-0.0036257387459448943,-0.003334392178942744,-0.002557202234043344,-0.0014099693788068137,-0.00012699243438653467,0.0010355426497604145,0.0019053109463655466,0.002447056087699984,0.0027372648035128813,0.0028837367224116817,0.002944775364897614,0.0028975728195758076,0.0026691060848630186,0.00220059377826929,0.0014966573490754434,0.0006255089851718051,-0.00032464155593557006,-0.0012932664644411823,-0.0022557221779420976,-0.003180503792541126,-0.003969572562609302,-0.0044384301328049495,-0.004370821257318482,-0.0036293631706945714,-0.0022573765449797932,-0.0005042752578443342,0.0012495973145943012,0.0026334394198089944,0.003420597593201899,0.0035931459667860382,0.0033131074861290927,0.002825247275470996,0.0023457887561595795,0.0019887460707336616,0.0017522819740812246,0.001552278020184326,0.0012717067408536723,0.0008008915704790569,6.426979634244505e-05,-0.0009562403240406701,-0.0021947971461244377,-0.0034825526890331186,-0.00455970939322623,-0.00513671394231488,-0.004995747309998128,-0.004091262259799675,-0.0025945312335636885,-0.0008474455354003459,0.0007621825700776046,0.001946079775488279,0.0026102393172856646,0.0028551196182223758,0.002888743322683191,0.002903400395191531,0.0029793207685542738,0.0030589220984051377,0.0029976723087173024,0.002661022243606175,0.002015623031972463,0.001165205875812438,0.000308163935016153,-0.00036418804108082287,-0.0007731187663114057,-0.0009983586241524248,-0.0012316701364062591,-0.001659792629112973,-0.0023431345980668805,-0.003161657186378385,-0.0038599668680394097,-0.004164797019111502,-0.003908104937088773,-0.0030924103199470847,-0.0018753676960799378,-0.0004971781637914447,0.0008032594496762843,0.0018477595942461861,0.002544190807795793,0.0028864135335450614,0.0029384658951524855,0.002805720597656447,0.0025951610054470602,0.0023756115512256594,0.0021564738254185524,0.0018984328798680415,0.0015507638080788813,0.0010905208750146929,0.0005365908654168531,-6.877922131106764e-05,-0.000691978904365462,-0.0013238142335312878,-0.001963148035466622,-0.0025793210312432422,-0.0030836840595767114,-0.0033387193494566524,-0.003210514225822204,-0.002640661514422364,-0.0016966467848725554,-0.00056766507325133,0.0004987891239678216,0.0012921952055398938,0.0017204210878226638,0.0018361108955033656,0.0017933180685427521,0.0017564075799177065,0.001810647728192952,0.0019237006418967968,0.0019764092158957147,0.0018384946291028202,0.0014395339002456259,0.0007956446277406919,-1.1854259544723331e-05,-0.0008773463230012082,-0.0016985545655714728,-0.0023803575069728635,-0.002829813999429681,-0.002963435342071638,-0.002732166738836563,-0.0021498731909826963,-0.0013046210731390137,-0.0003410245006684712,0.0005821656254626762,0.0013409921124480407,0.0018779672959391893,0.002200912031949843,0.00235309321792592,0.002376482902298535,0.0022909667459124986,0.0020963546375063575,0.0017861320603530517,0.0013571681751665971,0.0008094463130221307,0.000142972773199201,-0.0006368483200190779,-0.0015020400388081178,-0.0023829302621815743,-0.0031644413922728345,-0.0037093517749223932,-0.0039023993820493223,-0.0036916275565653947,-0.0031018620423832457,-0.002214291251554758,-0.0011309842453048943,4.8751137103555405e-05,0.0012294024786314683,0.002310786043087564,0.0031910604692900616,0.0037874090974140385,0.0040597230732616115,0.004017559717222811,0.003705718695450347,0.0031822278807236547,0.002505250681543396,0.001731271180255978,0.0009131090929698615,8.895395986116908e-05,-0.0007304662413590126,-0.001559262729378985,-0.002410062142708865,-0.003256868659681162,-0.004012888451257991,-0.004541631616565846,-0.004698902386125733,-0.004386133358914265,-0.003591894247262718,-0.002406050223275351,-0.0010024037775698358,0.00040433868387238176,0.0016139748994113989,0.0024907447827725677,0.0029904338128602763,0.003155375682536321,0.0030823216684711884,0.002880680657047452,0.0026403528673481064,0.0024177652932130195,0.0022347848405661697,0.0020798688333460457,0.001907657617519911,0.0016438313368949864,0.0012043287713904185,0.0005282764224534887,-0.0003891290688473758,-0.0014814020340613103,-0.0026212224744095298,-0.003649627371254212,-0.004409084688430508,-0.0047695362212434745,-0.004646273481984942,-0.00401469154392289,-0.002925017462687849,-0.0015119599226504836,1.3903858249000953e-05,0.0014058107573296378,0.0024496610508546197,0.0030364083475422814,0.003197976221337367,0.003079335925047532,0.0028567379479376024,0.0026485606760030134,0.0024717587603623426,0.0022660514302158628,0.0019615026620861046,0.0015373380178925135,0.0010307812363656921,0.0004947874519721897,-5.7752504468243165e-05,-0.0006756302421457222,-0.0014328407597030768,-0.0023511994092303957,-0.0033316777671081495,-0.004146855950524058,-0.00451528283086398,-0.004228726648611714,-0.0032656799684678394,-0.0018252811334868297,-0.00025754911655552113,0.001076781802008044,0.0019460464449904545,0.0023195296148585,0.002342629728893084,0.0022367448617328384,0.0021803833149049443,0.0022314568699309313,0.0023232191405172056,0.0023245984112670324,0.0021233943895655172,0.0016847988465365578,0.0010581107556332794,0.0003365213632784364,-0.0003998110612218822,-0.0011198471658386147,-0.0018325317266693875,-0.0025367488457729167,-0.003165217332293231,-0.003569109488622083,-0.0035693327987245615,-0.0030548698567216402,-0.0020688408304744316,-0.00082082520816791,0.00039378628656874673,0.0013265490346306532,0.001883497807805053,0.002143474940250332,0.002278774487826636,0.0024309579448332525,0.0026212364527168257,0.002749217235444353,0.002674149675489113,0.002319577216825564,0.00172986525823549,0.001041443040189505,0.00038915018283274515,-0.0001877943503156995,-0.0007728405669210795,-0.001506543920598641,-0.0024644977168001843,-0.0035569579933758992,-0.0045210001590915705,-0.0050211097602574275,-0.004806281533463417,-0.0038356373401773067,-0.002303653282966276,-0.0005560696235212106,0.0010518807108644372,0.002278773038475719,0.0030468107720557375,0.00341129767070294,0.003486582688820695,0.00337938876780282,0.003160541570972838,0.002871216272262163,0.0025377991502941125,0.0021741824464636627,0.0017715654932611547,0.0012919791500270365,0.0006802064598426624,-0.0001060485012015904,-0.0010623338218846473,-0.0021180067943271734,-0.003141036505804505,-0.003964832373302124,-0.0044273639772912385,-0.004412253508789888,-0.0038838094995031222,-0.0029080747818115643,-0.001649755445205714,-0.00033635827725614093,0.0008077814501385828,0.0016358983392488588,0.002126201341743078,0.002372892869756482,0.002519751652697197,0.002670730016692449,0.0028301791424058323,0.0029099783596888374,0.0027984678921616993,0.002444278900945329,0.0018968475484152005,0.0012741960206289916,0.0006788399026837338,0.00012055574713461855,-0.0004959066889930554,-0.0013005578071317203,-0.0023432658541347245,-0.003506972925426277,-0.004511826814300891,-0.005021730058491488,-0.004802117085183345,-0.003842491096499008,-0.0023728998888080995,-0.0007624639143068821,0.0006447094826364602,0.001665811501906914,0.002315392465343075,0.0027294917939964447,0.0030340101793741208,0.003246717700250757,0.0032774584644341305,0.0030217310549189003,0.0024752676076373248,0.00177997493550024,0.0011586636086033078,0.0007753311543717691,0.0006145888572209116,0.00046884934387751313,5.629193588329872e-05,-0.0007933274853178082,-0.0019988467258063507,-0.003227435376236658,-0.004045030407045687,-0.004135147345532133,-0.0034600060907917993,-0.00227277438402782,-0.000979984981601163,6.041540264217261e-05,0.0006909785661056574,0.0009826669933581207,0.00114169746869684,0.0013622313023328445,0.0017106525937378165,0.002099366578087289,0.002354527605270957,0.002330875618924139,0.002002373209239641,0.001473031599874991,0.0009023898118577092,0.00039660196780310464,-5.8431943385830964e-05,-0.0005719567482917251,-0.0012450010922516223,-0.0020596905736854814,-0.0028414375714890753,-0.003327159379564998,-0.00330106058484094,-0.0027133126217131084,-0.0017083863449438574,-0.0005495968097218509,0.0005084551104691429,0.0013213046349353952,0.0018772473621652304,0.0022436250907269676,0.002485201205821547,0.00261226275265802,0.0025872895758843307,0.0023746559081674135,0.0019883515889003514,0.0014974276955317654,0.0009834591911640502,0.00048313686255037916,-3.734393483827424e-05,-0.000652234528793873,-0.0014085419751460534,-0.002266947199376529,-0.003091101222302518,-0.003691624336894084,-0.003898164754076068,-0.003622166387265073,-0.0028851012605206573,-0.0018074747580525156,-0.0005695080399002442,0.0006392753295202536,0.0016650522131068648,0.002417155645671158,0.002872080786045297,0.0030559687811697596,0.00301603741150145,0.0027968768679388243,0.0024344855025217357,0.0019681361439872528,0.001455009519689257,0.0009675190531132686,0.0005653912340718636,0.00025687021014437664,-2.173064794965256e-05,-0.0003853767121696023,-0.0009411378433250803,-0.0017196487054818778,-0.00263532610488949,-0.0034990521210169017,-0.004079594964258049,-0.004186673812889157,-0.0037407057922819228,-0.002802329150627904,-0.0015518255802287302,-0.00022704525703147872,0.0009563673830826632,0.001870455056609683,0.002497831789314671,0.0029021300920215472,0.00316350667800285,0.0033171915905883366,0.0033314633534606364,0.0031366069956492984,0.0026842698003947236,0.0019983316569908978,0.001184672095784539,0.0003922011244758474,-0.00025467347374206074,-0.0007159947910183775,-0.0010549585468066594,-0.0014010839861287993,-0.0018719392454457273,-0.002491962376628952,-0.003153422318348012,-0.0036460875316448853,-0.0037460087342203584,-0.003320173013759419,-0.002393599908663955,-0.0011456219616777917,0.00015984625882475465,0.0012724054436685497,0.0020346158158392955,0.0024123407164055462,0.00247479872689189,0.002345979465889059,0.0021537634838981806,0.0019924778239465354,0.0019016372331430663,0.0018586552864788787,0.0017856046659861357,0.0015716575125517,0.0011092761105917935,0.00033675998406585957,-0.0007235046612119572,-0.0019433304041125998,-0.0030968293350055074,-0.003908214004207888,-0.004135634291732446,-0.0036653609394418814,-0.0025732877027794913,-0.0011151574655990284,0.00036123638975692457,0.0015449911174058584,0.0022687940015419946,0.00254102984235548,0.0024945185103364236,0.0022910635713242365,0.0020413910217153795,0.001780042593799568,0.0014910691949779555,0.0011474941230282558,0.0007300492075287114,0.00022186440221988313,-0.00039628142646395596,-0.001127612943301369,-0.0019236797236526705,-0.0026626000787189127,-0.0031701996692957792,-0.003284321762873764,-0.00293056413226304,-0.0021658902548492595,-0.0011624980295387062,-0.0001375549118297725,0.0007349740021749112,0.001383966858100417,0.001842383394257483,0.0021945672671669194,0.002505563818360614,0.0027766155382364993,0.00295009647419559,0.0029518436689811153,0.0027348567247623998,0.0022929653206029553,0.001641249135957816,0.0007883062778646545,-0.0002685032910319904,-0.00151347541041243,-0.0028664153518190363,-0.004154506798803184,-0.0051301788266390575,-0.005537926203264538,-0.005205049039286457,-0.004116281282561792,-0.0024379892009538393,-0.00047984393626132425,0.0013919389940799057,0.0028579166144200438,0.0037296234560212664,0.003987869415293037,0.003765169904498788,0.0032814003463682035,0.0027572440255585412,0.0023372357299986306,0.002050348398992356,0.0018208779306082084,0.001520490760148015,0.001034021190274376,0.00030792833196379603,-0.0006355845766982688,-0.0017130550798141674,-0.002802341861619705,-0.0037573068036461923,-0.004417305005592534,-0.004628101503672637,-0.004284516380432693,-0.0033824047085689434,-0.0020487692094599557,-0.0005221313982353047,0.0009186213401373808,0.0020470210455308347,0.002758206371375381,0.003081236823995244,0.0031330001959320015,0.003043384811094785,0.0028932805336432097,0.002694398214884468,0.0024128480424487537,0.0020138845077096687,0.0014965720839597246,0.0008973761080090861,0.00026336411788782383,-0.00038386503859680414,-0.0010646317271727054,-0.0018197032258778216,-0.0026580216355563055,-0.00350627003001002,-0.00419900319254982,-0.004526288273098019,-0.0043193880242289396,-0.003529909368635949,-0.002261100595724718,-0.000737101567524415,0.0007723881600836768,0.0020360158795172762,0.0029179313942597476,0.0033891852236508715,0.00349830997713048,0.003326380426082736,0.002955998289633195,0.002466766155284234,0.0019438271804970654,0.0014734452970231698,0.0011130397503095212,0.0008515234094679351,0.0005936974063318972,0.0001932976900973943,-0.00047093803496989196,-0.0014120799042319674,-0.0024915975713434417,-0.0034473217163528795,-0.0039892247193322366,-0.003921653146896182,-0.0032316207917247102,-0.002096708902076403,-0.0008079977362071174,0.00035109458885911494,0.0012079461734123154,0.0017381978580203055,0.002028849654793731,0.0021976143184286117,0.0023176228712697604,0.002386317502550504,0.0023465786237438294,0.002136343037498235,0.001729843891591882,0.00114624181440818,0.00042908583976483325,-0.0003784077973085123,-0.001237767503292954,-0.002095883367878364,-0.0028620098860797187,-0.0034078603151321933,-0.0036012532762444297,-0.003357754020791924,-0.0026797829446868885,-0.0016603603482325548,-0.0004522159058276589,0.000776472049468708,0.0018756413826301528,0.0027262786342325826,0.0032405844098976526,0.0033652215892991284,0.0030970608429027172,0.00250507286583122,0.0017378298200152555,0.0009950084753878518,0.00045872579608133583,0.00020944741714810754,0.0001728932251509673,0.0001396269302690904,-0.0001365351287199426,-0.0008036580439211417,-0.0018125463195065167,-0.0029128029779182103,-0.0037520158741598305,-0.004027394787348572,-0.0036114849585793013,-0.0025931265299231785,-0.0012253748049447584,0.00018101665285433905,0.001363220352716618,0.0021708151892008178,0.002577767929174169,0.002653983440952135,0.0025183336945079886,0.0022930263773353163,0.0020702520599920476,0.0018924440721292746,0.0017436166666428116,0.0015528632280043112,0.0012158423193541009,0.0006368740609905748,-0.0002186444548583246,-0.0012852436915215472,-0.0023967034010033174,-0.0033324138675152612,-0.0038938983337779842,-0.003975493972615974,-0.003593901686318118,-0.002863483154533314,-0.0019350908143053844,-0.0009358086218771616,5.811436269351748e-05,0.0010083526462138072,0.0018813937464434633,0.0026239357400323006,0.003163677704069474,0.0034325510254756084,0.0033967684354201094,0.003077525643804084,0.0025523378769826137,0.001933688272168372,0.0013289444619413427,0.0007955418575589319,0.00031421225199187324,-0.00019918775024332767,-0.0008407429685566192,-0.0016475575092586194,-0.002547909986368887,-0.003364574068017253,-0.0038754289706122843,-0.00390360836560439,-0.003393468732978624,-0.002436901464649792,-0.0012399235331458686,-4.7145937002117806e-05,0.0009413717852987876,0.0016260775684351202,0.002016401057258757,0.0021935334082232227,0.0022496795230124997,0.0022361228505676355,0.0021467576966036346,0.0019428065288319605,0.0015984432915643278,0.0011328630083705144,0.0006042172793958609,7.046559825648604e-05,-0.000449852532589919,-0.000980942290200186,-0.001548170593055166,-0.002119941250950115,-0.002579883188338735,-0.0027597778069728715,-0.00252214014328743,-0.0018442423650674056,-0.0008503703202200821,0.00022957396014690876,0.0011522888297081824,0.0017539050938284086,0.0019980374115687078,0.001962634542922527,0.001782264625780449,0.0015813831446529732,0.001430790632854456,0.0013390141999554963,0.0012682502714860852,0.0011559580380836477,0.0009311434799038786,0.0005281476659162014,-9.340710333097756e-05,-0.0009210562683904253,-0.0018664046865004696,-0.0027660159960474487,-0.003418403329301961,-0.00364911714459108,-0.003375743329433172,-0.002639722215941526,-0.0015884096146849091,-0.00041888078399885726,0.0006851295993184291,0.0015938099802437085,0.002240108420890979,0.0026081132732327615,0.0027182234171197403,0.0026175209058879566,0.0023721652224481904,0.0020551317166159133,0.0017277866415466136,0.0014207650421903053,0.0011224395098779275,0.0007812579317498688,0.0003242171772930526,-0.00031035920476834243,-0.00113290568054384,-0.0020703148340236576,-0.002961581388466875,-0.00359653962009303,-0.0037925149999089823,-0.00347664682512017,-0.002727097625257193,-0.0017410660441766431,-0.0007397604412187784,0.00013522293986543418,0.0008681397067421987,0.0015285004681371277,0.002175835330158285,0.0027817315834658745,0.0032267727010585525,0.003373009134708318,0.0031577438440779943,0.002642019192192928,0.0019820016198392686,0.0013440674048843609,0.0008180294895555244,0.00037948422275878616,-8.05892299964983e-05,-0.0006798643372181901,-0.001465969832003345,-0.002375426396828826,-0.0032473441267178386,-0.003881481464244603,-0.00411260905577658,-0.0038702139777024337,-0.003201305419650207,-0.002249237325848642,-0.0011984755816132797,-0.0002090245001404297,0.0006310308126511033,0.0013145240310258295,0.0018845955912547374,0.0023846456257889544,0.0028194973535483944,0.003149584260271563,0.003316682339319761,0.003278953484505896,0.0030305840098475787,0.0025972804970902912,0.0020177524388378066,0.001327231705476435,0.0005512340892577981,-0.0002915208758508733,-0.0011796378410342972,-0.0020735742436187457,-0.0028985531860285024,-0.0035394488846374837,-0.0038632430849512636,-0.0037696390956980866,-0.003246038659641625,-0.0023909078373989447,-0.0013843771004797983,-0.00041821287979198183,0.0003763909258022402,0.0009647044760498941,0.0013933343373265564,0.0017385340316412913,0.0020493315564789898,0.002315510773406493,0.0024750701101748677,0.002454410121463972,0.0022161167444907817,0.001783420890357526,0.0012239416956363923,0.0006037824116603239,-5.227712858504646e-05,-0.0007593450515371401,-0.001524675227177011,-0.0022872882286809086,-0.002895509093021091,-0.0031525495004858144,-0.0029141543564143533,-0.002181482126809085,-0.0011269098341748541,-2.835392012588917e-05,0.0008542805999755936,0.0013892511866003391,0.0016081766454398134,0.0016538290919757058,0.0016808753291035303,0.001771631859039133,0.0019098415267460138,0.0020137748491881567,0.0019950169274844296,0.0018014110417174092,0.0014222129171493753,0.0008641950335251457,0.00012825862344990495,-0.0007859012504266244,-0.001842932245396884,-0.0029285355160410063,-0.003840618886940866,-0.004340682241228995,-0.004250596617221196,-0.003541410715012833,-0.002356858940742336,-0.0009532175928024067,0.00040824615215586,0.001551592733661164,0.002412923416525197,0.003004635047047776,0.003357141965613885,0.003482004568744589,0.0033737463325905362,0.003035830858901258,0.0025026653509697995,0.001838699947627512,0.0011154624790269492,0.00038228151602598826,-0.00035080110287759596,-0.0011065372551801202,-0.0019101473223060328,-0.002746549091839882,-0.003526499629858082,-0.0040859597363547915,-0.004231971142899792,-0.0038237487333349293,-0.0028522636201624265,-0.0014733102599975229,3.237708666199387e-05,0.001360211260959993,0.00229616670398567,0.0027858603682818905,0.0029234382959976587,0.0028711600503806734,0.0027603570576422254,0.002632482448164541,0.002449104863803564,0.0021516757565863713,0.0017198649801710682,0.0011848423662073205,0.0005943762127401374,-3.298709688585389e-05,-0.0007197381173391838,-0.0014926790939580547,-0.0023256258639943357,-0.0031091647815779215,-0.003676680541218477,-0.0038747697810328253,-0.003634180267986234,-0.0029975152219063436,-0.0020901767434607812,-0.0010582598769800593,-1.532785386669668e-05,0.0009715183891323475,0.0018568515371358307,0.00258193349739067,0.0030638981243089553,0.003223801046992846,0.003036969233261428,0.0025681369772803824,0.0019589872990512253,0.0013656501006733847,0.0008795361074457222,0.00048152043503187455,6.284751059978499e-05,-0.0004953197084482251,-0.0012305415533462644,-0.0020514189510789605,-0.0027617524221745576,-0.003141645337941124,-0.0030409424832756778,-0.002439929287775911,-0.001455434714982458,-0.00029865475016142807,0.0007922863185524707,0.0016202540228286736,0.0020786347794303243,0.002170428901739039,0.001992431145296534,0.0016901063385381379,0.001398719906166725,0.001190796027095234,0.0010473649254655753,0.0008640746487095484,0.0004956848223571428,-0.00016896005121878953,-0.0011270516114553354,-0.00221818170632888,-0.003153926245295845,-0.003624368205591053,-0.003437384880218862,-0.0026166343086282857,-0.001398751665450777,-0.0001260996853649734,0.0009064703274509289,0.0015662912055252327,0.0019014601947708416,0.002065529032012503,0.002202541302719033,0.00236082767402779,0.0024780299185472457,0.002434804342610221,0.002137538238319342,0.0015792344667903335,0.0008453883591404284,6.655043017082834e-05,-0.0006490918591631792,-0.0012598957095246647,-0.001785803655846687,-0.002261284293555632,-0.0026804210363498056,-0.002972636724844888,-0.003026825277464624,-0.0027500626595504266,-0.0021251295476561616,-0.0012323434596920328,-0.00022372074620777716,0.000734174710742418,0.0015163095395213436,0.002066859064206536,0.0023915087630729677,0.0025277711410307607,0.0025144817404001364,0.0023758394004463985,0.0021239575567605206,0.0017738363811608696,0.0013577379548595162,0.0009239808963839523,0.0005131789221590462,0.00012366596517068406,-0.0003048930750167095,-0.0008637711177358956,-0.0016066089830406992,-0.002479701903807709,-0.003303430556451308,-0.003830405965521062,-0.003855863658210873,-0.003318665053708632,-0.002334476493662142,-0.0011436381370628925,-5.508559571033731e-06,0.000903188604985393,0.0015376963902711308,0.0019661914605685507,0.002300914889013164,0.002619138080248543,0.0029144317805055464,0.0031002926008049238,0.0030600911287476276,0.0027144889176358177,0.0020712016053335116,0.001232780096811934,0.0003582391187628644,-0.00040462368524464,-0.0009840054369635882,-0.0014107719410744823,-0.0017872092109401882,-0.002209331010835479,-0.0026853044604279964,-0.003101544693398022,-0.0032644332323635795,-0.0030009628073291903,-0.002263432270972115,-0.001176739984412858,2.6654658149810996e-06,0.0009973416667153133,0.0016303018102834378,0.0018919237853687791,0.0019172585071620006,0.0018895504307149785,0.0019278275578628896,0.0020239631509571393,0.002062340642007897,0.001903594758847326,0.0014763410612041682,0.0008206820399343169,6.211465842983444e-05,-0.0006605130672337365,-0.0012632244274368295,-0.0017389811931824016,-0.0021245919554074744,-0.002439646172340103,-0.002641354530594633,-0.002627865948028713,-0.0022914865020568866,-0.0015911621977957435,-0.0005998516474156108,0.0005043282156257783,0.0015017225097896515,0.0022160317289750893,0.002575161363713503,0.002618013865265218,0.0024495827970988397,0.002175728050647675,0.001856956043845079,0.0015037634595530076,0.0011069227502890934,0.0006737681665819029,0.0002399633028223131,-0.00015380224827245351,-0.0005021249166057228,-0.000856962033105365,-0.0013048775870538594,-0.001904034127680053,-0.0026181296699432106,-0.0032943522618679878,-0.0037100348705061386,-0.003670426553408921,-0.003104754516689043,-0.002104344579923624,-0.0008803768587612377,0.0003313612100111903,0.0013607772612519479,0.002141045564664033,0.0026858987377103433,0.003036727870519004,0.0032192813413340045,0.0032321753234473187,0.0030638361305704432,0.0027187664243654218,0.0022333081109950016,0.0016705767409009266,0.0010968671755932954,0.0005520111977487121,3.0104264819195878e-05,-0.0005169410771663889,-0.0011508412036469655,-0.001903336579467782,-0.002736352110427824,-0.0035267789943858375,-0.004090006822147964,-0.004240548210453535,-0.0038675870908282802,-0.0029894815799927006,-0.0017568596348256382,-0.0004001909586024688,0.0008511866738630262,0.0018373570343225073,0.00249411132693371,0.0028357275016707498,0.002916366146607132,0.0027974702237841672,0.0025356985203715014,0.0021868874202681703,0.0018103537444726083,0.001460935414291704,0.0011688986889856865,0.0009198157132812769,0.0006500830240418502,0.00026764265891706003,-0.0003052441815742501,-0.001084052029838451,-0.0019927735800436197,-0.0028713764137513883,-0.003520544632448848,-0.0037658612463682822,-0.0035150936859834614,-0.0027872452573539526,-0.0017056708767111063,-0.00046166099326515564,0.0007366354671514332,0.001713739835380799,0.0023621493357715542,0.0026561187271991167,0.0026424012692198,0.00241278748552168,0.0020694673551045696,0.001696453611428215,0.0013446719138642841,0.001027901121986541,0.0007219840214485414,0.00036717464827998824,-0.0001149103725600391,-0.0007793651816454228,-0.001601305926648201,-0.0024399831194916455,-0.0030630590782253554,-0.003239152354889941,-0.0028569547964214523,-0.001999111616921476,-0.0009175364009961352,8.367377019585938e-05,0.0007920353932575291,0.0011741143278209956,0.0013592028780084336,0.0015348868558200917,0.0018200802425578449,0.002189988951233589,0.0024936699344925897,0.0025497928643690624,0.0022609727302701547,0.0016765879749465196,0.0009647276303815872,0.0003092610814872432,-0.0002042429876351167,-0.0006398490211127648,-0.0011617582560757033,-0.0019078390377638061,-0.002861217690752404,-0.0038032475430118456,-0.00438822732457105,-0.0043082847157194125,-0.003458550344142737,-0.002006565186364127,-0.0003235534390166548,0.0011832105060736117,0.00224084078112586,0.002792549939205756,0.002959352435298193,0.0029236686001270534,0.0028155345630892295,0.002666746049319186,0.0024450009576811155,0.002126065148688425,0.0017410987758559038,0.0013602688796269375,0.0010255091872521532,0.00068844964842354,0.00021199545864387167,-0.0005486790358246865,-0.0016293062409935511,-0.002881198553755653,-0.003996953919390318,-0.004636103151117252,-0.004584473596265353,-0.0038552462279026894,-0.002673094500595621,-0.001354920867789322,-0.00016256413948980916,0.000787292014743871,0.0015158327450582809,0.0021016406408735297,0.0025909407955013626,0.0029564889086047606,0.0031224449138043766,0.003027767171392428,0.0026800862193225865,0.002164955812477757,0.001607899532289419,0.0011142912996046134,0.0007196495235830914,0.00037330333225764215,-3.675746666219001e-05,-0.0006243735966849934,-0.0014318906705133069,-0.00237646215068505,-0.0032504573958269368,-0.0037899936517261884,-0.0037880357053961295,-0.00319607355926361,-0.0021564381892239556,-0.000942635416512155,0.00016236377069575787,0.0009836403373350538,0.0015047798158922601,0.0018292700935713985,0.0020835201505473543,0.0023239334859019092,0.0025027300756312407,0.002507275927597321,0.002242350304694954,0.0017012129278371185,0.0009808672458019526,0.00023191118348430458,-0.0004259658068430554,-0.0009680423970027908,-0.0014624577625307119,-0.001997112287904777,-0.0025806223717613113,-0.0030868308943053585,-0.003290128541972707,-0.002981070670147753,-0.002096529045488283,-0.0007835652334391513,0.0006473795290553342,0.0018582368188380441,0.0026314185934832595,0.002945765739169328,0.0029415053985198075,0.002805131319839729,0.0026517094536024776,0.002475067217257208,0.002184558060335984,0.0016898854742002558,0.0009712023439909589,9.185159280312256e-05,-0.0008432991945468254,-0.001743556136612797,-0.0025577879763870647,-0.0032547430865795196,-0.003782018724883516,-0.004044676619680845,-0.003928679302579315,-0.0033597423813131956,-0.002361420197975082,-0.0010746595008298472,0.000277020710089536,0.0014621629372607177,0.002319465960646032,0.002801195918755097,0.00296346334093684,0.002915324232833991,0.0027603203499070948,0.0025618066931491707,0.0023402924904354426,0.002087412858553749,0.001776263259564957,0.0013622720099617717,0.0007863442724989353,-3.9100424972032745e-06,-0.0010126118128169735,-0.002153208858256442,-0.0032378307673463762,-0.004021413410817649,-0.004291753603110331,-0.00396193351698804,-0.003111123776245126,-0.0019465781863270116,-0.0007083705564711171,0.0004253574782350083,0.0013781682989081002,0.0021463355781361506,0.0027353180074406657,0.0031160932836639265,0.003234432694159364,0.0030612853163260647,0.002638735197351237,0.002078451699762258,0.0015056305687736692,0.0009842837637476277,0.0004779562883835748,-0.00012050472032229986,-0.0009026594628478594,-0.0018548972922435535,-0.0028256251811816313,-0.0035758509161656397,-0.0038871952621715683,-0.0036648369384438616,-0.0029771093257641395,-0.002014263315327738,-0.0009969060592006206,-8.838122461947195e-05,0.0006459688002250011,0.0012226632250870373,0.0016885319018722072,0.00206930357615559,0.0023476960709314493,0.002480005346187826,0.0024360394721573654,0.0022318490082359616,0.0019284426402255612,0.0015928618306171186,0.0012469346952899158,0.0008430991119903144,0.00029297038521945793,-0.0004611074200719966,-0.0013750304957243524,-0.002282581235349944,-0.002947566297450479,-0.003164699925859945,-0.0028540958947213093,-0.0020980514136515163,-0.0011032677357382535,-0.00011263682649258482,0.0006862563618290391,0.0012136252940453604,0.0014943309343568101,0.001612101160056754,0.0016518068166812613,0.0016589826751270585,0.001629235670399511,0.0015211890151067852,0.0012780693455334855,0.0008482336866846252,0.00020504220120206348,-0.0006304605244782785,-0.0015683033131090223,-0.002444928509655587,-0.003051885083107254,-0.003200061517142647,-0.0027972259621753806,-0.0019000804510852132,-0.0007087153683766496,0.0004998571618599495,0.0014695375740226618,0.0020488806547945106,0.002225252255526991,0.0021016598908692656,0.0018359838251601089,0.001574211549957568,0.001402664941761316,0.0013285222066809984,0.0012857059096388077,0.0011600356489791348,0.0008294491222203368,0.0002141818465708987,-0.0006754172643989222,-0.0017142318179980444,-0.0026812599089289326,-0.003326492845001818,-0.003463727271313453,-0.0030465112656408626,-0.002186524810786551,-0.0011018737563587495,-2.176711762906839e-05,0.0009004007795729643,0.0016189729555110238,0.0021615175362683144,0.0025594179619729753,0.0027962250106459805,0.0028102419871304236,0.0025463283462431943,0.0020156490841058724,0.001316401894577634,0.0005958712407575862,-2.509791069064439e-05,-0.0005169263401746625,-0.0009512609795729142,-0.001445410843331418,-0.0020724531922058516,-0.002791010028544319,-0.00343731827290836,-0.0037850725514735986,-0.0036413221724552825,-0.0029320806578135242,-0.0017421298808011558,-0.0002958893407394159,0.0011131178144630825,0.0022202633966138716,0.0028783442884691337,0.00309694841973236,0.003010989855994614,0.0027936432648081495,0.0025630983606977314,0.0023375368769988584,0.002060982172284394,0.0016747050121369476,0.0011786908812242403,0.000637373679725994,0.00012690977624428535,-0.0003334593031595994,-0.0008092915166983132,-0.0014092477701002472,-0.002195128199814807,-0.003102051134216459,-0.003925412114302678,-0.00439164935752631,-0.004278562522374622,-0.003520861725406481,-0.00224545945893457,-0.0007210471074460879,0.0007479901779497306,0.0019282395312232954,0.002716136447639368,0.003131543833285925,0.00326374325729711,0.0032073691308318435,0.0030217923423413303,0.002726417649886473,0.0023221291400745856,0.0018182297489622381,0.001246389298162968,0.0006529785696863301,7.403478608850194e-05,-0.0004904205871885326,-0.0010804395032965942,-0.0017454543802673857,-0.0024890628228931575,-0.0032231160081701783,-0.003769265753389697,-0.003922174775895355,-0.003548263863972843,-0.00266451077755439,-0.001447027663217142,-0.00015951263001969234,0.0009587090864784521,0.0017810689205573012,0.002312389783031935,0.002637528594997642,0.002841145629753712,0.002950352125967127,0.0029293992400758716,0.0027187737105188628,0.0022848398988758296,0.0016453257291903127,0.0008581927601711478,-1.0162022309158402e-05,-0.0009076326914514814,-0.0017910313669337917,-0.002599648437109964,-0.003235027169492443,-0.0035724434077031458,-0.0035066884583996563,-0.003007516927802703,-0.0021486536135986107,-0.0010877530210617362,-5.133826752103125e-06,0.0009635298341549069,0.0017602829517041861,0.0023860364720527955,0.0028482976671961474,0.0031179185175126815,0.0031300598147415955,0.002830548833374089,0.002233727608873646,0.0014480763458571651,0.0006468657280984523,-4.45774034489024e-06,-0.0004272756342743819,-0.0006737024566191081,-0.0009081442678389424,-0.0013258024695016503,-0.0020386857746649994,-0.0029840585531933713,-0.00391156574938001,-0.004472628441704811,-0.0043784525189141475,-0.0035446909438560624,-0.00213922508632804,-0.0005037268417854529,0.001004036869420664,0.0021546483446664455,0.0029013955610213906,0.003330318252528928,0.0035559477885768985,0.0036368937529356205,0.0035591404181884913,0.0032821299153167676,0.00280162288966645,0.0021792812977080734,0.0015189856750986719,0.0009088943746182327,0.00036960518835874614,-0.00015747042851877086,-0.000772588362792679,-0.0015497536876171742,-0.002473887798313445,-0.0034176039834993787,-0.004173710415320571,-0.004531625666904884,-0.004362402655469659,-0.0036715163639299813,-0.0025951824228396558,-0.0013452520060795072,-0.00013200463956464765,0.0008996581762303324,0.001696672654515469,0.002281984523930335,0.0027085587322636232,0.0030071037551688447,0.003155812248975051,0.0030925010386683932,0.002766491721788871,0.0021986701656460947,0.00150441795237386,0.0008520466212528586,0.0003726542153406832,7.672316280004661e-05,-0.00016258864193208705,-0.0005374988073599844,-0.0011806005887735184,-0.0020608285202610216,-0.002966576950653031,-0.0035919011269933353,-0.0036806696448318937,-0.003149581649655688,-0.002124392428937232,-0.000875187272315079,0.00030667475381724685,0.0012201818418960584,0.001801442605996328,0.0020968198927031226,0.0021953592782593414,0.0021680324401328636,0.0020457018516417086,0.001836972485749155,0.0015611178230198744,0.0012637665012840984,0.0009972691642405075,0.0007756467357269915,0.0005386114898098763,0.00016201653126950242,-0.00047388520321453885,-0.0013890740163515507,-0.0024415779431045744,-0.0033497655970667595,-0.00380184360674543,-0.003598051054160942,-0.0027468572937104276,-0.0014634743499194833,-7.658402996454905e-05,0.0011030541900525239,0.0018875998461367882,0.0022501067221229495,0.0022923403506383997,0.0021697822059018727,0.0020141334818308933,0.001887281434961298,0.0017797509240911852,0.0016422958346341626,0.0014249239350430138,0.0011002874168653204,0.0006638165715315405,0.00011993366909937098,-0.0005281306711471654,-0.0012717972305869847,-0.0020742979331436944,-0.0028465917416151936,-0.003443876379314881,-0.003697343288958972,-0.0034756715696672236,-0.002748671243106524,-0.0016176734022517784,-0.0002922166162401599,0.0009781811348963088,0.0019845348441363472,0.002614984900794882,0.0028675937045698954,0.0028231834748034816,0.0025987900359019872,0.0023044067711733584,0.0020155383013296443,0.001761707449429912,0.0015261977493880548,0.0012557118606018052,0.0008816375060579522,0.0003497984729906268,-0.0003530663897010415,-0.001188932758433825,-0.0020767195780054927,-0.0029097288696683463,-0.0035715806567686694,-0.003948969054226127,-0.003947578521229529,-0.0035154539009565845,-0.002668171536581139,-0.001501893413287813,-0.00018169061507900298,0.0010960728878050478,0.002154009800606729,0.002875892003397136,0.0032252067678424706,0.0032380538777034146,0.0029994015732062976,0.0026136684168360192,0.0021766766182606785,0.0017533784333506096,0.0013660283872014485,0.0009964117014327968,0.0006009574275271267,0.00013251185381078984,-0.00043827073211487376,-0.0011060881614288205,-0.001821127327393271,-0.002490421750066865,-0.0029958176740094928,-0.003228090936300918,-0.0031249476204230713,-0.0026933952205383947,-0.0020038162855142167,-0.0011606149179595418,-0.00026817027858138835,0.0005898536192323765,0.001352336634872072,0.001971116912991504,0.002402467673127625,0.0026089825422598682,0.002573359422080098,0.0023159048325551343,0.0019004258937949398,0.0014156061677093228,0.0009343363719569126,0.00047358407734874626,-1.445592822851068e-05,-0.0006039959070355532,-0.0013255925458056652,-0.0021068306356804884,-0.0027675282592528314,-0.003084142407108714,-0.002895256184643086,-0.0021913602340482346,-0.0011370916281735215,-1.0313901162867711e-05,0.0009120537969558069,0.001463638525371659,0.0016407921469023122,0.001577217543229915,0.0014606290231837268,0.0014362614151657038,0.0015431584425939797,0.0017093076105521774,0.0018010154827180235,0.0016945977213209656,0.0013298198184436417,0.000721285187707992,-6.53579880876784e-05,-0.0009444717372229142,-0.001824693552400598,-0.002604800060697708,-0.0031697130573818413,-0.0034062480435854874,-0.003240144895933988,-0.0026742535829582846,-0.0018007596279264017,-0.0007744726399179609,0.0002408144595378963,0.00112349447588159,0.0018161182251037764,0.0023119327921038444,0.0026229167584988188,0.00275526248816474,0.002707591337992223,0.002486878168041636,0.0021237922667837815,0.0016718750972555157,0.0011886151243532305,0.0007091922345390292,0.00022827274710825814,-0.0002976741500714083,-0.0009229343626604865,-0.001667478291256878,-0.002475320181965342,-0.0032036573306324484,-0.003659845153787515,-0.0036773297385472225,-0.0031948714565551988,-0.002295119299543015,-0.0011777772364175824,-7.908561545548454e-05,0.0008204176994228115,0.001453422931272981,0.0018642726448908865,0.002155888392231419,0.0024160773600486723,0.002660413297411862,0.0028197306540429495,0.002779772887825366,0.0024541091887538917,0.0018498010571261433,0.001083144304940111,0.00032789838947279914,-0.00027935470007551264,-0.0007190096049642685,-0.001097461734226806,-0.00157047817424176,-0.002222375348776397,-0.0029763413200589333,-0.0035978015240112782,-0.003798240482557184,-0.003385068449045429,-0.002372799389689219,-0.0009910490776729583,0.00041633179589757987,0.0015444296148267506,0.0022476859484432832,0.0025647942092704747,0.002644425220418638,0.0026270902325757073,0.0025602892998502387,0.0023956377900897965,0.00205785274614392,0.0015271995513138226,0.0008728416164287843,0.00021547589033023057,-0.00034882943974589957,-0.000805357570332612,-0.0012171807341872817,-0.0016652264143294233,-0.002174477738298834,-0.0026756108763427446,-0.003025048954775145,-0.0030683895166635495,-0.002709259035349098,-0.001949908157157428,-0.0008918693276805561,0.0002943620242015399,0.0014139251867806046,0.002292880992299142,0.0028160638330160916,0.0029515966388511594,0.002755773726356228,0.002353345890615746,0.0018943733986297982,0.0014984266856027993,0.0012054800754546452,0.0009556450999901784,0.0006134474249979881,3.556260953874093e-05,-0.0008418833372714624,-0.0019378542304806215,-0.0030230245689082435,-0.003793208529906499,-0.003993638926623239,-0.0035345619828158897,-0.0025356462388597682,-0.0012720536520356832,-5.055791173205976e-05,0.0009155149970976314,