-0.0006710289611488623,0.0006555587893992646,0.0017486237271288287,0.0025037259408806655,0.002926003275439201,0.00307886543448921,0.003032181857902473,0.002839923802057504,0.002544435332091862,0.002183063759837983,0.001779137723885106,0.0013230397772613389,0.0007658674790624692,4.284473636182042e-05,-0.0008783165024785171,-0.0019497022220908355,-0.0030263736601851086,-0.0038962380473137204,-0.004347841979034081,-0.004246951197046754,-0.0035879240332257704,-0.0024983715701286146,-0.0011971308706142834,7.584520790963038e-05,0.0011307435922915643,0.0018752833308227114,0.0023225281841316933,0.002558100500344011,0.0026828652222649413,0.002759108542060929,0.00278617575113767,0.0027141378665255355,0.002481737252349901,0.002052652651130177,0.001429787633325895,0.0006457199538264677,-0.00025503114119320585,-0.001222255770037701,-0.002187603608136692,-0.003046034889012055,-0.0036556637077964985,-0.0038732385718257176,-0.003617409445105525,-0.002924707675581574,-0.0019561078280422705,-0.0009368093301804616,-5.570102651827587e-05,0.0006171481272431159,0.0011420684640203731,0.0016400002492983818,0.0021840751848407574,0.0027238828121745502,0.0030961924890275418,0.0031204540236680475,0.0027195627429103877,0.0019860857451053774,0.0011470258351233373,0.00044511513708083144,8.154429141348234e-06,-0.0002147453957286026,-0.0004124663877331897,-0.0007906966395359864,-0.001439159828137686,-0.0022617857551681074,-0.0030097478390775697,-0.003400549549003268,-0.0032577406420930266,-0.0025943746419123843,-0.0015974590135947185,-0.0005293015719226744,0.00039251841652863364,0.0010695228815199632,0.0015195721726974673,0.0018161291838948218,0.0020201320613656955,0.002147983524030013,0.0021835231440041672,0.0021083084940716258,0.0019182809468456848,0.0016155937381795524,0.0011904781406722846,0.0006177253469232999,-0.0001199400738720695,-0.0009922795698057438,-0.0018926912968306752,-0.0026455456082009427,-0.0030566925395867713,-0.0029889062098063966,-0.002426214312404619,-0.0014922326403373082,-0.0004094744827488827,0.0005824044005816559,0.0013098736264638827,0.0017117102359302705,0.0018319129782369825,0.0017724604841234466,0.0016367171534127617,0.0014908056471764348,0.0013517164121489686,0.0011936831927176685,0.0009611464271919174,0.0005858657388330995,1.3857690936892864e-05,-0.0007569592936655168,-0.0016429644226217837,-0.0024704664866602105,-0.003018765296636576,-0.003102351965316222,-0.0026551752286286083,-0.001770308046764911,-0.0006685734295450202,0.0003908012382991198,0.0012113730010063326,0.0017216387821695496,0.0019724198696110767,0.002080325695747287,0.0021529939562993272,0.002233261657355786,0.0022826322852137677,0.0022036806683616676,0.0018872683553643101,0.0012650880132311906,0.00034805289179171356,-0.0007640301547764408,-0.0019049951867072634,-0.0028867002462029554,-0.0035464559674570372,-0.0037809504235308076,-0.003559929971244747,-0.0029223358343869674,-0.001961682074165915,-0.0008069613745229356,0.00039669052954688843,0.0015055495334620028,0.0023933605071712405,0.002967392199722991,0.003184067137389654,0.003059314551604406,0.0026662420561453667,0.0021159270090229114,0.0015248900232111896,0.0009798267211264789,0.0005120399320180846,9.064267035613816e-05,-0.00036183053573635436,-0.0009328301098694211,-0.0016694543319544465,-0.002530374148814426,-0.0033646566781822037,-0.0039403920705562015,-0.004025661149550719,-0.003491947029516307,-0.002387602374599125,-0.0009369582297962146,0.000541138564076954,0.0017562373044161575,0.0025481458735375543,0.0029186004308775475,0.002984965445911315,0.002891455673631237,0.0027321752534595145,0.0025251924687274083,0.002240408257666925,0.0018505660001098597,0.0013647898467492566,0.0008222329864948964,0.00025630102122358106,-0.000336211834577661,-0.0009899476936508543,-0.0017272920982626542,-0.002506403471967299,-0.0032026465498921526,-0.003644946437753812,-0.0036898904287517385,-0.0032878823863877475,-0.002500657964645508,-0.0014653134862273993,-0.0003373028170957975,0.000747375283952143,0.0016763417034217432,0.002350414391418979,0.002688627591503733,0.002659158323980629,0.002315416657317406,0.0018016795464225947,0.0013080218497088453,0.0009891275738679924,0.0008896953493019672,0.0009201044692784036,0.0008995965108501407,0.0006478235935217654,8.003080287970866e-05,-0.0007413283121276422,-0.0016249603140304635,-0.002331473507176421,-0.0026773949643048942,-0.00261006252402903,-0.0022146749256943075,-0.0016515372072161262,-0.0010627066658834815,-0.0005065183093341591,4.0547806387297367e-05,0.0006224058690554916,0.0012317774838382636,0.001782778670125754,0.002147514058124178,0.0022304288915719404,0.002029672859550574,0.0016452928471104716,0.0012281712872961145,0.0008980452624868876,0.0006756107388342373,0.0004672833414236836,0.00011619647451673943,-0.0005006866800523406,-0.0013777520209744905,-0.0023432594258296037,-0.0031098097251229316,-0.0033958208763293614,-0.0030571945533075786,-0.002158103722174651,-0.0009430372678457538,0.0002718600663197317,0.0012279092927824091,0.0018092315782535498,0.002051218358004146,0.0020817552290854956,0.002034327154247481,0.001977544462930174,0.0018907593411219494,0.0016908212017131253,0.001291305803538885,0.0006617037034178742,-0.00014386774204527418,-0.00100113990815816,-0.001761977320450038,-0.0023051504656445513,-0.0025660660237479906,-0.0025365024781772026,-0.0022443235325110516,-0.0017324050846227457,-0.0010512505150507621,-0.0002655045187888383,0.0005385628346638381,0.0012593486152412798,0.0018036130763281534,0.002116230807676522,0.002197967637047619,0.0020997925197867315,0.0018963224336307205,0.001651937912319352,0.001394331905654058,0.0011042116181735522,0.0007237689964622908,0.00018337827668934328,-0.0005580104129012301,-0.0014713897147175616,-0.0024355280994887525,-0.0032529191751322945,-0.0037072658994228395,-0.0036429615905354913,-0.0030305616447202084,-0.0019847329949333036,-0.0007236741111236194,0.0005110260942966046,0.0015353466953857316,0.002267111230921798,0.0027169071999417495,0.002938233937162086,0.002971529525735713,0.002818127930771491,0.0024584895447321434,0.0018973403363950635,0.0011980120345383954,0.00047408585227999296,-0.00016389411380417023,-0.0006740296504139192,-0.0011125822067916055,-0.0015965943445954063,-0.002212684785239083,-0.0029271125216014035,-0.003560543868493096,-0.0038545796253237124,-0.003597999889083067,-0.0027400478938529437,-0.0014250703017381875,6.820825379991353e-05,0.001443606735423503,0.0024947926357379016,0.0031517788523793087,0.003456073718414614,0.0034935727039744455,0.003331608155972791,0.00299543661984182,0.0024892437439045464,0.0018365503553437435,0.0011032609439109845,0.00038077990612938337,-0.0002625105913809457,-0.0008261661944941215,-0.0013801419859104551,-0.0020112821391089822,-0.0027406173166184275,-0.0034659558350508806,-0.003976227222615464,-0.004041220406422243,-0.003530736633990254,-0.0024952939313155095,-0.0011608394181596014,0.00016194224350954216,0.0012069924584998761,0.0018551367868724447,0.0021596664316154853,0.002286983296964695,0.0024084605392727257,0.0026037003159229675,0.002825552079074349,0.002939142623098229,0.0028044460743496436,0.002351310800712887,0.0016078918263811443,0.0006763435805803618,-0.0003195208018312261,-0.001278901518052939,-0.00213748043945173,-0.002850747652887868,-0.003368416150861863,-0.003624554637006488,-0.003554033648798807,-0.00312522004271939,-0.0023665511334857647,-0.0013691228030745094,-0.0002641293959932447,0.0008106032064603446,0.0017375291011403852,0.00243146258975101,0.0028411643210500825,0.002950382123962933,0.0027828337453561407,0.0024045586156643825,0.0019115325275725803,0.00139790502301018,0.000916829679140753,0.00045799951222086984,-3.8588150950696594e-05,-0.0006340917003404593,-0.0013327692709642716,-0.002049775125235974,-0.0026285121614179887,-0.002903157184354242,-0.002774020885140365,-0.002254179969810015,-0.001462609251040675,-0.000570671738289824,0.0002662517287439803,0.0009567630700417129,0.0014820037006648152,0.0018682020208102513,0.0021430453323805897,0.0023008321889943554,0.0022954919404772566,0.002065998370621425,0.0015801033786827221,0.0008688236645805277,2.67872893071632e-05,-0.0008246337509408731,-0.00158682683523467,-0.0022105108132407774,-0.0026809591801581316,-0.0029764462498624283,-0.003036843325704028,-0.0027732013990281927,-0.0021194514789158944,-0.0010956818962289372,0.00015978270157740579,0.001417193227828373,0.0024348581878324066,0.0030519240203430147,0.003243522051554197,0.003107201925705117,0.0027906416325426567,0.002406222742849158,0.001983238454087802,0.0014799784692677911,0.000837576131997416,3.493832910190706e-05,-0.0008870897432745203,-0.001836099333576396,-0.0026948120318123553,-0.0033453406156465698,-0.0036866949718411847,-0.0036519257046283065,-0.0032274406330299312,-0.002465361488990906,-0.00147589642538492,-0.0003976912760942431,0.0006394871459007354,0.001539821984846626,0.0022452170490340835,0.002725354978085588,0.0029689007832421413,0.002983720157566724,0.002801043508785121,0.002472022240829155,0.0020506239393468092,0.0015692473002664573,0.0010224689150168825,0.0003728681916008957,-0.0004184673750042614,-0.0013487927183664242,-0.002340030929256151,-0.0032366279861289517,-0.003844876535536268,-0.004002701681552051,-0.0036488765142231143,-0.002854920389161561,-0.0017991247626593229,-0.0006932546990077867,0.0003005048659049747,0.001119054693685121,0.0017899957021430238,0.0023736922421680054,0.0028926029563058064,0.0032926745319237193,0.003462621095793421,0.0033004806825598157,0.0027856107931149105,0.002009520704046918,0.0011441157635447559,0.0003638155105397876,-0.0002356321189740982,-0.0006779189505375181,-0.0010845907348168936,-0.001600197638927641,-0.0022989372748522087,-0.003117820130103244,-0.0038524198892648394,-0.004225452375994951,-0.004004539456923679,-0.003117913556850549,-0.0017106583104157325,-0.00010685063134415912,0.001312416029593102,0.0022601824331956494,0.0026499187840268814,0.002604362208386393,0.0023666813592948654,0.0021664165109732555,0.00211330380483385,0.0021692993955545184,0.0022001244345132695,0.002065053402090594,0.0016915238196196017,0.0011002132495338424,0.0003788220534414683,-0.00037102522690321625,-0.0010802493791131221,-0.001727065457298674,-0.0023149306979755348,-0.002830689205707024,-0.003212812154891104,-0.0033546806795687898,-0.0031461060249012075,-0.0025314936583448926,-0.0015525978544410387,-0.00035353594361057556,0.0008541318034135594,0.0018518157637068117,0.0024780715376580818,0.0026748710044863246,0.0024996228893100028,0.0020974439410713468,0.0016430424718651712,0.0012747029295340773,0.0010472829529776528,0.0009231921243713652,0.0008026304357498556,0.0005760198619650834,0.00017342637802845708,-0.00040779135100237957,-0.001101253437867729,-0.0017889023763414049,-0.002329569545130354,-0.0025951479751200545,-0.0025102414032379325,-0.0020830870234148455,-0.0014095896818124422,-0.000640712215555866,7.492897267891944e-05,0.0006437644397565948,0.001048320429562194,0.0013302865825101933,0.0015505410271241175,0.0017488805522058537,0.00192066584288363,0.002017044801655166,0.0019660117723498253,0.0017046716640995916,0.001209049921435262,0.0005086748766576625,-0.00031926766865581787,-0.001170147390283699,-0.0019336396646548507,-0.002508088225818367,-0.0028094927331586026,-0.0027836679912230716,-0.0024246249520087013,-0.0017895548354813669,-0.0009941220531581182,-0.00017989406369559773,0.0005352604334594808,0.001097129356357192,0.0015199973744642028,0.0018517531854526652,0.0021220412746905306,0.0023093918310722415,0.0023505203239469227,0.002184738317858501,0.0018011539561725706,0.0012545769541788395,0.0006382682740759647,3.1670039558256546e-05,-0.0005410629330255012,-0.0011118633643419924,-0.001725354921828905,-0.0023781119299289863,-0.002981627257635826,-0.003377580939252931,-0.0034021122315158695,-0.0029646249952000837,-0.002096245531294735,-0.0009409456372051524,0.0003024065111153376,0.001450270003261061,0.0023783312799434183,0.003024915488140269,0.0033697672133427507,0.003416274412297241,0.00319208923754147,0.002758173928997442,0.0022026985047266367,0.0016072953971079742,0.0010008377524228698,0.0003366720315499329,-0.0004770997813364895,-0.00149854791338664,-0.0026678365440254343,-0.003777070938328771,-0.004527886856232502,-0.004657720840561693,-0.004069278244460677,-0.0028898155343917496,-0.00142431025034003,-2.6072022794578322e-05,0.0010470995325332724,0.0017188744575354585,0.0020851899352890193,0.002324011456039904,0.002577767991662555,0.002871507110500217,0.0031066439896930767,0.0031275431033903657,0.0028184077249278983,0.0021725240136931225,0.0012941785850788972,0.0003361293813432297,-0.0005829265539851713,-0.0014234479628251983,-0.0022020030699546503,-0.0029194895718732405,-0.0034980400048789956,-0.0037808049289309665,-0.0036047317424553285,-0.002902827944166914,-0.001768519515603517,-0.0004377907827500146,0.0008028851687780279,0.0017303586987127161,0.002258964946634529,0.0024415588822395053,0.0024077634973616404,0.002281928119324818,0.0021260618056529726,0.001929016060182468,0.0016328800985283447,0.0011725235362603915,0.0005099757590545053,-0.0003407487283112807,-0.001297408334882634,-0.0022081908379197887,-0.0028785605887855677,-0.0031302315221426445,-0.002871940209446063,-0.002144456866784011,-0.0011120434363141266,-4.100431241762289e-06,0.0009618294531427234,0.0016409359406219324,0.0019877903402936,0.002049510639169184,0.0019346828379943988,0.0017673475310904995,0.0016358605198477669,0.0015512528878305048,0.001433932243311512,0.001142946841341811,0.000545094495845184,-0.00040196532911811704,-0.001593594089500813,-0.002784267704364094,-0.003663461314655435,-0.003972803928874384,-0.003611084473318981,-0.0026752940935229393,-0.0014164287406559812,-0.00013343729987077516,0.0009390130561795462,0.001694319263312603,0.0021477687148741182,0.002380614223211357,0.002476900187866979,0.0024868134887851934,0.0024225298695988422,0.002269854711362352,0.0019975864627363926,0.0015622683932270097,0.0009203500734498715,5.771033847024477e-05,-0.0009710929226060367,-0.002019621087993205,-0.0028697804061249207,-0.0033015880325129687,-0.0031853988264182844,-0.002547530355846375,-0.0015684984319467399,-0.0005099828099608148,0.0003915928607056779,0.0010087307254942536,0.0013440871241173482,0.0014878711252023645,0.0015448134932312492,0.001574991808021025,0.0015759492410099066,0.0015029773863712021,0.0013024848755469618,0.000934527730000458,0.0003801148624494892,-0.00035295410990018313,-0.0012127396558240097,-0.0020806497380588284,-0.002769387888524489,-0.003065113550856237,-0.0028101914061293186,-0.0019886234218652373,-0.0007627620105498531,0.0005690263459188876,0.0016804777139730511,0.0023404799056618688,0.002492116552332044,0.002252832024086354,0.0018403679702883053,0.0014622621447453392,0.0012196932320914116,0.0010674387162489995,0.0008470976411047999,0.00038004507358029374,-0.0004202323463923779,-0.0014695915629484248,-0.002511943724071029,-0.0032057804212067597,-0.003265770934615245,-0.0025953096126240987,-0.0013449857411702614,0.00013565594275102066,0.0014347451681278986,0.002240421186343629,0.0024522286322950335,0.002190888572850412,0.001708709330353071,0.0012528650671464012,0.0009524945621322868,0.0007802173205509424,0.0005954496484030926,0.00023759083786506973,-0.00037952085549028126,-0.0012126680954840279,-0.0020925853384346988,-0.0027801996123152047,-0.0030521209770412844,-0.0027830086102162248,-0.001994795972191675,-0.0008551788265025907,0.0003742533725168731,0.001422694199625898,0.0020984192153201135,0.0023477730957348454,0.0022586674088390436,0.00200234656042011,0.0017367929036798497,0.001520074173259935,0.0012834240615047236,0.0008840640354856653,0.00021064496913239398,-0.0007203467209512028,-0.001736154679507518,-0.0025669022443492685,-0.002961681832097522,-0.0028003560024994767,-0.002144325862986791,-0.0012036419650475513,-0.00024152728122533139,0.0005331674951844509,0.0010346456921912963,0.0013044185496122692,0.0014588402537323063,0.001610676544444256,0.001801175198640469,0.0019707074488225463,0.001979846454096471,0.0016738289525089268,0.0009659211852933619,-9.573159251906349e-05,-0.001311732001579798,-0.0023818179889167597,-0.0030082151357082435,-0.0030095485373360527,-0.0023932385309525764,-0.001351850988768669,-0.00018492770375861127,0.00081759827483509,0.0014784107571473352,0.0017784962949391357,0.0018288106183336973,0.001785443130470043,0.001752433003195273,0.0017222232807601293,0.0015842423037284944,0.0011961146613817027,0.0004786537532285014,-0.0005163405752987729,-0.001601405521379399,-0.0025155924777169056,-0.003025287411051638,-0.003017328709289656,-0.0025401001250359885,-0.0017712924558618505,-0.000928257513757481,-0.0001702008481261636,0.0004522049263993573,0.0009743676327897115,0.0014458921786486441,0.0018646686013020222,0.002163155065718678,0.0022507750784535384,0.002074510092018178,0.0016498297275176924,0.0010415993832029022,0.00031684353025290314,-0.00048504859875611866,-0.0013336192005537458,-0.0021526676098312975,-0.0027810262032953565,-0.0030001751805073676,-0.0026346265248415068,-0.0016707148354641104,-0.00031152539686396313,0.0010829293987688097,0.0021479755002772796,0.0026731743603927464,0.0026752698906885907,0.0023485260874311882,0.0019340691233104184,0.0015947040102134455,0.001364656172901946,0.001183559525679706,0.0009684663452826732,0.0006645914717798976,0.00024712418425588837,-0.0003067115925659288,-0.0010308570892580496,-0.0019396191422084812,-0.00296785343883541,-0.0039344825991949545,-0.0045775247886147945,-0.004659714051851297,-0.004085952816565414,-0.0029559887988331156,-0.0015164478541226346,-4.521227983405486e-05,0.0012561819253257066,0.0023013269647177313,0.0030842113003386644,0.0036169467300217386,0.003894233708872562,0.0039050049237540755,0.003668071775173312,0.003250614010588974,0.0027465353436371296,0.002227004215204508,0.0016987352322985344,0.0011011533166744726,0.00034768510748227355,-0.0006117506054242703,-0.0017423938517950122,-0.0029160903692441492,-0.003944660146858735,-0.00463640168458651,-0.004850881283392155,-0.0045351710977139265,-0.0037360959604570646,-0.002588939411542104,-0.0012843650437754746,-1.8897962927048677e-05,0.0010572967468063742,0.0018747609417751837,0.0024445934417004003,0.0028240701749619682,0.003068613268884069,0.0031989850165522237,0.0032006422325582297,0.0030483712385665357,0.002732794045238322,0.0022685376104011378,0.0016815328502152679,0.00098920592977039,0.00019134222431810616,-0.0007182666387641203,-0.001722287986055095,-0.002747972743496311,-0.0036553509188615874,-0.0042626263022199655,-0.004406462675796046,-0.004010543699088453,-0.0031245504822992156,-0.0019097544594945015,-0.0005795521916793549,0.0006702722239997278,0.0017060384882397774,0.0024629388153607655,0.002927331880733682,0.0031165820350651133,0.0030684315476068964,0.002836481773691812,0.002481623386704268,0.0020548057289488005,0.0015776051343775362,0.0010339658330305898,0.00038371031388976894,-0.0004031252231031211,-0.0013062549607352292,-0.0022326014211608933,-0.003029253856317215,-0.0035315677808606437,-0.003624366281374557,-0.003283908545815951,-0.002578379369852675,-0.0016300637142749686,-0.0005656825775753673,0.0005143387638949718,0.001534059537421027,0.002419072293272286,0.0030789353422572816,0.003417429720785338,0.0033725999031519443,0.002963654061587431,0.0023086444515389866,0.0015877353530497705,0.0009601646365052144,0.0004791268794619577,6.061940213718459e-05,-0.00046423166640316833,-0.0012354866158010378,-0.0022541979667848886,-0.003343683324755262,-0.004209620442014086,-0.004567927211463971,-0.004270637664952826,-0.0033640954173694585,-0.002055809511402772,-0.0006180518315059976,0.0007145826726485876,0.001804657760060482,0.0026133620647968946,0.0031621726584224186,0.0034863038591125264,0.003604619210429081,0.003515243509476195,0.00321232407148676,0.0027103891036914956,0.002059058453405963,0.001334658574914589,0.0006080287354803939,-9.472378722501294e-05,-0.000810092406157375,-0.0016107857029043176,-0.002537936739292706,-0.0035279901474066728,-0.004386756016282038,-0.004844081397379106,-0.004673628940560975,-0.0038145729953989174,-0.002421646979489743,-0.0008088899364303007,0.000683703143295908,0.0018260669270915102,0.0025644143925574623,0.0029912176646001275,0.0032481392926525018,0.003424427516369089,0.0035081339730601343,0.0034116394126383234,0.003048553793033106,0.002410322579710992,0.001593127247613761,0.0007573494505007492,4.380136732746781e-05,-0.0005026349296667927,-0.0009555751667191812,-0.0014601287591315723,-0.0021390606191782594,-0.003001158953178075,-0.003902384597521542,-0.004585877884370202,-0.004786875266064389,-0.004352724284235466,-0.0033170713147161746,-0.0018897307701785195,-0.0003684176138197405,0.0009806164692632308,0.0020125269529774,0.002723711707511428,0.0032008476086177206,0.0035360896596883093,0.0037603774449538156,0.003831120297803949,0.0036745603635028237,0.003250137226123516,0.002593968529972555,0.00181423999190104,0.001040829693860436,0.0003581950354875466,-0.00023866443993831807,-0.0008362057056036388,-0.001541636107843928,-0.0024003406029619984,-0.003338576155462871,-0.004167944350510421,-0.00465467717134317,-0.004619697992819884,-0.004017491209403232,-0.00295419967931625,-0.0016400080119260418,-0.0003057081652700041,0.0008725218550461415,0.0018081246598875564,0.002493289525316313,0.002959487417429759,0.0032358431705491915,0.0033271252211968766,0.0032198274030708915,0.002908651023233462,0.0024232476445032146,0.0018332765251572519,0.001221873868133856,0.0006390318349860623,6.517810315973482e-05,-0.0005826196454287775,-0.0013907598445097986,-0.002360816454273774,-0.0033469041736908164,-0.004070681136797228,-0.004226887244405861,-0.003635595087984482,-0.002358805822290493,-0.0007078178491242165,0.0008753505167328278,0.002006036701053522,0.0025144433658785726,0.0024885553868319154,0.002186350725444118,0.0018775966430320853,0.0017101807699913978,0.00166826942467259,0.0016240264051056107,0.0014302842796169147,0.000993134360253516,0.00029682077543991567,-0.0006054780146327955,-0.0016057787095179615,-0.0025476151642945836,-0.0032383021318378013,-0.0034886223506921206,-0.0031810142669705128,-0.0023360378899982743,-0.0011326648263378014,0.00014390628524797516,0.0012115937103214529,0.001904151634463772,0.0022248045734484224,0.0023089416285229404,0.0023183772260443026,0.002333733791966214,0.0023131803817634934,0.00213983264219812,0.0017175543315112174,0.0010428099384074852,0.0002038862173016422,-0.0006811795779538415,-0.0015294191908758067,-0.0023056118052890468,-0.002977812317921372,-0.0034636288529884705,-0.0036257387459448943,-0.003334392178942744,-0.002557202234043344,-0.0014099693788068137,-0.00012699243438653467,0.0010355426497604145,0.0019053109463655466,0.002447056087699984,0.0027372648035128813,0.0028837367224116817,0.002944775364897614,0.0028975728195758076,0.0026691060848630186,0.00220059377826929,0.0014966573490754434,0.0006255089851718051,-0.00032464155593557006,-0.0012932664644411823,-0.0022557221779420976,-0.003180503792541126,-0.003969572562609302,-0.0044384301328049495,-0.004370821257318482,-0.0036293631706945714,-0.0022573765449797932,-0.0005042752578443342,0.0012495973145943012,0.0026334394198089944,0.003420597593201899,0.0035931459667860382,0.0033131074861290927,0.002825247275470996,0.0023457887561595795,0.0019887460707336616,0.0017522819740812246,0.001552278020184326,0.0012717067408536723,0.0008008915704790569,6.426979634244505e-05,-0.0009562403240406701,-0.0021947971461244377,-0.0034825526890331186,-0.00455970939322623,-0.00513671394231488,-0.004995747309998128,-0.004091262259799675,-0.0025945312335636885,-0.0008474455354003459,0.0007621825700776046,0.001946079775488279,0.0026102393172856646,0.0028551196182223758,0.002888743322683191,0.002903400395191531,0.0029793207685542738,0.0030589220984051377,0.0029976723087173024,0.002661022243606175,0.002015623031972463,0.001165205875812438,0.000308163935016153,-0.00036418804108082287,-0.0007731187663114057,-0.0009983586241524248,-0.0012316701364062591,-0.001659792629112973,-0.0023431345980668805,-0.003161657186378385,-0.0038599668680394097,-0.004164797019111502,-0.003908104937088773,-0.0030924103199470847,-0.0018753676960799378,-0.0004971781637914447,0.0008032594496762843,0.0018477595942461861,0.002544190807795793,0.0028864135335450614,0.0029384658951524855,0.002805720597656447,0.0025951610054470602,0.0023756115512256594,0.0021564738254185524,0.0018984328798680415,0.0015507638080788813,0.0010905208750146929,0.0005365908654168531,-6.877922131106764e-05,-0.000691978904365462,-0.0013238142335312878,-0.001963148035466622,-0.0025793210312432422,-0.0030836840595767114,-0.0033387193494566524,-0.003210514225822204,-0.002640661514422364,-0.0016966467848725554,-0.00056766507325133,0.0004987891239678216,0.0012921952055398938,0.0017204210878226638,0.0018361108955033656,0.0017933180685427521,0.0017564075799177065,0.001810647728192952,0.0019237006418967968,0.0019764092158957147,0.0018384946291028202,0.0014395339002456259,0.0007956446277406919,-1.1854259544723331e-05,-0.0008773463230012082,-0.0016985545655714728,-0.0023803575069728635,-0.002829813999429681,-0.002963435342071638,-0.002732166738836563,-0.0021498731909826963,-0.0013046210731390137,-0.0003410245006684712,0.0005821656254626762,0.0013409921124480407,0.0018779672959391893,0.002200912031949843,0.00235309321792592,0.002376482902298535,0.0022909667459124986,0.0020963546375063575,0.0017861320603530517,0.0013571681751665971,0.0008094463130221307,0.000142972773199201,-0.0006368483200190779,-0.0015020400388081178,-0.0023829302621815743,-0.0031644413922728345,-0.0037093517749223932,-0.0039023993820493223,-0.0036916275565653947,-0.0031018620423832457,-0.002214291251554758,-0.0011309842453048943,4.8751137103555405e-05,0.0012294024786314683,0.002310786043087564,0.0031910604692900616,0.0037874090974140385,0.0040597230732616115,0.004017559717222811,0.003705718695450347,0.0031822278807236547,0.002505250681543396,0.001731271180255978,0.0009131090929698615,8.895395986116908e-05,-0.0007304662413590126,-0.001559262729378985,-0.002410062142708865,-0.003256868659681162,-0.004012888451257991,-0.004541631616565846,-0.004698902386125733,-0.004386133358914265,-0.003591894247262718,-0.002406050223275351,-0.0010024037775698358,0.00040433868387238176,0.0016139748994113989,0.0024907447827725677,0.0029904338128602763,0.003155375682536321,0.0030823216684711884,0.002880680657047452,0.0026403528673481064,0.0024177652932130195,0.0022347848405661697,0.0020798688333460457,0.001907657617519911,0.0016438313368949864,0.0012043287713904185,0.0005282764224534887,-0.0003891290688473758,-0.0014814020340613103,-0.0026212224744095298,-0.003649627371254212,-0.004409084688430508,-0.0047695362212434745,-0.004646273481984942,-0.00401469154392289,-0.002925017462687849,-0.0015119599226504836,1.3903858249000953e-05,0.0014058107573296378,0.0024496610508546197,0.0030364083475422814,0.003197976221337367,0.003079335925047532,0.0028567379479376024,0.0026485606760030134,0.0024717587603623426,0.0022660514302158628,0.0019615026620861046,0.0015373380178925135,0.0010307812363656921,0.0004947874519721897,-5.7752504468243165e-05,-0.0006756302421457222,-0.0014328407597030768,-0.0023511994092303957,-0.0033316777671081495,-0.004146855950524058,-0.00451528283086398,-0.004228726648611714,-0.0032656799684678394,-0.0018252811334868297,-0.00025754911655552113,0.001076781802008044,0.0019460464449904545,0.0023195296148585,0.002342629728893084,0.0022367448617328384,0.0021803833149049443,0.0022314568699309313,0.0023232191405172056,0.0023245984112670324,0.0021233943895655172,0.0016847988465365578,0.0010581107556332794,0.0003365213632784364,-0.0003998110612218822,-0.0011198471658386147,-0.0018325317266693875,-0.0025367488457729167,-0.003165217332293231,-0.003569109488622083,-0.0035693327987245615,-0.0030548698567216402,-0.0020688408304744316,-0.00082082520816791,0.00039378628656874673,0.0013265490346306532,0.001883497807805053,0.002143474940250332,0.002278774487826636,0.0024309579448332525,0.0026212364527168257,0.002749217235444353,0.002674149675489113,0.002319577216825564,0.00172986525823549,0.001041443040189505,0.00038915018283274515,-0.0001877943503156995,-0.0007728405669210795,-0.001506543920598641,-0.0024644977168001843,-0.0035569579933758992,-0.0045210001590915705,-0.0050211097602574275,-0.004806281533463417,-0.0038356373401773067,-0.002303653282966276,-0.0005560696235212106,0.0010518807108644372,0.002278773038475719,0.0030468107720557375,0.00341129767070294,0.003486582688820695,0.00337938876780282,0.003160541570972838,0.002871216272262163,0.0025377991502941125,0.0021741824464636627,0.0017715654932611547,0.0012919791500270365,0.0006802064598426624,-0.0001060485012015904,-0.0010623338218846473,-0.0021180067943271734,-0.003141036505804505,-0.003964832373302124,-0.0044273639772912385,-0.004412253508789888,-0.0038838094995031222,-0.0029080747818115643,-0.001649755445205714,-0.00033635827725614093,0.0008077814501385828,0.0016358983392488588,0.002126201341743078,0.002372892869756482,0.002519751652697197,0.002670730016692449,0.0028301791424058323,0.0029099783596888374,0.0027984678921616993,0.002444278900945329,0.0018968475484152005,0.0012741960206289916,0.0006788399026837338,0.00012055574713461855,-0.0004959066889930554,-0.0013005578071317203,-0.0023432658541347245,-0.003506972925426277,-0.004511826814300891,-0.005021730058491488,-0.004802117085183345,-0.003842491096499008,-0.0023728998888080995,-0.0007624639143068821,0.0006447094826364602,0.001665811501906914,0.002315392465343075,0.0027294917939964447,0.0030340101793741208,0.003246717700250757,0.0032774584644341305,0.0030217310549189003,0.0024752676076373248,0.00177997493550024,0.0011586636086033078,0.0007753311543717691,0.0006145888572209116,0.00046884934387751313,5.629193588329872e-05,-0.0007933274853178082,-0.0019988467258063507,-0.003227435376236658,-0.004045030407045687,-0.004135147345532133,-0.0034600060907917993,-0.00227277438402782,-0.000979984981601163,6.041540264217261e-05,0.0006909785661056574,0.0009826669933581207,0.00114169746869684,0.0013622313023328445,0.0017106525937378165,0.002099366578087289,0.002354527605270957,0.002330875618924139,0.002002373209239641,0.001473031599874991,0.0009023898118577092,0.00039660196780310464,-5.8431943385830964e-05,-0.0005719567482917251,-0.0012450010922516223,-0.0020596905736854814,-0.0028414375714890753,-0.003327159379564998,-0.00330106058484094,-0.0027133126217131084,-0.0017083863449438574,-0.0005495968097218509,0.0005084551104691429,0.0013213046349353952,0.0018772473621652304,0.0022436250907269676,0.002485201205821547,0.00261226275265802,0.0025872895758843307,0.0023746559081674135,0.0019883515889003514,0.0014974276955317654,0.0009834591911640502,0.00048313686255037916,-3.734393483827424e-05,-0.000652234528793873,-0.0014085419751460534,-0.002266947199376529,-0.003091101222302518,-0.003691624336894084,-0.003898164754076068,-0.003622166387265073,-0.0028851012605206573,-0.0018074747580525156,-0.0005695080399002442,0.0006392753295202536,0.0016650522131068648,0.002417155645671158,0.002872080786045297,0.0030559687811697596,0.00301603741150145,0.0027968768679388243,0.0024344855025217357,0.0019681361439872528,0.001455009519689257,0.0009675190531132686,0.0005653912340718636,0.00025687021014437664,-2.173064794965256e-05,-0.0003853767121696023,-0.0009411378433250803,-0.0017196487054818778,-0.00263532610488949,-0.0034990521210169017,-0.004079594964258049,-0.004186673812889157,-0.0037407057922819228,-0.002802329150627904,-0.0015518255802287302,-0.00022704525703147872,0.0009563673830826632,0.001870455056609683,0.002497831789314671,0.0029021300920215472,0.00316350667800285,0.0033171915905883366,0.0033314633534606364,0.0031366069956492984,0.0026842698003947236,0.0019983316569908978,0.001184672095784539,0.0003922011244758474,-0.00025467347374206074,-0.0007159947910183775,-0.0010549585468066594,-0.0014010839861287993,-0.0018719392454457273,-0.002491962376628952,-0.003153422318348012,-0.0036460875316448853,-0.0037460087342203584,-0.003320173013759419,-0.002393599908663955,-0.0011456219616777917,0.00015984625882475465,0.0012724054436685497,0.0020346158158392955,0.0024123407164055462,0.00247479872689189,0.002345979465889059,0.0021537634838981806,0.0019924778239465354,0.0019016372331430663,0.0018586552864788787,0.0017856046659861357,0.0015716575125517,0.0011092761105917935,0.00033675998406585957,-0.0007235046612119572,-0.0019433304041125998,-0.0030968293350055074,-0.003908214004207888,-0.004135634291732446,-0.0036653609394418814,-0.0025732877027794913,-0.0011151574655990284,0.00036123638975692457,0.0015449911174058584,0.0022687940015419946,0.00254102984235548,0.0024945185103364236,0.0022910635713242365,0.0020413910217153795,0.001780042593799568,0.0014910691949779555,0.0011474941230282558,0.0007300492075287114,0.00022186440221988313,-0.00039628142646395596,-0.001127612943301369,-0.0019236797236526705,-0.0026626000787189127,-0.0031701996692957792,-0.003284321762873764,-0.00293056413226304,-0.0021658902548492595,-0.0011624980295387062,-0.0001375549118297725,0.0007349740021749112,0.001383966858100417,0.001842383394257483,0.0021945672671669194,0.002505563818360614,0.0027766155382364993,0.00295009647419559,0.0029518436689811153,0.0027348567247623998,0.0022929653206029553,0.001641249135957816,0.0007883062778646545,-0.0002685032910319904,-0.00151347541041243,-0.0028664153518190363,-0.004154506798803184,-0.0051301788266390575,-0.005537926203264538,-0.005205049039286457,-0.004116281282561792,-0.0024379892009538393,-0.00047984393626132425,0.0013919389940799057,0.0028579166144200438,0.0037296234560212664,0.003987869415293037,0.003765169904498788,0.0032814003463682035,0.0027572440255585412,0.0023372357299986306,0.002050348398992356,0.0018208779306082084,0.001520490760148015,0.001034021190274376,0.00030792833196379603,-0.0006355845766982688,-0.0017130550798141674,-0.002802341861619705,-0.0037573068036461923,-0.004417305005592534,-0.004628101503672637,-0.004284516380432693,-0.0033824047085689434,-0.0020487692094599557,-0.0005221313982353047,0.0009186213401373808,0.0020470210455308347,0.002758206371375381,0.003081236823995244,0.0031330001959320015,0.003043384811094785,0.0028932805336432097,0.002694398214884468,0.0024128480424487537,0.0020138845077096687,0.0014965720839597246,0.0008973761080090861,0.00026336411788782383,-0.00038386503859680414,-0.0010646317271727054,-0.0018197032258778216,-0.0026580216355563055,-0.00350627003001002,-0.00419900319254982,-0.004526288273098019,-0.0043193880242289396,-0.003529909368635949,-0.002261100595724718,-0.000737101567524415,0.0007723881600836768,0.0020360158795172762,0.0029179313942597476,0.0033891852236508715,0.00349830997713048,0.003326380426082736,0.002955998289633195,0.002466766155284234,0.0019438271804970654,0.0014734452970231698,0.0011130397503095212,0.0008515234094679351,0.0005936974063318972,0.0001932976900973943,-0.00047093803496989196,-0.0014120799042319674,-0.0024915975713434417,-0.0034473217163528795,-0.0039892247193322366,-0.003921653146896182,-0.0032316207917247102,-0.002096708902076403,-0.0008079977362071174,0.00035109458885911494,0.0012079461734123154,0.0017381978580203055,0.002028849654793731,0.0021976143184286117,0.0023176228712697604,0.002386317502550504,0.0023465786237438294,0.002136343037498235,0.001729843891591882,0.00114624181440818,0.00042908583976483325,-0.0003784077973085123,-0.001237767503292954,-0.002095883367878364,-0.0028620098860797187,-0.0034078603151321933,-0.0036012532762444297,-0.003357754020791924,-0.0026797829446868885,-0.0016603603482325548,-0.0004522159058276589,0.000776472049468708,0.0018756413826301528,0.0027262786342325826,0.0032405844098976526,0.0033652215892991284,0.0030970608429027172,0.00250507286583122,0.0017378298200152555,0.0009950084753878518,0.00045872579608133583,0.00020944741714810754,0.0001728932251509673,0.0001396269302690904,-0.0001365351287199426,-0.0008036580439211417,-0.0018125463195065167,-0.0029128029779182103,-0.0037520158741598305,-0.004027394787348572,-0.0036114849585793013,-0.0025931265299231785,-0.0012253748049447584,0.00018101665285433905,0.001363220352716618,0.0021708151892008178,0.002577767929174169,0.002653983440952135,0.0025183336945079886,0.0022930263773353163,0.0020702520599920476,0.0018924440721292746,0.0017436166666428116,0.0015528632280043112,0.0012158423193541009,0.0006368740609905748,-0.0002186444548583246,-0.0012852436915215472,-0.0023967034010033174,-0.0033324138675152612,-0.0038938983337779842,-0.003975493972615974,-0.003593901686318118,-0.002863483154533314,-0.0019350908143053844,-0.0009358086218771616,5.811436269351748e-05,0.0010083526462138072,0.0018813937464434633,0.0026239357400323006,0.003163677704069474,0.0034325510254756084,0.0033967684354201094,0.003077525643804084,0.0025523378769826137,0.001933688272168372,0.0013289444619413427,0.0007955418575589319,0.00031421225199187324,-0.00019918775024332767,-0.0008407429685566192,-0.0016475575092586194,-0.002547909986368887,-0.003364574068017253,-0.0038754289706122843,-0.00390360836560439,-0.003393468732978624,-0.002436901464649792,-0.0012399235331458686,-4.7145937002117806e-05,0.0009413717852987876,0.0016260775684351202,0.002016401057258757,0.0021935334082232227,0.0022496795230124997,0.0022361228505676355,0.0021467576966036346,0.0019428065288319605,0.0015984432915643278,0.0011328630083705144,0.0006042172793958609,7.046559825648604e-05,-0.000449852532589919,-0.000980942290200186,-0.001548170593055166,-0.002119941250950115,-0.002579883188338735,-0.0027597778069728715,-0.00252214014328743,-0.0018442423650674056,-0.0008503703202200821,0.00022957396014690876,0.0011522888297081824,0.0017539050938284086,0.0019980374115687078,0.001962634542922527,0.001782264625780449,0.0015813831446529732,0.001430790632854456,0.0013390141999554963,0.0012682502714860852,0.0011559580380836477,0.0009311434799038786,0.0005281476659162014,-9.340710333097756e-05,-0.0009210562683904253,-0.0018664046865004696,-0.0027660159960474487,-0.003418403329301961,-0.00364911714459108,-0.003375743329433172,-0.002639722215941526,-0.0015884096146849091,-0.00041888078399885726,0.0006851295993184291,0.0015938099802437085,0.002240108420890979,0.0026081132732327615,0.0027182234171197403,0.0026175209058879566,0.0023721652224481904,0.0020551317166159133,0.0017277866415466136,0.0014207650421903053,0.0011224395098779275,0.0007812579317498688,0.0003242171772930526,-0.00031035920476834243,-0.00113290568054384,-0.0020703148340236576,-0.002961581388466875,-0.00359653962009303,-0.0037925149999089823,-0.00347664682512017,-0.002727097625257193,-0.0017410660441766431,-0.0007397604412187784,0.00013522293986543418,0.0008681397067421987,0.0015285004681371277,0.002175835330158285,0.0027817315834658745,0.0032267727010585525,0.003373009134708318,0.0031577438440779943,0.002642019192192928,0.0019820016198392686,0.0013440674048843609,0.0008180294895555244,0.00037948422275878616,-8.05892299964983e-05,-0.0006798643372181901,-0.001465969832003345,-0.002375426396828826,-0.0032473441267178386,-0.003881481464244603,-0.00411260905577658,-0.0038702139777024337,-0.003201305419650207,-0.002249237325848642,-0.0011984755816132797,-0.0002090245001404297,0.0006310308126511033,0.0013145240310258295,0.0018845955912547374,0.0023846456257889544,0.0028194973535483944,0.003149584260271563,0.003316682339319761,0.003278953484505896,0.0030305840098475787,0.0025972804970902912,0.0020177524388378066,0.001327231705476435,0.0005512340892577981,-0.0002915208758508733,-0.0011796378410342972,-0.0020735742436187457,-0.0028985531860285024,-0.0035394488846374837,-0.0038632430849512636,-0.0037696390956980866,-0.003246038659641625,-0.0023909078373989447,-0.0013843771004797983,-0.00041821287979198183,0.0003763909258022402,0.0009647044760498941,0.0013933343373265564,0.0017385340316412913,0.0020493315564789898,0.002315510773406493,0.0024750701101748677,0.002454410121463972,0.0022161167444907817,0.001783420890357526,0.0012239416956363923,0.0006037824116603239,-5.227712858504646e-05,-0.0007593450515371401,-0.001524675227177011,-0.0022872882286809086,-0.002895509093021091,-0.0031525495004858144,-0.0029141543564143533,-0.002181482126809085,-0.0011269098341748541,-2.835392012588917e-05,0.0008542805999755936,0.0013892511866003391,0.0016081766454398134,0.0016538290919757058,0.0016808753291035303,0.001771631859039133,0.0019098415267460138,0.0020137748491881567,0.0019950169274844296,0.0018014110417174092,0.0014222129171493753,0.0008641950335251457,0.00012825862344990495,-0.0007859012504266244,-0.001842932245396884,-0.0029285355160410063,-0.003840618886940866,-0.004340682241228995,-0.004250596617221196,-0.003541410715012833,-0.002356858940742336,-0.0009532175928024067,0.00040824615215586,0.001551592733661164,0.002412923416525197,0.003004635047047776,0.003357141965613885,0.003482004568744589,0.0033737463325905362,0.003035830858901258,0.0025026653509697995,0.001838699947627512,0.0011154624790269492,0.00038228151602598826,-0.00035080110287759596,-0.0011065372551801202,-0.0019101473223060328,-0.002746549091839882,-0.003526499629858082,-0.0040859597363547915,-0.004231971142899792,-0.0038237487333349293,-0.0028522636201624265,-0.0014733102599975229,3.237708666199387e-05,0.001360211260959993,0.00229616670398567,0.0027858603682818905,0.0029234382959976587,0.0028711600503806734,0.0027603570576422254,0.002632482448164541,0.002449104863803564,0.0021516757565863713,0.0017198649801710682,0.0011848423662073205,0.0005943762127401374,-3.298709688585389e-05,-0.0007197381173391838,-0.0014926790939580547,-0.0023256258639943357,-0.0031091647815779215,-0.003676680541218477,-0.0038747697810328253,-0.003634180267986234,-0.0029975152219063436,-0.0020901767434607812,-0.0010582598769800593,-1.532785386669668e-05,0.0009715183891323475,0.0018568515371358307,0.00258193349739067,0.0030638981243089553,0.003223801046992846,0.003036969233261428,0.0025681369772803824,0.0019589872990512253,0.0013656501006733847,0.0008795361074457222,0.00048152043503187455,6.284751059978499e-05,-0.0004953197084482251,-0.0012305415533462644,-0.0020514189510789605,-0.0027617524221745576,-0.003141645337941124,-0.0030409424832756778,-0.002439929287775911,-0.001455434714982458,-0.00029865475016142807,0.0007922863185524707,0.0016202540228286736,0.0020786347794303243,0.002170428901739039,0.001992431145296534,0.0016901063385381379,0.001398719906166725,0.001190796027095234,0.0010473649254655753,0.0008640746487095484,0.0004956848223571428,-0.00016896005121878953,-0.0011270516114553354,-0.00221818170632888,-0.003153926245295845,-0.003624368205591053,-0.003437384880218862,-0.0026166343086282857,-0.001398751665450777,-0.0001260996853649734,0.0009064703274509289,0.0015662912055252327,0.0019014601947708416,0.002065529032012503,0.002202541302719033,0.00236082767402779,0.0024780299185472457,0.002434804342610221,0.002137538238319342,0.0015792344667903335,0.0008453883591404284,6.655043017082834e-05,-0.0006490918591631792,-0.0012598957095246647,-0.001785803655846687,-0.002261284293555632,-0.0026804210363498056,-0.002972636724844888,-0.003026825277464624,-0.0027500626595504266,-0.0021251295476561616,-0.0012323434596920328,-0.00022372074620777716,0.000734174710742418,0.0015163095395213436,0.002066859064206536,0.0023915087630729677,0.0025277711410307607,0.0025144817404001364,0.0023758394004463985,0.0021239575567605206,0.0017738363811608696,0.0013577379548595162,0.0009239808963839523,0.0005131789221590462,0.00012366596517068406,-0.0003048930750167095,-0.0008637711177358956,-0.0016066089830406992,-0.002479701903807709,-0.003303430556451308,-0.003830405965521062,-0.003855863658210873,-0.003318665053708632,-0.002334476493662142,-0.0011436381370628925,-5.508559571033731e-06,0.000903188604985393,0.0015376963902711308,0.0019661914605685507,0.002300914889013164,0.002619138080248543,0.0029144317805055464,0.0031002926008049238,0.0030600911287476276,0.0027144889176358177,0.0020712016053335116,0.001232780096811934,0.0003582391187628644,-0.00040462368524464,-0.0009840054369635882,-0.0014107719410744823,-0.0017872092109401882,-0.002209331010835479,-0.0026853044604279964,-0.003101544693398022,-0.0032644332323635795,-0.0030009628073291903,-0.002263432270972115,-0.001176739984412858,2.6654658149810996e-06,0.0009973416667153133,0.0016303018102834378,0.0018919237853687791,0.0019172585071620006,0.0018895504307149785,0.0019278275578628896,0.0020239631509571393,0.002062340642007897,0.001903594758847326,0.0014763410612041682,0.0008206820399343169,6.211465842983444e-05,-0.0006605130672337365,-0.0012632244274368295,-0.0017389811931824016,-0.0021245919554074744,-0.002439646172340103,-0.002641354530594633,-0.002627865948028713,-0.0022914865020568866,-0.0015911621977957435,-0.0005998516474156108,0.0005043282156257783,0.0015017225097896515,0.0022160317289750893,0.002575161363713503,0.002618013865265218,0.0024495827970988397,0.002175728050647675,0.001856956043845079,0.0015037634595530076,0.0011069227502890934,0.0006737681665819029,0.0002399633028223131,-0.00015380224827245351,-0.0005021249166057228,-0.000856962033105365,-0.0013048775870538594,-0.001904034127680053,-0.0026181296699432106,-0.0032943522618679878,-0.0037100348705061386,-0.003670426553408921,-0.003104754516689043,-0.002104344579923624,-0.0008803768587612377,0.0003313612100111903,0.0013607772612519479,0.002141045564664033,0.0026858987377103433,0.003036727870519004,0.0032192813413340045,0.0032321753234473187,0.0030638361305704432,0.0027187664243654218,0.0022333081109950016,0.0016705767409009266,0.0010968671755932954,0.0005520111977487121,3.0104264819195878e-05,-0.0005169410771663889,-0.0011508412036469655,-0.001903336579467782,-0.002736352110427824,-0.0035267789943858375,-0.004090006822147964,-0.004240548210453535,-0.0038675870908282802,-0.0029894815799927006,-0.0017568596348256382,-0.0004001909586024688,0.0008511866738630262,0.0018373570343225073,0.00249411132693371,0.0028357275016707498,0.002916366146607132,0.0027974702237841672,0.0025356985203715014,0.0021868874202681703,0.0018103537444726083,0.001460935414291704,0.0011688986889856865,0.0009198157132812769,0.0006500830240418502,0.00026764265891706003,-0.0003052441815742501,-0.001084052029838451,-0.0019927735800436197,-0.0028713764137513883,-0.003520544632448848,-0.0037658612463682822,-0.0035150936859834614,-0.0027872452573539526,-0.0017056708767111063,-0.00046166099326515564,0.0007366354671514332,0.001713739835380799,0.0023621493357715542,0.0026561187271991167,0.0026424012692198,0.00241278748552168,0.0020694673551045696,0.001696453611428215,0.0013446719138642841,0.001027901121986541,0.0007219840214485414,0.00036717464827998824,-0.0001149103725600391,-0.0007793651816454228,-0.001601305926648201,-0.0024399831194916455,-0.0030630590782253554,-0.003239152354889941,-0.0028569547964214523,-0.001999111616921476,-0.0009175364009961352,8.367377019585938e-05,0.0007920353932575291,0.0011741143278209956,0.0013592028780084336,0.0015348868558200917,0.0018200802425578449,0.002189988951233589,0.0024936699344925897,0.0025497928643690624,0.0022609727302701547,0.0016765879749465196,0.0009647276303815872,0.0003092610814872432,-0.0002042429876351167,-0.0006398490211127648,-0.0011617582560757033,-0.0019078390377638061,-0.002861217690752404,-0.0038032475430118456,-0.00438822732457105,-0.0043082847157194125,-0.003458550344142737,-0.002006565186364127,-0.0003235534390166548,0.0011832105060736117,0.00224084078112586,0.002792549939205756,0.002959352435298193,0.0029236686001270534,0.0028155345630892295,0.002666746049319186,0.0024450009576811155,0.002126065148688425,0.0017410987758559038,0.0013602688796269375,0.0010255091872521532,0.00068844964842354,0.00021199545864387167,-0.0005486790358246865,-0.0016293062409935511,-0.002881198553755653,-0.003996953919390318,-0.004636103151117252,-0.004584473596265353,-0.0038552462279026894,-0.002673094500595621,-0.001354920867789322,-0.00016256413948980916,0.000787292014743871,0.0015158327450582809,0.0021016406408735297,0.0025909407955013626,0.0029564889086047606,0.0031224449138043766,0.003027767171392428,0.0026800862193225865,0.002164955812477757,0.001607899532289419,0.0011142912996046134,0.0007196495235830914,0.00037330333225764215,-3.675746666219001e-05,-0.0006243735966849934,-0.0014318906705133069,-0.00237646215068505,-0.0032504573958269368,-0.0037899936517261884,-0.0037880357053961295,-0.00319607355926361,-0.0021564381892239556,-0.000942635416512155,0.00016236377069575787,0.0009836403373350538,0.0015047798158922601,0.0018292700935713985,0.0020835201505473543,0.0023239334859019092,0.0025027300756312407,0.002507275927597321,0.002242350304694954,0.0017012129278371185,0.0009808672458019526,0.00023191118348430458,-0.0004259658068430554,-0.0009680423970027908,-0.0014624577625307119,-0.001997112287904777,-0.0025806223717613113,-0.0030868308943053585,-0.003290128541972707,-0.002981070670147753,-0.002096529045488283,-0.0007835652334391513,0.0006473795290553342,0.0018582368188380441,0.0026314185934832595,0.002945765739169328,0.0029415053985198075,0.002805131319839729,0.0026517094536024776,0.002475067217257208,0.002184558060335984,0.0016898854742002558,0.0009712023439909589,9.185159280312256e-05,-0.0008432991945468254,-0.001743556136612797,-0.0025577879763870647,-0.0032547430865795196,-0.003782018724883516,-0.004044676619680845,-0.003928679302579315,-0.0033597423813131956,-0.002361420197975082,-0.0010746595008298472,0.000277020710089536,0.0014621629372607177,0.002319465960646032,0.002801195918755097,0.00296346334093684,0.002915324232833991,0.0027603203499070948,0.0025618066931491707,0.0023402924904354426,0.002087412858553749,0.001776263259564957,0.0013622720099617717,0.0007863442724989353,-3.9100424972032745e-06,-0.0010126118128169735,-0.002153208858256442,-0.0032378307673463762,-0.004021413410817649,-0.004291753603110331,-0.00396193351698804,-0.003111123776245126,-0.0019465781863270116,-0.0007083705564711171,0.0004253574782350083,0.0013781682989081002,0.0021463355781361506,0.0027353180074406657,0.0031160932836639265,0.003234432694159364,0.0030612853163260647,0.002638735197351237,0.002078451699762258,0.0015056305687736692,0.0009842837637476277,0.0004779562883835748,-0.00012050472032229986,-0.0009026594628478594,-0.0018548972922435535,-0.0028256251811816313,-0.0035758509161656397,-0.0038871952621715683,-0.0036648369384438616,-0.0029771093257641395,-0.002014263315327738,-0.0009969060592006206,-8.838122461947195e-05,0.0006459688002250011,0.0012226632250870373,0.0016885319018722072,0.00206930357615559,0.0023476960709314493,0.002480005346187826,0.0024360394721573654,0.0022318490082359616,0.0019284426402255612,0.0015928618306171186,0.0012469346952899158,0.0008430991119903144,0.00029297038521945793,-0.0004611074200719966,-0.0013750304957243524,-0.002282581235349944,-0.002947566297450479,-0.003164699925859945,-0.0028540958947213093,-0.0020980514136515163,-0.0011032677357382535,-0.00011263682649258482,0.0006862563618290391,0.0012136252940453604,0.0014943309343568101,0.001612101160056754,0.0016518068166812613,0.0016589826751270585,0.001629235670399511,0.0015211890151067852,0.0012780693455334855,0.0008482336866846252,0.00020504220120206348,-0.0006304605244782785,-0.0015683033131090223,-0.002444928509655587,-0.003051885083107254,-0.003200061517142647,-0.0027972259621753806,-0.0019000804510852132,-0.0007087153683766496,0.0004998571618599495,0.0014695375740226618,0.0020488806547945106,0.002225252255526991,0.0021016598908692656,0.0018359838251601089,0.001574211549957568,0.001402664941761316,0.0013285222066809984,0.0012857059096388077,0.0011600356489791348,0.0008294491222203368,0.0002141818465708987,-0.0006754172643989222,-0.0017142318179980444,-0.0026812599089289326,-0.003326492845001818,-0.003463727271313453,-0.0030465112656408626,-0.002186524810786551,-0.0011018737563587495,-2.176711762906839e-05,0.0009004007795729643,0.0016189729555110238,0.0021615175362683144,0.0025594179619729753,0.0027962250106459805,0.0028102419871304236,0.0025463283462431943,0.0020156490841058724,0.001316401894577634,0.0005958712407575862,-2.509791069064439e-05,-0.0005169263401746625,-0.0009512609795729142,-0.001445410843331418,-0.0020724531922058516,-0.002791010028544319,-0.00343731827290836,-0.0037850725514735986,-0.0036413221724552825,-0.0029320806578135242,-0.0017421298808011558,-0.0002958893407394159,0.0011131178144630825,0.0022202633966138716,0.0028783442884691337,0.00309694841973236,0.003010989855994614,0.0027936432648081495,0.0025630983606977314,0.0023375368769988584,0.002060982172284394,0.0016747050121369476,0.0011786908812242403,0.000637373679725994,0.00012690977624428535,-0.0003334593031595994,-0.0008092915166983132,-0.0014092477701002472,-0.002195128199814807,-0.003102051134216459,-0.003925412114302678,-0.00439164935752631,-0.004278562522374622,-0.003520861725406481,-0.00224545945893457,-0.0007210471074460879,0.0007479901779497306,0.0019282395312232954,0.002716136447639368,0.003131543833285925,0.00326374325729711,0.0032073691308318435,0.0030217923423413303,0.002726417649886473,0.0023221291400745856,0.0018182297489622381,0.001246389298162968,0.0006529785696863301,7.403478608850194e-05,-0.0004904205871885326,-0.0010804395032965942,-0.0017454543802673857,-0.0024890628228931575,-0.0032231160081701783,-0.003769265753389697,-0.003922174775895355,-0.003548263863972843,-0.00266451077755439,-0.001447027663217142,-0.00015951263001969234,0.0009587090864784521,0.0017810689205573012,0.002312389783031935,0.002637528594997642,0.002841145629753712,0.002950352125967127,0.0029293992400758716,0.0027187737105188628,0.0022848398988758296,0.0016453257291903127,0.0008581927601711478,-1.0162022309158402e-05,-0.0009076326914514814,-0.0017910313669337917,-0.002599648437109964,-0.003235027169492443,-0.0035724434077031458,-0.0035066884583996563,-0.003007516927802703,-0.0021486536135986107,-0.0010877530210617362,-5.133826752103125e-06,0.0009635298341549069,0.0017602829517041861,0.0023860364720527955,0.0028482976671961474,0.0031179185175126815,0.0031300598147415955,0.002830548833374089,0.002233727608873646,0.0014480763458571651,0.0006468657280984523,-4.45774034489024e-06,-0.0004272756342743819,-0.0006737024566191081,-0.0009081442678389424,-0.0013258024695016503,-0.0020386857746649994,-0.0029840585531933713,-0.00391156574938001,-0.004472628441704811,-0.0043784525189141475,-0.0035446909438560624,-0.00213922508632804,-0.0005037268417854529,0.001004036869420664,0.0021546483446664455,0.0029013955610213906,0.003330318252528928,0.0035559477885768985,0.0036368937529356205,0.0035591404181884913,0.0032821299153167676,0.00280162288966645,0.0021792812977080734,0.0015189856750986719,0.0009088943746182327,0.00036960518835874614,-0.00015747042851877086,-0.000772588362792679,-0.0015497536876171742,-0.002473887798313445,-0.0034176039834993787,-0.004173710415320571,-0.004531625666904884,-0.004362402655469659,-0.0036715163639299813,-0.0025951824228396558,-0.0013452520060795072,-0.00013200463956464765,0.0008996581762303324,0.001696672654515469,0.002281984523930335,0.0027085587322636232,0.0030071037551688447,0.003155812248975051,0.0030925010386683932,0.002766491721788871,0.0021986701656460947,0.00150441795237386,0.0008520466212528586,0.0003726542153406832,7.672316280004661e-05,-0.00016258864193208705,-0.0005374988073599844,-0.0011806005887735184,-0.0020608285202610216,-0.002966576950653031,-0.0035919011269933353,-0.0036806696448318937,-0.003149581649655688,-0.002124392428937232,-0.000875187272315079,0.00030667475381724685,0.0012201818418960584,0.001801442605996328,0.0020968198927031226,0.0021953592782593414,0.0021680324401328636,0.0020457018516417086,0.001836972485749155,0.0015611178230198744,0.0012637665012840984,0.0009972691642405075,0.0007756467357269915,0.0005386114898098763,0.00016201653126950242,-0.00047388520321453885,-0.0013890740163515507,-0.0024415779431045744,-0.0033497655970667595,-0.00380184360674543,-0.003598051054160942,-0.0027468572937104276,-0.0014634743499194833,-7.658402996454905e-05,0.0011030541900525239,0.0018875998461367882,0.0022501067221229495,0.0022923403506383997,0.0021697822059018727,0.0020141334818308933,0.001887281434961298,0.0017797509240911852,0.0016422958346341626,0.0014249239350430138,0.0011002874168653204,0.0006638165715315405,0.00011993366909937098,-0.0005281306711471654,-0.0012717972305869847,-0.0020742979331436944,-0.0028465917416151936,-0.003443876379314881,-0.003697343288958972,-0.0034756715696672236,-0.002748671243106524,-0.0016176734022517784,-0.0002922166162401599,0.0009781811348963088,0.0019845348441363472,0.002614984900794882,0.0028675937045698954,0.0028231834748034816,0.0025987900359019872,0.0023044067711733584,0.0020155383013296443,0.001761707449429912,0.0015261977493880548,0.0012557118606018052,0.0008816375060579522,0.0003497984729906268,-0.0003530663897010415,-0.001188932758433825,-0.0020767195780054927,-0.0029097288696683463,-0.0035715806567686694,-0.003948969054226127,-0.003947578521229529,-0.0035154539009565845,-0.002668171536581139,-0.001501893413287813,-0.00018169061507900298,0.0010960728878050478,0.002154009800606729,0.002875892003397136,0.0032252067678424706,0.0032380538777034146,0.0029994015732062976,0.0026136684168360192,0.0021766766182606785,0.0017533784333506096,0.0013660283872014485,0.0009964117014327968,0.0006009574275271267,0.00013251185381078984,-0.00043827073211487376,-0.0011060881614288205,-0.001821127327393271,-0.002490421750066865,-0.0029958176740094928,-0.003228090936300918,-0.0031249476204230713,-0.0026933952205383947,-0.0020038162855142167,-0.0011606149179595418,-0.00026817027858138835,0.0005898536192323765,0.001352336634872072,0.001971116912991504,0.002402467673127625,0.0026089825422598682,0.002573359422080098,0.0023159048325551343,0.0019004258937949398,0.0014156061677093228,0.0009343363719569126,0.00047358407734874626,-1.445592822851068e-05,-0.0006039959070355532,-0.0013255925458056652,-0.0021068306356804884,-0.0027675282592528314,-0.003084142407108714,-0.002895256184643086,-0.0021913602340482346,-0.0011370916281735215,-1.0313901162867711e-05,0.0009120537969558069,0.001463638525371659,0.0016407921469023122,0.001577217543229915,0.0014606290231837268,0.0014362614151657038,0.0015431584425939797,0.0017093076105521774,0.0018010154827180235,0.0016945977213209656,0.0013298198184436417,0.000721285187707992,-6.53579880876784e-05,-0.0009444717372229142,-0.001824693552400598,-0.002604800060697708,-0.0031697130573818413,-0.0034062480435854874,-0.003240144895933988,-0.0026742535829582846,-0.0018007596279264017,-0.0007744726399179609,0.0002408144595378963,0.00112349447588159,0.0018161182251037764,0.0023119327921038444,0.0026229167584988188,0.00275526248816474,0.002707591337992223,0.002486878168041636,0.0021237922667837815,0.0016718750972555157,0.0011886151243532305,0.0007091922345390292,0.00022827274710825814,-0.0002976741500714083,-0.0009229343626604865,-0.001667478291256878,-0.002475320181965342,-0.0032036573306324484,-0.003659845153787515,-0.0036773297385472225,-0.0031948714565551988,-0.002295119299543015,-0.0011777772364175824,-7.908561545548454e-05,0.0008204176994228115,0.001453422931272981,0.0018642726448908865,0.002155888392231419,0.0024160773600486723,0.002660413297411862,0.0028197306540429495,0.002779772887825366,0.0024541091887538917,0.0018498010571261433,0.001083144304940111,0.00032789838947279914,-0.00027935470007551264,-0.0007190096049642685,-0.001097461734226806,-0.00157047817424176,-0.002222375348776397,-0.0029763413200589333,-0.0035978015240112782,-0.003798240482557184,-0.003385068449045429,-0.002372799389689219,-0.0009910490776729583,0.00041633179589757987,0.0015444296148267506,0.0022476859484432832,0.0025647942092704747,0.002644425220418638,0.0026270902325757073,0.0025602892998502387,0.0023956377900897965,0.00205785274614392,0.0015271995513138226,0.0008728416164287843,0.00021547589033023057,-0.00034882943974589957,-0.000805357570332612,-0.0012171807341872817,-0.0016652264143294233,-0.002174477738298834,-0.0026756108763427446,-0.003025048954775145,-0.0030683895166635495,-0.002709259035349098,-0.001949908157157428,-0.0008918693276805561,0.0002943620242015399,0.0014139251867806046,0.002292880992299142,0.0028160638330160916,0.0029515966388511594,0.002755773726356228,0.002353345890615746,0.0018943733986297982,0.0014984266856027993,0.0012054800754546452,0.0009556450999901784,0.0006134474249979881,3.556260953874093e-05,-0.0008418833372714624,-0.0019378542304806215,-0.0030230245689082435,-0.003793208529906499,-0.003993638926623239,-0.0035345619828158897,-0.0025356462388597682,-0.0012720536520356832,-5.055791173205976e-05,0.0009155149970976314,0.0015660907401080179,0.0019656733493484202,0.0022170153736254077,0.0023778197098352,0.002431192070650901,0.002321312508054251,0.002023084614299282,0.0015929830688641302,0.0011599002209617421,0.0008539672653912805,0.0007158398488320772,0.0006491881215725657,0.00045723788242155584,-4.924005440343129e-05,-0.0009342161492907151,-0.002079749826470217,-0.0032230081141065353,-0.004062156234675988,-0.0043704508240804225,-0.004064501528457185,-0.0032091845255970168,-0.00197715376233879,-0.0005929640008063225,0.000718710232194053,0.001776666832773858,0.002478420409595592,0.0028191224684285567,0.0028806769571498867,0.0027869236567049753,0.002641962576880259,0.0024845425442200026,0.00228560229887841,0.0019885466173940403,0.0015617023442661792,0.0010238315546055438,0.0004253549962747271,-0.00019601107472582284,-0.0008449485381201345,-0.0015537564361466558,-0.002328017380450795,-0.0030909134790732765,-0.0036720215770274763,-0.003861585356095859,-0.0035086312401054805,-0.0026087201945380668,-0.0013279839970200247,5.421190660571864e-05,0.0012542807490635358,0.0020871964282039327,0.0025123074450718675,0.0026067498510140407,0.0024917850371121934,0.002260213732854458,0.001945924759941021,0.0015450668690038935,0.0010627994712647448,0.0005438586134215557,6.036370970174693e-05,-0.00033425466995645856,-0.0006469050525306269,-0.0009435273844477586,-0.0012971819983099032,-0.0017180052099859105,-0.0021166275050848882,-0.0023343722312557606,-0.0022282852092304333,-0.0017584507069537123,-0.0010198247711124763,-0.00019673224664102263,0.0005301821223395568,0.0010652164091296502,0.001420709060694537,0.001678104857328464,0.0019212346120351784,0.0021840710208760874,0.0024347668020878272,0.0025908254366719366,0.0025470832016393323,0.0022027184806874753,0.0014855526619355994,0.0003785554360752818,-0.0010513569978598508,-0.0026342372721472724,-0.004107493744953448,-0.005168535214652782,-0.005561064240171537,-0.005163153502707106,-0.0040363514495253845,-0.0024089093861042474,-0.0005971487976555354,0.0011000294505351957,0.0024856139397674845,0.0034928110316418473,0.004152571679557264,0.004526097064278899,0.004642650255505151,0.004476233942703942,0.003971985524240837,0.0031055566090168966,0.001938743273497667,0.0006332150596146634,-0.0005943718776993115,-0.0015572227932236292,-0.002176662254719116,-0.0025074161977263077,-0.0026940032336822883,-0.002882871775601447,-0.003138831909675445,-0.0034090786229609878,-0.003550909897136138,-0.0034068432380837477,-0.0028881929085958083,-0.002024472667377429,-0.000953534973894164,0.00014090699488790502,0.0011083234579921742,0.0018821744040348931,0.002476582098271266,0.002937751422131653,0.0032863758079123024,0.00348968591701855,0.003479611619893027,0.0032026882352751986,0.002667405297039271,0.0019569493212071316,0.0011972577795431622,0.0004981013561843263,-9.829555466639428e-05,-0.0006305004516622096,-0.0011840313611342908,-0.0018279365069415905,-0.0025560230791950036,-0.003265315425894092,-0.0037852011704655906,-0.003944199521282585,-0.0036420176584450086,-0.0028933061347700397,-0.0018257285267009571,-0.0006373586678369013,0.0004658973195455559,0.0013286760240205074,0.001882079075165745,0.002148774505110335,0.002219007120821973,0.002207686945374014,0.002208097934748118,0.002258505372373434,0.0023328826987564478,0.0023570894166960164,0.0022413111979977677,0.001913997089081191,0.001344788348940212,0.0005518455633910309,-0.0004030556917654439,-0.0014250536726900787,-0.0023978720677419662,-0.003196313958970118,-0.0037014665504077936,-0.0038194427689037325,-0.0035018404372984396,-0.0027638793771230775,-0.0016945109905530458,-0.0004513869406343681,0.0007654374836614428,0.0017603418792291594,0.002396656399751121,0.0026361073808207113,0.0025424860160142664,0.0022451572062183963,0.0018793857253080316,0.0015323989490662391,0.0012188582420267979,0.0008920317727159075,0.0004799368321997082,-7.190805773063232e-05,-0.0007673193059847191,-0.0015450472511391099,-0.002285375973544424,-0.002835482215075182,-0.0030485653005297257,-0.00282843659331634,-0.0021668914935714222,-0.0011589787218391067,1.4424338387460057e-05,0.0011355315391515758,0.002014137504400207,0.002542205526547601,0.002715396803897955,0.0026130885060116522,0.002348703167570896,0.0020169040670216538,0.0016639328218742797,0.0012909117363490699,0.0008777548475142919,0.0004041709385440651,-0.00014628433261112896,-0.0007911282355683248,-0.0015414982678369701,-0.0023717797215996165,-0.0031838343901649246,-0.003802297396940898,-0.004024650070332822,-0.0037101105501707483,-0.002856545406629349,-0.0016157496063175577,-0.00023585839275892936,0.0010346837287871725,0.00202800758411608,0.0026859516704384593,0.003036655580605863,0.003146341539661348,0.00307922389447859,0.0028823026082489614,0.002589766304683787,0.0022303761379243833,0.0018256581782133718,0.001379336712574757,0.0008682182607149746,0.00024617720304959475,-0.0005333541990417431,-0.0014813826331748394,-0.0025386559881361882,-0.003561387268315474,-0.0043420072175953455,-0.004666325366477237,-0.004390564908926679,-0.0035071063646811736,-0.0021660292694885854,-0.0006356509976740182,0.0007863347931984376,0.0018736686562282022,0.002538887566620146,0.0028377064395728622,0.0029126058255950927,0.0029077680251219876,0.0028992068046540132,0.002872094658488097,0.0027499514676184254,0.002452864133417243,0.00194832961403796,0.001265311631372868,0.0004663861214347374,-0.00039840208328013676,-0.0013172389117281932,-0.0022949688118766983,-0.0032930020183260965,-0.004175729512954352,-0.004716216226173385,-0.004680433997610178,-0.003952904723147558,-0.002627895686849161,-0.001001494754089946,0.0005427549234165234,0.0016965935017333132,0.002349512494325409,0.00260452930968209,0.002681595505835459,0.0027675866948131643,0.0029032526984398436,0.0029746119071841024,0.0028092074691255767,0.0023084048396386017,0.001524242390605935,0.0006307465002990984,-0.00018525901293394115,-0.0008345655088193622,-0.0013609063605641526,-0.0018792403406210705,-0.0024614979280454764,-0.0030487437013667273,-0.0034501930703392785,-0.00343256699109077,-0.0028469546293282463,-0.0017205694433149873,-0.0002658670444457657,0.001192171534279927,0.002330409344945314,0.0029323353762189747,0.0029466271126305232,0.002487368830494004,0.0017842023958166166,0.0011018834037021385,0.0006523949152210559,0.0005227966716401458,0.0006407012261697309,0.0007948577978655255,0.0007155177718657522,0.00019539171728534836,-0.0007953093249703048,-0.002058764141792207,-0.0032240019442507893,-0.0038952085598927986,-0.003827179396131584,-0.003036581799128038,-0.001786738767115288,-0.0004538669218716743,0.0006489221235122638,0.001391457608567237,0.0018302543676022946,0.0021097787105737744,0.00233598815058436,0.002507115713637878,0.0025407320690464265,0.002365900648925849,0.0020035538958411013,0.0015693037014273695,0.0011925031255052604,0.0009100851848699138,0.0006168642553975837,0.00011904525309218731,-0.0007319677211689399,-0.0019067388784287658,-0.00315528171371404,-0.00409408956258865,-0.004383065979808141,-0.003894555982634276,-0.002777331992366911,-0.0013790896173460302,-7.445450132074517e-05,0.0009008667989197083,0.0015188995434939384,0.0019050560185546498,0.002210173389715411,0.002496720561269123,0.0027076277038305934,0.002726792237021859,0.002480587379753264,0.0020060146246730194,0.001436443035247989,0.0009133741213362372,0.000485282886987378,6.69703300050896e-05,-0.0005050196927303119,-0.0013495955916280145,-0.0024274233487662517,-0.0035119394746898373,-0.004270979219426694,-0.00441786589416879,-0.0038483939447634687,-0.0026886557493253477,-0.0012321555171282386,0.0001917419653584305,0.0013427680722463827,0.0021279442543373594,0.002580498548038424,0.0027923818568467,0.0028490649946535016,0.002798746974995008,0.0026577188629050303,0.0024319544161929005,0.0021328416932662017,0.0017775255197235347,0.001378620158395287,0.0009341754792011634,0.00042603195388310526,-0.00017152985267438717,-0.0008757679429459862,-0.00167678205134682,-0.0025207654541549726,-0.0033009666963656104,-0.003865500573796173,-0.004051399764130827,-0.00374367835097019,-0.0029382307556097696,-0.0017730010372517223,-0.0004989907880302575,0.0006076613565535005,0.0013557107887462523,0.0017154306052309584,0.0018187182441016803,0.001878961273533776,0.0020712595657731087,0.002435959137039225,0.0028552718401166364,0.0031125446579583996,0.0030002278996671262,0.002419614183872367,0.001424067580058597,0.00019096977739807227,-0.0010542715903266386,-0.002117793115379343,-0.0028823535550290924,-0.0033064954578051224,-0.003394753060893443,-0.003168331017906283,-0.0026565835828148065,-0.0019080466084923928,-0.0010026680598989944,-4.6937888441069995e-05,0.000850266656391231,0.0016053317094384888,0.0021713557366253976,0.0025279131639985943,0.002663571779789026,0.0025721048288245936,0.0022684922750840675,0.0018076139162229,0.0012801293515916057,0.0007765746889800067,0.0003383965658835795,-7.033859211411897e-05,-0.0005458020049304203,-0.0011825680866249665,-0.0019949818522872536,-0.002865898035121983,-0.0035620497460627856,-0.003823910161391796,-0.003491310702507247,-0.002594663127989791,-0.0013537005706898936,-7.941117089837774e-05,0.0009651458191937895,0.0016652628304912175,0.0020642893437950983,0.002290083930202265,0.0024552040783996022,0.0025951141564550177,0.002672878132270549,0.0026294634154372548,0.002432139103689196,0.0020850844816230675,0.001602446146609567,0.0009756655175469106,0.00017152901972096305,-0.0008272825110529514,-0.0019635308969915494,-0.003074030786543591,-0.003919367110132691,-0.0042702509244340004,-0.004007318232839342,-0.003179460323420865,-0.001988850843671305,-0.0007118429662530378,0.00040329282579896065,0.0012149770241497646,0.0017138857158636575,0.0019924616869893843,0.0021778268474261894,0.002360027307828003,0.0025479233809146493,0.002672319927248135,0.002632482069390394,0.002357882494757121,0.001847354436306633,0.001162624874281161,0.00038497648737802724,-0.0004302503495882486,-0.0012665986061306134,-0.002118167560099301,-0.0029433740036193317,-0.0036386615538779865,-0.0040569974139488965,-0.0040651241406134755,-0.003606469208871999,-0.00273181993660576,-0.001580180784407832,-0.0003233585136329742,0.0008914535754764234,0.001969728378346655,0.0028596367203775285,0.0035209367006301816,0.0039013075576906815,0.003941110203100354,0.003606895185849434,0.0029324733517871503,0.002036601970907146,0.001095981018781929,0.0002783128176976965,-0.0003320018650748262,-0.0007717569224203163,-0.0011718920767402967,-0.0016725699082733518,-0.002323790911128278,-0.0030293428842647773,-0.003572026886925541,-0.003712186061020588,-0.003306835670579048,-0.002383155472237869,-0.001128220418813452,0.00019243005997621047,0.0013366796918520192,0.0021560335207856675,0.0026118663451361757,0.002749382634810128,0.0026553492133567025,0.002419195505350894,0.002104990721747261,0.0017364195154332843,0.0012972477227445143,0.0007484868012888027,5.787578485453855e-05,-0.0007685313695303802,-0.001664723205933887,-0.002503139038523911,-0.0031192017386872588,-0.0033604453351146384,-0.003145564608523962,-0.0025056560830151167,-0.0015804172101788114,-0.0005639551262514492,0.000372995162946665,0.0011400596465114025,0.001732475445624563,0.002189338887266256,0.0025397401573146903,0.002773612107717282,0.002849623035176817,0.00272450577684864,0.002378971959131908,0.0018269280681104737,0.0011110950384825916,0.00029397728729147805,-0.0005518817716443842,-0.0013553740381236818,-0.0020585958123193826,-0.002622125613369687,-0.0030185155050225744,-0.003218804831499788,-0.003185683198727918,-0.002883839629982496,-0.0023041634138109184,-0.0014858468734417103,-0.0005199157745277844,0.0004705555775122312,0.0013636613765912074,0.0020684866273877785,0.002539175370340079,0.0027716710802729383,0.0027902814094923796,0.0026334526108862787,0.00234490084231938,0.0019705692322920755,0.001556542875568024,0.0011410378509109423,0.0007378057627305334,0.00031863097067621186,-0.0001875383447654007,-0.0008630613463581124,-0.001741170709318621,-0.002747209141075072,-0.0036848372564077313,-0.004292137582845858,-0.00434949519792683,-0.003782715839665034,-0.0027015748160387934,-0.0013512763709047921,-6.068753233755232e-06,0.0011353620268218425,0.0020009046947348924,0.002625690542665162,0.003083910223380949,0.0034155097741970777,0.0035899800964546676,0.0035265175089437928,0.003156595532987047,0.002488691017139534,0.0016310459568252057,0.0007514432246224685,-7.593949201444299e-06,-0.0006066391202528677,-0.001125541648292814,-0.0016981778015419254,-0.0024004627024401324,-0.003163331092349881,-0.0037728488882904972,-0.003966252855171422,-0.003570731176811271,-0.0026036501822342124,-0.0012769680440047801,9.353281926883131e-05,0.0012205665770472977,0.001948244068543175,0.0022784059471536314,0.002320259414415029,0.002204826762312408,0.0020185230127567244,0.0017887515437153279,0.0015148663628784154,0.0012077818448672048,0.0009012124065121049,0.0006254424111513794,0.0003683390868516626,6.16918018447674e-05,-0.00038644580026149137,-0.0010274404337936853,-0.0018154310828979614,-0.002596024539397253,-0.003151158261289882,-0.0032788077010006173,-0.0028694096821588358,-0.0019470491855052988,-0.0006643072262556944,0.0007403345727230972,0.0020045034308686224,0.002905849548198688,0.0033135903462464806,0.0032157680994731727,0.0027139780307236304,0.0019852912529199867,0.0012221809633953104,0.000570458122368382,8.750293907186122e-05,-0.00026348071585084927,-0.0005808329122226374,-0.0009663025156763608,-0.0014655589279842169,-0.0020339842315475216,-0.002545243265315994,-0.0028405762136667107,-0.0027950602347594357,-0.002366841588196606,-0.0016056491304128524,-0.0006226336928587641,0.0004530070315746299,0.001501298947799926,0.0024119605873351695,0.003073653117746831,0.0033793629557503967,0.0032608551852440033,0.0027348061642246337,0.001922850127487505,0.0010176196162585474,0.00020304658520650686,-0.0004269635183779554,-0.0009002950980377101,-0.001326743880665992,-0.0018103080515943521,-0.0023682340743523636,-0.002905688356009227,-0.0032574769499560826,-0.0032665468273965046,-0.0028522518840664625,-0.002037772472137234,-0.0009376188543626324,0.00027445903450076033,0.0014014413548226069,0.002262508582210828,0.002739050850383653,0.002815638861410672,0.002589756092986794,0.002231555434773041,0.001905144953140544,0.0016923286666403448,0.001562414531961166,0.001403368781091368,0.0010911708347990986,0.0005538412806289001,-0.00020265295368339733,-0.0011084139372666574,-0.0020593051422130504,-0.0029364437237602934,-0.0036102668533987653,-0.003945348229350333,-0.0038234490853472514,-0.003183350496376676,-0.0020567889790950615,-0.0005791461796263344,0.0010301577774361242,0.002507763602997897,0.0035968415758014646,0.0041046910209610295,0.003961056815384119,0.0032550037142900635,0.0022199946848290722,0.0011564906398375363,0.0003213740182286301,-0.0001597351162285006,-0.0003140412740137463,-0.0002774689927801106,-0.00022354707761181275,-0.00030700488845936027,-0.0006351640282566596,-0.001251025063786336,-0.0021105396120021337,-0.0030615862271280306,-0.0038548272486438506,-0.0042092218080333615,-0.003918078227981957,-0.002944550705088469,-0.0014511393425137619,0.0002566126660875663,0.0018416260446160286,0.003043129915595101,0.003733663054296635,0.00391568182983839,0.003681368347115825,0.0031671022810278756,0.0025187802704720015,0.0018645655798373286,0.0012862900733403397,0.0007928961086543583,0.0003147792028271222,-0.0002619855134741673,-0.001023549258633607,-0.0019496383592255656,-0.0028757778062168515,-0.0035318121795035098,-0.0036532490686043686,-0.0031154530253206312,-0.0020165621814390616,-0.000655045292108119,0.0005944128114661033,0.0014431152255185448,0.0018025185405203571,0.0017927455688944618,0.0016477376064318466,0.0015743252991068351,0.0016428227137008315,0.0017639209076310072,0.0017557348205466264,0.0014555260124810246,0.0008106975227302078,-9.70856990875699e-05,-0.0010967038895142206,-0.0020037640354206325,-0.002680223389470175,-0.00305165838087775,-0.0030910384742200174,-0.0027976483786511775,-0.0021923181180755775,-0.00132724639057753,-0.00029331923916729946,0.0007883225653132096,0.0017884494477745886,0.00259304476288747,0.003117361367238574,0.0033104695368013624,0.0031575742454222023,0.002685891576631902,0.001970877281511625,0.001130943766423222,0.00029981809381768873,-0.0004199090207685078,-0.0009986367298236167,-0.0014854381994365959,-0.0019624853519504366,-0.0024683884627558065,-0.002939569524277591,-0.0032154767974028955,-0.0031143699448268865,-0.0025372828468808273,-0.0015354591987747797,-0.00029946952329541526,0.0009199881311820729,0.0019079285737017703,0.0025442188168897026,0.002807570361322793,0.0027454858338331846,0.002443921045313106,0.002011305722522898,0.0015639764760466723,0.0011932165499404443,0.0009166416726388581,0.0006478079739425694,0.0002244342632634718,-0.0004974082960262807,-0.0015279851469570962,-0.0026821302597792667,-0.00362446375484259,-0.004011530213345954,-0.0036566720095723405,-0.0026238180938139566,-0.0011968247612968578,0.0002546285259792244,0.001432844809338778,0.002207806979408236,0.0026109471957308904,0.002751087624734212,0.0027173454641326814,0.0025296023556584113,0.0021563974232457405,0.0015730407621255065,0.0008108037673412682,-3.716273955206768e-05,-0.0008512018981285672,-0.001531069977079707,-0.0020204762167923924,-0.002301033585931141,-0.0023710309922076274,-0.0022309668335402113,-0.0018851056062384227,-0.0013523055381445895,-0.0006749761802154176,7.836821272986703e-05,0.0008161020052949523,0.0014339957239548151,0.0018388677183271795,0.001983554281895194,0.001894195887125915,0.0016625594653873915,0.0013938161182026883,0.0011365195125790908,0.0008454726059632918,0.0004131922241462774,-0.0002424318267856343,-0.0010913625166785838,-0.0019672004306005657,-0.002626637409779455,-0.0028584731810851354,-0.002578241448099346,-0.0018579915980824128,-0.0008833181111774339,0.0001297579516827724,0.001010814323207816,0.0016709973087259589,0.0020943748727738605,0.0023033626396410244,0.002323986009100706,0.0021687256662595274,0.0018399690629407328,0.0013446503780564908,0.0007065277557877478,-3.18803404375316e-05,-0.000815068347590686,-0.0015788426995540744,-0.002247907215057289,-0.0027326208152943687,-0.002937596149860055,-0.0027883685805095114,-0.0022664392762492907,-0.001431759897983639,-0.00041619417405092433,0.0006115124705966586,0.0014929557073868143,0.002119348513566864,0.002450185688262341,0.002509466221970442,0.0023650368834249856,0.0020988313539241667,0.0017752276248992327,0.0014153297123509355,0.0009878233797588004,0.00042710128177100756,-0.0003207214877995661,-0.0012423138760658016,-0.0022244987323510436,-0.0030703394509741157,-0.0035631998863631044,-0.003549247920490067,-0.0029978814524209037,-0.002012515886242381,-0.0007910777918623125,0.00044070574709510887,0.001492320329243847,0.0022462611867772844,0.0026661882889168105,0.0027836486790460825,0.0026739447825227824,0.002427362794633208,0.0021189109965595717,0.001782301324018536,0.0013986021770128994,0.0009092339647230759,0.0002531436598359048,-0.0005864065281302509,-0.0015491211552959181,-0.002498502824396745,-0.0032587589508887025,-0.0036710585666146567,-0.0036436978823719346,-0.0031769367660848175,-0.0023574027042058,-0.0013287974984416652,-0.00025088803752908634,0.0007404044882238475,0.0015597786888076753,0.002177196241803868,0.002599304547547929,0.0028386477443847462,0.0028908189809944648,0.002736580077208609,0.002368869953211384,0.0018242355256719287,0.0011907004554465948,0.0005778429259919507,6.24567361966521e-05,-0.0003548756219266386,-0.0007485376372175879,-0.0012152315664007097,-0.0017982766363861884,-0.002435522074342392,-0.0029657122350869192,-0.0031940143245197308,-0.002983084544785339,-0.0023217198971274364,-0.0013357150901304362,-0.00023697844107702809,0.0007605334300332124,0.0015142447702663417,0.001982135031200797,0.0022021072723932113,0.0022433696434802234,0.0021616341448286395,0.0019792457378596945,0.0016912887166684743,0.0012848012774862518,0.000757422473091872,0.00012912327686575006,-0.0005530729072289798,-0.0012166352980841734,-0.0017726201048723095,-0.0021334458384926823,-0.0022359721101626873,-0.00206073383936929,-0.001637273138224035,-0.001032627593657749,-0.0003307020022315832,0.0003848816282345207,0.001037663436243624,0.001558969225380691,0.0018913924280469002,0.0019994555935546735,0.0018830210148199872,0.0015842468485747535,0.0011801440503361117,0.0007580360053755337,0.0003795617601386534,4.9292630636137646e-05,-0.00028992822133328553,-0.0007212857977546292,-0.001289070514198493,-0.0019416208751753582,-0.002523643673460048,-0.002833207041948528,-0.00271725343220584,-0.002151851581192723,-0.001259892432433772,-0.0002559310116242356,0.0006492119731171157,0.0013304313539534234,0.0017758340102237134,0.0020538966234008296,0.0022480622664448114,0.002398825188247391,0.0024812006215809554,0.0024213777013524806,0.00213669403263743,0.0015767444217278277,0.0007490897862590864,-0.00027599764624191365,-0.001377502592173398,-0.002403748432687817,-0.00319454215154667,-0.0036057444990058325,-0.003539836928775052,-0.0029804332768697027,-0.0020168033529752716,-0.0008374359415160591,0.0003196276248193863,0.0012477497883358907,0.001846806450045263,0.002149245318990178,0.0022772750400103146,0.002353560748259079,0.002420585512590148,0.0024207576879030903,0.0022481901870912515,0.0018319026270158028,0.0011880231941110635,0.0004040687973008186,-0.0004270511373923325,-0.0012647830640605204,-0.0021182288993989544,-0.0029813407060918255,-0.0037599993670319005,-0.004259813824710821,-0.004262089478663304,-0.0036474613487724144,-0.002484777982887862,-0.0010207142164810035,0.000428676296180463,0.0016177580907224182,0.002457353830576553,0.0030015509127481704,0.0033567134527717033,0.0035812369236524794,0.003642750464477736,0.003454966924675339,0.002961938005173016,0.002208033038613554,0.0013433447443164555,0.0005565331059478781,-2.655946266240058e-05,-0.0004170856103414886,-0.0007615533917352577,-0.0012572373261048753,-0.002025508137174027,-0.0030124178639714108,-0.003976965954314739,-0.0045824023405164945,-0.004548345063918839,-0.0037856113202858078,-0.0024436791652391746,-0.0008476269156875534,0.0006403653707693973,0.001762463625080506,0.002439811746324129,0.0027510411115311186,0.0028404961455993382,0.002819202781594036,0.002717448904485209,0.0025056087276304,0.002150665795162926,0.0016567518118348545,0.0010612194005261552,0.00040034773240741717,-0.0003161869406176916,-0.0010938034869310167,-0.0019101509628793962,-0.002675089752275632,-0.003230306776134539,-0.0034009916945283722,-0.0030765488283866216,-0.0022741301912554118,-0.001145280018893527,8.001599624546623e-05,0.0011794737382462169,0.0020073822331302038,0.0025154627940681944,0.0027283498572094785,0.002701646567086613,0.0024921799552293706,0.0021510479586838442,0.0017279926015014864,0.0012686419261235915,0.0007980929023444766,0.00030292025727094807,-0.0002673729613368209,-0.0009671076488021714,-0.0017992371624344192,-0.0026704223526036637,-0.003393555135256198,-0.003751910024020887,-0.003597978830186089,-0.002930457598448671,-0.0019012097799678905,-0.0007474658986614661,0.00030914895388050993,0.0011394428023118242,0.0017241688533427913,0.0021165177868123736,0.0023829104628693273,0.0025593008056116018,0.0026423904165009614,0.002609868329186169,0.002446533838357503,0.0021537556346239253,0.0017369794503338284,0.0011868336749938744,0.0004770966312872876,-0.0004096476635614592,-0.0014413240656861574,-0.0025092677380097387,-0.0034384390503174305,-0.0040360048073094556,-0.0041558694714822824,-0.003748803487883699,-0.002878146641236129,-0.001699211175295296,-0.0004139631343906125,0.0007831890434833295,0.0017535577764956165,0.002442362067351159,0.0028752645559412607,0.0031209347599370713,0.003235151355186326,0.0032182158021572932,0.0030157915263017655,0.0025671609143593788,0.0018691097840969574,0.00100655970874924,0.00012089360103670857,-0.0006669973942816591,-0.001324219052912296,-0.0019113717363045317,-0.002516731504563512,-0.0031625105565689197,-0.003749270052872296,-0.0040806526231539015,-0.003957846274829555,-0.00328860307500784,-0.002147829414558763,-0.0007571638016877614,0.0006031454146918267,0.0017030045321744893,0.0024383968448805364,0.0028407833152265752,0.0030211003369871635,0.003083551980408549,0.0030606478055989258,0.0029076609086082722,0.002556241373707336,0.0019865987728600156,0.0012640311977605743,0.0005106575132078458,-0.00016905280326791545,-0.00075415284576332,-0.001312315537010047,-0.0019332443161972593,-0.00263158953199863,-0.00328726345694319,-0.003672081878757988,-0.003557316291881654,-0.002842790324540197,-0.0016313420791136796,-0.00020347444103651456,0.0010958201328885842,0.001998255147985226,0.002408970951640583,0.0024133924698676564,0.002199763860974495,0.0019484031220956385,0.0017513434907451772,0.0015987769861917078,0.0014221430717177852,0.00115146345233223,0.0007475351474968872,0.00020043239309026719,-0.00048384537384302826,-0.001281705855935213,-0.0021299124582820706,-0.0029044140512434155,-0.0034291866986314746,-0.0035266059649554917,-0.003091199738886384,-0.0021484022782925984,-0.0008635989094717528,0.0005073200867138553,0.001703057918238103,0.0025375537469180345,0.0029424542264106183,0.002960879771730207,0.002705881433339769,0.002308676251807847,0.0018784787702115003,0.0014833582813388367,0.0011484844380832849,0.0008613339373475596,0.0005762752151601583,0.00022066688496425848,-0.00028775231232139797,-0.0010056393909349988,-0.0019186786008407145,-0.0029089039659395558,-0.003760929972121037,-0.0042191941840594134,-0.004082022993316515,-0.003293632965760488,-0.0019874748494288176,-0.00045199000855707756,0.0009728734839615239,0.0020227300352061717,0.0025988943419818066,0.0027789242980115945,0.002746304504108918,0.0026799743096116817,0.00266346204478063,0.0026587744278857915,0.0025507620816846888,0.002227564472383608,0.0016462505027539823,0.0008483344280722556,-7.477423434188536e-05,-0.0010345161605602516,-0.00197549638493652,-0.002862075525190464,-0.00363515770288152,-0.004179938058834492,-0.0043419737252201225,-0.003994107296593651,-0.003115666885565892,-0.0018309775992769992,-0.0003784606719664807,0.0009748207856432154,0.0020272633327993055,0.0026990578586494965,0.0030291769763130796,0.003123292705069121,0.0030847447992751967,0.002964261399809826,0.002750648883198174,0.002402013021484335,0.0018956595561352553,0.0012641307245000195,0.0005914571071261856,-3.219551295329361e-05,-0.0005689539541296503,-0.001060353854342249,-0.0015938495195105178,-0.002221318815716686,-0.0028835422565141283,-0.003402137873458891,-0.0035609009283634726,-0.0032343411232814566,-0.0024792576417445845,-0.0015217100466975643,-0.0006399796930455666,-1.5568036615013848e-05,0.0003535842094168006,0.0006257514434993502,0.0009967630604631645,0.001567943677815955,0.0022802432468553417,0.0029470130155715155,0.003356522978826767,0.0033782397506331562,0.003012662913075912,0.0023641846596457097,0.0015633558997580552,0.0006922793306410574,-0.0002388993970289177,-0.001250712486070729,-0.0023177243788675217,-0.003312035219634478,-0.004013425570312943,-0.004191463120092392,-0.0037173975267443047,-0.0026421140745500967,-0.0011951205142284463,0.000295685494675131,0.0015225983314562305,0.0022991394089332618,0.0026018782919259593,0.002543031498433912,0.0022961941078663015,0.002015642300791364,0.0017852037412862942,0.0016098859013753929,0.0014384252190853231,0.0011944356791235265,0.0008017941041700417,0.00020500444900256617,-0.0006081489724563214,-0.0015823180116243444,-0.0025828315016378136,-0.0034141652279873905,-0.0038730654998173795,-0.0038190325898850583,-0.003230558352599766,-0.002218893398555471,-0.0009906185853402274,0.00022489319160334266,0.0012500432448328636,0.0020022017190401272,0.0024890987775337964,0.002765745587711323,0.0028823847514378312,0.002855163683043077,0.0026737738181921863,0.0023342434039379297,0.0018673568576467576,0.0013361986519262628,0.0007997426265797463,0.00026825610276280556,-0.0003112351064181781,-0.0010178403512214637,-0.0018834998226248201,-0.0028298996980441636,-0.0036626653596374356,-0.004137218478244428,-0.004065732207064688,-0.0034073208729810183,-0.002291760313454878,-0.0009647597012073285,0.00031392125191794234,0.0013648047020293468,0.0021291920404400886,0.002643275707788084,0.0029719807160623,0.0031492637367446607,0.003162023443022692,0.002981917288806583,0.0026153187393493722,0.0021290871897511874,0.001626933591218364,0.0011864427668581135,0.0007970393365520961,0.00034459136272015577,-0.0003355490989846577,-0.0013558847261038835,-0.00267780881740254,-0.004076263852005647,-0.0051988636453151665,-0.005699546717231916,-0.0053838262188480954,-0.004293521251842296,-0.002689238683954424,-0.0009414511735835374,0.0006136580295473296,0.0017838584277306549,0.002550236130765052,0.003015807590469666,0.0033127845851116337,0.003521780990701821,0.003641068138209373,0.003611968603715875,0.00337585406059616,0.002924237568703045,0.002312060941190959,0.001629042899411333,0.0009493800893816498,0.00029151616506947606,-0.00038727474432931737,-0.001155622860714482,-0.002047244518976154,-0.003005394697162109,-0.003867188708244366,-0.004407593507577684,-0.004430744940912661,-0.0038637359586156887,-0.0027998219427231206,-0.0014647943425154764,-0.0001258796174438946,0.0010048653258710914,0.0018231013389484107,0.0023243952652015863,0.002558242333156544,0.0025830082326004982,0.0024476176498433055,0.0021969673373887803,0.0018783716166436673,0.0015307054067714018,0.0011600933096858983,0.0007253426732548129,0.00015556782910538126,-0.0005987825079048048,-0.0015066153341890371,-0.0024263307821955436,-0.003132250461129785,-0.0033942696563389343,-0.0030751955127881125,-0.002195703520379402,-0.0009321740777138111,0.00044972103900171466,0.0016875297187740194,0.0025931872585622947,0.0030764856729460924,0.003128575982124418,0.0027951307532516944,0.002163867454782001,0.0013657952981184418,0.0005669091108814178,-7.104899062979715e-05,-0.0004544962103258626,-0.0006096496864421885,-0.0006795620723866174,-0.0008533566750037779,-0.0012596082342599224,-0.0018842954746601844,-0.0025632445509684927,-0.003054707604840473,-0.0031497964474075896,-0.002759812401969289,-0.0019405278146628878,-0.0008550781250150602,0.0002920951750759983,0.0013155140660809535,0.00208676995064658,0.002551557286694068,0.002730117648490143,0.0027003716400922436,0.002563105192788278,0.002398502598041123,0.002233251951426141,0.002035264561380896,0.001737902917917247,0.0012784218829020317,0.0006286162881101471,-0.00019619245534627128,-0.0011472392724887145,-0.002156479435683631,-0.003140423521887583,-0.003991893662015189,-0.004573299968116871,-0.004731352722262612,-0.004342935582316569,-0.0033780395200372123,-0.0019439041265632293,-0.0002748670200582515,0.001338701552338754,0.0026493733899784493,0.003526577568215231,0.003968993503608978,0.00405926520975442,0.0038979883480635214,0.0035576767603239584,0.00307496632672223,0.0024715335117339995,0.001779734338059671,0.0010521688222501217,0.0003482950490718321,-0.00029344088422994237,-0.0008795890734814943,-0.001463057762881633,-0.0021131714996098644,-0.0028627411044054906,-0.003656990785041651,-0.004336134611433855,-0.004673503834021582,-0.004464452316162416,-0.003629490927934443,-0.0022778383915033973,-0.000689722892696447,0.000784699523243848,0.0018654255612235643,0.002451454612556333,0.002640940468075152,0.0026523322588866615,0.0026917180850391745,0.002841885089200236,0.003033622216616884,0.0031079568049808388,0.002922782871558012,0.0024348036703375447,0.0017110364713283062,0.0008745683007724187,3.072047984432056e-05,-0.0007745199127510554,-0.0015414517033808734,-0.0022671547089894027,-0.0029012787047006565,-0.0033422649975812695,-0.003479035984547336,-0.003250381919786163,-0.0026814563082196187,-0.001873603242709767,-0.0009576478233583484,-4.497821926232432e-05,0.0007933751538093021,0.0015157139139725267,0.002086902254148478,0.002467136971715583,0.0026197285133228347,0.002528086384766821,0.00220743690377848,0.0017040992570584374,0.001084167089650373,0.0004171037578599505,-0.00024049505710795754,-0.0008555976680416698,-0.0014180678302317324,-0.0019260453498947715,-0.0023631927938319794,-0.0026818269402232686,-0.002805699868240896,-0.002655290303414598,-0.0021843173310232603,-0.0014090087043987986,-0.00041533526875106965,0.0006597346466861603,0.001664971201978325,0.002473645674282776,0.0030082517680415067,0.0032440054237630753,0.0031970724649853155,0.0029112932156290794,0.00245271634539248,0.0019078662965335681,0.0013719833381059159,0.000918383864049789,0.0005580925039915949,0.00021622634584854048,-0.000247647804886117,-0.0009697218503991385,-0.001990900383528408,-0.0031954544594222016,-0.004322580479847111,-0.005055751879735134,-0.005149011576422356,-0.004527039050143731,-0.00331170506912825,-0.001769248270164787,-0.00021067879531657953,0.0011078098927214378,0.002048609247623369,0.002606761439111122,0.002879328859601461,0.003006355182166892,0.003105250529083791,0.0032213844343140503,0.003312879724883775,0.003276540444042654,0.0030061395086943285,0.0024579597072058547,0.0016890411382988505,0.0008406827691377535,6.726583880760397e-05,-0.0005529910117106532,-0.0010682612280104088,-0.0016234517530407614,-0.0023583066642835528,-0.003291019875985968,-0.00426127671962322,-0.004975135737301959,-0.005133567320261309,-0.00457557511957252,-0.0033583540716995916,-0.0017350394697433992,-4.8645626220646565e-05,0.0013983945083168095,0.00243710686752814,0.0030542644976819023,0.00334852140902506,0.003451509861612098,0.0034544357158716376,0.003373513032612721,0.003166368276861447,0.0027840265052595952,0.0022236239682393993,0.0015477315879401476,0.0008569106773920653,0.0002309689414805763,-0.0003240153860720944,-0.0008840595816487649,-0.0015552194360282283,-0.0023841748808021584,-0.0032858131110965324,-0.004041197479664413,-0.004380498358530776,-0.004111346346654689,-0.003220634128868854,-0.0018908223772248589,-0.00042238153710232414,0.0008914239953888752,0.0018676210687453526,0.0024652517734853044,0.002744874727649344,0.0027972478152005803,0.0026912418944530893,0.0024644482952561695,0.002142377988362157,0.0017538016412498342,0.001322670002603111,0.0008463331488835815,0.00028787105604049964,-0.0003986371886823695,-0.0012188458043787193,-0.0020971345682927753,-0.002876586806810466,-0.0033692483849877878,-0.0034337902372446405,-0.003038052011660827,-0.0022710983666853596,-0.0013000813949578885,-0.0003005254830884712,0.0005992354257394629,0.0013353095511048838,0.0018928425053778854,0.0022819976787469744,0.002524151724323232,0.0026481939773464296,0.002684686787037869,0.0026510218522683227,0.0025356590555787577,0.0022975211328786103,0.0018885439778538876,0.0012886982417893472,0.0005288633908210543,-0.00031840360352849154,-0.0011764911850217922,-0.0020014149802974985,-0.002784205145063282,-0.003511899475292029,-0.0041179556816297955,-0.004469328634043999,-0.00441432459806127,-0.00386803182834318,-0.00287826857938775,-0.0016230456347355897,-0.00033570678845114364,0.0007976716321959393,0.0017070019133950624,0.0024348087671339936,0.0030675372082442855,0.0036463114592082202,0.004112843634716902,0.0043256496493113234,0.004140462815680486,0.003508735174080092,0.0025331476987701797,0.0014407639332045285,0.0004825651387243057,-0.00018635275996435174,-0.0005783148751298903,-0.0008564328456498956,-0.0012397892777274812,-0.001881029885278134,-0.002777025923694285,-0.003752955102864639,-0.004524840220149618,-0.004812415697082628,-0.0044539193743671395,-0.0034726739098818135,-0.002065213958490922,-0.0005179151587929989,0.0009040883052025262,0.0020388920796017528,0.002844513828915231,0.003354452963787835,0.003610282149947561,0.003618124396615051,0.0033565496366063487,0.0028272724967563566,0.0021070635489597216,0.0013515608066562706,0.000730355964215481,0.0003245858199985626,5.7347414989230064e-05,-0.00028095264600285776,-0.0009083896641813873,-0.0018952156801411739,-0.0030737387757496584,-0.0040792849547192,-0.004509201298911965,-0.004115494813270423,-0.0029273256788477173,-0.00124185234458851,0.0005039191702085268,0.0019080069801025825,0.0027395181570872866,0.002983275141604942,0.002792921074190642,0.0023929723020690652,0.0019815986717613312,0.001670760737952767,0.0014736953751773613,0.0013274447660530765,0.0011296378326957263,0.0007744399530413633,0.0001843546457499742,-0.0006591028628535417,-0.0016881541230308818,-0.0027391963974107347,-0.003580199867292086,-0.003981012271425505,-0.0038041690113557133,-0.003070587202702407,-0.001958859339034049,-0.000731970176880373,0.0003713352130255716,0.0012223342178952564,0.001822664704324762,0.0022568572800454757,0.002612628994101751,0.0029176580119436605,0.003125349526955014,0.0031500751876700995,0.0029250419463379322,0.0024471280385435492,0.0017836090578428416,0.001037560499584453,0.0002916869252889306,-0.00043516056641796193,-0.0011872877686306715,-0.0020196088761024497,-0.0029210338502380345,-0.003765453171152721,-0.004332519883810254,-0.004398465159771291,-0.003850209437454437,-0.002757305634027158,-0.0013585457311934101,3.18218891447792e-05,0.0011491582504788815,0.0018706576813315395,0.0022320893975083357,0.0023703286273085307,0.0024318872868407462,0.0024988423498125125,0.0025645794223399703,0.002559921847073466,0.0024060739664311884,0.0020631691125975117,0.001549522102354605,0.000922664943363421,0.0002355892846666508,-0.0004986698995848483,-0.0013002165369775927,-0.002167448513431304,-0.003011266648841853,-0.003637823867604767,-0.003814494926255656,-0.0033932038631044503,-0.0024149488926805537,-0.0011219062388894419,0.00013946083269979377,0.0010709650589114563,0.0015449742615848184,0.0016338042340563724,0.0015407633340217184,0.0014791418409070677,0.001565143782039808,0.0017750555446281715,0.0019792691539421096,0.002026208107204279,0.0018266029338114263,0.0013932472216095864,0.0008196804912708763,0.00021692642975745953,-0.0003497358586451028,-0.000884788378871607,-0.001434120949521541,-0.002024075596308332,-0.002608012981926869,-0.0030571584455112363,-0.003207040746998146,-0.0029366699277720487,-0.002235171950720303,-0.0012163718346423413,-7.399421043874886e-05,0.0009938433653286305,0.0018482399435870071,0.0024336932418084524,0.0027633889764855403,0.0028852969900865478,0.002849765036324741,0.002688718742078769,0.0024068438624659416,0.001983116172671825,0.001383799295478314,0.0005873746890712019,-0.00038582592345067933,-0.0014546311377079406,-0.002482131455109486,-0.0033052276038214217,-0.003775829736528977,-0.0037984815222557827,-0.0033556499442705676,-0.0025172400131689768,-0.0014306310216423762,-0.0002874095021944789,0.0007297139284093606,0.0015025848619109406,0.0020090838217066594,0.002310099800742063,0.0024956699885468137,0.002621093443287148,0.0026730482824423043,0.002586847492076743,0.0023002148551097565,0.0018023479958459382,0.0011409698673066817,0.00038377932519914317,-0.000430914769711139,-0.0013081761315535958,-0.00225618171997527,-0.003218939735025254,-0.004037307040301736,-0.00448007199820352,-0.0043398992042740355,-0.003542266451952728,-0.002202609150488703,-0.0005961957085727123,0.0009442976794442038,0.0021500424435186233,0.002897549757258481,0.0032183123443274373,0.0032435808046562308,0.0031211887057963532,0.002948899271621257,0.0027526017146664553,0.00250804608529176,0.0021798345161829855,0.0017468673596984028,0.0012007661709279595,0.0005285597698921861,-0.0002955050190344369,-0.001291104989771895,-0.002430165002489599,-0.003598357677515808,-0.004591468397649188,-0.005162579289391825,-0.0051075686352013115,-0.004352153755029935,-0.0029978766008901454,-0.0013010244559866924,0.00041001147446609174,0.0018427986161596533,0.0028255521411775916,0.003333317030438798,0.003452990610324347,0.0033159498080554605,0.003038184860083555,0.002693596320118367,0.0023191627188055173,0.001931486321510543,0.0015346525947963984,0.0011146677937256967,0.0006316308318281504,2.6029126137387865e-05,-0.0007521350020946974,-0.00169858445413631,-0.002717104758641709,-0.003616700941520189,-0.004158959351075905,-0.004144512538480435,-0.003501398058776442,-0.0023302642141448367,-0.0008798666330539494,0.0005384152859924979,0.0016575788647234706,0.002335639038834427,0.00257860065791762,0.002504358230218092,0.00227262174508695,0.002016478636687244,0.0018027001532351843,0.0016278673685358727,0.0014392107690789123,0.00116304414375979,0.0007301856156098904,9.826455612718286e-05,-0.0007249444331495112,-0.0016595865913690143,-0.002547636538649809,-0.0031814250120999754,-0.0033715365251816482,-0.003030434996737178,-0.00222569669171506,-0.0011627427620633502,-9.583799818597773e-05,0.0007851476948427625,0.0014230715319765767,0.0018748725225466853,0.0022243282067963993,0.0024937986197501303,0.0026214048505051246,0.002518087092622,0.002155960480939925,0.0016141765335841312,0.0010406289686667022,0.0005527044563567455,0.00014881310263060692,-0.000300956184791448,-0.0009687909773005723,-0.001935833927425005,-0.003094386840234091,-0.00415206356256055,-0.004746367469685404,-0.0046125313317208205,-0.0037135970706838406,-0.0022612790906966296,-0.0006181153894892733,0.000862299586392203,0.001970030509202279,0.0026834323139608434,0.0031149442285570436,0.0034030677703664066,0.0036169665177812112,0.0037231052241752183,0.0036233792306841033,0.0032346982972345766,0.0025598514122295458,0.0017067053080340245,0.0008427159052380416,0.00010881402254972537,-0.0004585918564805446,-0.0009500221701353753,-0.001530036533693393,-0.002330687207295141,-0.003346548682273868,-0.004392356265621015,-0.0051555098859279915,-0.005325467034956913,-0.004737929463975766,-0.0034600315604135573,-0.0017718559180620055,-5.35135322347459e-05,0.0013650967897245758,0.0023188937833948818,0.0028360035304838167,0.0030754764865255557,0.0032149068021727336,0.0033500864639029217,0.0034570991537571562,0.003429765115085935,0.003163227054805007,0.00263083571404429,0.0019087806729600502,0.0011362399996163067,0.00043817556948251964,-0.00014077974004923728,-0.0006520728836638057,-0.0012011366683327995,-0.0018730183360744985,-0.0026669438494713402,-0.0034737242671247955,-0.004106460153359082,-0.004368692595417072,-0.004128378447185629,-0.0033674690290430224,-0.0021912438999386417,-0.000798080442765643,0.0005783801068029263,0.001736000456436419,0.002556655947430778,0.003022869283594461,0.0031913342743204644,0.0031402949964433498,0.0029250549778795662,0.0025693780603817562,0.0020915418861959414,0.0015346760284850767,0.0009670866328802537,0.00044492557112735064,-3.4130227352460426e-05,-0.000542234130678267,-0.0011747162842162418,-0.001966276358089679,-0.0028250135555418924,-0.0035355375399775063,-0.003840109582696972,-0.0035556960099160247,-0.0026623120423799477,-0.0013183217417699926,0.00019731640087141756,0.0015801762238686191,0.0025894863863924087,0.0031035114698066317,0.003134081327371484,0.0028048655023621633,0.0023011832547551827,0.001803087525909779,0.0014223354547796918,0.0011695711014847623,0.0009685944366866031,0.0007096651498580236,0.00030983597455635733,-0.0002546671682755215,-0.0009565224041621829,-0.0017472732703403882,-0.0025759250255094446,-0.0033770562038291426,-0.00404107219491284,-0.004402277872267737,-0.0042747710639142395,-0.003533836403540231,-0.00220341751022185,-0.0004942940024812194,0.001243576334393498,0.002644957702231678,0.003472712133061269,0.003706129389631986,0.0035258130084246707,0.0032033946214160038,0.002957438427063035,0.0028537175709680766,0.0027990469201696396,0.0026221618308343007,0.002186840803973241,0.0014690031165876527,0.0005567496764139544,-0.00041697157899802214,-0.0013561794106984244,-0.0022378676942747164,-0.0030773884484699837,-0.0038532381781927745,-0.004454858687387989,-0.004702619528139398,-0.004436552016103334,-0.0036187740990916615,-0.002381255089017309,-0.000983781157358719,0.0002973134620240692,0.001287112008441564,0.0019702929955719706,0.002457882594840168,0.002884618916549844,0.003301109165821401,0.003629205648663137,0.0037094341512350928,0.0034089701327517873,0.0027178974802224767,0.0017691821083675617,0.0007690195716062285,-0.00011610907259289643,-0.0008410364943887449,-0.0014786944900822166,-0.0021350077900101246,-0.002839477858970949,-0.0034858938599546113,-0.0038651468066761814,-0.003771830439192918,-0.0031189045449786907,-0.0019919486594907948,-0.0006162384166942267,0.0007356538239070105,0.0018387948181796407,0.0025677234810739255,0.002895936907623381,0.0028657725891464425,0.0025587496299740845,0.002079942183613519,0.0015476686144172249,0.001071959951406303,0.0007183030284807399,0.0004744169406550227,0.00024704155237295655,-9.709801802166296e-05,-0.000658723351989202,-0.0014368534679144367,-0.002301802905759918,-0.0030308168995746626,-0.003394619993146746,-0.003253480779738139,-0.00261321838020657,-0.0016135669992165037,-0.00046113977646553873,0.0006503401532237118,0.0015894928750751344,0.0022905181872699487,0.0027269250463690118,0.002887347424761653,0.002774575928773311,0.002424354954557785,0.0019213616246371717,0.001389102806415419,0.0009472769125229039,0.0006532116208252559,0.00045994054097504535,0.00022248615339913398,-0.00023684186883164043,-0.0010264452881844435,-0.0020972135517672574,-0.0032222851116426674,-0.004069553923444684,-0.004340705572507566,-0.003907366598696102,-0.002869562187667492,-0.0015030459306107002,-0.00012723244558846675,0.0010283089849734573,0.0018854322573824277,0.0024847451846191134,0.002896747244681748,0.0031440599591363288,0.0031849582516432747,0.002961388859027265,0.0024704451857839762,0.001804095014110719,0.001124382454028109,0.0005844564527569885,0.00024232687514074076,2.2161144498072775e-05,-0.00024747174545762713,-0.0007335677216024788,-0.0014907353460641847,-0.002408729887954637,-0.0032504528765048444,-0.003762709393879009,-0.0037967975735715646,-0.0033689665840102106,-0.002628827404937855,-0.0017621305011632686,-0.0008930318425337744,-4.488497859741862e-05,0.0008245029529551358,0.0017452711930157063,0.002670217668434659,0.0034641342493374697,0.003954987699075887,0.004017805382135527,0.0036432138344944525,0.0029501428327111745,0.002132451257836069,0.001366497353543961,0.0007302887124932278,0.0001801326017269867,-0.00040161829788802676,-0.0011162184154418268,-0.0019698415615304445,-0.0028526700778016725,-0.003584650817821137,-0.00399600697947,-0.003993676644077183,-0.003580820718400118,-0.0028309437584173695,-0.001845459131452059,-0.0007258977457803231,0.0004283664333704724,0.0015098254016124514,0.0024010815510814164,0.0029920373467099506,0.003209575870312606,0.0030444331563948997,0.002562433807265999,0.0018942967110916514,0.001203489712811973,0.0006364074876019357,0.00026798261114758664,6.63386107192705e-05,-9.878600369742931e-05,-0.00039593413879144917,-0.0009411694409230749,-0.0017200831231331726,-0.0025650664376173694,-0.0032048643160171014,-0.0033681152129728478,-0.00289661314059595,-0.0018193384465314821,-0.0003554525184800139,0.0011554904461331277,0.0023684890684576637,0.0030486409699712015,0.0031431795654815603,0.002782165819581041,0.002207451680164641,0.0016605453034922563,0.0012813948763890353,0.0010667404125923406,0.0009044745712728152,0.0006563034253670069,0.0002347079619551791,-0.000368707974895672,-0.0011063348214919375,-0.001914240947652383,-0.002727747468162266,-0.0034621469048274215,-0.003987096604106096,-0.0041363975074754766,-0.0037681891132853454,-0.0028457517297038556,-0.001484952387117122,6.807566303559904e-05,0.0015208409364629682,0.002635039834974661,0.003294027699181915,0.003512203430783679,0.0033947399063527506,0.0030777455540664717,0.0026798614402816522,0.0022805319913538186,0.0019203823648466416,0.0016085365101430782,0.0013254954781188417,0.0010223693578930312,0.0006262996836552057,6.044349946219055e-05,-0.0007230443033003348,-0.0017087224045876433,-0.002797650633485244,-0.0038133632871134426,-0.00453860352436088,-0.004776861545373347,-0.0044202644981651724,-0.003496374620463769,-0.0021696136224448044,-0.0006916490045199641,0.0006793373022191977,0.001754318828335464,0.002452511683758301,0.002794679316627427,0.00286554856697837,0.002770531941212357,0.0026048887012922865,0.002438194618185852,0.002306602492172017,0.002206516890474224,0.0020917344947493774,0.0018814746880149382,0.0014830848423820963,0.0008245613514105153,-0.00011340559149340863,-0.001275422674704498,-0.0025256797341398664,-0.0036625700285464126,-0.004455676627578442,-0.004702045102946466,-0.004289523656619835,-0.003245857096549119,-0.0017503966616747569,-9.568250697978148e-05,0.0013936500103012063,0.002456931109268356,0.0029716528137528966,0.0029765875841207667,0.0026358447686191363,0.0021609768565885416,0.0017257930678183067,0.0014101280420491316,0.0011928290735554216,0.000988393380203487,0.0007009611766795297,0.0002665943624978027,-0.00032985111202764745,-0.0010568950608306218,-0.0018427775340250164,-0.0025793871538134423,-0.003131742649679012,-0.0033649430555074576,-0.003187172723225228,-0.002588605092399163,-0.0016516112396628463,-0.0005244469442934163,0.0006255081986393592,0.0016526868637791133,0.0024527491878548364,0.0029643539615872303,0.0031677258929310005,0.003087932001083847,0.002795498385119382,0.0023900804518672976,0.001963901650681481,0.0015619513179314125,0.001165639964975533,0.0007139820927853685,0.00015000524799109227,-0.0005382090540538801,-0.0013072120600377375,-0.0020798560897592744,-0.0027775152393071925,-0.0033380126229490955,-0.00371092505300381,-0.003843081375553787,-0.003675507056859546,-0.003162985665588479,-0.0023077181080716084,-0.001184901736399243,5.949825108696584e-05,0.0012424781677655991,0.00219519790924484,0.0028096127815139564,0.003063102936022336,0.0030152045706212296,0.0027810175900046387,0.002491173413415434,0.0022494296952908655,0.002099133844437881,0.002009887641233993,0.0018924551226594762,0.001639433043188925,0.0011743191938239667,0.0004835452831183671,-0.00038502942326114873,-0.0013506065305085076,-0.0023285866833868737,-0.0032360216445468564,-0.003973912578655282,-0.004413489313153306,-0.004416344791001303,-0.0038919995079901718,-0.0028622099732736883,-0.0014873964711058256,-2.874374174928029e-05,0.0012422717499175966,0.002142197414741954,0.0026304572570915235,0.002793795653857001,0.0027739961809223864,0.0026840626699505842,0.002560332911884594,0.0023705993263501484,0.0020615040127116616,0.0016079076299344859,0.001033786044142487,0.0003985863635148273,-0.00023467455798289316,-0.0008259027838784677,-0.0013631493313490117,-0.001845936099784026,-0.002259613449203439,-0.002558778392728978,-0.002672274471072338,-0.002529755268941876,-0.0020974552454752957,-0.0014050713260470493,-0.0005489763020169388,0.0003322624206832225,0.0011005797900237946,0.001660150520742697,0.0019789387653118265,0.0020815710284975393,0.0020210228848618426,0.0018481359772658825,0.0015970622826700378,0.0012909535408044516,0.00095508148220482,0.0006183744048385133,0.0002961356446154339,-3.2335837214005026e-05,-0.00042619381246144415,-0.0009509675530551731,-0.0016235052425818684,-0.0023676362808351115,-0.0030144523639590516,-0.003356703398656254,-0.003233090436716448,-0.0025985066283648914,-0.0015447231129670715,-0.00026587694932212337,0.001007955524579905,0.002076354939468014,0.002810987041207567,0.003169293635541264,0.003184739487659484,0.0029419116304767517,0.0025447283285593156,0.00208626333057776,0.0016282310551295892,0.0011948239520421194,0.0007792591581071941,0.0003553185023926341,-0.00011404174660388175,-0.0006708140094446714,-0.00134921578460123,-0.0021484864907162665,-0.003000116630945421,-0.003755386031048887,-0.004216617797681537,-0.004209268699840974,-0.0036605349173295994,-0.0026397823092085015,-0.0013367848019937467,9.613984074087305e-06,0.001193563305787023,0.0020961335774720086,0.0026938545249507364,0.0030303173933156225,0.003173654986209335,0.0031816062058107,0.0030853967642868094,0.0028924748223761055,0.002600860315011035,0.0022146909006053235,0.0017509513265081332,0.0012320423089613977,0.0006676260119094564,3.849214039641117e-05,-0.0007012758917506552,-0.001594706296994043,-0.002632590817412216,-0.00370985791142249,-0.004619400761939729,-0.005101857525870095,-0.004940957511068772,-0.004064593529352352,-0.00259981553558057,-0.0008460788929020493,0.0008291208275764074,0.002125038350655268,0.002906279700756199,0.0032181227415356995,0.0032195201960717396,0.0030799597153166125,0.0028995657762370033,0.002687834667853146,0.0023957890362612602,0.0019679109065706495,0.0013794269750212927,0.0006448754309623379,-0.00019356176387858427,-0.001079610930975332,-0.0019454852493762983,-0.0027046342347346246,-0.0032479871029280683,-0.00345877184595026,-0.0032500021942693472,-0.0026108920055839843,-0.0016351795075717477,-0.000506487370891045,0.0005630830687854975,0.0014142271851384739,0.0019951981763594866,0.002354444424544342,0.002575153391542513,0.002697344768397002,0.0026835566018240664,0.0024526937026628616,0.0019559107878403246,0.001236456037804691,0.000425816306867281,-0.0003258787332956405,-0.0009381192360752898,-0.001442200240283314,-0.0019414816125812077,-0.002512377737577317,-0.003115744425364557,-0.0035863939316305984,-0.0037146502148743855,-0.0033671056889832194,-0.0025658743382811775,-0.0014773791683652742,-0.0003252969655411003,0.0007117963887680596,0.001557818104490337,0.002228360031534109,0.00277190041399904,0.00320769616308511,0.0035007112290314727,0.00358632986830043,0.003423607198900519,0.0030368242617635514,0.0025139002947700884,0.001960389778872841,0.0014376266244400348,0.0009230190571547126,0.000316353528259544,-0.0005087662475845707,-0.0016293807604380675,-0.003004223466929318,-0.004442625107475815,-0.005634078759799312,-0.006240473209877306,-0.006022045102359073,-0.004942214251748871,-0.003196830807587749,-0.0011478869952722345,0.0008074390065080591,0.0023678035138517545,0.0033996668921263302,0.0039290757074465525,0.0040750853672396935,0.00396945816185712,0.003702643121906004,0.0033131737831334582,0.00281169510250688,0.0022145234544350585,0.0015615239499692766,0.0009076406203617536,0.00029668198258932547,-0.00026286260116037787,-0.0008030265797409065,-0.0013775499215564482,-0.002025958225753822,-0.0027349216060999645,-0.0034145101020805666,-0.0039054025283403048,-0.004023945059431601,-0.0036349334595794083,-0.002723383183274527,-0.001427611233204191,-6.9309998806271235e-06,0.0012510669700139746,0.0021414104839832873,0.0026115731022588948,0.0027514659770946333,0.002713154154825411,0.0026130583074033113,0.002476810728483232,0.002254566442879909,0.0018863820823796242,0.0013657507373235802,0.0007542497895197973,0.0001378716771943065,-0.00043920700236505346,-0.001007353089124544,-0.0016366798249659521,-0.0023521227603791406,-0.0030594972397461903,-0.003545114332172429,-0.003565761927586726,-0.0029829093533881657,-0.001859183087944049,-0.00045333105317377963,0.0008884245196719869,0.0018828196120557316,0.002416678840580655,0.0025568907843264467,0.0024712465189317256,0.002318450427556037,0.002173984637385837,0.002024843704818367,0.0018172186823077886,0.001510918639136185,0.0011006863546678344,0.0005982250519466307,1.7079761986757983e-06,-0.0007125017461786836,-0.0015613867939455552,-0.0025065393625660504,-0.0034207402859357623,-0.004100219911501564,-0.004327292693698252,-0.003957927099068671,-0.002992243839331381,-0.001592326864518466,-3.658386602345485e-05,0.001371091807916448,0.002399894528931807,0.002958258327388376,0.003101270859627926,0.0029790275780518785,0.0027538034575245174,0.002529240722135988,0.002325775481478395,0.0021068829043977863,0.001829615280249351,0.0014814502668925717,0.00108039748335599,0.0006442950531555002,0.0001572602144054812,-0.0004373926033733105,-0.0012062525798881623,-0.0021699378593290387,-0.0032526519250494802,-0.004269023934329715,-0.0049642786121692,-0.0050976928193897444,-0.004536020123739406,-0.003315851975131486,-0.0016463288053522014,0.00015054463029731625,0.0017389502748412036,0.0028702586658419147,0.0034493949258727896,0.0035436253496018352,0.003332252689054598,0.0030185840220183007,0.002741984981654709,0.0025297677426585844,0.0023116152729867412,0.001987441603955903,0.0015081930038988649,0.0009183249147837846,0.0003299092776316465,-0.00015765840249599208,-0.0005388383196436341,-0.0009235005431017985,-0.0014727147834709313,-0.002279285419256226,-0.0032657287529436786,-0.004170215035360801,-0.004642808005868366,-0.0044084785475852865,-0.003410106512169428,-0.0018515696725970063,-0.00011574078610550103,0.0013975098624566865,0.0024254767334515076,0.0029118604967374824,0.0029693648901810326,0.002776415225691273,0.0024784886614841123,0.0021465021984248514,0.0017970743135227074,0.0014378384152946473,0.0010922001546200856,0.0007834711847441113,0.0004965540973051403,0.0001578830986266807,-0.00033547468994475757,-0.0010430431960352091,-0.0019078465856504682,-0.0027372605437987244,-0.0032645454789180135,-0.003267528996708222,-0.0026810978336207366,-0.0016386092788411985,-0.0004168057887457834,0.0006853733505637636,0.0014671845412820724,0.0018839012389325139,0.002021388376028126,0.0020155844872331613,0.0019710005241879037,0.0019223268117400608,0.001848391675045261,0.0017137988248750232,0.0015021862196109184,0.0012194593898666314,0.0008713015566218155,0.00043807857690838007,-0.0001284017338956742,-0.0008764311881622156,-0.0018056320112836148,-0.002825599854081431,-0.003751758456017556,-0.004352413173951936,-0.004432909859443343,-0.003917921715581737,-0.0028887814166685894,-0.001555049878097276,-0.00017477252891963158,0.0010364888398415376,0.001965835870466664,0.0026096137233929595,0.003031081361333454,0.003296805237830943,0.0034286752559943875,0.00339871870818741,0.003167412722361761,0.0027369243537196594,0.0021785447969132994,0.0016092105787850334,0.0011266244403391338,0.0007431802262579991,0.00036476757007536777,-0.00016352042445669777,-0.0009632168772769981,-0.0020308877254821335,-0.0032038181343305655,-0.004208045278448837,-0.004767489461266686,-0.004717895590902552,-0.004067130258362708,-0.0029753556649207437,-0.0016743083046869337,-0.0003755006570696929,0.0007848415200837898,0.0017458132963794042,0.0024838651754887685,0.0029730689722505498,0.00317416500890515,0.003059212451026168,0.002652525937843082,0.002055170691974498,0.0014272622366782823,0.000926574108982982,0.0006308467479803022,0.0004881896695841645,0.000332641316159127,-3.054671760450631e-05,-0.0007082146428010325,-0.0016365151759175727,-0.002586024375582749,-0.003259444943031626,-0.003428939386456188,-0.0030344773527379663,-0.002190786338172705,-0.0011103029570638924,2.706747244750991e-07,0.0010061010575766983,0.0018468149606681574,0.002497368930223564,0.002931035096295086,0.003113451281003013,0.0030241763828652455,0.0026805086992228505,0.0021411113072830118,0.0014862575943664262,0.0007888345658790679,9.334178960047391e-05,-0.0005887635252467239,-0.0012687141658906528,-0.0019597141012019635,-0.0026506454794548405,-0.0032827510046063357,-0.003744095266545865,-0.0038953703814425624,-0.00362510946203047,-0.0029102473247742764,-0.0018470679415629253,-0.0006295895759836051,0.0005184797234776104,0.001425020772663336,0.0020235308304353498,0.0023558626303939473,0.0025281684614060686,0.0026470739230685728,0.0027679315494097533,0.0028753617931000447,0.0028986381650934,0.002751043135792699,0.0023762643126272326,0.0017834751588481719,0.0010543332040761264,0.0003132102903273716,-0.0003303911464688844,-0.0008379039096592025,-0.001260299506375069,-0.0017019246700164699,-0.002247405028550758,-0.0028955015359540754,-0.0035402824060439464,-0.004009786214138144,-0.00413809239053376,-0.0038309071193737155,-0.0030940809745921287,-0.0020190312942103324,-0.0007424300159987009,0.0005928964015703391,0.0018568342540381487,0.0029309762475680737,0.0037053819715316435,0.004092123481268072,0.004057162096419683,0.003649475933526653,0.0029996711512369273,0.0022782222985215754,0.0016318288572656102,0.0011311117026548182,0.0007537334058096313,0.00040549024531557026,-3.3766735241042706e-05,-0.0006559633029509079,-0.0014773246633818134,-0.00241318294684567,-0.003290575071824821,-0.0039037261105045293,-0.004094479473091405,-0.0038178855584516287,-0.0031539245305672514,-0.002257122626737891,-0.001277228150353821,-0.00030342769964799215,0.0006350185370448331,0.0015223693301221791,0.0023082006384777818,0.0028996993444297065,0.003203256409632281,0.003185157094142974,