0.0007379455625636858,0.0010456703343056863,0.0013011115088405018,0.0014985061164682566,0.0015974991897459902,0.0015420867409873407,0.0013047111908609898,0.0009216688769018311,0.0004901513783459191,0.00012439935207947785,-0.00010281242482896712,-0.00019749835272909498,-0.00023860436973790848,-0.0003325208029944076,-0.0005524453611229467,-0.000893468817283875,-0.0012654069028780958,-0.0015272051463549852,-0.0015477570460132363,-0.0012659627191677868,-0.0007226468854212311,-4.924976192762821e-05,0.0005817291739470235,0.001021544126083972,0.0011962948458879444,0.0011241614792279575,0.0008957746036113923,0.0006301101823663939,0.00042584649608101455,0.0003271689922841467,0.00031549945291496856,0.00032746699929922887,0.0002889585221674436,0.00014997307314758616,-9.293697212238612e-05,-0.00039328621003820803,-0.0006703004238071135,-0.0008386014546177319,-0.000842510111671917,-0.0006813685481428717,-0.00041222567446173473,-0.000124936547342772,9.954560503091392e-05,0.0002245905728770315,0.0002664069381582569,0.00027284487307266403,0.0002896720000677864,0.0003378404449234989,0.00041353925225329734,0.0005034403379017339,0.0005964620889974401,0.0006792655923446476,0.0007201482496477284,0.000659867952287679,0.00042606677506095607,-2.8599504861068995e-05,-0.0006833058720469914,-0.0014275372000781682,-0.002080081582771804,-0.0024476585232968383,-0.002400139512566387,-0.0019269988610290658,-0.0011460827840379015,-0.0002590441631294283,0.0005254548396595078,0.0010649484860103652,0.0013217972175110263,0.0013563159388532346,0.0012857098555781638,0.00123149350216547,0.0012750387831464323,0.0014311348789226275,0.0016429470752223143,0.0018006723760629055,0.001783961790189369,0.001518395560058522,0.0010220378065887107,0.0004122698336378927,-0.0001423827742580068,-0.0005083958245114103,-0.0006642045308281892,-0.0007174145949600914,-0.0008437567518516319,-0.0011789115226212659,-0.001727608451648995,-0.0023466514684674926,-0.0028135812641840834,-0.002940213984629436,-0.0026644650360569113,-0.0020702622888631138,-0.001331484309647806,-0.000620374187152306,-3.543712432012552e-05,0.0004170696355161993,0.0007909195169823135,0.0011464041526694458,0.0015081156621738357,0.0018519684715460941,0.002120906407908034,0.002256471932668328,0.0022294251677697765,0.0020547463810445883,0.0017835142016810737,0.001476025171425245,0.0011726439318722646,0.0008817231161860621,0.000591590458050567,0.00029347869092220965,-7.853781588701685e-06,-0.00030728948134626697,-0.0006221648973696032,-0.0009951752509505577,-0.001460861691699383,-0.001993234658261529,-0.0024776719861076546,-0.0027417980688492693,-0.0026396879141077486,-0.0021408257294411965,-0.0013635866257125915,-0.000524598512827172,0.00016961556374122874,0.0006221707686622491,0.0008744261557278901,0.0010491832559789923,0.0012513967625280855,0.0014949120367275884,0.001700121038717427,0.0017550843738755326,0.0015918575459255605,0.001227086460742573,0.0007464781100790907,0.0002503980409988264,-0.00020134540099557064,-0.0006111861233578976,-0.0010193911853835437,-0.001448748312238074,-0.0018540254076352936,-0.0021130101284104613,-0.002073577647930313,-0.0016362023855570995,-0.000825637769422226,0.00019267230686125338,0.0011661155140399592,0.0018537836671249151,0.0021216113036871672,0.001988145412095684,0.001602039748927113,0.0011661777317429592,0.0008472713788352799,0.000713410136652158,0.0007248123250488559,0.000774660392826423,0.0007526402745554116,0.0005958638144714203,0.0003029785615349383,-8.926397875511864e-05,-0.0005445164894177798,-0.0010491852731932122,-0.0016009214424470939,-0.002173638541311371,-0.0026902830763599656,-0.0030302627773364068,-0.0030724355901432547,-0.002748728203305661,-0.0020773920294332045,-0.0011598190520432537,-0.00014631655733030502,0.0008105502192214867,0.0015957341661430862,0.0021522210219517704,0.0024787097917070137,0.0026094348192070853,0.002588280424080443,0.0024513073095868304,0.0022247262010780984,0.0019325827384825008,0.0016009633268583641,0.0012511137812541268,0.0008872291791353026,0.0004925598515861003,4.22317752879173e-05,-0.00047284100050095843,-0.0010278061935269345,-0.0015667924185085798,-0.0020269422559310154,-0.0023657218065611116,-0.0025694653662046017,-0.002636921484502192,-0.0025548920831073626,-0.0022923936093517615,-0.0018249564806259847,-0.0011731316929529177,-0.00042251849660582545,0.00029760822500257396,0.0008696044398357919,0.0012420767937011477,0.0014474259940548372,0.0015709724015023695,0.0016926718770579102,0.0018390580937108652,0.001974251414292468,0.002031962529205366,0.0019631896472537803,0.0017649153305021779,0.0014708669495284014,0.001115458677170391,0.0007029423127215098,0.00020833159880906372,-0.0003902059827253175,-0.0010729767538236834,-0.0017633087179669245,-0.0023455591299520735,-0.002704306012349056,-0.0027625657985788084,-0.002503231137338486,-0.0019706678869554632,-0.0012578002561267143,-0.0004854573541442236,0.00022133863753924195,0.0007578812960523243,0.0010636417341744046,0.0011413835182609545,0.0010621400308120231,0.0009450060243070525,0.0009096445774613487,0.0010173846757904961,0.001231252061757851,0.0014222443495244155,0.001426219506362555,0.0011260654970444894,0.000516960391480011,-0.00028000421274313673,-0.0010634902298256644,-0.001634283764131478,-0.001874555443705014,-0.001786947010958727,-0.0014762618776524368,-0.0010846050288763568,-0.0007149974543798637,-0.00038585984874651866,-4.2219729651047166e-05,0.00038422437850231165,0.0009050432610406831,0.0014415833516277705,0.0018525035083448694,0.002007820050697581,0.0018638540953333483,0.001491221086706904,0.0010372091606251988,0.000645779372912731,0.0003846284333593496,0.0002214636281387928,5.749805666932853e-05,-0.00020877202358223022,-0.0006264452161736131,-0.001170778272173152,-0.0017565197534605901,-0.0022707209998629567,-0.002607283610093062,-0.0026924125443242367,-0.0024983110711016172,-0.002046590190762095,-0.0014028932549395997,-0.0006634943756934255,6.44177418791564e-05,0.000685236313466175,0.0011359600162698393,0.001401562543887137,0.0015195394748733601,0.001567447028583649,0.0016310319893807364,0.001761524432850642,0.001942595840772739,0.002089001520633783,0.002084619682220385,0.0018446066145991714,0.0013693924103798027,0.0007586944171448119,0.000172897103091725,-0.00024219544961822,-0.0004287295408726575,-0.00044782713165328835,-0.0004497807693380055,-0.0005984909682245953,-0.0009892630067339188,-0.0015993428779737735,-0.0022902119573818378,-0.0028557925117707623,-0.003095514427698264,-0.0028875488994906653,-0.0022388502759010656,-0.0012918488207592418,-0.0002778872556472525,0.0005707336386679537,0.0011130119623904574,0.0013489221361816198,0.0013983072522478503,0.0014203008176902586,0.0015197643456705046,0.0016940927123306575,0.0018474345577995015,0.001857414800348946,0.0016492298554179573,0.0012320962540555065,0.0006816803513381637,8.937096511270413e-05,-0.0004805209651996034,-0.0009960093928442632,-0.0014297307311849734,-0.001731323847924673,-0.0018309657621839,-0.0016754471909787593,-0.001268349186139789,-0.0006818770907988506,-3.075711882794766e-05,0.0005732819210986467,0.001056876804667509,0.001391924199386415,0.0015774882865230147,0.0016162387208696223,0.0015053667511820176,0.0012478297457677542,0.0008716029476350885,0.00043594628474584614,1.2175379764232496e-05,-0.00035275265929657785,-0.0006639429191179905,-0.0009727059863624318,-0.0013341231979296256,-0.0017528860451000291,-0.0021549324051182376,-0.0024087176229290073,-0.00238814296308257,-0.002041152447808547,-0.001423076162884073,-0.0006748083969547621,4.137160825483702e-05,0.000611630738151813,0.0010081147439099983,0.0012772570043630602,0.0014915547869463626,0.00169727458876989,0.0018889427415440402,0.00202137004153,0.0020459761958199693,0.0019455668852114355,0.0017461524364968124,0.0015005414566260182,0.0012556450946975097,0.0010241052297090703,0.0007766832158916982,0.0004581330779437375,1.5721622445181993e-05,-0.0005746207560471531,-0.0012932784498990353,-0.00207295761942676,-0.0028030621446526937,-0.003344448363437465,-0.003560218849532639,-0.003361998520564669,-0.002755909665741227,-0.0018605196567093995,-0.0008747823694488078,-5.904978097011956e-07,0.0006427611440624588,0.0010612931523545262,0.0013568086707551343,0.0016421630523656345,0.0019570801932045035,0.002240836821561785,0.002378589306737537,0.002287108705853983,0.0019796798580585893,0.0015659510167008702,0.0011877203733288086,0.0009341123674503778,0.0007910687164226113,0.0006550501409708429,0.00039876942388248,-5.36927450355937e-05,-0.0006861015560089623,-0.0014017463323291667,-0.0020726198916118355,-0.0025924493482025438,-0.0029054513633551913,-0.003003920260490299,-0.00290641335869234,-0.002632816462986895,-0.0021868774814051556,-0.0015520459127615087,-0.0007058264624691665,0.0003463035463378189,0.0015295348587764815,0.002677517876000144,0.0035563742527611702,0.003940952556435982,0.003715658640731946,0.0029469249634952012,0.0018782196229732906,0.000836618228473093,9.300654285222896e-05,-0.00024947714873110914,-0.00027780966955298007,-0.00019466186686857827,-0.0001967655482144545,-0.00037840355018931384,-0.0007083980710878869,-0.0010788711335027175,-0.0013830193396027848,-0.001570812624875348,-0.0016549548730611554,-0.0016749380824343553,-0.0016513569869046258,-0.001563142587767006,-0.00136095160529443,-0.0010058142551913022,-0.0005076000323672342,6.154735083550378e-05,0.0005899900400354976,0.0009761890660505497,0.0011781359007460865,0.0012327071935501206,0.0012313459811312056,0.0012646287727246493,0.0013665477866597903,0.0014883079544006997,0.0015143369027473537,0.0013127602193639286,0.0007993997148863035,-9.608537428933421e-06,-0.000979079166568291,-0.0018839253310290497,-0.0024831051809219773,-0.0026123064196795867,-0.0022527946676774825,-0.0015387028142551662,-0.0006949065166962994,6.293727768544007e-05,0.0006122742795347787,0.0009493716491165528,0.0011524765936966504,0.0013140883716541226,0.0014849768047456757,0.0016563212276908843,0.0017791291831157517,0.0018006017694321376,0.0016939082361406132,0.001467773341411889,0.0011562232628564446,0.0007983425625501658,0.00041950171199834187,2.156040757390009e-05,-0.0004148344262062322,-0.0009151612553542218,-0.0014858258693691145,-0.002088922144923884,-0.0026340764145311385,-0.0030010641218122776,-0.003089005427451069,-0.0028663566467791372,-0.0023891558194633566,-0.0017725134851505817,-0.001131894291004334,-0.0005323874178464931,2.2319134458046613e-05,0.00055975673208547,0.0010950227329739805,0.001606527665068184,0.00204394995247245,0.0023556755751868814,0.0025127341573076938,0.002515425517556037,0.002385171382258169,0.002152931578871642,0.0018524174135185214,0.001517901124914345,0.001181463746855287,0.0008661532105642292,0.0005765354522763898,0.00029200569007014336,-3.079223743331842e-05,-0.00044214082144188364,-0.0009716487276649915,-0.0015996221168815428,-0.002244498811982387,-0.0027792154509735183,-0.0030741160302786424,-0.003047394931929572,-0.0026978514349301134,-0.0021032368942137795,-0.0013855984131326037,-0.0006623257007420682,-8.159910294765768e-06,0.0005544415656862001,0.0010362086015083417,0.0014484567676447692,0.0017779655625149216,0.0019845767293075627,0.0020234158103097223,0.001878750914400137,0.0015870313006067075,0.0012297236733067119,0.0008942140945269242,0.0006240437057487276,0.00039137924030801336,0.00011440982078178195,-0.00028471441609761116,-0.0008133478844046979,-0.0013758288979416552,-0.0018020330140565944,-0.0019280217307584544,-0.0016847577826795113,-0.0011416351091661466,-0.0004768517950352935,0.00010959205750300886,0.0004911966634297037,0.0006667220935312783,0.0007427263459443992,0.0008584352862083131,0.0010935970987759043,0.001409455108773769,0.0016586677721053477,0.0016647601610258926,0.001329770120385969,0.0007052557324678026,-2.2309105963867542e-05,-0.000629204700321472,-0.0009777506018668477,-0.0010884428818472964,-0.0011155632465541796,-0.0012419893500163002,-0.0015588070213051171,-0.002002503103344474,-0.0023849484962916332,-0.002494894013380958,-0.0022095464659945803,-0.0015535923531269408,-0.0006782456510135198,0.0002195620619071943,0.0009868041698245708,0.0015634032546505412,0.0019710987197563627,0.0022605888280879134,0.0024582084937829997,0.002547425145112042,0.002491573085575018,0.0022745972591427643,0.0019272113091650012,0.0015202433029062943,0.00113085030804447,0.0008033014921831172,0.000526521475419314,0.0002394686232656644,-0.00013847043959573256,-0.0006650769934065802,-0.0013385826574897944,-0.0020835879608157824,-0.0027693752650312237,-0.0032562486958633333,-0.0034490499856507464,-0.0033289347400251696,-0.0029448702133402956,-0.00237276858712375,-0.0016741167568388186,-0.0008859563738880347,-4.691058765374776e-05,0.0007689135470861537,0.0014484156611427282,0.0018816635742304223,0.0020260665019757526,0.001945064825677822,0.001785828375779894,0.0017019787740911894,0.0017682188500067818,0.0019421072648666054,0.002096361187199261,0.0020970866886175195,0.001875620306500205,0.001452480769835841,0.0009083029175365629,0.00032954724414755907,-0.00023367526874864706,-0.000774387074648485,-0.0013018361498744139,-0.0018033879633312442,-0.0022234770701106575,-0.0024762363397344512,-0.002486707535204506,-0.002236572300087499,-0.0017850744760771842,-0.0012479721741340307,-0.0007417684615038797,-0.00032415887140005873,3.105681774008789e-05,0.0004041202225028869,0.0008593848315492684,0.0013802033863603818,0.0018548619373866323,0.002127813511400745,0.002085757869889956,0.0017227319746841152,0.0011417375803344579,0.0004937386220333719,-0.00010315775186579639,-0.0006110055969957387,-0.001059335356167753,-0.0014884619076442642,-0.0018919979169601713,-0.0021973917854433574,-0.002294509472062196,-0.0020912956618454686,-0.0015627737281653288,-0.0007698332737548583,0.00015512199146914066,0.0010445170038952214,0.0017409209423941766,0.002140931805577016,0.002226095063511662,0.0020669653634895957,0.00179220599442703,0.0015313523031069353,0.0013575108424454317,0.001260299582270586,0.0011643913165346868,0.0009836500433115178,0.00068017905886099,0.0002932203643699967,-8.202357011630125e-05,-0.000356941450886403,-0.0005171189492362144,-0.0006496994715485063,-0.0009045086094924583,-0.0014028550348367157,-0.0021447659223631293,-0.0029735700915195684,-0.003627025963229384,-0.0038530229811201333,-0.003528115107483705,-0.0027150292321279842,-0.0016310084908500236,-0.0005476722826335119,0.0003242866750358586,0.0009102229543402903,0.001275705512852323,0.0015652607718551108,0.001911687146378487,0.00236276289953491,0.0028592460743440285,0.0032695190062358146,0.0034579515069550616,0.0033502798932208656,0.0029650293052745523,0.0023999096998522738,0.0017846386387429243,0.0012252539156911533,0.000764492247338218,0.0003719999029980571,-3.488738540684895e-05,-0.0005491514164111585,-0.001226613164675441,-0.0020510205485088128,-0.0029264456907821057,-0.003702077171848287,-0.004220846454935587,-0.00437169386798399,-0.004123002422900292,-0.003524651972557577,-0.0026824841669479153,-0.0017211376628603703,-0.0007524717295283063,0.0001412856692216899,0.00091083601979825,0.0015363136733776508,0.002022132306496548,0.002389853466837264,0.0026662000734187256,0.002867424046865951,0.0029878447205120198,0.00300117297791888,0.0028754298190924676,0.0025926214102867033,0.0021616581227853465,0.0016183877618762168,0.0010137424310693861,0.0003950488494278055,-0.00021220119715280078,-0.0008121895282123528,-0.001426434343478283,-0.0020603748910600645,-0.0026649039061667395,-0.003121829841991776,-0.00327609283522057,-0.003009474382944787,-0.0023174362300933185,-0.0013387663150803413,-0.0003108166799555912,0.0005309514934190328,0.0010529353488648683,0.001264883176763163,0.001281446553622099,0.001233114750925082,0.0011867365921087898,0.0011257617915969276,0.0009960717552898973,0.0007758211911671866,0.0005113953128333152,0.0002889571646672647,0.00016229071387805044,9.420119017000401e-05,-3.7564248887092706e-05,-0.0003640882208127078,-0.0009243180433810808,-0.0016062061865270887,-0.0021736848561998237,-0.0023711545061365033,-0.0020495618183555995,-0.0012446432187112554,-0.0001658296125538125,0.0008953927560113452,0.0016874909827025754,0.002090722237398148,0.0021399127597086054,0.001977044687294924,0.001765727418759763,0.0016132696307585312,0.0015359668236475021,0.0014767028030778513,0.0013558325730430576,0.0011213903053959662,0.0007702198823939659,0.00033325523403666697,-0.000158060566324138,-0.0006963146943505093,-0.0012939204762433291,-0.0019516939474388947,-0.0026222006808011146,-0.003196569181705617,-0.003531311470351298,-0.0035067807509616194,-0.0030864037521458757,-0.0023414390450136663,-0.0014246274553238567,-0.0005063894334374503,0.0002912824587570336,0.0009293386726656737,0.0014415528582437033,0.0018914058765390125,0.002321672954627512,0.002721817475716315,0.0030273258315902415,0.003149856395568498,0.0030227876703034667,0.0026388986504248947,0.0020602502184531558,0.0013947049492265642,0.0007514314309084837,0.00019840243294391344,-0.0002576802898579169,-0.0006613901457474909,-0.0010755153588072365,-0.0015414650979806177,-0.00205124495164598,-0.0025430642450773545,-0.0029216575579540747,-0.003093286054941401,-0.002999463286652431,-0.0026356144480566834,-0.0020494739893534898,-0.00132366416427561,-0.000552066355057932,0.00018143014212617487,0.0008174408040055366,0.001327523866888455,0.0017118669645738236,0.001988385882005085,0.0021764371568009726,0.0022820709144385654,0.0022928270898312864,0.0021863687327241628,0.001949304336593358,0.001594478238970931,0.001163437859118251,0.0007095256133655328,0.00027138331843535376,-0.00014463390607656937,-0.0005595322844134823,-0.0009961530970327196,-0.001449455662375585,-0.0018719062855740323,-0.002183221747617009,-0.0022990400913361856,-0.0021641607332815883,-0.0017765810796382415,-0.0011944649903740528,-0.000523909636799596,0.00010992238555809775,0.0006002071770125333,0.0008910588367090004,0.0009915272645287798,0.000964000946814051,0.0008911786522903337,0.0008355570456110839,0.0008094477340437957,0.0007702815694157438,0.000645762265906568,0.00037898493458885467,-2.865994763653839e-05,-0.0005006937926510975,-0.0009062334039972045,-0.0011094297677209184,-0.0010244361588554935,-0.0006520603640478408,-8.459479907873093e-05,0.0005221590783790399,0.0010009217052832585,0.0012325716594421352,0.0011911605924036688,0.0009528886473544364,0.0006600714747621609,0.0004529696814946503,0.00040180100011714617,0.0004741374233272948,0.0005545890946434046,0.0005048410258100032,0.0002313118444476457,-0.00027260331429752936,-0.000924769530628525,-0.0015858986803815815,-0.0021055207895802398,-0.0023655103583515307,-0.002311800281123542,-0.0019681980561695716,-0.0014262943311213483,-0.0008105218628359258,-0.0002297521184840198,0.00026214148481942877,0.0006751757955858707,0.001055279936219576,0.0014351589163507908,0.0017950122021868889,0.002060728099174811,0.0021439759140538693,0.0019996658575201303,0.0016625081406585057,0.001237045631027227,0.0008457843932211227,0.0005660726752880732,0.00039130729098655346,0.0002361208317649419,-1.825489235004812e-05,-0.00046011013587522623,-0.0010935747985210968,-0.0018202165993354035,-0.0024674342903928934,-0.0028540700035707494,-0.0028633530141660016,-0.0024866792038089358,-0.0018168282194556107,-0.0009990182708836009,-0.00017221494079175956,0.0005665249761667324,0.001163834104276795,0.0015919101216534555,0.001833186658937666,0.0018806497501065128,0.0017502515383843713,0.0014918162187958532,0.0011855676108571672,0.0009200183990937217,0.0007581168060898217,0.0007070310976971064,0.0007084400103733331,0.000658688550613111,0.00045381267495062376,4.010226304658818e-05,-0.000554410942812563,-0.0012234548508233405,-0.0018188395962765377,-0.002201656047029843,-0.0022861133454585257,-0.0020608746725230232,-0.0015844456548977498,-0.0009609161520915834,-0.00030727625827793457,0.0002764122943782128,0.0007261621717935213,0.0010196492973381997,0.0011698595567194642,0.0012112909267190154,0.0011841785270575885,0.001121221867550412,0.0010387303924015079,0.0009318599773847633,0.0007744435793699443,0.0005275543482079835,0.00016157336891870324,-0.00031203448186291696,-0.0008174796534023039,-0.0012238548573922695,-0.0013952254006222762,-0.0012599524612310563,-0.0008569428388566173,-0.0003252263512024487,0.00016224629535646227,0.00048363633866948814,0.0006221795814476778,0.0006572613320700422,0.000698694016963367,0.0008059911517752703,0.000946018886513674,0.0010193384023571305,0.0009384902679896847,0.0007013294237918652,0.0004010703579524547,0.00015810677200554877,1.8483284419276453e-05,-0.00010385147488282845,-0.00038644198919447867,-0.0009715843255089754,-0.0018326445609525561,-0.0027305888157634454,-0.0033075244598380045,-0.0032739369354289225,-0.002577217993791274,-0.0014423364024783933,-0.00025395245047293196,0.0006484758787707895,0.0011356042445422254,0.0013159505802692198,0.001422187580842442,0.001641524613887045,0.0020017802126518934,0.0023755308943836156,0.0025821462739711123,0.002510371433755342,0.0021842311050892698,0.0017412244666365844,0.0013470451509870404,0.001101838684826783,0.000988072339253354,0.0008810417924240943,0.0006111599054522502,4.772118052417452e-05,-0.0008306835395876602,-0.0019079267494604831,-0.0029589206670990907,-0.0037276756762547026,-0.004023798604731047,-0.0037941572078905054,-0.0031360951635407896,-0.0022472759998974643,-0.0013391497172441959,-0.0005576561742080565,5.3021027620081236e-05,0.0005337678950643419,0.0009582403392086067,0.0013760636418345298,0.0017796886978409736,0.00210886531014582,0.002287801442914683,0.002272511419746868,0.0020783772287531494,0.001768790512848821,0.0014120803981296556,0.001038104991707021,0.0006276646964582152,0.0001433171267601369,-0.00042215880423499257,-0.001017014194135165,-0.0015427494337856198,-0.001896941790668971,-0.0020154330814692607,-0.0018877305025662078,-0.0015435269179627973,-0.0010300910112953088,-0.0004026530093572413,0.0002675051116889241,0.0008837512554047966,0.0013359152933932437,0.001539471802219079,0.0014824970924974356,0.0012465043452793386,0.0009780475345675796,0.0008185363846485443,0.0008291872864431613,0.0009549944298602363,0.0010498533883361626,0.0009488545861775004,0.0005478880643503448,-0.0001486971543652993,-0.0010285949446255391,-0.0019103441446916987,-0.002598718697003205,-0.0029385884434855215,-0.0028564754511101855,-0.002381185717596882,-0.0016352754522863274,-0.0007961960057382118,-3.966732777446031e-05,0.0005123979019607516,0.0008202089092189198,0.0009245435667313923,0.0009215121490818268,0.0009243581765582794,0.0010219876489763774,0.0012433273287259772,0.0015383134020819879,0.0017861422144668604,0.0018344775536038574,0.0015602930229525157,0.0009307807517450672,3.8542862204606456e-05,-0.0009086117446666464,-0.0016484102260668338,-0.0019602122663680294,-0.0017599678106894339,-0.0011465847556616083,-0.00036579916625197636,0.0003016200780342178,0.0006726410118916447,0.0007405035956801541,0.0006521068027429233,0.0006000197738796282,0.0006985303438103303,0.0009196533252540043,0.0011220290429397907,0.0011456681828151453,0.0009086275295868565,0.00044799336237418626,-0.00011209835947618367,-0.0006367914361336366,-0.0010497007914152688,-0.001354691587356933,-0.0016039148693679393,-0.0018387652932098544,-0.0020431756472436375,-0.0021372994649747146,-0.0020147142475122376,-0.001602834133992239,-0.0009144632716284161,-6.171376602294768e-05,0.0007793148491612347,0.0014392175259418348,0.0018253982802309554,0.0019518955132653325,0.0019110017984701462,0.0018057603803502873,0.0016890082514294798,0.0015486781968027806,0.001342751732459294,0.0010489627166114215,0.0006859011928085976,0.0002906700002367049,-0.00012104235335054156,-0.0005694083787823466,-0.0010784785310159275,-0.0016198634640173838,-0.002080962417447917,-0.0022934607667558123,-0.002114641558547829,-0.00151452100944216,-0.0006146623497787801,0.00034731698953711595,0.0011109640111103653,0.0014970761344274344,0.0014728607217677524,0.0011503382274628054,0.0007227320576358798,0.0003709193786951698,0.00018382848603199246,0.00012942147780730696,8.896051314837786e-05,-6.428386755010125e-05,-0.00038462734312938256,-0.0008162718251891648,-0.0012187183448452543,-0.0014390724714398247,-0.0013883605906486888,-0.001079120663533186,-0.0006074620822724517,-9.647022107572107e-05,0.00036253711616682314,0.0007391015661166586,0.0010535087562248005,0.0013410809407510135,0.0016150061790769594,0.0018471723781548453,0.0019737110053007346,0.0019200926049193086,0.0016341508062610853,0.0011138030855585947,0.0004177448129413923,-0.00034789985588091175,-0.0010650411528604778,-0.0016473837307932186,-0.0020696619064607758,-0.0023620045123984514,-0.0025675881713342675,-0.002688447907054995,-0.002659292287587512,-0.0023756511153058472,-0.001765526712492522,-0.00085946574103474,0.00019060538658017265,0.001163264996620077,0.0018645632989842684,0.0022141763172343434,0.0022695560465859407,0.002174486990120043,0.002065692967621404,0.0019973407012956546,0.0019299097828687144,0.0017846256465055246,0.0015190110566249463,0.0011666503541445214,0.000813547784839004,0.0005305914662883271,0.00031129795792543097,5.8472199390008145e-05,-0.0003682958093572479,-0.001068040796248122,-0.00202149373118598,-0.003064411062269349,-0.0039300571287072105,-0.0043457897345472955,-0.004141576251432281,-0.0033217175376324534,-0.002067728710336574,-0.0006713889500145327,0.0005723115922498832,0.0014659439249706003,0.0019622470200088,0.00214991298554352,0.0021848741079096724,0.0022036013081321616,0.0022610439964545342,0.002321048697925318,0.002298406645346105,0.002123752778115399,0.0017912982475153869,0.0013622419672144348,0.0009257608170089541,0.0005454995471073869,0.00022570141918008336,-8.451106224456698e-05,-0.00045474258534717893,-0.000927605155083741,-0.0014872738524119144,-0.0020548649411376257,-0.0025102271391468766,-0.0027315069058384826,-0.0026398827670305342,-0.0022340540389765738,-0.0015984475453141704,-0.0008761116102519108,-0.00021386087535377185,0.0002948900615256664,0.0006391011630716092,0.0008748767737917279,0.0010758591817623838,0.0012793475342885697,0.0014601408395303918,0.0015466971770397438,0.0014680221714769544,0.0012008091447229523,0.0007871052256469189,0.00031310695100334775,-0.000134298316349877,-0.0005033551442670424,-0.0007840389692458156,-0.000986058363300469,-0.0011078908982906609,-0.001120062095374962,-0.0009747663049384887,-0.0006375003402891872,-0.0001233818314094384,0.0004841999548151721,0.0010491605440167168,0.0014316994790935416,0.0015479595493006967,0.0014066486390189748,0.0011002955443076162,0.0007566215776584895,0.0004791145635009537,0.0003082166452479311,0.00021683879074624172,0.0001327513490864586,-2.8618118118798816e-05,-0.0003326810564602469,-0.0007992794335426902,-0.001384196499983394,-0.0019765285915103567,-0.002421539382972349,-0.002569658910895822,-0.0023359361135413493,-0.0017422372722204582,-0.0009177109164145076,-5.257876849125518e-05,0.0006746393925418231,0.0011613911838229184,0.0014062376962897952,0.00148541463795895,0.0014971200919383582,0.001506062010123523,0.0015182637645240115,0.0014962141846802971,0.001399518143518636,0.0012217978589863622,0.0009988668894639898,0.0007825665491277996,0.0005973417138035611,0.00040947707539346783,0.0001338993213044489,-0.00031790011850824605,-0.0009717992429266358,-0.0017458766464568045,-0.0024589805012455316,-0.0028973371961700856,-0.002907474587213944,-0.0024640436268759092,-0.0016744902215890638,-0.0007224676224597798,0.00021037010828441679,0.0009974664614862392,0.0015752963108426842,0.0019217701690360956,0.0020360907677231944,0.001937643169445147,0.0016760707141244388,0.0013313094868237898,0.0009915330552247,0.0007186717602484256,0.0005249857247233404,0.0003772270867724341,0.00022331518097009815,1.9986038182623724e-05,-0.00025623311533780205,-0.0006126089783943718,-0.0010411827605844412,-0.0015059980898309711,-0.0019271340294786104,-0.002186388646660209,-0.002168330187243013,-0.0018202355224435232,-0.0011918281225510746,-0.0004233323212700596,0.00031511355667674995,0.0008956549592149371,0.0012733122442470483,0.001476580877642225,0.0015638014134028233,0.0015788566316965195,0.0015324353975392844,0.0014131741532873267,0.001213193390162205,0.000945665260277632,0.0006400739056781759,0.00031875913469508446,-2.471287670973235e-05,-0.0004220136544674122,-0.0008953427300822991,-0.0014129297200500667,-0.0018713645192353925,-0.0021280129976331426,-0.0020711313785498737,-0.001684360743224511,-0.001061915971386925,-0.0003631981758417292,0.0002633471982565332,0.0007385667136385605,0.0010612960682280397,0.0012730621731944889,0.001412876499440346,0.0014950426329219837,0.001516629680501227,0.0014745980437967056,0.0013688719416174759,0.0011882590500531926,0.0008993210955570228,0.00046021054377160366,-0.00014101577140792102,-0.0008504813831468747,-0.001547102524246465,-0.002085256244813944,-0.0023581508514394583,-0.00234192308044774,-0.0020932535040251838,-0.0017052541045440759,-0.001253491022052185,-0.0007673863934416301,-0.00024133160453524517,0.00032885928951370785,0.0009144234304203691,0.00145040009045758,0.001861132769281411,0.002093928417775066,0.0021364257644265593,0.002008573603299834,0.0017417237413016142,0.0013668138278304953,0.0009221217411066333,0.0004683243556179585,8.606973362278511e-05,-0.00015687982542398108,-0.00025324138488396755,-0.0002818129734256528,-0.00038142086914859374,-0.0006771365580020461,-0.0011988680977735422,-0.0018432250906821757,-0.0024055415779341517,-0.0026670957294606537,-0.0024918907106012194,-0.0018856309583601594,-0.0009925672519347337,-3.63230186775518e-05,0.000766407300538226,0.0012815458799356344,0.0014912671904056855,0.0014744050787498162,0.001349197578500452,0.0012123760959364288,0.0011063266039497152,0.001024672029957559,0.0009415553881360016,0.0008382344530336195,0.0007087698418560569,0.0005466578465382185,0.0003303283269670103,2.582543388541603e-05,-0.0003892625587731983,-0.0008941706802438242,-0.0014080934979646684,-0.0018050679692251297,-0.0019599187481739405,-0.0018041838658528998,-0.0013610313043369551,-0.0007376741787867198,-7.870097738077171e-05,0.0004925621804772076,0.000912255984209859,0.0011780040010047153,0.0013239945690530497,0.0013921972812195134,0.0014162761505154015,0.0014168965730233215,0.0013963772568882202,0.0013273256738701106,0.0011463134279924032,0.0007715335543870931,0.00015092101068291857,-0.0006795086451568499,-0.0015672095615661221,-0.002277335285913478,-0.0025866105270221655,-0.0023918843098441507,-0.0017710629589073284,-0.0009564122315103619,-0.000229494979743746,0.00020792648541545684,0.00031955022043962797,0.00023445963107760208,0.00016585276342666365,0.00029450541459331587,0.0006774569411940846,0.0012246833840543953,0.0017480588219367897,0.0020495747649120475,0.0020003980760344166,0.0015763933550342114,0.0008471870845148421,-5.9056256977556244e-05,-0.0009904882293630664,-0.0017968594473099485,-0.0023505298512495284,-0.002568420921688858,-0.002429311366275953,-0.001974650941621304,-0.0012891314003846922,-0.00047275557783453467,0.0003774284406406551,0.0011684608585795324,0.0018061392486143,0.002201869251910566,0.0022997520910421473,0.0021106245910794603,0.001725316772509724,0.001286233550701991,0.0009234983244893447,0.0006904688374858785,0.0005400130641248596,0.00035958685804959867,4.5359354613854364e-05,-0.0004297984030105992,-0.0009952161524491307,-0.0015187914859755777,-0.0018766209072831573,-0.002014129437668326,-0.0019649127800098875,-0.0018197654964554515,-0.0016669130535020282,-0.0015394944597752979,-0.0014001729214791654,-0.0011698990007444816,-0.0007821324905639826,-0.00023012878252898846,0.0004193570783520466,0.001051857977178119,0.0015541858094417554,0.0018598351924749696,0.0019691800455506926,0.0019378996151067835,0.00184277201088818,0.001743273934402496,0.0016570296941475543,0.0015579565312258373,0.00139372047477908,0.0011117324012836433,0.0006836616247607257,0.00012276400601797196,-0.0005103134299103596,-0.0011189031965430213,-0.0016012238446095634,-0.001891126958996457,-0.001986006293921642,-0.0019402209016637494,-0.0018232554682665264,-0.0016692753597396383,-0.001455561235115435,-0.0011291427455506174,-0.0006647169658327351,-0.00011010404434719343,0.000419075963038967,0.0007975735929813994,0.0009635258915089901,0.0009557518766311238,0.0008890721011700051,0.000883045256183798,0.0009881489437416182,0.0011521788713935758,0.0012440973471732606,0.00112139745904472,0.0007070032220146617,3.941771664244648e-05,-0.0007271952861633581,-0.0013747643976682637,-0.0017043990879795766,-0.0016154560719397856,-0.0011449135088338921,-0.00044824773353036994,0.00026898045757618966,0.0008348760242626803,0.0011696909863136884,0.0012942517990105432,0.0012917330880239427,0.0012493177298918026,0.0012120187937006942,0.0011690524268342353,0.001072911266293315,0.0008740462491444401,0.0005481017250790316,0.00010092280710904955,-0.00044549099962055126,-0.0010674929582156119,-0.001736320631182326,-0.0023962167020315176,-0.002945729651047515,-0.0032492499885330046,-0.0031859309858445896,-0.002711656550034365,-0.0018933696466115972,-0.0008897063864076033,0.00011286286276617776,0.0009707988593309531,0.0016224070495924443,0.0020799269806768975,0.0023892572145206956,0.0025874166889913153,0.002682593081523411,0.0026624295294426074,0.002517458670507349,0.002260054826905518,0.0019264495116653145,0.0015620992681591168,0.0011994048319766478,0.0008383762352304528,0.0004389194793335235,-6.850776167705084e-05,-0.0007507552717595355,-0.0016246015218292192,-0.002614230780393014,-0.0035421635256270203,-0.004173520743808225,-0.00430575956806529,-0.0038637989257406065,-0.002947038984604375,-0.0017947164733642653,-0.000681546241344012,0.0002011928063022296,0.0008126908582249445,0.0012417827706736632,0.0016161958333206785,0.0020023909178593226,0.0023597388852941827,0.0025744110427272163,0.002544623300856184,0.0022569735598227856,0.0018044990036515949,0.0013395493486855737,0.0009956333983731516,0.0008249341748335216,0.00078048674391747,0.0007434234528389275,0.0005765101648278913,0.00018136380262123838,-0.0004586871289207952,-0.0012628991376589954,-0.002071831777441999,-0.002697700641190772,-0.002988916001680244,-0.002880670075956027,-0.002408049010508691,-0.0016794734132546795,-0.0008318721942629502,4.6393043158230165e-06,0.00072085537239727,0.0012320834915559797,0.0014888581964549578,0.001497667258687706,0.001333976294882291,0.0011247799995085478,0.000995427503770223,0.0010028355113477693,0.0010937526825053126,0.001119390870870336,0.0009085783148135941,0.00036630788408330403,-0.00045550853820081256,-0.0013583193000166938,-0.0020741895557736417,-0.002382343601253151,-0.00220425652721859,-0.0016287527441368388,-0.0008580385175220652,-0.00010782194236835644,0.00048421079978685046,0.0008963916581233525,0.0011939513384254124,0.0014558869582011658,0.0017043669510318977,0.0018808370651549535,0.0018841375362816703,0.001645840610601651,0.001192011682097852,0.0006474620436488548,0.00017528466366624116,-0.00011312331317213581,-0.00022255037334708292,-0.00027324107376120604,-0.0004344020738844793,-0.0008290774119614183,-0.001461742504917843,-0.0022049797519933787,-0.0028487447143629506,-0.003184622685364448,-0.0030841725959638673,-0.002539170439606612,-0.0016539885158833164,-0.0006023067873383928,0.00042901530158492287,0.001288573402685747,0.0018905049141103754,0.002223088347176617,0.0023369625720486985,0.00231676934110475,0.002244377315279412,0.0021666300807305413,0.0020812714309571597,0.001948034217225876,0.0017193981760877284,0.001373878954992718,0.0009317844162666381,0.0004427269496121355,-4.800331604492766e-05,-0.0005310135448076806,-0.0010367648755326539,-0.001603189835147977,-0.002225548648478296,-0.002824470166100049,-0.0032596950537196892,-0.0033870702246416706,-0.0031270364458923145,-0.0025055198412143936,-0.0016461178642318106,-0.0007207409429477838,0.00011463087993601932,0.0007701626914111522,0.0012398463002656472,0.0015825783535260006,0.0018765284043437474,0.0021682431779521186,0.0024420228585043647,0.002625691583788498,0.002628199549883346,0.0023857372401644827,0.0018900161278660975,0.0011869236749244606,0.0003544446393559155,-0.0005195500789538504,-0.0013443162988487896,-0.0020206831587434174,-0.0024415394098012432,-0.002515619779760481,-0.002210985574599534,-0.001590559884628911,-0.000807632748242306,-5.249096533992884e-05,0.0005239117255134511,0.0008648576532265181,0.0010100618560278725,0.0010481920144396176,0.001052454578694442,0.0010382046697922926,0.0009643747185717456,0.0007733290899844666,0.000441519541031438,7.0214640829966e-06,-0.00044560367777337836,-0.0008338155826768251,-0.0011246107718624115,-0.001344940071628489,-0.0015444384649267884,-0.001735485987052584,-0.001855217176458766,-0.0017821914686301703,-0.0014039253244095438,-0.0006953338463662856,0.00024228034323619713,0.001209144938665367,0.001988517619238137,0.002436805528377037,0.002534215506535663,0.0023726975851194425,0.0020934495517201607,0.0018116335742710341,0.0015688529284088762,0.001334705429524101,0.0010487616027521564,0.0006709169044566777,0.0002059738004970858,-0.00031041669558202274,-0.0008472993222141732,-0.0014017882933711398,-0.0019865964763635803,-0.0025876023014942406,-0.003124498241787302,-0.003451380868910268,-0.0034100727780127945,-0.0029126728727415087,-0.002006179041145574,-0.0008773116840696572,0.00021286013784633335,0.001035514029123262,0.0014879227354456402,0.001624918317634141,0.0016115270214871432,0.00162453765753215,0.0017592710440187285,0.001992143934228129,0.0022134885001975652,0.002302763757696488,0.002197160699758353,0.0019157732215373583,0.0015335582835379336,0.0011287951820998555,0.0007374286892199029,0.0003373750134112941,-0.00013251293281295708,-0.0007296800141344826,-0.0014612090424657082,-0.0022554802930278336,-0.002968694048374232,-0.003428460444426583,-0.0034980999196407153,-0.0031325815163973786,-0.0023993231038970143,-0.0014544388511230912,-0.0004869748440867399,0.0003429878321628459,0.0009476459103383214,0.001322876533776039,0.0015279300859329015,0.0016446198732949335,0.0017344714576155982,0.0018133988678784474,0.0018548479063514992,0.0018156698784090137,0.0016648527033968298,0.0013957902786848565,0.0010188133497676536,0.0005482267654536805,8.210431792537087e-07,-0.0005913181727157126,-0.0011674443120383115,-0.0016408010930098348,-0.0019210853957220598,-0.0019450634723935335,-0.0016991731363486147,-0.0012257413462046045,-0.0006146238004366179,1.4750382239996605e-05,0.0005392096165463046,0.0008650311430180868,0.0009612722615165751,0.0008764481104989558,0.0007216710637158969,0.0006192246323581928,0.000638988891302062,0.0007583848751647043,0.0008719611978601948,0.0008479030183911239,0.0005992146681827047,0.00012804325193188583,-0.0004801780624299008,-0.001103014485140465,-0.0016334109273128182,-0.0020048547492392014,-0.0021810805041028924,-0.002131545655399577,-0.0018242090579354466,-0.0012497725671091644,-0.000460709873251855,0.00041060912099248257,0.0011816399420840494,0.001692366553541072,0.0018824783545670063,0.0018231971421811461,0.0016765002573420284,0.0015996998456930434,0.0016514360267439715,0.001758061748887822,0.00176263474318456,0.001526067662029776,0.001016670556153456,0.0003323820569457652,-0.00035627334109076874,-0.0009041588034388473,-0.0012680551451866977,-0.0015158759512227476,-0.0017665383378681575,-0.002100231511458203,-0.0024938686814922717,-0.0028189592608764847,-0.0029021383288183322,-0.002614406910711398,-0.0019418061372064458,-0.001002009025701375,9.996032427996883e-07,0.0008624075186294143,0.0014607333637754985,0.001797651891901671,0.0019713601699514463,0.0020985147557237484,0.002232935295901001,0.00233400991242102,0.0023058125933120266,0.0020786996996335393,0.0016738927658348959,0.0012024675260864225,0.0007965017728099172,0.0005188032892282839,0.00031437608414624813,4.0513577607410005e-05,-0.00043907996885672444,-0.0011539290031927609,-0.001984522202540429,-0.002707052500455153,-0.0030994241272471594,-0.003045542598814674,-0.0025793522223431765,-0.0018507147116140262,-0.0010426505840798908,-0.00029325970384421846,0.00033578331847180164,0.0008375859257302317,0.00121362778772224,0.0014435747595606054,0.0014956313138691235,0.0013678700285369527,0.0011235723369763541,0.0008830320767133997,0.0007636389245118747,0.0008009835407450689,0.0009065077915045811,0.0009015358521917828,0.0006194782385945436,1.8927430992751217e-05,-0.0007643717257858063,-0.0014657955316695304,-0.0018184904742915135,-0.001686901424069655,-0.001130150675953108,-0.0003611719643398332,0.0003684288801612946,0.000884641925022646,0.0011417019483218964,0.0011904821359506983,0.0011044177972507605,0.000924496794619784,0.0006590039804078227,0.00032417244824287615,-2.128842276739049e-05,-0.0002871613543039681,-0.00040721800791667696,-0.00039769639563696146,-0.00036829495205411254,-0.00046615525718316604,-0.0007821617346514128,-0.0012792152909281347,-0.0017909414705538516,-0.0020950772564622645,-0.0020204476058461166,-0.001529164340902577,-0.0007329935177858137,0.00016038415203270843,0.0009409098238671628,0.0014819925284165238,0.0017770837528534506,0.001911822465581185,0.0019920018229649815,0.0020725674039583433,0.002130111523740541,0.002090668854487149,0.0018869929130770904,0.0015022671449012924,0.0009722229638294158,0.00035185581885931595,-0.00032078280001062386,-0.0010326375905028102,-0.0017706060487202072,-0.0024868659915621132,-0.003086093739631441,-0.0034491635893447725,-0.0034806369692088252,-0.0031502478402746417,-0.002503291707354729,-0.0016369381478611618,-0.0006621068965756928,0.0003232394007786892,0.0012373675458855113,0.00200396546248053,0.0025475866921059035,0.0028079035879706167,0.0027663307280143402,0.002464964997161598,0.0020011461267480718,0.0014978062319712547,0.0010649871360651816,0.0007695620834757364,0.0006208408586722211,0.0005711104658524276,0.0005289596406766893,0.0003854722754608815,5.1707562164570765e-05,-0.0005014877259831025,-0.001218069220640474,-0.0019626757652219766,-0.0025626434689268998,-0.002870963993467036,-0.0028198865390655385,-0.002437524645927008,-0.0018214115887760932,-0.0010893816013425829,-0.0003396750959023077,0.0003602433888184878,0.0009619879386246034,0.0014236604900294929,0.0017126953462756377,0.0018208012092174224,0.0017732075963047406,0.0016179604480309603,0.0013988707940985829,0.0011318897781955194,0.0008044324854620385,0.0003996628686277178,-7.26377136152233e-05,-0.0005626481268251238,-0.0009943378271461086,-0.0012948437353604374,-0.0014179593546325172,-0.0013498651990008082,-0.0011030160907630144,-0.0007120828377614814,-0.0002371722108221138,0.00023539499356095084,0.0006090487471652004,0.0008116235381582767,0.0008313502628496599,0.0007283709280170778,0.0006078708502754295,0.0005657712341782632,0.000637287906185325,0.0007779764603714367,0.0008867023830610806,0.0008550864823569707,0.0006154381695198113,0.000165282217129456,-0.0004362971485281007,-0.0010904041280269566,-0.001683903082176137,-0.002110400954121821,-0.0022868375725279165,-0.0021691252464751216,-0.0017656226922510084,-0.0011405641215067714,-0.0003998860197542778,0.0003385289001673228,0.0009770763652115337,0.001457636717744648,0.0017613500864698125,0.0018956396393220597,0.0018812476418232826,0.0017465940759151823,0.001526271719213358,0.0012560888174309743,0.0009628993411047843,0.0006564133192219646,0.00033173395369649967,-1.7259637891826538e-05,-0.00038435948367927884,-0.0007496706883967131,-0.0010920572656708575,-0.001402963610289017,-0.0016858669649307536,-0.00193775958410919,-0.0021262401832905643,-0.002182528102615371,-0.0020216233031630144,-0.0015836809350025108,-0.0008767254009046663,3.0964551993003576e-06,0.0008893432315393776,0.0015987632122806904,0.001998480161678023,0.002055696328076723,0.0018461518294795706,0.0015171916426968204,0.001222194243323608,0.0010558354892994406,0.001019438859559411,0.0010322081648566034,0.0009822334667144296,0.0007908155235301035,0.0004558687344599252,5.013671512980086e-05,-0.0003261405220430879,-0.0006116697177347516,-0.000827995724527702,-0.0010676380464979252,-0.0014259109262494117,-0.0019152688621216344,-0.0024194970631397856,-0.002725668928755123,-0.0026245729262567193,-0.0020263174442963464,-0.0010255299785093827,0.0001232805707857337,0.0011110799311298816,0.001707378421900564,0.0018528332755535083,0.001665744489962516,0.001364391015396227,0.0011512825842627577,0.0011205285911946605,0.001230367788432127,0.0013450483193550265,0.0013161935772778004,0.0010591826196608123,0.000588693890399284,2.479111765387094e-06,-0.0005702206455314453,-0.0010238873035840759,-0.0013078698806651596,-0.0014246487532747019,-0.001406360947350558,-0.0012885921119546227,-0.0010942184419893862,-0.0008295726687761759,-0.0004906115764453604,-7.76117500775077e-05,0.0003850323413520045,0.0008348258597763441,0.0011781791776015586,0.0013243777427510985,0.001232273733350248,0.000940120529026607,0.0005539334687370335,0.0001951441588904112,-6.294789636251594e-05,-0.00022986898756158604,-0.00038057431926620186,-0.0005964009741645343,-0.0009024609206983467,-0.0012419544954259977,-0.001502977595653412,-0.0015784258050825636,-0.0014193140162810456,-0.001050134761592393,-0.0005438835262545879,1.9118747013739754e-05,0.0005795121975411032,0.0011014666356052238,0.001557594997455943,0.001913581517141422,0.0021247608491952895,0.0021460901894592784,0.0019495806681577104,0.0015409453456545017,0.0009671162492168277,0.00030815884268175624,-0.0003463107563617643,-0.0009259313042363153,-0.0013973129223464656,-0.0017595946069061074,-0.0020210913427340074,-0.0021731137776916784,-0.0021791253001478958,-0.0019879784984547055,-0.0015655182170125452,-0.0009274979564977139,-0.00015435179439028538,0.0006235128896915428,0.001266262435632064,0.001673418648431382,0.0018181407110572857,0.00175093688654453,0.0015714794210488026,0.0013820691274514974,0.0012439291673390876,0.001154925865534561,0.0010566974928480945,0.000866152813031771,0.0005168170579691112,-7.4755860758697525e-06,-0.0006606784431784233,-0.0013493700139504835,-0.001965850054614321,-0.00242037883196906,-0.0026555596597429365,-0.002641539887627495,-0.002366461809283051,-0.0018373737719303003,-0.0010925622841488102,-0.0002119475458954401,0.0006884677862013674,0.0014801237012855382,0.0020533553447732713,0.0023441124412100977,0.0023482477545778975,0.002120744499521011,0.0017595335301706617,0.0013759965897790958,0.001059018857303014,0.0008441449289081343,0.0007001195616810704,0.0005405316428323695,0.0002599923338653617,-0.00021517799093905368,-0.0008799087531197475,-0.001628790535010638,-0.002276610508361707,-0.0026212659363924456,-0.0025264405000044957,-0.001985387950388063,-0.0011315493060779535,-0.00018814613702048213,0.0006178351050067316,0.0011340449325960842,0.0013195323446485588,0.0012329821680794391,0.0009897915127700674,0.0007126423683295785,0.0004925941823609938,0.00036667140321687856,0.0003123947444019523,0.0002599735726820204,0.00012267420047908355,-0.00016032845457329258,-0.000584408313123752,-0.00106383945692007,-0.0014529659955725778,-0.0015998365412197442,-0.0014111133203425327,-0.0008991615120684863,-0.000186689982520673,0.0005386402033854478,0.001102133460292767,0.0014144679197216218,0.0014998118197042793,0.001464298843628916,0.0014240348500419886,0.0014353826111532914,0.0014676153399440387,0.0014307495640954336,0.0012369350660779827,0.0008546217713768234,0.0003231816262361997,-0.00027527627044272775,-0.0008619336780687293,-0.0013921485551620484,-0.0018535349570525765,-0.002238925057855401,-0.0025190581505788274,-0.0026381646272206367,-0.0025376886933530015,-0.002192356681972392,-0.001633384830077838,-0.0009421248997632364,-0.00021744836020343253,0.0004625663563259688,0.0010611882288073132,0.0015750269420037118,0.0020057852542602543,0.0023332221381374574,0.0025098994166545237,0.0024840470709760762,0.0022377877864444623,0.001815581004466447,0.0013203547966412505,0.0008723069729569292,0.0005485384017747804,0.0003368206001275538,0.00013370482474840163,-0.00020430962769549016,-0.0007772613335874467,-0.0015682735972595485,-0.0024230574530737254,-0.0031004179908244406,-0.003372378763840594,-0.0031222628402426964,-0.0023899434933984955,-0.0013464958311164748,-0.00022157567786553194,0.0007735007067146201,0.0014950929888087369,0.0018826921285624667,0.001951661750772983,0.00177555854038078,0.0014630723859850642,0.0011301298216129356,0.0008698234669605657,0.0007278270621786623,0.0006926817630819595,0.0007055000012487813,0.0006846311691170664,0.0005542532811388459,0.0002667852554183662,-0.00018413073354715652,-0.0007577729129018423,-0.0013664942952226111,-0.001886087365419175,-0.0021819678891819494,-0.002149887842112774,-0.001758625930023232,-0.001074719741397515,-0.00025197825046408776,0.0005176212589842312,0.0010749219254294487,0.0013540374700795298,0.0014002067433254418,0.0013331895103210127,0.001274695089895671,0.0012800349066645334,0.0013120481287003409,0.0012696373323539429,0.0010505487088146033,0.0006097657258087052,-1.7840386326043074e-05,-0.0007360718952094314,-0.001427595302898682,-0.001988998335412837,-0.002346442632447457,-0.0024562642056111844,-0.002303360334665747,-0.0019038216026018389,-0.001306781274452662,-0.0005870714723749047,0.00017198814800868867,0.0008966362151200816,0.0015312958411736876,0.0020357281365402232,0.0023779800717837083,0.0025324499209763056,0.002486358498329169,0.002249857011873333,0.0018611880220293791,0.0013803336083090766,0.0008705690925639417,0.00037482283986901214,-0.00010074370111631467,-0.0005845606908485937,-0.0011165807919969449,-0.001714069483756282,-0.0023430778849393282,-0.0029107168933084513,-0.003285136819287454,-0.003339389682880357,-0.0030045184147244513,-0.0023090949935682765,-0.0013826747887508422,-0.0004141348748651957,0.0004206298732197885,0.0010269846920283867,0.0014193050199397214,0.0016924856586597297,0.001953269246837037,0.002250432775433842,0.0025431458436555674,0.0027247959058392763,0.002688081993966643,0.0023935693790057564,0.0019013409398498818,0.0013456436139908875,0.0008642037932583889,0.0005197318821524221,0.00025790777548693664,-6.961304725271438e-05,-0.0006210508875813172,-0.0014583921291886207,-0.0024778060126121383,-0.003423148056342015,-0.003986644764138036,-0.003949610691501369,-0.003288385618429591,-0.002187265677230318,-0.0009526220313880321,0.00012269440582184994,0.0008722819084311349,0.001293548071653128,0.0015024871250689266,0.001641989604014757,0.0017975686436264434,0.001961702632759755,0.002056287237010226,0.001991032752875007,0.00172024866315221,0.0012672784881099732,0.0007084459064753968,0.00013215596916290868,-0.0003996815896017398,-0.0008658069293078582,-0.0012697709775194056,-0.0016071718499902046,-0.0018403532832570514,-0.0019016949703365483,-0.0017282001208212454,-0.0013069764378415747,-0.0007005290311181387,-3.2246160659455347e-05,0.000561703912164823,0.0009868769586327127,0.001222336562920169,0.001316186912106075,0.0013512624210756784,0.0013992711704664221,0.0014825418933111434,0.0015571995460254397,0.0015249562872615505,0.001272816206531578,0.0007290927988757629,-8.715750637722317e-05,-0.0010496022817981076,-0.0019555847521350246,-0.002595073709059821,-0.0028261330340152825,-0.002621188894261206,-0.0020652167497448347,-0.0013128451633265508,-0.0005293042249613611,0.0001585560461393287,0.0006864010756766326,0.0010507383824566385,0.001288965612463906,0.0014510534426059086,0.0015722113965887107,0.0016544242507224346,0.0016621518101711205,0.001533619150073906,0.001205157289925267,0.0006428944357634805,-0.0001268209664795877,-0.0010001187699835983,-0.0018046581927965127,-0.0023426536463937646,-0.0024597308309957516,-0.002111436142787421,-0.0013903356871413596,-0.0004921503585163581,0.0003653404665612432,0.0010263373393500277,0.0014387885224849076,0.0016385341522073891,0.0016965615315678157,0.0016659911493400374,0.0015557923296908233,0.0013375610115732117,0.000975545061781053,0.00046291908583663067,-0.00015369420930085097,-0.000775464341996771,-0.0012820557592691268,-0.00158059452057968,-0.0016491818668461868,-0.0015493443171666417,-0.0013946185303833447,-0.001286299124842086,-0.0012500942788494156,-0.0012132680393759,-0.0010421886158278899,-0.0006233466554037722,5.939818335690822e-05,0.0008990782135194098,0.001707065343417245,0.002295508388910267,0.0025527638658256737,0.002474364940378893,0.002142576592745125,0.0016752757046133572,0.0011746953766438625,0.000698009414508855,0.000254659158902394,-0.0001782383419692713,-0.0006342941792264446,-0.0011369310244237086,-0.0016807226456538663,-0.0022170810056863746,-0.00265125399575602,-0.00285939517579577,-0.002727258648526438,-0.0021986239151989707,-0.0013122171031239634,-0.00020854256871178094,0.0008995620889014577,0.0017849782809911494,0.0022753105963160534,0.0023097739095968633,0.0019612184077049096,0.001409606758639723,0.0008711734987086307,0.0005084761611198532,0.0003609564085124534,0.0003336003729368228,0.0002574730229304768,-3.2342891766300326e-06,-0.00045612346481872486,-0.0009576673687281181,-0.0012842732380765076,-0.0012608528452930086,-0.0008703289285244306,-0.0002748083717986935,0.0002679882077719284,0.0005442371936105885,0.0004959143807565141,0.00024029212597022342,-8.819639999318486e-06,-6.498589531266953e-05,0.00013587857645915025,0.0005170986336208256,0.0009159301176032603,0.0011678482323274736,0.0011705830117853342,0.000902472141911353,0.00040336566865104744,-0.0002538743990299166,-0.0009778244139073337,-0.0016574455796046718,-0.002164274962583865,-0.0023772605176237017,-0.002228865701439349,-0.0017460184008909092,-0.0010530536625729333,-0.00032484707587793096,0.00028736884241347424,0.0007142230376150822,0.000977181215887221,0.0011487288956987148,0.001295616806369638,0.0014426945157136435,0.001573385360573683,0.0016545189191209068,0.0016605988925007726,0.0015813628800288842,0.001414365626648953,0.0011552223524563202,0.0007960335385547182,0.0003332217630097122,-0.00022123808343935808,-0.0008324236758851815,-0.0014431220186294903,-0.0019825279527471945,-0.0023794065246548236,-0.0025747609568010817,-0.0025307816017342806,-0.0022363273449438545,-0.0017109438993880926,-0.0010073522866108154,-0.00020889557296667602,0.0005815993311188133,0.0012607199428139437,0.0017457970181401937,0.0019923320346716014,0.002002660266323059,0.0018229134469873302,0.0015284983621675118,0.001202941321125485,0.0009172758982916287,0.00071402173444697,0.0005952129722320857,0.0005153467209403541,0.00038738818803413146,0.00011245169730469701,-0.00036816478837324845,-0.0010215900017272331,-0.0017085891975449645,-0.0022287937995310245,-0.002413021506963037,-0.002212836770780868,-0.001729534215650086,-0.0011577134485574055,-0.0006740196729488562,-0.00034109674871891357,-8.996075388160638e-05,0.00020785938526601887,0.000629543956035999,0.001131113712400555,0.0015696977904694084,0.001802269510415488,0.0017881109098223658,0.0016182368015319687,0.0014480522130368234,0.0013804714644248324,0.001383474031758607,0.0013027801009168286,0.000964610805346955,0.0003014743970300108,-0.0005823513631242464,-0.0014492104307717135,-0.002046088659434762,-0.0022288251856324485,-0.002020221090999789,-0.0015759066126411517,-0.0010881542341847896,-0.000688414650408038,-0.0004008594890024706,-0.0001634344520699692,0.00010643967566829416,0.00044618928911907335,0.0008213534015126306,0.001148308883007348,0.0013441409819088292,0.0013659326858285331,0.0012144430933111806,0.0009080431410948523,0.0004571441875674039,-0.0001328903508262683,-0.0008293139235537113,-0.0015381981592264599,-0.002104796812798575,-0.0023623333465395326,-0.002207995871068475,-0.0016605900923293898,-0.00086053238508661,-8.369736771026391e-06,0.0007216351059229314,0.001241852289735522,0.0015568712992035522,0.0017249764499306388,0.001810322834583134,0.0018544997750646595,0.0018724562652061062,0.001860108590183768,0.001800723877606341,0.0016673880748637976,0.0014263416847648165,0.0010451375222009637,0.000504696039697334,-0.00018842339647733236,-0.0009928546547364916,-0.0018292752462519854,-0.0025870107806333356,-0.0031434174142009027,-0.0033940975337393934,-0.003284761636576508,-0.002831675222884652,-0.0021207128469135994,-0.0012834267101629509,-0.0004579035916603694,0.00025103430736067263,0.000796279164025987,0.00118752714145363,0.0014671939724337528,0.0016773112892909964,0.0018354158761392622,0.0019305547467596501,0.0019379837235004105,0.0018412158851502623,0.0016476676803951265,0.0013887828820585263,0.0011041760891870843,0.0008186057890444454,0.0005260384288189277,0.000192376996960397,-0.00022201875282529498,-0.0007303586612597104,-0.001293724142874193,-0.0018157259468310732,-0.0021656547360970847,-0.0022278833265290156,-0.001959406605845023,-0.0014234598710093488,-0.0007710680242875019,-0.000171683050691869,0.0002680892483869991,0.0005446056980830682,0.0007297957046676122,0.0008989105094198498,0.0010679120285287695,0.0011847162258129575,0.0011760423994276383,0.0010107270342144246,0.0007304876722922151,0.0004252233628838649,0.00017178089169642098,-1.757670438981172e-05,-0.00019762102357251572,-0.0004402695906075356,-0.0007680170622365516,-0.0011192936231910248,-0.0013719050267267299,-0.0014097180147335047,-0.001188099032419591,-0.000755771601534927,-0.00022183004531293383,0.00030609032265076355,0.0007689845967129981,0.001159278518349929,0.0014839172085939919,0.0017215751338209425,0.0018100402413160014,0.0016748649366160728,0.0012790652104871475,0.0006590906434562941,-7.794269321942176e-05,-0.0007958547731604465,-0.0013857126077197852,-0.0018029517120398799,-0.0020628503096323703,-0.0021994310725287165,-0.0022186284362663176,-0.0020807725703972106,-0.0017257781320591716,-0.0011235363826139627,-0.00031492020454232253,0.000584288797192749,0.001420675983816707,0.0020612244166294397,0.0024399160235146246,0.0025681054759415763,0.0025061715890675705,0.0023176224838976907,0.002036432136612773,0.0016669429995499496,0.0012106326218778943,0.0006934888086026869,0.00016784105463951617,-0.00031557104106781034,-0.0007426184489992167,-0.0011462101463667117,-0.001578450495543162,-0.0020617210112350327,-0.00255384693446134,-0.0029529393492226724,-0.0031391228808253253,-0.0030264063621711856,-0.0025956708148393358,-0.0018969533283942374,-0.001029049240843678,-0.00011211907645380763,0.0007365604750068332,0.0014225113654006572,0.001891485336269572,0.0021419822681380688,0.0022246191502731617,0.002220669930393997,0.002202656421311003,0.0021949576970773143,0.0021593759137007234,0.0020198995959307448,0.0017162288134092351,0.0012533278551405238,0.0007117166318116458,0.00020567127080210247,-0.0001881135011371923,-0.0004841531331428357,-0.0007829204511764372,-0.0012026204002325005,-0.0017881448250803835,-0.0024564301625753493,-0.003015998319791333,-0.0032513712921772254,-0.0030236671743800367,-0.002332653961638515,-0.0013129697305521372,-0.00017617898312613078,0.0008647178190085055,0.0016525825084161298,0.0021095007417155955,0.0022324333996489813,0.0020767707012984324,0.0017375039251053522,0.0013264256201077692,0.0009408041126985716,0.0006290286918954005,0.0003716988916266663,9.66407678441967e-05,-0.00027213255656225187,-0.0007563789627362647,-0.0012924181041098646,-0.0017488634283240974,-0.0019849780689176937,-0.001915884047460202,-0.00154821533643072,-0.0009702838313335816,-0.00030838082368321324,0.00032310598045917974,0.0008531127805360542,0.0012580048437038447,0.001545477410315706,0.0017327078473829056,0.0018308914123387567,0.0018404589218149626,0.0017539104499697496,0.0015612186181831137,0.001256120550318237,0.0008446527730773814,0.000354926801611496,-0.00015863824578753253,-0.0006255268920530608,-0.0009862310557499881,-0.0012255428390571972,-0.001390043923747421,-0.001569567315726167,-0.0018421385752579482,-0.002209740209811684,-0.0025671116668785675,-0.0027323802044391552,-0.0025319233031780315,-0.0018960234150375668,-0.0009110054104484688,0.0002042445562796079,0.0011874168544248956,0.0018413550289846379,0.0021069266264304868,0.002067206346780095,0.0018879805885568116,0.001730631409796032,0.0016820593402176096,0.001731655345094631,0.0017984472512138378,0.001786981437819697,0.0016393098037778108,0.0013566787076256545,0.0009839044968489711,0.0005708549822787063,0.0001369665049405647,-0.0003391056432277852,-0.0008981653668220821,-0.0015591013345525738,-0.0022805744656274776,-0.002948545823469188,-0.003400988235351913,-0.0034839451717985203,-0.0031172050004289373,-0.0023398884832793758,-0.0013111507193329247,-0.0002595595637526593,0.0006003159388441675,0.0011469712066496654,0.0013889619542297262,0.0014416439458866583,0.0014557559958517205,0.0015352790921174006,0.0016883048797888863,0.0018365873027896278,0.0018751047533613933,0.001742416358278864,0.001456754918017264,0.0010971029768448955,0.0007461830492019019,0.000436492636053366,0.0001355413678640742,-0.00022154330059908104,-0.000674594398922418,-0.0011933713999721816,-0.0016736751117892809,-0.00197823458720766,-0.0019996445001416617,-0.001710922346189846,-0.0011783437805272944,-0.000533522264025854,7.775661633840653e-05,0.0005446701013790692,0.0008190103973248139,0.0009146974407115128,0.0008848174257822545,0.0007892814488445398,0.0006673444190749391,0.0005247950089789398,0.00033825107747108025,7.251102644929971e-05,-0.00029603583277583684,-0.0007570525165254798,-0.0012521221755138418,-0.001676661064964445,-0.0019035011364055218,-0.001825237158798434,-0.0014001643387785059,-0.000679422525800959,0.00020159730968053596,0.001067371663184783,0.0017624828026027851,0.002199457152793786,0.0023729764416696984,0.002338429270398245,0.0021712815816205258,0.001930568397071513,0.0016431278372754017,0.0013110934033046054,0.0009317710502454077,0.0005131125093556276,7.31087291349653e-05,-0.0003750827164867819,-0.000837956308107181,-0.001340402202942265,-0.0019033292023222944,-0.0025110678841909974,-0.0030893962843055456,-0.003512097964333133,-0.003639057145506594,-0.0033705179828600884,-0.0026919045451607258,-0.0016880932884794338,-0.0005213892323421825,0.0006167114631518064,0.001561111527104915,0.002216155681952865,0.0025711564386370804,0.0026839444307769403,0.002642046468584471,0.002521506669871046,0.0023624337585445446,0.002168555185306117,0.001924541973910306,0.0016182193404379519,0.0012559244288667787,0.000864396995195792,0.00047920667261146894,0.00012666676515858699,-0.00018986222146746986,-0.0004912941198857714,-0.0008121696775756449,-0.0011850524433943467,-0.0016261829929439203,-0.0021231819606466907,-0.002623995812811493,-0.0030323653006696983,-0.003221517341669159,-0.0030728236607592703,-0.0025286508492852245,-0.0016324329016065065,-0.0005298257285435053,0.000575460417424899,0.001491940853397658,0.0021026977249304474,0.00239061817845478,0.0024186326230306934,0.002281491875078514,0.0020582930094956023,0.0017890708551958812,0.001480207865139499,0.0011258398770937414,0.0007267254325034479,0.00029522745884659176,-0.00015202748932169926,-0.0006024424786469572,-0.0010446555854245311,-0.0014523576726904095,-0.0017670654834300514,-0.0018999894309291877,-0.00176417170926486,-0.0013253897509543624,-0.0006410488496980535,0.00014227324452877995,0.0008386084071616279,0.0012967664029909353,0.0014609494319674878,0.0013865869065238013,0.0012025740376069942,0.001037258688875962,0.0009445468070706706,0.000870120592760483,0.0006812065525158182,0.00025004681484954534,-0.0004528042016030925,-0.0013114058447131168,-0.00209740414047291,-0.0025707025405739777,-0.0025938043376311764,-0.0021956435736965813,-0.0015493128636114982,-0.0008778705877146078,-0.00034248690667013277,2.592520260879898e-05,0.00031816238080281363,0.0006714007069047571,0.0011718385007129977,0.0017889667494403196,0.0023762376906639833,0.0027376039665320383,0.0027255663071798653,0.002320007289743661,0.0016460768286580515,0.0009200494774023768,0.0003494011873319777,3.73750645061852e-05,-6.0525698336415246e-05,-0.00010829737235476446,-0.00030542302159886113,-0.0007875040853162719,-0.0015553112632901555,-0.002461432559219108,-0.00326003090559464,-0.003700196584266175,-0.0036241015588940745,-0.003026688969343877,-0.002050224594515754,-0.0009191313796029451,0.00014983637861450106,0.0010179321036192922,0.001646865267680808,0.002073556459167041,0.00236052054914865,0.0025510342017335385,0.0026479577499659997,0.0026193253853602464,0.0024228517588637853,0.0020376954222335146,0.0014911465917573634,0.0008675734579572875,0.0002897094141312718,-0.00012745353808477642,-0.0003336109709684383,-0.0003812101742859085,-0.0004162294757693073,-0.0006136048952351907,-0.001081066224421184,-0.0017808801785002622,-0.0025197239269247242,-0.0030250605111763695,-0.003075596341006449,-0.002615261557608665,-0.0017837548991670245,-0.0008442337853546613,-5.030957997898119e-05,0.00047041676603024355,0.0007523112893472648,0.0009345574619324801,0.0011542513559138698,0.0014586743040597874,0.0017865724338947825,0.0020199248718996074,0.0020638021580297494,0.001900126164483023,0.0015849812404910943,0.001199084042521342,0.0007904638114786038,0.0003504582473910062,-0.00016059371321870664,-0.0007569222894233714,-0.001382036931397187,-0.0019105581900045001,-0.00220106821094854,-0.0021675898323077745,-0.0018231092745683317,-0.0012672648527469045,-0.0006286219878331124,-2.1893676316827888e-06,0.0005763297846133177,0.0011063739912061288,0.0015721877345575093,0.0019097233314693991,0.0020224735226975757,0.0018414118529948558,0.0013873861478825998,0.0007850986978849134,0.00020727996798235193,-0.00022197645454003715,-0.000501214211248383,-0.0007486010439660432,-0.001116634128147758,-0.0016749319135041284,-0.0023353806648825936,-0.0028701103382242823,-0.0030174236930445414,-0.002618901100778896,-0.0017123016029661768,-0.000527970269439774,0.0006124862465782617,0.0014439627519319555,0.001874006306558496,0.0020043579101989427,0.0020467811229737142,0.002183206806764153,0.0024532612942719852,0.0027344046638260273,0.002821580277607468,0.00255292962548588,0.0019046382344556924,0.0010030089311468305,5.472117709072141e-05,-0.0007577703606242661,-0.0013548249931703046,-0.0017729652893541264,-0.0021143945255828306,-0.002468319126663438,-0.0028490612969274388,-0.003179945267886821,-0.0033253222427421874,-0.0031520239732405393,-0.002592802012027546,-0.001686159670512062,-0.0005759947349650968,0.0005312063822323548,0.0014368179832090378,0.0020195452932842976,0.0022727301184456124,0.002291421857218007,0.0022153835243676682,0.0021567448642582435,0.002148637988677039,0.0021392462483422092,0.0020312646193398464,0.0017435807847363239,0.001261973852553303,0.0006527081164190301,3.252652054545934e-05,-0.0004888492081972638,-0.000862688728097279,-0.0011214200282439796,-0.0013522551497696838,-0.0016375251327370418,-0.001994675447349767,-0.002350227266942682,-0.002563978660841893,-0.0024926388065985884,-0.002060962668523387,-0.0013047509270066033,-0.0003653090165168687,0.0005606618389207793,0.0012923183800445292,0.0017271116720645506,0.0018696640952876194,0.0018151018323188646,0.0016927578502905396,0.0015954742967420519,0.001530885323426333,0.0014230305791104662,0.0011648109110421593,0.0006901374544994145,2.2158783338368116e-05,-0.000728965743120391,-0.001411771284668764,-0.0018915077488387082,-0.002090034245422314,-0.001996489240652803,-0.0016567414915976825,-0.0011552302073188545,-0.0005962385902697643,-8.341289490308837e-05,0.00030493818724836367,0.0005407688365537957,0.0006591136033656016,0.0007446784654414518,0.0008887824524659897,0.0011335882404278986,0.0014365410285448906,0.001682886705114558,0.0017453127723833504,0.001556036026288743,0.0011451741887462592,0.0006208937551060454,0.0001055682985193773,-0.0003306479285901707,-0.0006989701722538704,-0.001069299987487541,-0.001511590321726177,-0.002035275626421969,-0.002559543860787737,-0.0029305936089706495,-0.002979688159798305,-0.002596952546919301,-0.0017870279558737183,-0.0006787176417776616,0.0005178027410218819,0.0015849255578740716,0.002364904034417765,0.0027901709500447805,0.0028727171182508443,0.0026733015331730768,0.002276117281923837,0.0017788779959805115,0.0012880526199141882,0.0009021528827345614,0.0006782395675862177,0.0005976503974403636,0.0005580289247798902,0.00040851064581593063,1.8680320573839695e-05,-0.0006517317853432577,-0.001519390363412775,-0.002398845172224842,-0.003069581113525175,-0.003357867540971813,-0.0031978634605797,-0.002647848595006721,-0.0018578937395288258,-0.0010060225446939658,-0.00023301339402906514,0.0003949597263713817,0.0008827644334585053,0.0012713942069590089,0.00159596150213958,0.0018592892145135416,0.0020306703539577885,0.002065951954279243,0.0019378186487402174,0.001662400136602725,0.0013074042332835408,0.0009708645425976293,0.0007332748076021617,0.0006057567502047714,0.0005083255513359986,0.0003016930907724279,-0.00013480767829204387,-0.0008190554013773094,-0.0016266690063890467,-0.0023260066027390677,-0.0026749857876794845,-0.002530570821996793,-0.001915109305091855,-0.0010093219948039303,-8.025376647778507e-05,0.000620001991715813,0.0009432108111018158,0.0008908786760824033,0.0006037574689037225,0.00029927884661407576,0.00017801255686987743,0.00033406663344306324,0.0007084565259932467,0.0011112128311690911,0.0013078314720193376,0.0011320884495590955,0.0005702505743514804,-0.00022615905856191882,-0.0010054888597580984,-0.0015249526994621054,-0.0016479880466731623,-0.001383769330872755,-0.0008564491374402558,-0.00022997227455081627,0.00036480046227275456,0.0008617309035039832,0.001241578512012676,0.0014901208013312702,0.0015718387791849408,0.0014435780129243927,0.0010986802276740548,0.0006046266862645019,9.723993279864849e-05,-0.0002771521839237713,-0.00044249788653057576,-0.0004458981459425455,-0.00044201296291809686,-0.0006077250309260089,-0.0010312033000959666,-0.001640915208285661,-0.002221053557254513,-0.0025103474232059395,-0.0023317380512573914,-0.001681659018324481,-0.0007311355906502997,0.0002583765868339583,0.001055195600427673,0.001549612400896084,0.001775646567993869,0.0018606854644481836,0.0019369056787398287,0.0020626482489065636,0.0021919170888493474,0.0022031988553917075,0.001968274379785009,0.00142262918344072,0.0006015505187083096,-0.00037160621850121714,-0.001330668909712323,-0.002116591880559204,-0.002610646192279554,-0.0027490644594027674,-0.0025298918370817913,-0.0020178273111181866,-0.0013387541740612703,-0.0006504858677352993,-8.962609162059586e-05,0.0002825300813184147,0.0005007523508984216,0.000664240929331732,0.0008678863708774918,0.001138843924160062,0.0014186467751026706,0.0016007986918848847,0.001597594332457214,0.001392595393767577,0.001046990665749991,0.0006592086868796371,0.00030595303778615656,1.8298747787123164e-06,-0.00029837105948099686,-0.0006558707758253247,-0.001088031102051495,-0.0015301233070984547,-0.001848224780606652,-0.0019039343081203258,-0.0016365885053690587,-0.0011113801490617056,-0.0004979996804778395,1.3179421413342363e-05,0.0003090966170960846,0.000406187099926877,0.00042426642951115144,0.0004998738209129319,0.0006965778257956524,0.0009709115097628453,0.001212924539670538,0.0013272721198356835,0.0012930407793812053,0.001159047446492311,0.0009823043681342419,0.0007623539305297339,0.00042939979580669833,-9.519355084244019e-05,-0.0008040606337070834,-0.0015459688322291964,-0.002060202185586585,-0.002099975737143032,-0.0015776077418261163,-0.0006390802701523564,0.0003882357912322371,0.001152538936548853,0.0014483263714250437,0.0012999049461631953,0.000913730050060019,0.0005393331026855451,0.0003303478361384375,0.00028488831886103747,0.000284287789056239,0.0001876697497292532,-8.32506244389697e-05,-0.000512606596672978,-0.0010126102103882558,-0.001469408814454516,-0.001781231443567067,-0.0018778100124425706,-0.0017289257292405714,-0.001351130458020094,-0.0008094444880437761,-0.00020300885786676565,0.0003680016440717902,0.0008393443506795671,0.001200192019388988,0.0014788164342669752,0.001706561383707506,0.0018853303132114418,0.001980198422806289,0.0019407977876182672,0.0017366759020692683,0.0013841087923456372,0.0009472695838034415,0.0005107330342940942,0.00013619098834634455,-0.0001728975071079718,-0.00047537395712677136,-0.0008564306868033047,-0.0013669099979969684,-0.001972426118725842,-0.0025460806336504082,-0.002914490042348109,-0.0029344631297403096,-0.0025593183163864397,-0.0018610822419291425,-0.0010002287447222428,-0.00016055398282599585,0.0005196807404829048,0.0009904141401582021,0.0012891274484199727,0.001500011586936901,0.0016965292645150863,0.0018998328643583904,0.002074812046939841,0.0021608078641201078,0.002112676909461867,0.001924953815237069,0.001627226610159769,0.0012588814644730083,0.0008420744150644651,0.00036938816811532126,-0.00018711825625108367,-0.0008488376106261109,-0.0015966436288403333,-0.0023465254726942916,-0.0029522645725858134,-0.003244704064559795,-0.003099197122418824,-0.002502073271152525,-0.0015778488804926044,-0.0005530176355640149,0.0003334905321559986,0.0009288357158604692,0.0012197618027769506,0.0013117409513542725,0.0013490643978364082,0.0014262077455464849,0.0015426917787375303,0.0016217885310753494,0.0015708139131379263,0.0013375875257619785,0.0009290777882576553,0.0003928972792408346,-0.00020919660101012864,-0.0008080225280068287,-0.0013146927292692762,-0.0016176836592452842,-0.0016154414363843356,-0.001276985274487957,-0.0006872268532453726,-3.155173283916966e-05,0.0004859723684850225,0.0007440702959761064,0.0007579344100768362,0.000648751975742954,0.000553122131693431,0.0005380887765261796,0.0005780213697040943,0.0005991286575556739,0.0005480264373100444,0.00042925375726821395,0.00028654963354029605,0.00014750515775484416,-2.1555643847500413e-05,-0.0003102633509438689,-0.000802554930431095,-0.0014929799337347607,-0.002236715093512839,-0.0027766846883339113,-0.0028484106012255242,-0.0023133047140520935,-0.0012461699859883965,7.757463263760329e-05,0.0012942658734470189,0.002106798099119669,0.0024018140753267626,0.002272155567314566,0.001940431652227703,0.001631585332625372,0.0014651747348207048,0.0014208339322803129,0.0013850323934145436,0.001241456570736636,0.0009472286087440129,0.0005518751228461702,0.00015403263818344895,-0.00017113767404070804,-0.00042486461276574315,-0.0006836095425954976,-0.0010447825203179768,-0.001553804993330341,-0.0021577474506513754,-0.0027135222771958257,-0.0030461971111037686,-0.0030257604950697735,-0.002622955284427727,-0.0019180406581776155,-0.0010610813875244053,-0.0002055960971299813,0.0005506878359454715,0.001188213337571261,0.0017406678607332447,0.0022393529951577435,0.0026632363793166226,0.0029292633659693764,0.002932756544909031,0.0026151207461122257,0.002016634198054524,0.001278314955011075,0.0005853699580270948,7.926268155674342e-05,-0.00021366871002016959,-0.000394218962493373,-0.0006301957959577546,-0.0010520430655846613,-0.0016609969562438266,-0.0023046432576995855,-0.002739332021601107,-0.002749329783106166,-0.0022591513443984213,-0.0013786536276807044,-0.0003574694642181173,0.0005261488992711575,0.0010840969585546147,0.0012859291124415184,0.0012456123338629812,0.0011405652683608076,0.001109330300034701,0.0011816806905668227,0.0012739485471087119,0.0012458055989549577,0.000983457921177307,0.0004641562075981887,-0.00022910977577103207,-0.00094529775521851,-0.0015303740708228213,-0.001882761577238237,-0.001972168287693115,-0.0018203186000215778,-0.0014665205437619777,-0.0009475356605403931,-0.00030508585505797215,0.0003920952506622691,0.0010398441711481406,0.0015222676841129472,0.001758951011450012,0.0017452698318870276,0.0015570366844417389,0.0013138684345153353,0.0011215514849694094,0.0010238631023783097,0.0009852268739939762,0.0009081066068616354,0.0006757186874203885,0.00020491012381805085,-0.0005080844465019298,-0.0013669390418404276,-0.0021929356789370516,-0.0027808327310854812,-0.0029736465068506556,-0.002723466683115686,-0.0021078861870729953,-0.00129234147659216,-0.00045773994154540585,0.0002675880484048427,0.000836552044904843,0.00126388219865298,0.0015807682671953752,0.0017993329069919154,0.001910153746442692,0.0019074578276587208,0.001813775288043621,0.0016763551481224854,0.001531566855348541,0.0013626007527058922,0.001087050751833522,0.0005942967346407716,-0.00018138618706290224,-0.001193748168053354,-0.002267024416783379,-0.0031452878598294933,-0.003588383482144507,-0.003467973181855147,-0.002817307982167167,-0.0018132415047425752,-0.0007033643901169463,0.00028462016860378823,0.001011829592425191,0.0014525133629106606,0.001672932488779116,0.0017805231032446318,0.001867127854890204,0.001970276433509024,0.002067545653151774,0.002101499794224063,0.0020151704723784876,0.001773679292155082,0.0013620606973534198,0.0007723471810090804,4.380012667388848e-06,-0.0009079965108034248,-0.0018622439269169082,-0.0026802387727361595,-0.0031551165706637995,-0.0031402974080764695,-0.002631278440086932,-0.001784001213405738,-0.0008485319373547615,-5.189079297786606e-05,0.0005004924491797345,0.0008462568347440703,0.0011025142033662255,0.0013631031611830993,0.0016239262968205698,0.0017812644055504173,0.0016997019925347099,0.0013036396850967483,0.0006347700999261357,-0.00015745690903929896,-0.0008820102929874172,-0.0013856161916784154,-0.0015997473754126136,-0.001537161577199528,-0.0012546656156735233,-0.0008159691845409406,-0.00027889142472740437,0.0002940904154190825,0.000823346122907615,0.0012196799257343804,0.0014152423341086502,0.0013981412075352046,0.0012235168392771383,0.0009887843287405946,0.0007863525406322216,0.0006624811632531361,0.0006044701157609661,0.0005572006068092486,0.00045242482211937593,0.00023302635202609697,-0.00013332870481858657,-0.0006457852256372802,-0.0012630041518120402,-0.0019022493253762853,-0.0024537596038900853,-0.002809882842569356,-0.002894789211832248,-0.002678301696682932,-0.0021708483095288543,-0.0014127238217086211,-0.0004725139122391032,0.0005459368832304843,0.0015051940607655606,0.0022607510960801786,0.0027084176139055695,0.0028266183858361876,0.0026840747290735414,0.0024032996084609104,0.0020995854136210577,0.0018314093431721682,0.0015890575575073086,0.0013214754984466268,0.0009777314057495907,0.0005354881825591802,4.442528961992056e-06,-0.0005866445064879485,-0.0012013515202146492,-0.0017952053913566051,-0.0023093295059291256,-0.0026728452104127407,-0.002821917246412441,-0.0027270808460229863,-0.0024100757810453623,-0.001936765710501314,-0.0013893139050952738,-0.0008345023062339959,-0.0003056891461518604,0.0001946493966133683,0.0006768550131262182,0.0011419661308641267,0.0015675028417365912,0.001909573579085496,0.0021219944607789366,0.002182154256166034,0.0021057267191694562,0.0019365043692603796,0.0017141389977025044,0.0014404377031979906,0.0010698849344530734,0.0005368014783778738,-0.00019206846050496824,-0.0010690884172033924,-0.001951591412105349,-0.0026347343817734042,-0.0029196171948542714,-0.0026883365276895305,-0.0019562717432155784,-0.0008824369956549445,0.00026730055969901873,0.0011969629779959448,0.0016780278225852138,0.001635897991374677,0.0011862256817380759,0.0005929036650022537,0.00015332658181260944,5.898065349647236e-05,0.00030215389687815496,0.0006816858122426256,0.0009083112939463768,0.0007547765974446048,0.00017188203201197873,-0.0006877476833067819,-0.0015453057838516315,-0.002126261142183722,-0.0022759773612097277,-0.0020044819122683735,-0.00144779236464189,-0.0007800997568997999,-0.00013284773516691385,0.0004380264862228465,0.0009328038295246337,0.0013651983409013295,0.001731627411739406,0.0020093662593094106,0.0021739068827500863,0.002213205378245526,0.0021256430183609243,0.0019075651035478753,0.0015461049902089755,0.001026290698641308,0.0003476676387450565,-0.00046126616059096815,-0.0013385622142067185,-0.002194181323560328,-0.0029217484073237733,-0.0034152104404625372,-0.0035902608558048233,-0.0034065204726997506,-0.0028808696764377993,-0.0020833450252354447,-0.0011170543724210711,-9.414330283811893e-05,0.0008799244630879979,0.001712245266043133,0.002327525846524986,0.0026805570702173598,0.0027729338496027805,0.0026601929714702923,0.0024365392853163835,0.0021975401175632976,0.0019969064042095743,0.0018200998066896879,0.0015902591281282445,0.0012055442255056266,0.0005911319479123029,-0.00025802142631944,-0.001262695932211614,-0.0022779496207505673,-0.003133527490750171,-0.003677352740802219,-0.003808330419312726,-0.003495791505804235,-0.0027881314579173417,-0.0018083832592462477,-0.0007289322277400474,0.0002762471293114815,0.0010859270822754657,0.0016635771079723818,0.0020455519704289,0.0022913281569195386,0.0024285233629363005,0.0024298152241948347,0.002235774551754249,0.0018047463842541843,0.0011539640764720565,0.0003667161766323407,-0.0004331076098749136,-0.0011183380468089955,-0.001587538574127138,-0.0017795236014510572,-0.001678599605251615,-0.0013159965597459248,-0.0007667167302104116,-0.00013773515355728705,0.0004531838303151784,0.0009028890871956713,0.001144779675609691,0.0011619036233665974,0.0009890535003024448,0.0007020660173918647,0.0003923807332562294,0.00013025768602769835,-6.894435980301815e-05,-0.0002543528345708211,-0.0005123053188460696,-0.0009110015748741975,-0.0014456563603439119,-0.00201593151637044,-0.002451259556199766,-0.0025742613413702233,-0.002272839226750229,-0.001548007028925379,-0.0005174184147526493,0.0006243500374000788,0.001669202184056985,0.0024549684134808954,0.002898421381395356,0.002995273142283874,0.002798489511732836,0.0023940976447430797,0.0018852607812824827,0.0013788242994555058,0.0009611155171046722,0.0006614938737982386,0.0004240308871705492,0.0001179254455892317,-0.0003994975473267845,-0.0011901428139221883,-0.0021657566629460865,-0.003091651066635051,-0.003674121900936127,-0.0036910187198542664,-0.0030964457244156652,-0.0020440569634472966,-0.0008195209852720545,0.0002786244197443635,0.0010481634566326412,0.0014339550598896351,0.0015077424849674163,0.0014012425915865176,0.0012357405604055665,0.0010848258623555565,0.000979870615264996,0.0009376581787647522,0.0009771249504175322,0.0011067006796153796,0.0012933378200960701,0.0014442332313595013,0.001425687924910528,0.0011164550109729683,0.00046812545994955,-0.00045883631686292935,-0.0014991643111354164,-0.0024235354224702967,-0.0030022710398754818,-0.0030756300392060934,-0.0026115302443089077,-0.0017277726653663283,-0.0006602737203950878,0.0003206293063754554,0.0010136513223107351,0.0013589507985177145,0.0014397854709374996,0.0014128393600344096,0.0014090999507512436,0.0014637683138565719,0.0015125090279682035,0.0014471549616604973,0.0011878617069801633,0.000725306009057113,0.0001154615703267774,-0.000554158128625194,-0.0011932826061014897,-0.0017154427537621933,-0.0020338018053908443,-0.002070221422956118,-0.0017858972278114896,-0.0012146314827590628,-0.00046891130878578673,0.00029393613120202956,0.0009284553017161138,0.0013472682259602561,0.0015330398372412988,0.0015179096587720371,0.001352057207166163,0.0010833722687017613,0.0007538206133994443,0.00040140578832934784,5.515249873686771e-05,-0.00027535963579651085,-0.0006007327867290941,-0.0009314164909439784,-0.0012459036258343035,-0.001475175034108479,-0.001525508720461674,-0.0013326484496589393,-0.0009115083551105467,-0.0003632683355515835,0.0001699354664263527,0.0005751798048042704,0.0008185481361832525,0.0009438854165819762,0.001025060427850739,0.001106640194444477,0.0011728504541763682,0.0011624177197223935,0.0010144163651668032,0.0007108286841161674,0.0002878311838233005,-0.00018689948004373694,-0.0006495186646270894,-0.0010612590288540948,-0.0014036408709515837,-0.0016568883882318102,-0.0017821134829986123,-0.0017230947584783878,-0.0014290356043687071,-0.0008867429364695265,-0.00014581585696163922,0.0006770474380023816,0.0014216984176293479,0.0019328569497842289,0.0021165896429558412,0.001978280540626992,0.0016185114438606579,0.0011840243382503857,0.0007987162104841907,0.0005133155166421402,0.00029924618823680177,8.226501786525375e-05,-0.0002103255942111043,-0.0006133374653515791,-0.001105897720863969,-0.0016087715831130012,-0.001996911952436283,-0.0021338173223001576,-0.0019271639222155786,-0.0013845096754612814,-0.0006331531770346309,0.00012061071728091424,0.0006815460282841418,0.0009569084551198895,0.0009930356858202558,0.0009311639095589636,0.0009076645748376489,0.0009616553371786169,0.0010103856967281926,0.0009095077751223303,0.0005589880131011331,-1.5805110469261372e-05,-0.0006617949356433714,-0.0011749731194892331,-0.001404026601422875,-0.0013150895990797855,-0.0009848855076287169,-0.0005402964972443113,-9.169903910481118e-05,0.0003013170367545798,0.0006244312507585224,0.0008817994927716602,0.0010721475621950282,0.0011815242380012131,0.001192520811630318,0.0011005246576775486,0.000924746090615782,0.0007047756331518402,0.00048174983613362855,0.000273861528504356,6.22534517572956e-05,-0.0002005178979016765,-0.000559964141032745,-0.0010210925992838898,-0.00152219443382518,-0.0019381302252777495,-0.002118599452908124,-0.0019501424376386165,-0.0014153159406134412,-0.0006179252176280574,0.00024446717029568646,0.0009537926888985183,0.0013577054065646707,0.0014262587262454073,0.001251108862492794,0.0009908020355077823,0.0007938014651862647,0.0007375635634611826,0.0008059874803594225,0.0009044499935239479,0.0008986049757424429,0.0006641163453981528,0.0001390856207035985,-0.0006325364566071886,-0.0014879060557825678,-0.0021837333095240464,-0.0024847787699879666,-0.0022659413175671107,-0.001572636401911896,-0.0006024116200792574,0.00038305588403859296,0.0011654413771206768,0.0016394750433414186,0.001816052045408632,0.0017712493100280361,0.0015810520395414225,0.0012815645012505751,0.0008717922418904541,0.000347223295980956,-0.0002647416941031701,-0.0008928327446180004,-0.0014391141172720404,-0.0018105533824545332,-0.0019434868616643821,-0.001810022514651747,-0.001412754758483764,-0.0007827787373189749,1.157676282778023e-05,0.0008545385379954715,0.0015906884845470867,0.0020631677774114567,0.002172974473236635,0.0019288946489998278,0.001454125364795894,0.0009361033667777088,0.0005398396619919791,0.00033034228780859994,0.0002479842940480826,0.00015086679975289926,-0.00010082990028371062,-0.000566155437641643,-0.001190759365231405,-0.0018314164759644885,-0.002318551784279624,-0.00252364344043103,-0.0024032133570854137,-0.002005970375420816,-0.0014451316742530734,-0.0008496461872723634,-0.0003145625927601991,0.00012939134393822054,0.0005145650637809337,0.0009040291780329118,0.0013426736839886153,0.001816021762137045,0.0022405921029379186,0.0024953922208254533,0.0024805458116297233,0.0021706907252864393,0.0016321849614502186,0.000994741004795034,0.0003945046281008033,-8.072225138721061e-05,-0.00041828889093297687,-0.0006703246828123296,-0.0009147476877810264,-0.0012079428449791804,-0.0015517779044175064,-0.0018897228422681018,-0.002131600315645347,-0.0021920358726684143,-0.0020227905527498338,-0.0016258663949294447,-0.001046476660021414,-0.0003546450527020117,0.00037293095559771613,0.001062936759480284,0.0016470007951721367,0.0020607704148755597,0.002248389887359647,0.002176643137016392,0.001855278356421349,0.0013515691936889502,0.0007836650381849415,0.0002844221167686732,-5.480356882515795e-05,-0.00023218417660308532,-0.0003425563615330223,-0.0005292117690441232,-0.000898924652039397,-0.001445494648445718,-0.0020281903089965554,-0.0024236630133452957,-0.0024284999952347286,-0.0019595448236809964,-0.001099436505622156,-6.529705339178033e-05,0.0008806013885613005,0.0015324338955619485,0.0018081762316383848,0.0017574858504001202,0.001515106583395676,0.0012293932138824832,0.0010025762928473029,0.0008654613443829081,0.000785257344069549,0.0006902399517608222,0.0004983640856071325,0.00014836440984207378,-0.00036650386300537377,-0.0009739151824514553,-0.0015290046703464732,-0.0018641551758938287,-0.0018653085339968075,-0.0015319987454694847,-0.0009800708082610102,-0.00038015994180798374,0.000131357873211656,0.000512280433559694,0.0008089792221143703,0.001094913690626963,0.0014000107629761165,0.0016789473507414503,0.0018338260253310441,0.0017682120992885525,0.0014342395999971966,0.0008489705513931229,8.220608665936846e-05,-0.0007669262809310729,-0.0015897628180770148,-0.0022804264150768617,-0.0027450909732073046,-0.00291353089112639,-0.0027532044326278628,-0.002279482390474228,-0.0015537167009546508,-0.0006674219182404175,0.0002784633958983967,0.0011863237206731242,0.001962735188730714,0.0025181107393928005,0.002780188511738365,0.0027232384530370196,0.0023945108230177987,0.001911836411420241,0.001421802013700563,0.0010364363971521687,0.0007847841230735697,0.0006080340111330075,0.00039851072176452063,5.6351192825233594e-05,-0.00046736634030470974,-0.0011558008810908045,-0.0019339055695464856,-0.0026848695342829316,-0.0032695041194166314,-0.0035526366189582636,-0.003439968495922038,-0.0029167634360393636,-0.002067432909063333,-0.0010560121759397004,-6.62913547550782e-05,0.0007723461173843177,0.0014307795971668135,0.001965776015579383,0.0024504052930643993,0.002894521460580606,0.0032130284187148897,0.00327021070960495,0.0029746830254638915,0.0023596967097771837,0.0015881871449088415,0.0008708880489050309,0.0003466200647314158,3.2909092154868663e-06,-0.00030633294254413045,-0.0007622285089412719,-0.0014525496417081849,-0.002303634018199627,-0.0031043684707819158,-0.0036064906640238398,-0.003640749731379572,-0.003186078780711737,-0.002361842905003713,-0.0013590118173682467,-0.00035690696180545813,0.0005288191689432545,0.0012497223386536231,0.001795933439347965,0.0021667082306748168,0.0023608258172667894,0.0023845017025396916,0.002259965102634384,0.002021515328068566,0.0017001157784487667,0.001308107417360427,0.000835603214384868,0.0002630668413886743,-0.00041350990910066573,-0.0011552289545413105,-0.0018658938855955058,-0.002404931880982069,-0.0026310640988371128,-0.002461476799534844,-0.001916195835258535,-0.0011191090363459062,-0.0002492528603814298,0.0005329234421312698,0.0011410601301117761,0.0015674273911647884,0.0018395725645758633,0.001967671597941919,0.0019273831686298162,0.0016923172435620876,0.0012858954080969753,0.0008012841563680338,0.0003602592465812249,3.24531597905135e-05,-0.00022424575378057667,-0.0005470345411198994,-0.001071163062582059,-0.00180981269961358,-0.0025947233913817458,-0.003130219958399743,-0.0031412929909539243,-0.002530902065290483,-0.0014487582594348706,-0.000225027717700387,0.0007947918841009653,0.0014169494741453925,0.001671706757965554,0.001753830734488503,0.0018751461923815476,0.0021237223520994422,0.0024144773772597724,0.0025545970508978294,0.0023749517231054676,0.0018409210660504144,0.0010742277381520784,0.00027732557959407107,-0.00038604247553724865,-0.0008756126048939044,-0.0012725247034723148,-0.0016965341634918275,-0.002200179071683403,-0.0027099050791455676,-0.003051536657176217,-0.003043123467204482,-0.0025976521151199025,-0.00177565935692559,-0.0007616282557633258,0.0002164126147609917,0.0009767397684037134,0.0014394985497903409,0.0016307916266959177,0.001646589604004772,0.0016015981388263494,0.0015849327574669193,0.001633329558401966,0.0017243719549509835,0.001789638695896647,0.0017454688604929484,0.001532253451862313,0.001144753368186468,0.0006351819843094981,8.386946365078945e-05,-0.00044614242274797395,-0.0009398645508537924,-0.0014222629663737485,-0.0019132387075877129,-0.0023762049787796765,-0.0027006875616882794,-0.0027410484745262987,-0.0023963062561804926,-0.00168395670108816,-0.0007574112572713963,0.00015161006217265423,0.0008367037304430684,0.0012066352667214908,0.0013099411915980506,0.001284153390623713,0.0012650407748287808,0.0013116628386762703,0.0013880765063808138,0.001404612283563411,0.0012855481797569893,0.0010176198187519274,0.0006511615038710115,0.0002595961660677591,-0.00010981160372309823,-0.0004579928520233813,-0.0008143572972154898,-0.0011908343328290347,-0.0015436104408607897,-0.0017718088745762271,-0.0017586277597737472,-0.001433719186361761,-0.0008222689397208194,-5.247493526077838e-05,0.0006864182522462756,0.0012189486815505544,0.0014561916265200966,0.0014283333669142721,0.0012566758597693526,0.001078354886657554,0.0009675623860995902,0.0009011088342107225,0.0007866331560659793,0.0005291358923896457,8.921864436651551e-05,-0.0004994657676296291,-0.0011512949992747623,-0.001761600085448772,-0.002227853490147302,-0.002457168224721516,-0.0023750308221940947,-0.0019470403965885143,-0.00120706824175844,-0.00027012591810252756,0.0006886637722138178,0.0014872569325185523,0.0019982838314172875,0.0021882638893331234,0.0021160686264834927,0.0018946240367439643,0.0016375677620784853,0.0014159763146327172,0.001239951502731045,0.0010654739131693047,0.0008186800129840075,0.00042903052771293455,-0.00013664918022355112,-0.0008495907401641459,-0.001615556183462538,-0.0022981234684482646,-0.0027620632528168225,-0.0029186292309401106,-0.0027522786004662804,-0.002317342436100501,-0.0017085542684710927,-0.001022330054155885,-0.0003287652013145715,0.0003340370369331121,0.0009458830467460551,0.0014843499673827033,0.0019139015427302175,0.0021916069479302096,0.0022853057054802338,0.002192612197280676,0.001949360645670356,0.0016220824329170591,0.0012867251571039768,0.0010017221542750268,0.0007857202644216191,0.0006084061159410319,0.0003987172528759897,7.057350107042798e-05,-0.0004381266580369713,-0.0011243579260110715,-0.001895723597116474,-0.0025829174307333974,-0.0029942431810844722,-0.002992347520106967,-0.0025551847685274655,-0.0017881046269304526,-0.0008805202894054541,-3.101608656525326e-05,0.0006207651129598224,0.0010259680908520049,0.0012162230797745559,0.0012668107865089024,0.001256160838251634,0.0012381284020810009,0.0012325715615209803,0.001231386655524183,0.0012121527479899163,0.0011495711658681853,0.0010181290204754247,0.00078840064223784,0.00042839090669015585,-7.881650484534334e-05,-0.0007030376358190965,-0.0013411409116062946,-0.001825720452667478,-0.0019815139297916424,-0.0017100309687201492,-0.0010553748126700799,-0.0002057856742789777,0.0005799805700789332,0.0010858778633795012,0.0012291092679442466,0.0010780436641038276,0.000792077540798786,0.0005250680795939014,0.00035155986068525656,0.0002527027812581845,0.00015599135630612725,-7.370177195839631e-06,-0.00026306568894076364,-0.0005851535507778729,-0.0009099489458101347,-0.0011583128624921913,-0.001258974055529959,-0.001171101072246474,-0.0009018683918650262,-0.0005096611653786442,-8.596290433793893e-05,0.00027927605283792367,0.0005323007408608261,0.0006725163186862369,0.0007442011505560918,0.0008092060261656363,0.0009154245693769967,0.0010750507301368567,0.00125895848663534,0.0014056316019021792,0.0014399019252983,0.0012968419694513395,0.0009448576936873024,0.00039941340445371265,-0.0002794984386961367,-0.0010046217950517241,-0.0016831105654467686,-0.0022313998589554725,-0.0025796027773889,-0.002670813405085067,-0.0024646461085423075,-0.0019509685180417332,-0.0011705386111657055,-0.00022901389833610074,0.0007125478950123722,0.0014781515441713215,0.0019365473726927584,0.0020516904200599166,0.001894566318182759,0.0016056389515120481,0.001325632715743762,0.0011322881244952058,0.001017660274605961,0.0009149760809314566,0.0007527127818522093,0.0004983265860831999,0.00016570450894293903,-0.0002106301136989635,-0.0006078686864451178,-0.0010258499746087773,-0.0014681872566276108,-0.0019091653740885904,-0.002273277172259608,-0.002446822271500858,-0.0023210441297888216,-0.001846354097446934,-0.001068724319648355,-0.00012717707808799876,0.0007889042857937699,0.0015036269887982842,0.0019111638973938914,0.0020019820953428155,0.0018510885107212195,0.0015775237536774448,0.0012951078951066208,0.0010750345839876212,0.0009319354339562711,0.0008320586844577319,0.0007131172261171581,0.0005055048737143747,0.00015241523193180312,-0.0003669733721118982,-0.0010112051019912198,-0.001660983016688814,-0.0021369028020331773,-0.0022609306458341192,-0.0019413968014741888,-0.0012351549436323513,-0.00034354683265037586,0.00046601625725699455,0.0009760198060763457,0.0011108775148564233,0.0009555210198878961,0.0006922518617313412,0.0004931204413173922,0.00042831872888315177,0.0004393615489210476,0.0003876445549702136,0.0001474837046509922,-0.0003091812992881487,-0.0008820661287318122,-0.0013817194412965293,-0.0016181499336200694,-0.0014924364461439566,-0.0010420757252520784,-0.00041524319666359213,0.00021003256682410151,0.0007127328565101828,0.0010702407261962402,0.001334003029174656,0.001563038607688072,0.001764771739884939,0.0018835687223288547,0.001841799861910021,0.0016021286596506561,0.0012062956084923086,0.0007613656683980903,0.00037829219144072353,9.951250953056401e-05,-0.00013687241474941592,-0.0004670999082472655,-0.0010156959409002948,-0.0018004295461438793,-0.002686790876774816,-0.0034259534433071772,-0.0037619082374520255,-0.003550728494891607,-0.0028259668955604575,-0.0017762929533852308,-0.0006537331787258152,0.0003318966927585216,0.001077496277171819,0.0015879733137494625,0.0019301610293641035,0.0021744974172135446,0.002355362890673462,0.002463963820937959,0.002469952781559288,0.0023551233557596533,0.002136980390431497,0.001865223625396626,0.0015906869108582825,0.0013258905977186531,0.0010254035124151629,0.0006043251696086261,-1.0801686667514143e-05,-0.0008268976795346201,-0.0017586272161105728,-0.0026489116043429232,-0.003324601188079592,-0.003656323378289597,-0.003592767882321517,-0.003159034834970244,-0.0024306627768271197,-0.0015047816354846933,-0.0004837238499667916,0.0005280028777052317,0.0014236163415166047,0.002101992783077185,0.0024868625302271125,0.0025502483075274377,0.002326999207237013,0.00190879950589465,0.001414960575179547,0.0009494666399976217,0.0005627379873818445,0.00023722986720345796,-9.29910992914279e-05,-0.0004943335697984695,-0.0009794416703632484,-0.001476770590910721,-0.001846148505744995,-0.0019387554872153032,-0.001672805256073404,-0.0010833554510576036,-0.0003162545211570756,0.000432934292213312,0.0010021545779598084,0.001322473486535073,0.001423986893466221,0.001392208471760006,0.0013082547419406444,0.0012099995182938248,0.0010899108856092395,0.000917825230002866,0.0006648234222396743,0.0003134812827678443,-0.00014198844272654098,-0.0006923109369630062,-0.0012997382290588493,-0.001884158604094412,-0.002327894797460558,-0.0025100879537158743,-0.0023593335940475793,-0.0018944321011722717,-0.0012245880269586638,-0.0005039906160338567,0.00013448674065314912,0.0006277355333794456,0.00098688327267264,0.0012615164430006536,0.0014924042705437048,0.0016844439641874377,0.0018127818842393736,0.0018502953051682948,0.0017919069435084665,0.001657884355343706,0.0014766704278044024,0.001262363166162884,0.0010026664029099018,0.0006631791003620471,0.00020436385268316707,-0.000395061045611423,-0.0011140097754500325,-0.0018728801852637934,-0.002538692883418177,-0.002960762088930976,-0.003028329640888504,-0.002721299134841066,-0.0021220058654241557,-0.001377636647111508,-0.0006350872362083616,1.2500529506789251e-05,0.0005391631253894722,0.0009606720565804749,0.0012961603440539025,0.0015458365434994363,0.0016964666806548016,0.0017436966476267524,0.0017086984601902624,0.001632857813009913,0.0015523054996377998,0.0014702543443527545,0.0013478701602050965,0.0011224859865814263,0.0007440366792118282,0.00020851328631542126,-0.0004313600592286477,-0.0010838578836827378,-0.0016520262560366906,-0.00206179269449863,-0.002269632330928526,-0.0022534639264420817,-0.0020047917170858084,-0.0015365009259110606,-0.0009014104025046547,-0.00020019792815756095,0.0004391366283904871,0.000906373466971918,0.001153783525086044,0.0012123000626454335,0.0011674674704323985,0.0011078625232495178,0.0010754440130601704,0.001045984731064784,0.0009491140870170262,0.0007139018478604749,0.0003129567703443924,-0.00021728695572460158,-0.0007861936901307287,-0.0012793336448476867,-0.0015944533363958613,-0.001669951301673093,-0.0014979403836683765,-0.0011193642157346015,-0.0006049365549759233,-3.2001133797067644e-05,0.0005310346749119795,0.0010277845699401787,0.0014103549067244734,0.001639929402963449,0.001695874301367665,0.001586439223191741,0.0013495826067231936,0.001039452104298289,0.0007052535920877989,0.00037394093567485456,4.407517763515157e-05,-0.0003081670515024408,-0.0007130391723464738,-0.0011848230668240582,-0.0016994524800040978,-0.0021826963021404143,-0.002519801542782993,-0.0025901288830051236,-0.002316603631384263,-0.0017075014517930762,-0.0008667878169436127,3.741933100736162e-05,0.0008350291785298928,0.0014177837103480071,0.001772023138810353,0.0019618101049858772,0.0020709378783497264,0.002138888022018867,0.0021333098881988768,0.001979877004718385,0.001630165568719676,0.0011178065618896514,0.0005576484944267674,8.233683244521445e-05,-0.00024213422305535432,-0.0004615133623001111,-0.0007035715788054585,-0.0010890980591063487,-0.001639674993712831,-0.0022411288638321935,-0.0026868068544932287,-0.0027766495111328513,-0.002416594908097978,-0.0016656147846460536,-0.0007100638246649892,0.00021526057266605617,0.0009168810722732937,0.001303740698080279,0.001400856650207327,0.0013196092943076917,0.0012030698318746882,0.001168599231040982,0.0012663790764828827,0.0014647097209498055,0.001663061190642269,0.0017253539983437126,0.0015226656743492575,0.0009765991085011368,9.679398468034276e-05,-0.000996477044100765,-0.002079108863242299,-0.0028729033026966386,-0.003135930912292489,-0.0027637117850439043,-0.001850769560060418,-0.0006698020445106184,0.00043410154435054174,0.001186329203872703,0.001488928722197965,0.0014353359722912974,0.0012317325669970992,0.001075013498569142,0.0010555916125281526,0.0011300433279096476,0.0011638987614427953,0.0010096292825950669,0.0005780788671226238,-0.00012143356315628376,-0.0009762568297988618,-0.0017951191450434343,-0.0023569791671085773,-0.0024772658658823886,-0.002075623965788692,-0.0012187182211835469,-0.00011265038287445735,0.0009612579956470586,0.0017444354619487392,0.0020897453653674447,0.002001257001707796,0.0016106167041258527,0.0011064279489244198,0.0006525062430475677,0.0003309996886234402,0.0001301401431255721,-2.648099387649863e-05,-0.00023023211342715604,-0.0005428768891901962,-0.0009724797019498722,-0.0014697474731612656,-0.0019373616286295161,-0.002249362162678953,-0.0022837601627487365,-0.0019666365646028713,-0.0013115566316953726,-0.00043023473626820785,0.0004984594917326156,0.0012900505819987513,0.0018173344048810925,0.002045561806611017,0.0020268094166533655,0.0018610485498714042,0.001646320444359678,0.001442814245604713,0.001264529063915553,0.0010946510834587803,0.0009085027277635616,0.0006882217835558709,0.000423560787818231,0.00010439876218526159,-0.00028456589708116713,-0.0007590771568615623,-0.0013194717710409678,-0.0019301468674905332,-0.002506660078471676,-0.0029239852198893234,-0.0030520379109543545,-0.002808601849170754,-0.0022038715011106717,-0.0013485064743452655,-0.0004147735561447079,0.00043144285670369505,0.0010910392265234905,0.001552159156380423,0.0018633242456600361,0.0020806391137760958,0.0022247183525025954,0.002273952102416284,0.0021943966157128465,0.0019803590819065728,0.0016720915744473659,0.0013342790320200629,0.0010091366500418063,0.0006787576269146527,0.0002679978999538307,-0.00030573601046426013,-0.0010603227670336443,-0.0018979435926691534,-0.002613843625412146,-0.002973330640429392,-0.0028240722991691065,-0.0021827617823746122,-0.00124230297605517,-0.000288836782069901,0.0004279685359714141,0.000798978539580985,0.0008782742480778127,0.0008198601194841938,0.0007744233938329756,0.0008090582138082312,0.0008889275523774758,0.0009173329909118923,0.0008003754479261947,0.0004989955879386987,4.765215022697769e-05,-0.000460553084717756,-0.0009089493245587545,-0.001195584896506129,-0.001261454627281619,-0.0011019238514606482,-0.0007606434435337866,-0.00031003610714649054,0.00017365651238198526,0.0006305113448978357,0.0010237551361476913,0.0013321414745525203,0.0015365542516750008,0.0016140833689171194,0.0015465799335132088,0.0013375940502097377,0.0010228035383787995,0.0006623166482108925,0.00031583244598386696,1.378867295867732e-05,-0.00025876589601820906,-0.0005547709111619237,-0.0009342363852527752,-0.001420722983408444,-0.001964950497005954,-0.002438809200376355,-0.0026744995530367695,-0.002539706749985679,-0.0020118055516676714,-0.0012044951466213703,-0.0003230026343955658,0.0004318033560842483,0.0009548298745116343,0.0012686175908221602,0.00147852186744843,0.0016841533552395716,0.0019074204826637989,0.0020834352511500086,0.002115646535455881,0.0019526526786678273,0.0016309533021166098,0.0012530251034346236,0.0009153199235638824,0.0006354312590058843,0.0003294320269368577,-0.00014064043723247444,-0.0008724784266332813,-0.001835506609751935,-0.0028428360220941517,-0.0036079243624281545,-0.0038656887591002644,-0.0034985970938885905,-0.0025980283869091133,-0.0014218246220757621,-0.00026826914738563865,0.0006608619946670407,0.001327355159618384,0.0018184774338167336,0.0022381904232852954,0.0026070941913437402,0.00283959693662275,0.002809446800963256,0.0024528943924243874,0.0018348125459685827,0.0011305593558988331,0.0005335241856460823,0.00014635193492298318,-7.643045150941942e-05,-0.000298244143247646,-0.0006980518095036051,-0.0013521039084801257,-0.0021654851405500685,-0.0028933472911412484,-0.0032451814351517876,-0.0030219625732270565,-0.002217601395222982,-0.001032657407067278,0.00020787858140807434,0.001191563786505686,0.0017405776714695038,0.0018590152420445275,0.0016895562029933147,0.0014150357031615813,0.0011661187116851904,0.0009816942686491474,0.000828309734048633,0.000649415336584899,0.0004064712800865384,9.162687066191846e-05,-0.00028240294915550675,-0.0006951666800665042,-0.001118651773906004,-0.0015062076601363053,-0.0017852866886434592,-0.0018684065233081925,-0.001683100644106656,-0.0012070768797430742,-0.0004904105931873153,0.0003469572507261517,0.0011438258662608367,0.001744844031005935,0.002051020609226784,0.0020532515590505956,0.0018306935296871654,0.0015100908040885845,0.001203709991655394,0.0009583199298777174,0.0007433258266394301,0.0004832480695320207,0.00011267014982601319,-0.00038083520694285374,-0.0009493645918947877,-0.0015103838653623154,-0.001981984970130212,-0.0023038817791635703,-0.002437801075576831,-0.002359195579489971,-0.002056552001740325,-0.0015438174168949266,-0.0008758314956020735,-0.00014879799306247773,0.0005249853455706347,0.001059753287062107,0.0014303714038705437,0.001672254594423038,0.001843515241711763,0.001974402984847355,0.0020407199141333626,0.001981575049056306,0.0017494810942074769,0.0013567514253303103,0.0008836815601279505,0.00043949689065812364,9.895989352409176e-05,-0.00014497498958889214,-0.0003800486617664626,-0.0007214262464877141,-0.0012347486454156462,-0.0018799499551199084,-0.002509648719407479,-0.0029247880883183225,-0.002958223580957263,-0.0025442042191843157,-0.001744034413636117,-0.0007236636276630876,0.0003009861504877571,0.001129529128021973,0.0016353792053125512,0.0018013648103089436,0.0017186026149971765,0.0015425581597691904,0.001419060935890911,0.0014135271825278448,0.0014818363730207146,0.0015017420936190068,0.001348161779678609,0.000967575605980318,0.00040725268143156155,-0.00021465642130743422,-0.0007736432249737734,-0.0011946203241785876,-0.001467660896276688,-0.001622584132074327,-0.001686251193499687,-0.001652062398707419,-0.001479575084827998,-0.0011238940548096567,-0.000578401675776385,9.409446660464975e-05,0.0007634520975431205,0.0012730740496844813,0.0015027691000527668,0.0014216613588211447,0.0011024826534050745,0.0006889689237615654,0.00033223281005019013,0.00012590575862389715,6.882472848549707e-05,7.163771021748274e-05,5.408267461499752e-06,-0.00022845422820693198,-0.000639667091895159,-0.001132366392361795,-0.0015415404431992773,-0.001705954699615611,-0.0015403268016481394,-0.0010703319778739592,-0.0004162220993916778,0.00026090686304087703,0.0008202592178733416,0.001183509290390581,0.0013471284869148667,0.0013682909273818903,0.0013335264039674008,0.00131932093462713,0.001355238322201986,0.0014042177041628037,0.0013740619990476502,0.0011613170000975672,0.0007081183289797594,4.0117659138967036e-05,-0.0007378246817490905,-0.0014855951181482262,-0.0020837736777753347,-0.0024677791391273574,-0.0026239609070899043,-0.0025601118030156187,-0.002280685854385061,-0.001789113591577898,-0.001112762122339117,-0.0003241236745031965,0.0004661167180150501,0.0011451436451352494,0.0016402345328289385,0.0019390842928816857,0.0020767549389109187,0.002101651187490399,0.002045550657132313,0.001915992474860922,0.0017103491782658623,0.0014347809301192029,0.001109257200055033,0.0007523333155583357,0.0003574298016091721,-0.00011636764544289881,-0.000721125610650781,-0.0014688057051179173,-0.0022825126050232906,-0.002989990181399195,-0.0033783721505448233,-0.003288879268706147,-0.002699167073084022,-0.0017437572627756657,-0.0006586944084246654,0.0003193667888748188,0.001045261391847112,0.0015023446845659916,0.0017709769008144249,0.0019528975247156523,0.002098377642325454,0.0021778227796266456,0.0021099772538750207,0.0018237755446080728,0.0013127602336015698,0.0006502225251995004,-3.922857216365639e-05,-0.0006304961055603941,-0.0010421078924551593,-0.0012545658454583054,-0.0013011366249970548,-0.0012421029311958872,-0.0011365976728033803,-0.0010215911373358364,-0.0009017498569136189,-0.0007516729917097478,-0.0005319447138297774,-0.00021652596792379018,0.0001803612677161299,0.0005963783752733827,0.0009437801340132328,0.001153371064303809,0.0012109942472856323,0.00115865973755114,0.0010566163574680554,0.0009321818819766065,0.0007521673957932744,0.0004398731253878492,-7.21208382436434e-05,-0.0007842499951269019,-0.001599948196339499,-0.0023401104450612273,-0.002797434736647861,-0.0028095793918300766,-0.002323014428656333,-0.0014221171284874046,-0.00030921498716849564,0.000761383609818711,0.001572721797734685,0.002020473889875215,0.0021373394056367224,0.0020525739863449513,0.0019095989958917295,0.0017912028230198734,0.0016955553041450083,0.0015690962459826104,0.0013628424697388734,0.001067692925461408,0.0007079732947759143,0.000308327532635223,-0.00013225980871058658,-0.000635936663311673,-0.0012149163535222912,-0.0018389530959321719,-0.002426352123502475,-0.0028653898742704463,-0.0030528402310527553,-0.0029284776413255782,-0.002491471597547369,-0.001797797777032996,-0.0009460361546863583,-5.800580713604623e-05,0.0007441122969612259,0.0013633347070383436,0.0017508174725893288,0.0019169186230044422,0.0019230762634397096,0.0018549029589044594,0.001786103808242334,0.0017485330437735798,0.0017221187034825289,0.0016490557833555215,0.0014642412700036414,0.001126052529736089,0.0006331899671474689,2.279533611138323e-05,-0.0006440521380750616,-0.001297846690292297,-0.0018688233938591171,-0.0022889964703322455,-0.002496844867923027,-0.002450938396951101,-0.002147590703192089,-0.0016291993183229479,-0.0009741450610660982,-0.00027268192960549126,0.00039666640208565215,0.0009774916062224152,0.0014308376458155047,0.0017248938549673516,0.0018324796276505254,0.0017431566125681525,0.0014826790160037738,0.0011213085536519556,0.0007553157500455861,0.00046373862236395,0.00026356107426049087,9.506612617283638e-05,-0.00014400769315097545,-0.000527405315519004,-0.0010337669232662761,-0.0015314288870904693,-0.0018337906696938495,-0.0017988323840840079,-0.00141407506575305,-0.0008130492553418182,-0.00020984745113940707,0.00021104844803815576,0.00038445072464398603,0.00038148251983772933,0.0003479071593158994,0.0004068515714979893,0.0005880406247216054,0.0008225662388392516,0.0009958318865676073,0.0010164210768735596,0.0008576465461805073,0.0005557117535139582,0.000179147954808505,-0.00020310044187091952,-0.0005367733590589596,-0.0007809220465747049,-0.0009019907184353087,-0.000873524648860086,-0.0006830094157926512,-0.0003415078786115691,0.00010881615138482186,0.000593826333584818,0.0010182942176780528,0.0012909175517520461,0.0013567707949365385,0.0012203519951245825,0.0009417840488642351,0.0006027923096869184,0.00026042091812966336,-8.131167414959068e-05,-0.00046085345763599117,-0.0009153313932275754,-0.0014335452875224208,-0.001938421569146785,-0.0023106626463194864,-0.002437796875874992,-0.002259426377512322,-0.0017871877824868932,-0.0010963082931436182,-0.0002988475389227354,0.0004893035763909881,0.0011786168732679627,0.0017248071056784448,0.002127464869333008,0.002405748793964971,0.0025630969609519993,0.0025654425320439326,0.0023533242668829345,0.0018851953653862014,0.001183410666731866,0.0003481747020074265,-0.0004743988780316164,-0.0011517293741472889,-0.0016149212928704248,-0.0018710737662961034,-0.001975364925433346,-0.001984497010562145,-0.0019203242014796207,-0.0017622945107004981,-0.0014689788348240544,-0.0010136690691685145,-0.00041419433148986344,0.0002569548722241139,0.0008856051955400461,0.0013472844508256227,0.001548076894611827,0.001462370309437655,0.0011509091191170705,0.0007439755722351321,0.00038818240823704307,0.0001780298243184023,0.00010933867007366198,8.543032772945908e-05,-2.1551814706479767e-05,-0.000285658914622951,-0.000667788841516896,-0.0010205094582015745,-0.0011599706667218173,-0.0009671221379866245,-0.0004604772985706675,0.00020238182170665916,0.000796560296942769,0.0011361082007624768,0.001158968063935421,0.000948349489544479,0.0006819939446736751,0.0005361289245029298,0.0005913983805030309,0.0007858980232952767,0.0009384358711363026,0.0008337964259363018,0.000333561156861949,-0.0005386083449174153,-0.001581699650672978,-0.0024867191851098394,-0.0029625135416784677,-0.0028570992138147464,-0.0022135288165374464,-0.00123566713073091,-0.0001899254178910142,0.0006995659412859104,0.0013120384383273791,0.0016326800974564564,0.0017164821475778315,0.0016440743249984402,0.0014888453778225006,0.0012980386532306367,0.0010833585078283653,0.0008200951553492055,0.0004593986125231112,-4.220468454487901e-05,-0.0006811288403254897,-0.001371676278660543,-0.0019446327496768778,-0.002197440609554448,-0.0019848794532402346,-0.0013057510241720571,-0.00032990966919948383,0.0006627430896567889,0.0014063226115029787,0.0017678703340433615,0.0017927059418698828,0.0016527790363444926,0.0015333214047000892,0.001526001877695719,0.0015857141699055135,0.0015659077903497532,0.0013037491585374014,0.0007061760434564667,-0.00020280141445289915,-0.0012866015472209563,-0.0023405067034048513,-0.0031530515361858705,-0.003563603169159751,-0.0035027598852588855,-0.0030079134186195154,-0.002210002594043099,-0.0012930081433123377,-0.0004366860735251694,0.0002385226731775182,0.0007033491450868135,0.0010141969674562902,0.0012709105427388058,0.001556274650494372,0.00188777935130256,0.002208438297379051,0.00242175315061677,0.002448344879291994,0.0022678636306577484,0.001920713427283776,0.0014727058610259792,0.0009714061364185249,0.00042701333822564407,-0.00016958317531219017,-0.0008077863103770756,-0.0014290577025197933,-0.0019326618594914563,-0.0022142484407106427,-0.0022146354103410497,-0.001950856008128431,-0.0015126523799324056,-0.0010260204924009341,-0.0006011720448733204,-0.00028952389464457205,-7.08078010971452e-05,0.0001226892229066784,0.0003576093195131751,0.0006543835013357625,0.0009716320349744583,0.001227302607817055,0.0013399862528217289,0.0012630145279429184,0.000993827385005243,0.0005622905816920134,1.5625804237942315e-05,-0.0005862267501852826,-0.001166312259198693,-0.0016303360359968305,-0.001881432435063049,-0.0018492230465398654,-0.0015198974604605858,-0.0009492856303976488,-0.0002473813729275413,0.0004615301053290115,0.0010827489429813143,0.0015740407186411083,0.0019355955909435513,0.002177872151432859,0.002293016531650603,0.002250897600324487,0.0020212990799896597,0.001605087055409233,0.0010513375186176495,0.0004457181052591429,-0.0001277769377012912,-0.0006317873577735347,-0.0010974175139544006,-0.001600423773442833,-0.0021955072488699344,-0.0028446912342297752,-0.0033905527822311347,-0.003605873115067723,-0.003304867705175373,-0.0024567312540044557,-0.001231432446519278,5.833621244877182e-05,0.001094638175637029,0.0016969961820003153,0.0018900583552553707,0.0018597316241681652,0.0018279731665616153,0.0019234118171543003,0.002122754329735251,0.0022897060309421194,0.0022768663981804346,0.002021474557979826,0.0015774054743673287,0.0010712500250444805,0.0006176074564537863,0.00024940415067042226,-9.508070761215311e-05,-0.0005230447983492694,-0.0011066002517283132,-0.001818985702818535,-0.0025261584011527175,-0.0030405590243208196,-0.003207195242192037,-0.002973607784105371,-0.0024074247654142372,-0.0016587405510655182,-0.0008947611962136329,-0.00024169003555474965,0.0002454310728384231,0.000583575623459389,0.0008414994272359333,0.001105875595956199,0.001440219533196149,0.0018484043672260385,0.0022610771762389074,0.0025591368791714106,0.0026293251022795833,0.0024240005810913096,0.0019888575478903,0.001438183505609007,0.0008890909405824821,0.00039402411255775997,-8.413351712003968e-05,-0.0006338893722847422,-0.0013138674952330371,-0.0020797691604231457,-0.0027704583231028153,-0.00316913880014622,-0.0031080226541688365,-0.0025565498617902494,-0.0016429178775193422,-0.0005989170474848201,0.00033817959282902825,0.0010125222978367532,0.0013840444724990849,0.0015038151481405926,0.001457565170869872,0.0013166296974448804,0.0011210847520662691,0.0008916585098689002,0.0006465528990094679,0.0004016370970224548,0.0001543345115863218,-0.00012713877655119873,-0.0004871037414760711,-0.0009388998225507142,-0.0014222254329501892,-0.0017974541964799634,-0.0018940657989436392,-0.00159539493820462,-0.0009136376091108747,-7.110526245801985e-06,0.0008790563180773284,0.0015223760787204184,0.0018231515116287943,0.0018381806557373082,0.0017291936098043333,0.0016579571728228973,0.0016912727498887216,0.0017710818854623242,0.0017625869319003405,0.0015443087296490004,0.001080689074120083,0.0004343527736986033,-0.0002822480198037601,-0.0009772766584228447,-0.0016227767489725706,-0.002243021771010241,-0.002858325440103074,-0.0034248967727466993,-0.0038150791029784156,-0.0038579917562740337,-0.0034237260315767098,-0.0025065942740665195,-0.0012593666246831928,4.7315314427230594e-05,0.0011284112487636414,0.0018036686459013303,0.002071745219824011,0.002097304033834114,0.0021139845262668705,0.002293274673385545,0.002650208546002541,0.0030374116029897734,0.0032300238370250147,0.0030536959148943174,0.0024841212820783743,0.0016624270708586741,0.0008183772840165005,0.00014643320055412502,-0.0002938288151248205,-0.0005982394782184737,-0.0009523166963425942,-0.0015185930556823454,-0.00233595264025279,-0.0032785846384323514,-0.004091990221564024,-0.004489969693856595,-0.004271476347389339,-0.003407597988798881,-0.002060799333063447,-0.0005281819783232273,0.0008647307882059716,0.0018719974098836793,0.0023936902946343885,0.0024818606724911706,0.002294316720711096,0.0020208496716002163,0.0018104478585988844,0.001723703289821129,0.0017241711377041181,0.0017070893711255523,0.001549385846972226,0.0011599890100297283,0.0005162145144848433,-0.00031838864671915063,-0.0011970204168654402,-0.0019191433839694531,-0.0022893472214913493,-0.00219240575308393,-0.0016522029166712358,-0.0008388932096961473,-1.030083132276408e-05,0.0005908246596329524,0.000835114168336675,0.0007510388575192846,0.0004932773679419871,0.0002536620948531067,0.00016446890659663118,0.00024508200868629017,0.0004130377101995873,0.0005403912953809448,0.0005151682134915195,0.0002779762990819771,-0.00016861895933106182,-0.0007626864278072749,-0.0013879189337502923,-0.0018883185424132627,-0.002104826158709441,-0.0019306380395387244,-0.0013605785993421019,-0.0005044590956279427,0.00044809249156764854,0.0012964701897522168,0.0018988967757870728,0.0022113649047694273,0.00227992864437655,0.0021933586636388824,0.0020235969420648136,0.0017887963531213894,0.001460114200225049,0.001004054899966042,0.0004270491560806745,-0.00021196118015939878,-0.0008302074694257519,-0.0013683243423801453,-0.0018186057059258523,-0.0022106560797513198,-0.002563682744478778,-0.002841853715156842,-0.0029492507393870777,-0.002773424335993738,-0.00225221329001884,-0.0014220168786996024,-0.0004171125651229977,0.0005804555770370864,0.001412212777990596,0.0019971679709496217,0.0023422221035142633,0.002509406368091347,0.0025639591176696303,0.002534895979652463,0.0024090144720500567,0.002158011285711317,0.001778261729147411,0.0013141305131655744,0.0008443194754078932,0.0004346351024806111,8.706101579184338e-05,-0.00027494711107245494,-0.0007637869253843383,-0.001445768088666523,-0.0022703034302748054,-0.00305991350906442,-0.0035748617575125127,-0.0036197243004448282,-0.003133976747069587,-0.002219993661038118,-0.0010987454984860568,-2.0265844625948822e-05,0.0008270530332592365,0.001370018755254965,0.0016489904653202874,0.0017683217126183144,0.001827801393518372,0.0018717395099772487,0.0018799502736511326,0.0017984132803712063,0.0015841219954742989,0.0012342054845477096,0.0007852675944796138,0.0002914552772208764,-0.0001982911474566787,-0.0006491204761022273,-0.0010357343487166985,-0.0013346304634036651,-0.001521307817224508,-0.0015731339921957774,-0.0014745093801580623,-0.0012218091195749703,-0.0008274296539128301,-0.0003229063673972827,0.00023919541123056673,0.0007864058315696185,0.001234608732219909,0.0015067663225778551,0.0015583704194980464,0.0013969777200674644,