0.0007112635780537056,0.0005881504990325245,0.0006011705680680054,0.0007547416844359302,0.0009301870431456564,0.0009654139003288308,0.000753330560754308,0.00030047360475094387,-0.00028052472535040917,-0.0008289327227986331,-0.001204752753016832,-0.0013329176109164614,-0.001209816933772857,-0.0008822534312868899,-0.00041981119869808703,0.00010266960385801579,0.0006093175443260693,0.001023354944559551,0.001275009129132261,0.0013206631041519108,0.001164069071395712,0.0008637237910341368,0.0005152965250441786,0.00021177835377958953,-1.3792140476989734e-06,-0.00015210692979994618,-0.00033050240228687773,-0.0006399327543501337,-0.0011308335560359292,-0.0017508609850865767,-0.002341794632258316,-0.002693087026202191,-0.00263297776971905,-0.0021150641174842596,-0.0012544134887387275,-0.0002878518334352309,0.0005291568474143389,0.0010397500310886923,0.0012536458042227887,0.0013247218795343467,0.0014485208831385835,0.0017406304137727248,0.0021705708773499034,0.0025892863895804197,0.002826093598280125,0.00278790293465928,0.0024986317829637375,0.0020616566833565678,0.001578416328336769,0.001079783589563948,0.0005137053030924414,-0.00020467515081593946,-0.0011127693312008395,-0.002141163321418079,-0.0031140289284737064,-0.003811892915984719,-0.004061727965749291,-0.0038055814070816975,-0.0031162871948206966,-0.0021613427514626613,-0.0011403648437248285,-0.00022592775256362048,0.00047339850684060885,0.0009235423027952926,0.001154016339743883,0.0012331700254825857,0.0012367759463527785,0.001217941081896674,0.0011882346360006838,0.001118841365777318,0.0009633739099060147,0.0006928437890995273,0.0003249507496246389,-6.94902422367057e-05,-0.00038961184549534365,-0.0005479677125313501,-0.0005123027482528218,-0.0003213394019129412,-6.322422939373162e-05,0.00017217403808435488,0.00033867187774773406,0.0004499334352852018,0.0005591383754615358,0.0007180723997348257,0.0009420057861137018,0.0011994152810823426,0.0014280704504381655,0.0015632852315933302,0.0015587892124768786,0.0013882751237832974,0.0010323935298298453,0.0004707615962119497,-0.00030227059243939907,-0.0012398228904807601,-0.0022103283898627377,-0.0030064579419782898,-0.003408429295304282,-0.003276440440518551,-0.0026212440938594758,-0.001609806609559678,-0.0005000394916311489,0.0004606944284029921,0.0011206515056187173,0.0014536446461713946,0.0015290012505963096,0.0014482043802271543,0.001286694283615434,0.001068370829971469,0.000777105880343406,0.0003894869444343429,-9.346949148227078e-05,-0.0006305497035965064,-0.0011427327832984231,-0.0015282523065518717,-0.0016858955599540273,-0.0015455688246661615,-0.0011016121961891039,-0.0004336386158532938,0.00030566975930223367,0.0009433624904316151,0.0013590022154259859,0.001535208012660114,0.001551261559846574,0.0015221511346870443,0.0015249540568370444,0.0015628818692522309,0.0015856177526507947,0.0015391553522150513,0.001398479524010642,0.0011585138264603749,0.0008017037687273128,0.00028542897944904846,-0.00042357153274119727,-0.0012851644323106722,-0.00214559611055615,-0.002769302211678549,-0.0029432016308756164,-0.0025969687445521468,-0.0018605609784810068,-0.0010130926523898034,-0.00034513205586219264,-1.3697680953212669e-05,2.3620500021323196e-05,-4.250612444623315e-05,-6.420543433217733e-06,0.00022206917240496019,0.0005698696814998121,0.0008590384509569865,0.0009261551559243235,0.0007220730127209399,0.0003317601462419254,-8.797680565889206e-05,-0.00040161193412303485,-0.0005545495651440207,-0.0005674658744877968,-0.0004840563750348227,-0.0003210001168690328,-5.881994177248887e-05,0.00032491310518922975,0.0008110610896640714,0.001319104778672651,0.0017273013795819714,0.0019208735693388762,0.0018413811181361905,0.0015134259209988075,0.0010385458328005014,0.0005596972631993634,0.00020762680649762956,4.504156859312311e-05,2.9841271854389817e-05,2.1187698034303684e-05,-0.00015923512707401643,-0.0006280921308752879,-0.0013530927590882761,-0.0021345709343470283,-0.0026807847220936603,-0.002745802136039455,-0.0022563985534584897,-0.0013562690092163827,-0.0003426854550810307,0.0004681254328821852,0.000874509930418264,0.0008578753250522154,0.0005633828613814303,0.0002147285712674721,9.456676478631493e-06,4.015077931048862e-05,0.00026846480563401257,0.0005553037919674626,0.0007302133075358166,0.0006704357642788938,0.00035728068480585847,-0.00011401851989935037,-0.0005755263303179458,-0.0008594448933215597,-0.000866410778278225,-0.000595935313908722,-0.00012926175994283108,0.0004161321224616392,0.0009286463899856485,0.0013222051756943166,0.0015386748701716212,0.0015509876145969987,0.001375170076858853,0.0010788012354761675,0.0007643452286056176,0.0005209629561849687,0.0003679938299553983,0.0002316657614389447,-1.636123102248012e-05,-0.00047027504536693767,-0.001103020041094951,-0.0017415938685772982,-0.0021320110423780243,-0.002064324890718436,-0.001486367076956745,-0.0005392226119897655,0.0005037262381517877,0.0013540273898684399,0.001814531221660493,0.0018265411803815176,0.001453302310093353,0.0008297908981666257,0.00011331907591681512,-0.0005497038270880807,-0.0010461269793471655,-0.0013171599286150252,-0.0013763272887207401,-0.0013099922054820266,-0.00124737280702152,-0.0013033473112284812,-0.0015173592093623762,-0.001820237989699076,-0.002050025693435011,-0.0020136174589385804,-0.001568430916575872,-0.000690107526329229,0.0005006504856537473,0.0017638869110077338,0.0028131366077570547,0.003411657246860448,0.003455569962079166,0.003007791961615278,0.0022655476565765437,0.0014749843537076434,0.0008330140735258993,0.0004229678698325287,0.00021149277357473354,9.980480870548213e-05,-6.023040843067609e-06,-0.00014650366821446908,-0.00030383200054837187,-0.0004334097405521726,-0.0005039706369684423,-0.0005184033672388879,-0.0005056721363829631,-0.000495916461392791,-0.0004996009330087742,-0.0005036021287526866,-0.0004827243102962981,-0.00041706621025246063,-0.00030712388488267307,-0.00018308353646404128,-0.00010558641264083552,-0.00015278022486791025,-0.00038955745291829186,-0.0008248981158970993,-0.0013784217766867682,-0.0018843590760416304,-0.0021472685258853846,-0.002030914018182015,-0.0015316972753337205,-0.0007880363304648111,-1.4169313383230464e-05,0.000603142875722832,0.0009817885830303683,0.0011525092060365933,0.001204819960084739,0.0012173460105750855,0.0012205979164714865,0.0012062739325234045,0.0011590415066779934,0.0010755647969820823,0.0009566830004146881,0.0007893656878605977,0.0005463964213929659,0.0002141367585016974,-0.0001708513601346097,-0.0005098405371460276,-0.0006735402184545841,-0.0005641704833632979,-0.00017192964062319113,0.00040634518951372634,0.0009941688680952453,0.0013933515204660966,0.0014517872217844788,0.001123361262289679,0.0005012840329016255,-0.00019881836600556648,-0.0007207256520867635,-0.0008935444643442393,-0.0007366057929275804,-0.0004668450586404196,-0.00038075726960390334,-0.0006688332303005987,-0.0012797362272757226,-0.001931053669384134,-0.0022690490802714193,-0.0020771626096069157,-0.0013982491810960286,-0.0004959143606869387,0.00030855041798342336,0.000808057279304504,0.0009838462328806128,0.000957125219714636,0.0008782653994185982,0.0008383323316227122,0.0008467036553840468,0.0008589470404152335,0.0008129709526545016,0.0006501964168667712,0.0003302550354966447,-0.0001451769520802986,-0.000706082714140297,-0.0012136925198746756,-0.001505317960869852,-0.0014677059832470763,-0.0010933058138661422,-0.0004816731294951201,0.00021265005261912042,0.000848146442250451,0.0013382842598995584,0.001652143633159393,0.0017901530390337208,0.001762966037218051,0.0015884028991205819,0.0012992636581589268,0.0009438249079825574,0.0005694593322780519,0.0001994642006740259,-0.0001746390426769235,-0.0005716994606480327,-0.000981759526814562,-0.0013408763661190378,-0.0015474260746203828,-0.0015177113143218653,-0.0012455358468823974,-0.0008213952551979467,-0.0003920557791251757,-8.289713444448676e-05,6.807886139117677e-05,0.0001233003515983015,0.00019852318738126972,0.00038414650423990995,0.0006798565465922102,0.0009782693009627837,0.0011063265376803867,0.0009041224047918765,0.00030431974320007174,-0.0006227878013883113,-0.001677644744692201,-0.0025908976487364743,-0.003111682332726395,-0.0030903876351329428,-0.0025236163350770367,-0.0015464483143750943,-0.0003813286543619789,0.0007303138180513227,0.0015877473041891691,0.002069718004747789,0.0021539734359964143,0.0019214084214801488,0.0015406493431388843,0.0012236254444885322,0.0011523285118975898,0.0013996271009602147,0.00188493801235361,0.0023984130511912703,0.0026917476312411453,0.0025914585301913644,0.0020735103432635528,0.0012617029257228757,0.00035968292437965795,-0.00043783028670452834,-0.0010088740573268211,-0.0013250512135668186,-0.001438524808190328,-0.0014521683617406958,-0.001482761785057336,-0.0016213192061554811,-0.001897738220122752,-0.0022630607280150665,-0.002601899717106459,-0.0027764023041755917,-0.00268645933839529,-0.0023186489913067034,-0.0017578112802848558,-0.0011525588519618645,-0.0006509651160578941,-0.00033936297001654556,-0.00021424924965745065,-0.0001973912782765961,-0.000181334184716089,-7.988886957428299e-05,0.0001402588970562885,0.00045921475862468857,0.0008318238537800586,0.0012262575677778834,0.0016475677731590634,0.002126547780748271,0.0026758727901986484,0.0032414086634746367,0.003687389831717314,0.003837752161723504,0.003559427401403671,0.0028408926575705234,0.0018154606443212644,0.0007103331162038578,-0.00024976225285822627,-0.0009253068588914379,-0.0012835874284620602,-0.0013585208201684074,-0.0011944661411653415,-0.000827617581212154,-0.0003202491300866861,0.00019010800279745132,0.000487398830241926,0.0003511800559847047,-0.0003223755266846019,-0.0014301197216506287,-0.0026717715907151815,-0.003667662982527923,-0.004121004120526163,-0.0039341569396009295,-0.0032225721870255226,-0.002235184164425776,-0.001237960363786509,-0.0004214328055266335,0.00013687871360725705,0.0004587002900873797,0.00062094615594936,0.0007032028895374107,0.0007451318482984393,0.0007306541712425911,0.0006096575045863506,0.00034972404990548907,-1.2810409652246404e-05,-0.00036057907988073287,-0.0005380960275580913,-0.0004277387235067428,-1.1508190002187078e-05,0.0006201160723032107,0.0013155627678997544,0.0019334003452467362,0.00239318864963258,0.002680515193329739,0.002815952524884453,0.002822702980990678,0.0027225785962181255,0.0025586570723732578,0.0024123779505000283,0.002380886241843382,0.0025118474709723603,0.002734450998458729,0.0028430713326969025,0.002565447443679525,0.0016926621239034929,0.00020121406001640603,-0.0017058660415118082,-0.003666327416196295,-0.00529879732669193,-0.006341958344666933,-0.006726655159820313,-0.006556156363253745,-0.006017086591923043,-0.005273804566211155,-0.004402233715580742,-0.0033956104312750784,-0.002233059507384846,-0.0009616765176115125,0.0002701282033005315,0.0012607723308927193,0.0018605022206237948,0.002063850832400439,0.00202378099703589,0.0019735554378087173,0.0021042686071201626,0.002472540908428477,0.0029878237903383092,0.0034753766464517034,0.0037691586373222938,0.0037824667542969564,0.0035278245675232894,0.0030892755693511563,0.0025709589380981286,0.0020496099073052908,0.0015497008773687204,0.0010464275272568813,0.0004906541980463485,-0.0001558320777155283,-0.0008881539132704508,-0.0016421706037605469,-0.0023033427270212513,-0.0027404883140534197,-0.0028523414990676297,-0.002607686958466313,-0.002063225542528432,-0.0013544336575645587,-0.000664473621369611,-0.00017898535157161643,-3.37571058117523e-05,-0.00026535222317597895,-0.0007829534294593755,-0.0013836284905249605,-0.0018208806237897208,-0.0019070022812316687,-0.0016006832237882894,-0.0010277178615984146,-0.0004156760905145063,2.4594845812114102e-05,0.00020339142653076191,0.00018443118312323498,0.0001328710543555163,0.0002167444373943903,0.0005208240462828374,0.0010154238952700565,0.001584844200733477,0.002088351113287234,0.0024179880579955973,0.0025292449656295958,0.002438453228738267,0.002194825173901337,0.001843950967085048,0.001402904700459586,0.0008614493470266865,0.0002087453897745722,-0.0005315610930988611,-0.0012816666489128112,-0.0019210420825488328,-0.002326587320768813,-0.0024217119743517182,-0.0022081540079664256,-0.001763383162441354,-0.0012058038292852096,-0.0006476168929969149,-0.00016002311106669666,0.00023515164319549324,0.0005511622061279125,0.000814458268171126,0.001047200200026037,0.0012548128851625436,0.0014140790495784776,0.0014650979493217066,0.0013211949761878557,0.0009076019967387185,0.00021814728874690383,-0.0006441692008979753,-0.0014784903094566156,-0.0020574886701435584,-0.0022272690218447834,-0.0019805966121266136,-0.0014587420089531445,-0.0008774571617226884,-0.0004182767440509963,-0.00014759214907470483,-7.35981589689667e-06,0.00012498938864566843,0.00035127349082865467,0.000694113926470701,0.0010913256369685458,0.001432674337165745,0.0016092482531610032,0.0015515791241420308,0.0012497660065169617,0.0007587424242080738,0.00018977228998590286,-0.0003146905262927128,-0.0006214998235455204,-0.0006510281939450561,-0.00040682494213909815,2.389755746049719e-05,0.000501541585063105,0.0008858325260225849,0.0010869410418515102,0.001093881968989192,0.0009671602209472103,0.0007988668708471619,0.0006590861158187699,0.000554662650087354,0.0004215284878885052,0.00015665533772940814,-0.000323659753117178,-0.0010271101628161361,-0.001859767503417171,-0.002647175751543817,-0.003195167545064348,-0.0033635145576612836,-0.003118044844452738,-0.0025361298148165777,-0.0017639439254272405,-0.0009504821098822716,-0.000195959908204992,0.00045999652077564554,0.0010145164843621468,0.0014700395069309146,0.0018223730753260175,0.0020719214452253657,0.002237575518000647,0.0023496643852878676,0.0024193035800946674,0.002408188531395365,0.0022310924018317108,0.0018028997456084692,0.0011066254773060367,0.00023661988780160695,-0.0006181252066625176,-0.0012478167992798495,-0.00151280401691013,-0.0014016000084631202,-0.0010276514332362638,-0.0005711921798173397,-0.0001976080006995352,9.598975285551956e-06,7.139080720802715e-05,8.036717351698856e-05,0.00012813854965837077,0.00023275722098526318,0.00031143343357881593,0.00022133141610886304,-0.00014897090937504343,-0.0007888400385963171,-0.001533040897401276,-0.002115713355484234,-0.002290073612684795,-0.0019516607547821801,-0.0011955521984869778,-0.00027216367857421046,0.0005356112921653007,0.0010439799067591647,0.001233920597245266,0.001219428492478392,0.0011491480080974023,0.0011103290572419867,0.0010930517475478488,0.0010248712326869694,0.0008387884661152776,0.0005228577662156186,0.00012255038133988352,-0.00029452519728980636,-0.0006770188595576648,-0.0010010981368129312,-0.0012509427767061706,-0.0013916230295282356,-0.0013636614959999607,-0.0011099428555462181,-0.0006178994902025967,5.387563572130101e-05,0.0007843737964589731,0.001428874081772277,0.0018645960918234296,0.002022246127040621,0.0018968074929462688,0.0015421087970326388,0.0010542544184491678,0.000544780693035915,0.00010537681459827698,-0.00022540837092457433,-0.00047500103813166543,-0.0007144342284850489,-0.0010048321287445504,-0.0013404934293028206,-0.0016266746967464375,-0.0017149235871885974,-0.0014837308859545664,-0.0009198347383479921,-0.0001492882154980977,0.0006057383975883058,0.001124297270318183,0.0012847937250527247,0.0011099151317278447,0.0007367437527370253,0.00033458652351978004,2.044523488325999e-05,-0.00018330580020371485,-0.00033524570256137243,-0.0005241040503891146,-0.0008136762944571871,-0.001208453011088941,-0.0016474144845483956,-0.002020174991068685,-0.0021960505933819874,-0.002059264581885414,-0.0015459064126501613,-0.0006761472074942139,0.0004303462351467769,0.001570255363721509,0.0025100247854349077,0.0030642514335267133,0.003167134752671049,0.0028999781024938165,0.002454209375555988,0.0020408620314792056,0.0017870385132971937,0.0016708143756399157,0.0015312037745927082,0.0011548427477635454,0.00040132055569564893,-0.0006962008178576684,-0.0019133498852865949,-0.0029190709188413816,-0.0034248107213582725,-0.003319545300163793,-0.002715513341106832,-0.0018804871047280935,-0.0010992597017263068,-0.000545660064135399,-0.00023268584330141898,-5.5234298592381215e-05,0.00011461279137259988,0.0003422190366213717,0.0006003974957603157,0.0008014520754608485,0.0008625759750352689,0.0007612598465716193,0.0005477835428581527,0.0003102974042314382,0.00011836214139391362,-1.5702785161721806e-05,-0.00013166221242672687,-0.0002783478651766948,-0.0004661999464821314,-0.0006506006567749388,-0.0007558903812001146,-0.0007183993824209237,-0.0005153257802376209,-0.00016326047848835802,0.00030147054552213167,0.0008352809073244646,0.0013804762664486412,0.001852311544088315,0.0021447989714151747,0.002165391717196742,0.0018806442390143533,0.0013400454046226615,0.000658062152725711,-3.552599949445878e-05,-0.0006446270055029634,-0.001125248841933962,-0.001467292818240978,-0.0016605137895408482,-0.0016757609480742355,-0.0014791678093808774,-0.0010697160020983073,-0.0005101868453302192,7.618452076939657e-05,0.0005475644032272701,0.0008012027147889385,0.0008134929341820606,0.0006405700159249433,0.00038152141055634576,0.00012617828387587518,-8.488440169282258e-05,-0.00026889975290170405,-0.0004748440519781144,-0.0007364229428462672,-0.0010296362120833253,-0.0012617315962521625,-0.001305105446435644,-0.0010649845464520758,-0.0005462016534779886,0.00012210291304558805,0.0007268287608463894,0.0010637134637110058,0.0010367154157173719,0.000708672514064789,0.00027152391292347257,-5.0794681450321575e-05,-0.00011483999611052939,7.484269336591621e-05,0.0003770718208483863,0.0005941523513365134,0.0005756153383995426,0.00029210507348321254,-0.0001543507247108401,-0.0005825706851931619,-0.0008150194678794463,-0.0007487423812185161,-0.00038552700305479956,0.00018188640360910634,0.0008108251661939092,0.0013556867839768986,0.0017063222736822792,0.0018111584477130682,0.0016825320357424555,0.0013836629096372509,0.0009999800070238118,0.0006029010349734337,0.0002195650117591116,-0.0001760574841737435,-0.00064098183463606,-0.0012155240148378826,-0.0018742675281793017,-0.002507604811055897,-0.0029521558343757986,-0.0030587570724044076,-0.00276103809405025,-0.0021050720822467606,-0.0012243176540958963,-0.0002780353635787624,0.0006080191601167931,0.0013660922690712724,0.0019705492088070934,0.0024033734473272537,0.0026314751642649787,0.00261196473543993,0.0023174130084283664,0.0017589939941628856,0.0009913488856926494,0.0001007909264003487,-0.0008097248848354974,-0.0016293027561623621,-0.0022447432616340877,-0.002553669409551512,-0.00248974003952115,-0.0020510126875618964,-0.0013144977956706474,-0.00042532358923816,0.0004374311073530187,0.001106477710366292,0.0014713356001871858,0.0015124945704217494,0.0013127011976878243,0.001032239256573517,0.0008458643563926515,0.000862374164037223,0.0010673499682777635,0.001325384617993449,0.0014464448257562605,0.0012817345258069393,0.0007965286185175834,8.414325913130914e-05,-0.0006780054480480546,-0.0013004507929666382,-0.001647069811413713,-0.0016720582437335192,-0.0014226601582597823,-0.0010127595094927364,-0.0005792468761728722,-0.0002371215902181288,-4.856795086218327e-05,-1.4540069091155926e-05,-8.802845402426651e-05,-0.00020128968646408903,-0.00029659208975036646,-0.0003494289480734732,-0.0003739967437863113,-0.000406305453696679,-0.0004724528407717972,-0.0005618554627124916,-0.0006255148980481408,-0.0006029181647320314,-0.0004590944133803579,-0.00020477751020702459,0.00011394442006280403,0.0004459855371856263,0.0007609406492796976,0.0010520876928836681,0.001318726528564807,0.0015455792365648385,0.0016966405836558538,0.0017274248329393,0.0016058395533156086,0.0013283636922018106,0.0009247247506368959,0.0004524659012245989,-1.4876551022711439e-05,-0.00040522633829226406,-0.0006712240641474969,-0.0008132730625475002,-0.0008877061109891448,-0.0009857234824756115,-0.0011841877682358848,-0.0014916200714377792,-0.0018236524473429325,-0.0020294924836823224,-0.001960680822372624,-0.001546332869090485,-0.0008340364235981654,2.4743620977133243e-05,0.000835466679571578,0.001435689410885923,0.0017489010456768193,0.0017950958875039905,0.0016588934622267482,0.0014366588751661493,0.001192558136537833,0.000944628134680608,0.0006805263400526951,0.00038341307467916713,4.6239234587219335e-05,-0.00033111230308454655,-0.0007483066888478963,-0.0011979391753664489,-0.0016451776531087607,-0.0020122674257004756,-0.00218936670612644,-0.0020758188503536053,-0.0016325731485874431,-0.0009150671852068636,-6.411171835965686e-05,0.0007451841106124102,0.0013721706076888357,0.0017604169860879933,0.001940524256116163,0.001986025844047535,0.0019530849387259267,0.0018456694791224887,0.001628945107985318,0.0012774294808967567,0.000818117675813483,0.00033268463300670757,-8.569761892841202e-05,-0.0003902504684542298,-0.0006100885516100449,-0.0008275697600569067,-0.0011167303259608968,-0.0014844861386457222,-0.0018557732509105569,-0.00211342189196596,-0.0021642822926152233,-0.0019847168333430223,-0.0016163357132555813,-0.001123000865282869,-0.0005497156338359406,8.144223462709828e-05,0.0007387385676654919,0.0013470386117769456,0.001792419610109645,0.001973045569973358,0.001862939257720392,0.0015392379119945497,0.0011468575940250041,0.0008192622484326211,0.0006059937425585091,0.0004537472030737126,0.0002523923480355476,-8.379706445600307e-05,-0.0005496298022182003,-0.001036411931582726,-0.0013804292170473088,-0.0014454894471911208,-0.0011940967830621483,-0.0007084568823995381,-0.00015087123082551876,0.0003129557709249326,0.0005850267923537406,0.0006643005505700534,0.0006237775675820545,0.0005541231133934991,0.0005087396782033418,0.0004809573227095654,0.00042233153156668386,0.00028488218871974857,5.64143782194078e-05,-0.0002336424769030644,-0.00053674662849388,-0.0008143943993917909,-0.0010499943837734794,-0.0012359016817454125,-0.001349417742368889,-0.0013416636232277995,-0.0011543425403762293,-0.0007576380118977902,-0.00018391741727410635,0.00046895752082405347,0.0010721772078826515,0.0015201901801659532,0.0017722153984980134,0.0018565827889217628,0.0018375742670446685,0.0017675621326606419,0.0016544210806090983,0.0014626402493041425,0.0011447489288965574,0.0006810733416836641,0.00010197354373176737,-0.0005201379329706566,-0.0011012574293640307,-0.0015779719937364187,-0.0019228832550246952,-0.002138407665506271,-0.002238202491575487,-0.002230929098604896,-0.002115885004933327,-0.0018896899428808207,-0.0015560003614499196,-0.0011306014036003274,-0.0006397885387834645,-0.00011496846654904897,0.00041250529380053476,0.000914200692561765,0.0013652080866564389,0.0017429762085489394,0.002024719930290251,0.0021851505294384703,0.002198863363802653,0.0020511960616394326,0.0017546809820121858,0.0013595899748862213,0.0009458931377064843,0.0005946177559270581,0.0003519212462697952,0.00020637449405575535,9.307993833011818e-05,-7.66854845821762e-05,-0.000373893903795417,-0.0008157831362586351,-0.001349838210179446,-0.0018650496238226256,-0.0022282124086907685,-0.0023325099545142853,-0.002138717980967991,-0.0016913389809907434,-0.0011027995809329565,-0.000512263316951654,-3.530494277367803e-05,0.00027551405069464177,0.00044200217459900836,0.0005376093782868347,0.0006419167058568272,0.0007972684494514087,0.0009910596534314412,0.0011699202481852368,0.0012716323864684275,0.0012526552006176114,0.001098211223289911,0.0008180521641060964,0.0004396621189459971,6.3198762532152425e-06,-0.00042256875255323014,-0.0007765266829068088,-0.0009885777229300973,-0.0010154563969651629,-0.0008536695595050628,-0.0005422871136808666,-0.00015041550016567536,0.00024423540066963845,0.000575719578218852,0.0008024499617388748,0.0009111918401044899,0.0009144092316764477,0.0008416714627381317,0.0007248137789678025,0.0005794723321796069,0.0003909556617757547,0.00011492040235241486,-0.0003010332212486933,-0.0008794222635890993,-0.0015751057343119973,-0.0022599779029368644,-0.0027463339183762103,-0.0028473679238891565,-0.0024521614052135025,-0.001580717673874126,-0.0003908299353577008,0.0008691496683561593,0.0019414642270322335,0.0026386264593138056,0.0028896835066902467,0.0027400094323990595,0.0023144659426578445,0.001767931459542538,0.0012449383175940783,0.0008544542934649743,0.0006508908628421605,0.0006133463092254355,0.0006321996535709957,0.0005271055256739353,0.00011267298897595828,-0.0007034680473771162,-0.001838697125924031,-0.0030249546887578336,-0.003894605501972609,-0.004133641130448202,-0.0036285028918493813,-0.0025273182081490923,-0.0011779846234053854,2.797351759350965e-05,0.0008250069776736612,0.001169647281053219,0.0012188573822342784,0.0012126642148539396,0.0013342952213312698,0.0016267891157088108,0.002002688402984794,0.0023223854515543032,0.002479330511650416,0.0024397367046236937,0.0022270275546888455,0.0018804625982805482,0.0014253640765240717,0.0008709450020768219,0.00022544067789201502,-0.0004903974799374113,-0.0012396321854984212,-0.0019698072324056265,-0.002611639471723738,-0.0030802649667759996,-0.003290306637861395,-0.0031868195783030925,-0.0027758825599922075,-0.0021308982165502465,-0.0013648326002513012,-0.0005843821191634115,0.0001432743787430018,0.0007905117817110207,0.0013423448383003348,0.001770127349913029,0.002031220568801531,0.0020963002343460844,0.0019812113835135634,0.001755152027841223,0.0015144290665886737,0.0013357195321172261,0.0012365639525057648,0.001166527387376713,0.001034623028655218,0.000757808624658234,0.0003037392464529075,-0.0002938062370746215,-0.0009499869949971113,-0.0015599241778048003,-0.0020267114286762183,-0.002276935081289646,-0.002267548445826421,-0.001993334580318527,-0.001497414583095282,-0.0008751631328842103,-0.0002573692658260323,0.00023102661408200503,0.0005209865744209512,0.0006303713645658136,0.0006546593160677639,0.0007182316565800264,0.0009089239780015243,0.0012265456794083884,0.0015688924923236802,0.0017637895837076022,0.0016389586241614563,0.0011052004680275648,0.00021676211808542258,-0.0008251628341634454,-0.0017377270329996903,-0.002267044287918777,-0.0022921221534190337,-0.0018687185332848103,-0.001189928742341799,-0.0004856706514905312,8.347319524442407e-05,0.00048163596326180886,0.0007773982898434323,0.0010673645946664906,0.0013935669550659635,0.0017042730048516211,0.001878870811350226,0.0017991524000757942,0.0014242443687918962,0.0008268150022740549,0.00017029324218014529,-0.0003628961976304062,-0.0006575049252986227,-0.0007222568553348551,-0.0006846393318265371,-0.0007207249897157575,-0.0009531487202575706,-0.0013727298414394741,-0.001831008184387173,-0.0021125756918734633,-0.002049013694922175,-0.0016102181782203804,-0.0009212262714575049,-0.00019608467451451842,0.00037196328271286473,0.000701306575851129,0.0008447761818084591,0.0009362294631025075,0.0010961770348327027,0.001353459876055702,0.0016284442199821926,0.0017852869988391946,0.0017189319577491744,0.0014225103445503944,0.0009953213955016971,0.0005898162161342447,0.0003314200031222887,0.00025599203900512294,0.000294683013804458,0.0003093734860454751,0.00015923673097496902,-0.00023214640281206292,-0.0008381041885474772,-0.0015350485616020706,-0.002150547024353933,-0.002531055094263776,-0.0025968541355007465,-0.0023582042003703167,-0.001889338808655456,-0.0012823345494461776,-0.000612251158688712,6.89877685146566e-05,0.0007170006240203107,0.0012790841486133454,0.001694840771533354,0.001914386499227413,0.0019223375211309792,0.0017525617958205166,0.0014835111674398758,0.001212404336061334,0.0010157355830769797,0.0009117223165871565,0.000844091298989645,0.0007013399542226927,0.0003697286811842113,-0.0002017401326615463,-0.0009573676426803888,-0.0017376399566446014,-0.002331508019275581,-0.002555203712095359,-0.002322197068275191,-0.0016751034728696003,-0.0007696535961940736,0.0001783544815867705,0.000960043637332107,0.001431432430969105,0.0015478038516037324,0.0013687063011509136,0.0010328459389479774,0.0007062209598486575,0.0005152991642022963,0.0004890059671725721,0.0005392782018000689,0.0004992495979385867,0.00021018323739807176,-0.0003826737893171091,-0.0011777408229010316,-0.0019424004320594424,-0.0024085351295392785,-0.002390849662203414,-0.0018674333326748878,-0.0009839535782646975,1.5094590266195081e-05,0.0008888009873092039,0.0014856712430588645,0.0017776386960322973,0.0018359010280048055,0.0017699901840685112,0.0016662024117243895,0.0015566888573600793,0.0014285963095782373,0.0012567731148387506,0.0010308887588830742,0.0007569827734900387,0.00043696242035506173,4.899448036536181e-05,-0.00044800769103918556,-0.0010816767864646934,-0.0018248358871325713,-0.002575145635572436,-0.003174103120245994,-0.003459482343914085,-0.003325429831106632,-0.0027615664567960142,-0.0018560774509278394,-0.0007666046130939074,0.00032529621250769263,0.0012592332614525898,0.0019288766702825885,0.002296810913401866,0.002390566298413113,0.0022840140467597393,0.0020716597880746394,0.001842897236677512,0.001660417756187515,0.0015458839990766594,0.0014774789689012658,0.0014032942635986488,0.0012675189806812246,0.0010364944020950955,0.0007085228082089976,0.00030081487250325774,-0.00017605656600315028,-0.0007342557585955103,-0.0013971367417490474,-0.002160367755324443,-0.002948771378372864,-0.0036035728333567623,-0.003923490697531737,-0.003750527491937949,-0.00305673872831023,-0.0019781498263761023,-0.0007685780110453038,0.0003059046914568092,0.0010748149527419998,0.0015164493943646098,0.0017336583981909929,0.0018731663352008151,0.0020365893154598506,0.002230360938987696,0.0023770282561485123,0.002375762758700788,0.0021730147352296797,0.0017996900564477957,0.0013524626794807738,0.0009319019106699457,0.0005778002535404354,0.0002450760643078638,-0.00016088224254120996,-0.0007085748276840149,-0.0013717314576903042,-0.0020143211231324247,-0.002444941846923836,-0.0025129430108525876,-0.0021902544236408854,-0.0015890352938267805,-0.0009037165210878874,-0.0003124898590834039,0.00010270999859913978,0.00037250470881350925,0.0005889668203932694,0.0008250941736282268,0.00107832190305661,0.0012721834520855496,0.0013099254229766307,0.001139921225671378,0.0007879316456198672,0.00033796627789578037,-0.00011869755370272567,-0.0005262815977987645,-0.0008703921281235294,-0.0011506662812685719,-0.001349680737140958,-0.0014266874966118025,-0.0013405803688505825,-0.0010815897997051944,-0.0006858424651996641,-0.00022246100472616542,0.00023627014359666967,0.0006413989846933994,0.0009756775599195672,0.0012424615500413172,0.0014456750091413032,0.0015759034098911965,0.0016128807776228373,0.0015427278860075497,0.00137675398367372,0.0011562979140466942,0.0009372209803100605,0.0007613831506229012,0.0006309844679021569,0.00050026215001502,0.0002901302689967472,-7.895387425364375e-05,-0.000647640146863331,-0.0013863871067420824,-0.0021860674806656703,-0.0028795395268900272,-0.0032925517940522227,-0.0033071978191640443,-0.0029096441486330645,-0.002196722133875462,-0.0013359818247240221,-0.0004996020419406063,0.0001940969967126336,0.0007061310884071773,0.001065679587840582,0.001336446896266517,0.0015787358916595573,0.0018200835082734733,0.0020423638733523693,0.0021907795331589947,0.002204149749145657,0.0020538291830931683,0.0017687074786997708,0.0014277109870465734,0.0011204212887735187,0.0008980163418327676,0.0007441690578005528,0.0005828765953574815,0.00031715084713406633,-0.0001239325553641737,-0.0007520655833767778,-0.0015100622156018603,-0.0022833214672950165,-0.0029264103574903706,-0.0033000298749386214,-0.0033115300367203265,-0.0029457075806506388,-0.002270210941031807,-0.0014094783268496195,-0.0004995642674614457,0.0003508536440003712,0.0010733625749397141,0.0016276970980235905,0.001984451899137944,0.0021223580991181394,0.0020424118268791177,0.0017838351251262402,0.001424778449062781,0.0010628839270891894,0.0007846510915993977,0.0006376416830644756,0.0006156577359545652,0.000660312553304419,0.0006778370972364875,0.0005678291500719648,0.00025854006916370387,-0.0002605050893996637,-0.0009217301623797483,-0.0015908418433114905,-0.0021082419801510353,-0.002345595250911636,-0.002250616739415494,-0.0018572600019843768,-0.0012584583646071653,-0.0005611602344460457,0.0001474718731604538,0.0008049405466516366,0.0013553820702998914,0.0017336586812324837,0.001875488935425919,0.0017549396926619528,0.0014223502795233456,0.0010050596750938092,0.0006533740736106988,0.00045487686161344823,0.0003714822643489296,0.00024831641671041677,-9.915313564789639e-05,-0.000765029855974749,-0.0016702708220713803,-0.002569151903323441,-0.0031467942722099565,-0.003158986372528194,-0.002543179931837946,-0.0014464952315466483,-0.00016134588095716,0.000994310451465339,0.0017924305218669856,0.0021571464373570074,0.002158180949349923,0.0019531118771806998,0.0017122075988061209,0.0015561039991107022,0.0015231799657047334,0.0015703004367017268,0.0016015517762942091,0.001513570148027008,0.0012415666156859475,0.000788066663170901,0.00021993992034971955,-0.000368258928781555,-0.0009071863911598602,-0.0013891553203492038,-0.0018595816799840954,-0.002362767069423362,-0.002876695715151089,-0.003286544576876736,-0.003425087444459646,-0.003161913032963944,-0.002485847601398754,-0.001525562809669916,-0.0004930626113313308,0.0004152008419311374,0.0010997938917715212,0.0015775213511833761,0.0019348884249966252,0.002251228565777907,0.002540302099806023,0.0027422667747505495,0.002764572631670912,0.002542698728732472,0.0020853491244906194,0.0014828945628284507,0.0008785433840681608,0.0004157096658470422,0.00017995042277265067,0.00015518836331737099,0.00021448150892519835,0.00016004842392200602,-0.0001913650669915488,-0.0009099700715569966,-0.0018931294780434537,-0.0028861330240024623,-0.0035832958973837682,-0.003759905221498137,-0.003364598433050537,-0.0025253567390071505,-0.0014741672532517023,-0.000440229023804627,0.0004287314740547515,0.0010849783962777353,0.001548512971700324,0.0018593656104541941,0.00204663253270407,0.002123697618862779,0.002097642679344305,0.0019759199637199533,0.0017640902228363814,0.001461096279797886,0.0010607340499219253,0.0005605002318658413,-2.7599009267098053e-05,-0.0006690291140141839,-0.0013026237964414533,-0.001841841195493533,-0.00218619036015921,-0.0022465592405630994,-0.001979139086998667,-0.0014121138992784948,-0.0006477829344549526,0.00016581465778877302,0.000882287976437102,0.001400443633780763,0.0016837620174824798,0.0017504184194521452,0.001645367247960414,0.0014134684776777322,0.0010867561386473969,0.000686467936186275,0.00023191365804309705,-0.0002518267855526895,-0.0007308275105482896,-0.0011639702842897973,-0.0015086802652958897,-0.0017291454247577204,-0.0018030077128751959,-0.001721997556053426,-0.0014868773640519689,-0.001104234752447926,-0.0005933130533477549,-7.554307994059838e-07,0.000592168371779061,0.0010864617045145493,0.0014056183904691097,0.0015348428701484197,0.0015279757574633423,0.0014709835343917218,0.0014241185561009828,0.0013835683988938055,0.0012905846801204938,0.001080297494307869,0.0007317422006898999,0.0002804330391163783,-0.00021363563690795243,-0.0007118767908158755,-0.0012139731739316156,-0.0017276001764567287,-0.0022155014748931013,-0.0025694701354570934,-0.0026450988532034673,-0.0023440279029366827,-0.0016885077130900877,-0.0008313994652335108,1.2882499438098818e-05,0.0006755532520049822,0.0011102007650593316,0.0013903121043396614,0.0016319130940209072,0.001895726769012956,0.0021362173316142753,0.002231676327190581,0.0020731620299093458,0.0016501170434806247,0.0010739599323467772,0.0005233144699977473,0.00014528343237741204,-2.658598137203136e-05,-8.910405094668741e-05,-0.00021211288113459148,-0.000539896795621794,-0.0011049317554164826,-0.0017989482447761027,-0.0024157600149356155,-0.0027439814643469658,-0.0026627660877095883,-0.0021924375914551706,-0.001476072340919842,-0.0007055500325461911,-3.51003669344431e-05,0.0004707908845858202,0.0008321253733678737,0.0011036091814665828,0.0013181474503812468,0.0014610948313355764,0.001489041262580358,0.001375547485760512,0.0011475195342784436,0.0008828594697300938,0.0006685089633325953,0.0005476102140070668,0.0004933374026001262,0.00042863911716962825,0.0002793073461460503,2.5225036790890894e-05,-0.00028340063795890863,-0.0005540175231562647,-0.0007043346100294063,-0.0007055634055128263,-0.0005906822684782804,-0.00042638615371837284,-0.000270618347472147,-0.00014445540622795962,-3.440062580019809e-05,8.101694564672949e-05,0.00020260923594696712,0.0003016696447816214,0.00033620492457128574,0.00027756244533607647,0.00012558997783209303,-9.770812500428596e-05,-0.0003662391529794559,-0.0006604046275033623,-0.0009601564051214456,-0.0012290216992141007,-0.0014081764137453556,-0.0014327131790619922,-0.0012636599498514454,-0.0009144356817532677,-0.00045145582309034926,3.4561844299371746e-05,0.00046950880457542434,0.0008230472058844964,0.001105809871209971,0.0013418383227642864,0.0015386392613863946,0.0016773362394990855,0.0017284674744819468,0.001678443660802918,0.0015439282754933022,0.0013622254751730414,0.0011654355034622262,0.0009581137693661732,0.0007136170826735656,0.0003891792172047619,-5.2018533379482104e-05,-0.0006232477133240028,-0.0013036999012163782,-0.0020311721393285426,-0.0026979545335341026,-0.0031601274098993536,-0.003273125060110808,-0.002951347602485563,-0.002224598188528062,-0.0012518584386355838,-0.000270160343239094,0.0005039550060914684,0.0009681824200679927,0.001168327790897345,0.001251569438226284,0.0013683822418181957,0.0015839828885008665,0.0018513103414311497,0.002055100988801608,0.0020909794323184447,0.0019259067925160955,0.0016061246921349366,0.001217589944865161,0.0008320334727259852,0.00047252073350178387,0.00011260292512675586,-0.0002981771679417774,-0.0007994025201188367,-0.001390516384861353,-0.002015971265715402,-0.002569372452966858,-0.0029186586624395583,-0.0029487668258521738,-0.0026080157764476054,-0.0019363235972504954,-0.001057367073228105,-0.00013488120603235524,0.0006855278879727721,0.0013191073305955068,0.001749966835765145,0.0020071803028781938,0.0021295634684908526,0.0021419425438118336,0.0020531355348450296,0.0018692667595901573,0.001607164712347028,0.0012955750096861102,0.0009623096822412181,0.0006158364130978348,0.00023498519214081915,-0.00022175651389121716,-0.0007856739831078588,-0.001438889145877021,-0.002091406245930398,-0.002596010257547657,-0.002802604323769535,-0.0026266042222207664,-0.0020926365911583082,-0.0013269607905001387,-0.0005022356195746161,0.0002339831523079939,0.0008078398101971256,0.0012215668244288866,0.0015150468564234867,0.0017155207521998925,0.0018089053772574987,0.0017497478835088941,0.0015005087064873927,0.0010714249303051691,0.000531733723824574,-1.81019837711112e-05,-0.0004964506641660046,-0.0008780068661074301,-0.001189156900796933,-0.001461007356947474,-0.0016743643135286304,-0.0017426713756833296,-0.0015544924939874583,-0.001052385500331442,-0.00029416855501769297,0.0005495044076066263,0.001265456796721253,0.0016951579261093631,0.0018013806434732038,0.001668773715700996,0.0014442459582593454,0.001255564142475869,0.0011528689413403401,0.0010996188214287966,0.0010103899481240372,0.0008086037638823434,0.0004693094619424688,2.4397354301929812e-05,-0.000467082868993838,-0.0009583185621396123,-0.0014339545770046323,-0.0018956684469576142,-0.0023267397533062533,-0.0026654194326023225,-0.002812265590946463,-0.0026726399810739774,-0.002209341322418595,-0.0014714733052882583,-0.0005807605894178726,0.0003159926691618949,0.0010995821090070213,0.0017073751999185697,0.002127476896654545,0.0023700383624984285,0.002441030218544013,0.002338323037683775,0.0020691567330416486,0.001668312577486688,0.0011949081725179558,0.0007054127635945963,0.00022455041676006148,-0.00025828203764276204,-0.0007588886204330553,-0.001255237201573665,-0.0016662096727865063,-0.0018741539614593734,-0.0017836048971595284,-0.001382547543343182,-0.0007670243038929711,-0.00010897306139831075,0.00041915940518361203,0.0007214666670711952,0.0008125116811809104,0.0007891755910746813,0.0007601910538134863,0.0007784010366196012,0.0008156662056990902,0.0007901797460268126,0.0006232082208145096,0.000288313680126413,-0.00017371732274884316,-0.0006774314114479387,-0.0011345936830995263,-0.0014885330302393885,-0.001720816804034618,-0.0018287992594268354,-0.0017935324959016353,-0.0015670916696831404,-0.0010972481308434562,-0.0003798845260834439,0.0004963033180940342,0.0013517594410714262,0.0019775326015419223,0.0022285116808073036,0.0020945937779530983,0.001705112368173414,0.0012613033167628586,0.0009345123914668238,0.0007867532571036609,0.000755377096499637,0.0007057342837499822,0.0005170302324238505,0.0001492897999115499,-0.0003457552304634657,-0.0008687889726610935,-0.0013349698426746424,-0.0017085337124262874,-0.0019895308270042626,-0.002171031608896643,-0.0022079877517682156,-0.002028977249448641,-0.0015872033764743956,-0.000913664136052201,-0.0001292364281815497,0.0006001933456091972,0.0011401341674577355,0.0014463692208885046,0.0015693011524351872,0.0016046461527537306,0.0016265556342209778,0.0016473862469534976,0.00162590144916447,0.0015102880390503348,0.0012796056261024234,0.0009530870464774174,0.0005656056436410305,0.0001358948796238488,-0.0003416097893870172,-0.0008728288791142141,-0.0014282549955667086,-0.001926495056046588,-0.002254438296737002,-0.002315483103349859,-0.002078046528053221,-0.0015953357092449644,-0.000983996535810518,-0.0003736956779138577,0.00014353480719649873,0.0005374431271108282,0.0008288633129768124,0.001056353986802195,0.0012419622891047162,0.0013744512275503567,0.0014174445552170524,0.001337258266541375,0.0011343479318687557,0.0008578380303554465,0.0005893959818196702,0.0004004117909871985,0.00030584464631463267,0.0002454764208033746,0.00011064256519166277,-0.00019259337199529656,-0.0006773524336440217,-0.001245955878710151,-0.00171754138875036,-0.0019043477235662657,-0.001700975991383604,-0.0011418067118018995,-0.0003954929526767275,0.00030397953458135966,0.0007578903817919386,0.0008860642809851338,0.0007514335071170561,0.0005142112704750641,0.0003411877341712398,0.0003197465110614901,0.0004222578988801798,0.0005361264583364936,0.0005367226813962323,0.00035830989457044204,2.4264867558199837e-05,-0.00037385371798593237,-0.0007278700900915805,-0.0009602427708405238,-0.0010412633676199971,-0.0009746864152170823,-0.0007718405908676152,-0.00043874309674876775,1.3368981947884696e-05,0.0005445404097698895,0.0010719809221436329,0.0014826500412724623,0.0016723507615799263,0.001593187315789789,0.0012835977060663014,0.0008613817559931037,0.00047686284394518293,0.0002436530104277711,0.0001795616580653051,0.00019056122311714337,0.00011221467475118976,-0.000206980049149046,-0.0008203197435831585,-0.0016393230027828398,-0.0024553476792060543,-0.0030172818632542998,-0.003129196273226321,-0.00272438976134107,-0.001886385080951393,-0.0008133006550575647,0.00025463180429583085,0.0011135026336156575,0.0016517727402447732,0.001867655519690674,0.0018471846738096712,0.0017160972590571327,0.0015866195420651693,0.0015201395008391783,0.0015181322932798164,0.001539288168432668,0.0015278554979235544,0.0014353187069720433,0.001226878599190441,0.0008781977601121668,0.00037528841225522636,-0.0002741732874827899,-0.0010224696506743816,-0.0017717300824008275,-0.0023876626356535073,-0.0027398205027993165,-0.002752268857011115,-0.0024371827463025944,-0.0018899415771833714,-0.0012455060670614841,-0.0006191322061308642,-6.484656398663509e-05,0.0004249015876555797,0.0008806150248002861,0.0013059652324239157,0.0016527044708376305,0.0018397183008831673,0.0018049979615258342,0.0015552473755923732,0.0011772774649808303,0.0007993027175492916,0.0005230136021017244,0.0003672622519346282,0.0002587001601616336,7.753906702041526e-05,-0.00026598587519730574,-0.0007681700484938539,-0.0013192473383290926,-0.0017502558570813695,-0.0019125708809454099,-0.0017449779613476692,-0.0012938757834710592,-0.0006828608796069467,-5.625200984678757e-05,0.0004705487937438583,0.0008338787293074321,0.0010191207950509288,0.0010474485174987592,0.0009650427709383994,0.0008352728866179589,0.0007247734425361151,0.0006783502271151767,0.0006921914770562515,0.000705003641525792,0.0006203751425409374,0.0003544156273815874,-0.00011435228321325912,-0.0007189139009274289,-0.0013162918683034782,-0.0017354406852671282,-0.0018410966718595322,-0.0015865604348724342,-0.0010326850235729192,-0.00032478670668745354,0.0003628618762695141,0.0008915929680422265,0.001204250202509717,0.0013318534350543702,0.0013582086933843643,0.0013617794969017992,0.0013680412396487856,0.0013396102311250989,0.0012066915101410587,0.0009136554814152244,0.00044931222955584796,-0.0001549602338042059,-0.000847761002239358,-0.0015743561656127298,-0.0022707495938885476,-0.00284419495906271,-0.0031678766938341898,-0.0031111839217646394,-0.0025993293139213976,-0.001669164280460802,-0.000483461744741601,0.0007125405667944566,0.001675926519796605,0.0022528872615456136,0.0024270073563709437,0.002307335281842877,0.0020629447964973287,0.001836807897764978,0.0016837069632868852,0.0015650441711242656,0.0013996899279344267,0.0011340597727606157,0.0007825452569851211,0.00041159084888648734,8.1377268615431e-05,-0.00021082621603754756,-0.0005419716957332117,-0.0010148103240780956,-0.0016745390024845072,-0.0024412910700580197,-0.0031065407468715777,-0.0034090323088847574,-0.003158963919303878,-0.002344723054780587,-0.001158504008704155,8.071093473644526e-05,0.001069172408608438,0.001648479107112902,0.0018533521553058168,0.0018555656577981393,0.0018433975330622604,0.0019108811674172302,0.00201915713226232,0.002042980558528238,0.001862622852208555,0.0014390401670702942,0.000829134364993174,0.00014116686804496433,-0.0005317477085966149,-0.0011519756068258881,-0.0017250445267877263,-0.002247058918230195,-0.0026549013465759375,-0.0028230087165355532,-0.002619078948206003,-0.0019884953707068704,-0.0010134455768413563,9.544369742028793e-05,0.001077196885376885,0.0017281894325572884,0.0019809729252018007,0.0019123563559774513,0.001680145379564455,0.0014287754167683518,0.0012195804291521796,0.0010223349932652317,0.0007639892706757978,0.00039555915390264277,-6.810463474995598e-05,-0.0005563479880963243,-0.0009837672183459474,-0.0012898202209819553,-0.0014511818066483212,-0.001467202354961066,-0.0013391819736506558,-0.001064082284331038,-0.0006473984875312172,-0.00012336416531257346,0.00043554083192300346,0.0009318596651266679,0.0012770093650555346,0.0014280531844682227,0.0014034218444525953,0.0012645949964909433,0.0010747272347252789,0.0008637626550949166,0.0006251810644687223,0.0003436190502938822,2.655619343250445e-05,-0.0002901712352525096,-0.0005700443163861482,-0.0008128334666283289,-0.0010650897888986493,-0.0013871280871595535,-0.0017946441457159493,-0.0022165135102838567,-0.0025035075996250305,-0.00249056841585087,-0.0020802597442318963,-0.0013000250703745582,-0.0002999859010278062,0.0007082455259004661,0.0015386905057026897,0.002098052912688596,0.0023994058291224147,0.002520192669638857,0.0025346550677263404,0.0024653246839976732,0.002283613628987325,0.0019537085322839567,0.0014824931898253495,0.0009354258191301811,0.00040604958999292053,-3.75382946514038e-05,-0.00038990072574799533,-0.0007035250021959678,-0.0010472011068096536,-0.001456885913267003,-0.0019101263190901018,-0.002335589410556426,-0.0026449564465151417,-0.0027636037848255495,-0.0026449104525310893,-0.002270593456376231,-0.0016500309778997174,-0.000826944896743271,0.00011184250615640543,0.001039644736483049,0.001814231376727779,0.0023174595083465255,0.002492099043104541,0.002357526545058059,0.0019972212164921987,0.0015251416631989329,0.0010466224422258914,0.0006293268115813155,0.00029302840589989597,1.801701601094172e-05,-0.00023477638769460268,-0.0005008576652269269,-0.0007934464755954967,-0.0010928746128185548,-0.0013462997190276586,-0.0014795738382386624,-0.0014212865363706195,-0.001133279444946659,-0.000635065869181868,-8.699453422624783e-06,0.0006208637970746423,0.0011225628786925186,0.001398733941532002,0.0014137245514256988,0.0012025050715044699,0.0008548507111135319,0.0004776489838513876,0.00014887227220628072,-0.00011409999291965372,-0.00035189781401047003,-0.0006242047389862186,-0.0009555302286233612,-0.0012994276633319368,-0.0015466724802175235,-0.0015771863151740968,-0.0013275070636760075,-0.0008334714061338615,-0.00022075141497422852,0.00035305555370059114,0.0007718136189974576,0.0010080874865977419,0.0011190082573111924,0.001195637310380278,0.0012967962274523428,0.0014065423935018231,0.0014403394689750104,0.001295879797840594,0.0009176477327020255,0.0003369063041996842,-0.0003346622969960982,-0.000951187994804324,-0.001391424321587521,-0.0016005636217830983,-0.0015985652985107748,-0.0014560067205658638,-0.0012519256136631076,-0.001034712265111056,-0.0008055894180868788,-0.0005331756028358415,-0.00018987372620025847,0.00021378536342598438,0.0006210237394092682,0.0009545071839912193,0.0011599504911127127,0.001237863640014444,0.00124028391053985,0.0012328350427760564,0.0012464559971069964,0.0012506368745273332,0.0011662194832801921,0.0009109071379079048,0.0004508650261774176,-0.00017145633822046678,-0.0008487191138833352,-0.001451286623529878,-0.001874916138413404,-0.0020670779275943968,-0.0020229967996601823,-0.001764428603139234,-0.0013235023753938875,-0.0007444294096126946,-9.633661683830562e-05,0.0005227046935287698,0.001005826170111074,0.0012774000162679789,0.0013293491492924086,0.0012273426029492439,0.0010778978348616373,0.0009726973219803213,0.0009412562484510008,0.0009377248314492097,0.0008674561139034243,0.0006380801022936402,0.0002095566216148487,-0.00037926174699117805,-0.0010179301568389164,-0.0015612325753064375,-0.001879115727470277,-0.0018981639743828886,-0.0016182905101367313,-0.0011029852640028505,-0.0004561074667214039,0.00019960216225465405,0.0007393170573493717,0.0010579082441110465,0.0011030848326805361,0.0009074830731787816,0.0005926926586606074,0.00032689835860466343,0.00024758805976030063,0.00038868991211434093,0.000654817932670375,0.0008608832480522079,0.0008199008878680505,0.0004369310716724723,-0.00023532377406405372,-0.0010053255205895123,-0.0016131902214082425,-0.0018334336945301241,-0.001566163694685073,-0.0008773308950001472,2.8387502488597333e-05,0.0008874295253908954,0.0014730216575124526,0.0016677658767013596,0.0014897486113432403,0.0010695808397913659,0.0005916046511223471,0.00022107873621762981,4.247867758864349e-05,3.187480335197006e-05,7.551799912537137e-05,2.7518498737868526e-05,-0.0002194291776803491,-0.0006825200911017527,-0.0012775746922800658,-0.0018487667047337813,-0.002223773707177349,-0.002272892620626971,-0.0019526733051775293,-0.0013205546415185196,-0.0005159638182111175,0.00028559989211197293,0.0009294735595519036,0.0013293122289113073,0.0014868952154456936,0.001475619931476298,0.0013952333051909054,0.001321141374762636,0.0012756796697519941,0.0012355668801277311,0.001166809631904035,0.0010604473448054185,0.0009412493882369394,0.00083915560684651,0.0007418051888077951,0.0005679791469628115,0.00019628180634846844,-0.00045355746373370383,-0.0013349321846512449,-0.0022487859430806783,-0.0029100641967800015,-0.003075991898888457,-0.002661907472132218,-0.0017786036890908212,-0.0006772237986391466,0.00035791791061407776,0.0011088518959947397,0.001476177237705789,0.0014799507165920865,0.0012287970576298807,0.0008780955476716595,0.0005863177381551336,0.0004702083252910057,0.0005633830112783054,0.0007938182186734313,0.000999825840818072,0.0009915606263766782,0.0006395846136742207,-5.006904095246193e-05,-0.0009160874569109375,-0.0016948149955869755,-0.0021262239643817433,-0.002064179167722711,-0.0015379891448027022,-0.0007357956975566713,8.049558591912082e-05,0.0006857012145229627,0.0009748701552310985,0.000985491605282149,0.0008565198823299819,0.0007499205863506389,0.0007714703306514093,0.0009228900939660402,0.0011036380314197198,0.001161896553387142,0.0009731752789270394,0.0005091521156762321,-0.00013976373603692411,-0.0008024370996443093,-0.001306109630364378,-0.0015523116883844603,-0.001546989924573299,-0.0013713811480090066,-0.0011178030072373966,-0.0008344970833840159,-0.0005127624866678787,-0.00011802189322250752,0.00036188314995720325,0.0008850483847382608,0.0013598042971973239,0.001680413475746375,0.001771458891588668,0.0016152465305167545,0.0012493316484356786,0.0007409578140579757,0.0001583105085688254,-0.0004434876735596242,-0.0010176649982575673,-0.0015129191565819485,-0.0018680306679823189,-0.002022932065917826,-0.001941601076002814,-0.0016312804591191582,-0.0011434945706370221,-0.0005554708125694703,5.523535610807862e-05,0.0006273352680388139,0.0011176432944810268,0.0014939725495182513,0.0017294768717445216,0.0018050922646087946,0.0017190014474454274,0.0014950386401412353,0.0011799821352192217,0.0008257483538294758,0.00046444583959426533,9.349007141167876e-05,-0.0003147101533509995,-0.0007797864331050668,-0.0012771814205176067,-0.0017253479728034842,-0.0020102378495476985,-0.0020360635413457025,-0.0017722241126334136,-0.001267881516975601,-0.0006276614429847915,3.2447456456643e-05,0.0006207876324632968,0.0010819485354371253,0.0013904901106318037,0.0015422036509191127,0.0015520271866003455,0.0014543542138216886,0.0012950127487614067,0.0011101575183606726,0.0009009890364008316,0.0006238074752333927,0.0002118104491133162,-0.00037420987203212763,-0.0010935270170954654,-0.0018090051492812655,-0.0023275016692292008,-0.002482110277722368,-0.002210615587096769,-0.0015837326375841496,-0.0007682547976573521,4.900480454985258e-05,0.0007304700468866547,0.0012166779273569026,0.0015124816689750542,0.0016531398108954312,0.0016754908406794188,0.0016041645664570188,0.0014472318753825518,0.0011938432686551658,0.0008166209317355634,0.000289210856933369,-0.00037839994490498273,-0.0011043706615827549,-0.0017305791012580942,-0.002069843592831337,-0.001991716609391039,-0.0015003947175900425,-0.0007525648855218886,5.844432262228907e-06,0.0005547127796708131,0.0008011165941710013,0.0008060753721340042,0.0007215555619111618,0.0006813143564153844,0.0007192907673770532,0.0007670467620377408,0.0007229575400777121,0.0005359424457599794,0.00024298760102063719,-5.952078254950217e-05,-0.0002819516311820283,-0.0003958907535461789,-0.00044320416682218426,-0.0004990241129111119,-0.0006151984563360527,-0.000779157430024571,-0.0009119665916590088,-0.0009066722244101015,-0.0006866348005871671,-0.00025390246242659427,0.0002975618883830416,0.0008136824251485995,0.0011462971284507831,0.0012227778962786073,0.001080432108731865,0.0008411584961104195,0.000636077473443715,0.0005233042686175267,0.00045015541250763286,0.00028611717007735683,-8.99155144652834e-05,-0.0006985236209572825,-0.001419409939917547,-0.0020285693011329385,-0.0022963675724435974,-0.0020959144320792746,-0.0014648690242518101,-0.0005882506439980989,0.00028794755645355336,0.0009654115366757558,0.0013670424000081119,0.0015407518255536653,0.0016004511565064863,0.0016453418638633214,0.001705104622788289,0.001735840125077051,0.0016571766162448598,0.0013990885970268723,0.0009306803684800915,0.00026459275062714455,-0.0005505989213503176,-0.0014356877129205437,-0.002281451572619231,-0.002954200391493158,-0.0033170121219815545,-0.0032672030952929474,-0.002776877051106747,-0.0019159294584769726,-0.000841419154637773,0.00024762665132549476,0.0011730866935996055,0.0018309165294546526,0.002210447722659205,0.002371979361179196,0.002396614991089553,0.0023377045356149997,0.0022019952543651114,0.001969049644666478,0.001630706278306416,0.0012173899038784195,0.0007880290763062333,0.00038955286276656635,1.808229847097406e-05,-0.00038436829895998844,-0.0008892124439014433,-0.0015216183939236799,-0.0022223985572358065,-0.0028576745663178764,-0.0032702832719190664,-0.0033418744279022222,-0.003033277919079331,-0.002389167546894766,-0.0015145506911657565,-0.0005409386051922334,0.00040311387866948464,0.0012116089902053015,0.0018122556509532631,0.002172276812712908,0.0023001554863526083,0.0022418028473978847,0.002068242307321965,0.0018543076530266947,0.0016541943929255336,0.0014852490800283706,0.0013292388214629605,0.0011493445922504224,0.0009098610583104439,0.0005853076735634566,0.00015796783061717981,-0.00038368433323816343,-0.0010326890883719997,-0.001739455052355423,-0.0023957464649883515,-0.002850250440584493,-0.002961130439156197,-0.002662677434659635,-0.0020067443009984293,-0.0011500505076789762,-0.0002901176403449486,0.0004163450053818931,0.0009089438131207984,0.0012256200611969691,0.001454670050766032,0.0016669652258154055,0.0018664883571738624,0.001983790230447342,0.0019123064079242585,0.0015668162546165435,0.0009356621930944214,0.00010297818787118442,-0.0007702613001315004,-0.0014999840440807833,-0.0019434100091905442,-0.00204252153242219,-0.0018267461306401053,-0.0013803348133032984,-0.0007999433541972032,-0.00016752428034556258,0.00045371485662436706,0.0010098463779872101,0.0014475895957905846,0.0017151004971434254,0.0017735738917072147,0.0016158426132277161,0.0012820640161888023,0.0008569793838976277,0.0004377575593617025,8.173360473000954e-05,-0.00023284670994148742,-0.0005968649503936248,-0.0011040677955655351,-0.0017648872427038602,-0.0024592367963748823,-0.0029671197940360616,-0.00306562401740548,-0.0026373148118104903,-0.0017293083174956072,-0.0005353886249096131,0.0006816628059283418,0.0016842162653126383,0.0023298901364842976,0.0025971809672054006,0.0025668230371918748,0.0023723614734896025,0.002140219814722014,0.0019412688818216948,0.0017713124670925033,0.0015664043230579222,0.00124396872298177,0.0007492506005003811,8.521535645173882e-05,-0.0006859707619475193,-0.0014662841440222017,-0.0021550069746784084,-0.002675019532611439,-0.002982196253078751,-0.003058109951410838,-0.002895695780127659,-0.002491965533807395,-0.0018572911832393292,-0.0010375964462680123,-0.00013190148926515343,0.0007156711730390913,0.0013574135101042765,0.00170179548861257,0.0017580490715265562,0.001634388391730493,0.0014840188351661313,0.0014263009296936638,0.001487884663038587,0.001597094986914216,0.0016325250360367024,0.0014958622268284234,0.0011678042587220752,0.0007178149444723803,0.00026413689755090805,-9.323108361065349e-05,-0.00032872753946907565,-0.0005030555955997838,-0.0007215193718970692,-0.0010622815714325716,-0.001517915680386963,-0.0019861082677729135,-0.0023144882293909545,-0.0023716309961042256,-0.002103501753323942,-0.0015485051997825953,-0.0008122822455733304,-2.4735079102550152e-05,0.0006961670784092185,0.0012628114315977057,0.0016227454657124064,0.0017594275875751448,0.001693432633446672,0.0014803669443441592,0.001198241770201093,0.0009215756947836085,0.0006894323653299681,0.00048342002114124433,0.00023264375103539643,-0.00014765817600241108,-0.0006960744392723361,-0.0013542235817150276,-0.001960011789627309,-0.0023011730686613163,-0.0022105575473294233,-0.0016548637258798015,-0.0007652908357445716,0.00021249650212808906,0.001026169893540551,0.0015248248437080547,0.001708814945340358,0.0016973740966488647,0.0016389460948592438,0.0016209881391687306,0.0016311317117980902,0.001585238213962244,0.0013955152339585222,0.0010308249484915408,0.0005328115625075065,-1.5489659194017663e-05,-0.0005411089601238715,-0.001016027003713661,-0.0014542881085246458,-0.0018775036496962005,-0.0022756745159725976,-0.002591703091187061,-0.002740497504352758,-0.0026500779351281054,-0.002298881901092048,-0.0017284556779072772,-0.0010280447823221512,-0.00030327287766562805,0.00035504754558496755,0.0008924517285271537,0.0013003285335532137,0.0016120124936009885,0.001882628071941522,0.0021548092990498614,0.0024248228256738454,0.002631782159780009,0.0026835437455324886,0.0025086190697178124,0.0021027918621611278,0.0015401547956466364,0.000940591088719546,0.00041189832627015256,-2.3149925811837002e-06,-0.000342183748872587,-0.0007075362563170842,-0.0011992242196070667,-0.001852703092316116,-0.0025980659938684906,-0.0032705244729556763,-0.0036701588458309736,-0.0036436753939833727,-0.0031498860476516033,-0.002280073643980286,-0.0012262459062470084,-0.0002116994265947774,0.0005883617695267209,0.0011047099173600197,0.0013858063610096129,0.0015571552719226215,0.0017473778395052952,0.002018020653824953,0.002331694077979636,0.002571832625155924,0.0026016896197049322,0.002333470172439652,0.001774943724601505,0.0010299705423692743,0.00025021481566722204,-0.0004377119757944608,-0.0009868349526153165,-0.00142948030039514,-0.0018192078251859083,-0.0021541742312808343,-0.0023399585461088275,-0.0022274306583953164,-0.0017097852460183762,-0.000818068798303631,0.0002511958652302854,0.0012037811758442464,0.001779237611775373,0.0018725251777953558,0.0015749234009157739,0.0011104356054919577,0.0007063572319661839,0.0004742608818815372,0.00036675717493472713,0.00022627112754444907,-0.0001103739205248074,-0.0007118329012584201,-0.0015051461063699226,-0.00229801121893793,-0.002854564516424932,-0.0029889392603528625,-0.002636553865664921,-0.0018739577942311848,-0.0008811516117052018,0.0001330884018610645,0.0010055269746405175,0.001658196193909815,0.0020913764504709815,0.002345332767222632,0.0024614080445688525,0.002465742758347666,0.0023762314396294833,0.0022144996337398627,0.00200489400293089,0.0017598805222775644,0.001468488470721071,0.0011041430898143453,0.0006497004862720064,0.00011855274821066146,-0.0004491591325530588,-0.0010150039693932358,-0.0015710451974046062,-0.002139553689188325,-0.002735276140617752,-0.0033143464832657617,-0.0037518966452556764,-0.0038769275018712282,-0.0035547461664213876,-0.002770988689729812,-0.0016636466867149978,-0.0004774103050935733,0.000539334817140256,0.0012393419521383872,0.0016253510943165927,0.0018177311748345034,0.001963758248895233,0.002145101917123155,0.002338220552853214,0.0024466891779255967,0.0023786907189710304,0.0021164502605656274,0.0017332424172962558,0.0013502465208472911,0.0010646356885543108,0.0008963025826873644,0.0007846706684168454,0.0006319238271920819,0.00035995521394856494,-5.4994464740245035e-05,-0.0005843770111750024,-0.0011730863854609473,-0.0017636018207623921,-0.0023017710819168867,-0.0027268773973494038,-0.002963412423539675,-0.002932197875080124,-0.002584251088881181,-0.00194099838512032,-0.001112371831677024,-0.000270770703171394,0.0004158670030941354,0.0008588465739654592,0.0010859629900333875,0.001213938978130551,0.0013687936856111125,0.0016023516334002243,0.001857993842778861,0.00200709749737181,0.0019303074957651124,0.001589000258469048,0.0010429626576222298,0.00041065002359734785,-0.0001935986734432388,-0.0007024971253588562,-0.0010983393470301733,-0.0013859055463713965,-0.0015629623497870082,-0.0016095664462851631,-0.0014990100647727493,-0.0012180483292463145,-0.0007811508350069078,-0.00023172390361000564,0.0003659361956258988,0.0009359840741449018,0.001398853074060711,0.0016826520422342864,0.0017434234388829161,0.0015890817189716676,0.0012899784189204714,0.0009592947488730661,0.0007032476123769953,0.0005641947055753816,0.0004913778690785,0.00036255739010610465,4.966519258564617e-05,-0.0005075346450156368,-0.001262507093974034,-0.00207851869453411,-0.0027862978206645594,-0.00324537666412299,-0.003376341526068723,-0.0031573526094285037,-0.002604462806984921,-0.0017617635043057581,-0.0007107674700554234,0.00041652530041249376,0.0014479864102488378,0.0022183550988059096,0.002635191681371828,0.0027227515424843,0.0026086217123598575,0.002452931751864188,0.0023600560274620944,0.0023278102517975,0.002265956298866183,0.002069154778276582,0.0016925706523478997,0.0011782297879251167,0.000616991824460902,7.759393843938755e-05,-0.0004430083807058609,-0.001010467702691982,-0.0016905235076390749,-0.002476383738629303,-0.0032557147520155053,-0.003840411614070655,-0.0040436903391342875,-0.003763259561704974,-0.003028665364779232,-0.0019916390470572517,-0.0008671073251352243,0.00014522048153635495,0.0009227983281139087,0.0014414330564248724,0.0017533928540267398,0.0019403627546235422,0.002067607283520927,0.002160056575857384,0.0022066231349585005,0.002183642498318763,0.0020787347627621655,0.0018977615051707438,0.00165057842428442,0.0013284027510940826,0.0008940988165605375,0.0002992557715854467,-0.00047618721330125913,-0.0013822356460370898,-0.002280525661329832,-0.002966761050816909,-0.003233261560343926,-0.0029500738249519957,-0.0021294592078560477,-0.0009411235930302875,0.00033444716678052394,0.0013983493205721087,0.0020322752590593894,0.002161687333265181,0.0018598090097770314,0.0012994836944434092,0.0006822262712109747,0.00017532755463955984,-0.00012721830559350765,-0.00021985945190306183,-0.00018037894625767413,-0.00014283394260957815,-0.0002461817648960043,-0.0005688440071848165,-0.0010771551624686043,-0.0016202528370550797,-0.001985272332892099,-0.00199305482528684,-0.0015872593857517688,-0.0008678166252208443,-4.706680000081279e-05,0.0006503224797670604,0.0010893078197269414,0.0012720216596156255,0.0013078156465197682,0.0013303305174762817,0.001415813974547293,0.0015494126460820045,0.0016503758962159668,0.0016306140387507323,0.0014471660468377153,0.001121487097090039,0.0007230032907780517,0.00033302537831517295,8.925711397641601e-06,-0.00023863640476991658,-0.00045062749511238446,-0.0007049677292514492,-0.001082122634436959,-0.0016176584390799453,-0.0022607188961532203,-0.0028649833704959015,-0.0032293268929137462,-0.003178169648636285,-0.002642917900427891,-0.0016992956828790068,-0.0005396768190594947,0.0006016934052205654,0.0015282802696599987,0.0021290563284627386,0.0023843828106684135,0.0023442860061687987,0.0021002832785785553,0.0017622517313104944,0.0014383488190711845,0.0012116964490877767,0.0011157956939651138,0.0011221500725503966,0.001154135047396534,0.0011255779918703302,0.0009820058439665978,0.0007164983014102868,0.00034986331492048396,-0.00010572912470982313,-0.0006645145266192625,-0.0013443771099980783,-0.0021156136817077616,-0.0028613540048915095,-0.0033887388939498895,-0.0034985134656008968,-0.0030804281013866643,-0.002180882400266085,-0.001002004420451895,0.00017090315601150577,0.001078266212248476,0.0015793955479659284,0.0016888610029018288,0.0015446090647805494,0.0013285806915127674,0.0011811356990842116,0.0011503482014762042,0.0011957914731722701,0.0012349692393801648,0.0011979936770827205,0.0010568380150789514,0.0008180777794450612,0.0004958336874661643,9.473426945630435e-05,-0.00037837204250944006,-0.0008826766600876453,-0.001322919097754626,-0.0015690132608106792,-0.0015155864655890066,-0.0011468750794520763,-0.0005614653621246991,6.508068803087416e-05,0.0005605387205331908,0.0008318916519108154,0.0008933277460884747,0.0008343467147818955,0.0007528185208741491,0.0006968283109576538,0.0006491814296202716,0.0005569455637697003,0.0003775592435077507,0.00010539250508146122,-0.00023650042484539953,-0.0006232827927157097,-0.0010429719322343038,-0.0014825181902040894,-0.0018993219901858632,-0.002209744544534328,-0.002313823940266883,-0.002143615630836455,-0.001700299080526588,-0.0010529200411896012,-0.00030231315853770447,0.00046010373465489064,0.0011696298858308212,0.0017776849703448655,0.0022351870158011035,0.0024953561916256735,0.0025399614546691715,0.002406185760380614,0.0021840383067340484,0.0019749559006600995,0.0018344395950139949,0.0017378610857216176,0.0015945838397025715,0.0013020663003897896,0.0008046144381273425,0.00012044067792548992,-0.000675411534213642,-0.001494420358559041,-0.002270832276803716,-0.002966315712395526,-0.0035446149923907297,-0.003942150610111092,-0.0040652149296995675,-0.0038252127448070413,-0.003193679014281037,-0.002240656301092657,-0.001127463928806749,-5.2741187383372086e-05,0.0008208599156555453,0.001421295991235124,0.0017770396895804336,0.0019816932769178143,0.002136163611806028,0.0022999041286807806,0.0024730930378642256,0.002611531584292833,0.0026591554850835925,0.00257835591475419,0.0023646372789636735,0.0020424141090728777,0.001647252326349407,0.0012046022291310283,0.0007157667387167736,0.00015855749271625683,-0.0004960314317146561,-0.0012563853232927724,-0.002082495336947752,-0.0028713950479381974,-0.003468917704260175,-0.0037134480954588525,-0.0035013175207536822,-0.0028449742241109244,-0.00188793913769326,-0.0008569479447954804,3.178246727687144e-05,0.0006616682935948605,0.001047052385079469,0.0012891525417587214,0.0014894354537819282,0.0016801675898172738,0.0018153617333549047,0.0018198838791713572,0.0016552707749497957,0.001353606465118552,0.0009960291666225253,0.0006516201429863578,0.0003216359703069187,-6.579163285888806e-05,-0.0005977962266045412,-0.0012890290632336658,-0.0020245219164180244,-0.0025803820146912443,-0.002721887614711079,-0.0023269688361211797,-0.0014620037672595594,-0.0003618926852598821,0.0006770648192997095,0.001430803659425484,0.0018326478701269735,0.0019670731305725816,0.0019857498760548443,0.0020036526218403334,0.002038083714053746,0.0020202467322052615,0.001861776982948754,0.0015266653531050953,0.001059657409052396,0.0005536200461900426,8.081672215688783e-05,-0.00036118663691595476,-0.000847547976349924,-0.0014655194544389563,-0.002233611280819528,-0.003053505816134075,-0.003727516373952735,-0.004035430127115679,-0.0038316366842581604,-0.003113608997478017,-0.002028654810616322,-0.0008171659774315795,0.00027945578521851376,0.0011039729583571761,0.0016259056191096268,0.0019269214725167777,0.002139355358486661,0.0023680101825407176,0.002633103897372742,0.002862666661925632,0.002937464984451482,0.0027630281095215627,0.0023285166536165867,0.0017201661868038896,0.0010829150161042948,0.00055228599793748,0.00019333923156598947,-2.3106002364580705e-05,-0.0001990408984894926,-0.0004577603656143127,-0.0008881727226448942,-0.0015064952847638653,-0.002244882325628223,-0.0029665292272413285,-0.0035025203423965767,-0.0037031388491317544,-0.0034904432458039676,-0.0028918154335798077,-0.0020353042680437074,-0.0011029886474578836,-0.0002613369391454095,0.0003983290354197125,0.0008811934547946745,0.00126429981035722,0.0016402349637501265,0.002056693474347751,0.0024806226215595634,0.0028058238363531597,0.0029037681509352957,0.0026943168496039093,0.0021983422578856025,0.0015405140878268885,0.0008976621526526677,0.00041970632319425857,0.00016538124215762813,8.479126380512856e-05,5.332087898008179e-05,-6.533654803629081e-05,-0.0003598458012128788,-0.0008396128476301798,-0.0014363486241179752,-0.002029412109687837,-0.0024812494769623126,-0.00267302152362569,-0.0025353617422784183,-0.002070323085544842,-0.0013585972589286095,-0.0005455223242507718,0.0001960584325929812,0.0007187222120266593,0.0009518455068906616,0.0009292956987100897,0.0007768610085941716,0.0006594927776960499,0.0007088158369599903,0.0009628231114636892,0.0013442776668693523,0.0016864110441263895,0.0017956853612541585,0.0015291361103751608,0.0008584825969676106,-0.00010498441250920824,-0.001138798911162363,-0.0019838101537124554,-0.0024360879205717395,-0.0024178204671310662,-0.0019967329723215486,-0.0013458766303601568,-0.0006625687979879523,-8.47516434510085e-05,0.00035503046491961344,0.0007164483524995583,0.0010887347640398525,0.0015157348356281,0.0019529330185660788,0.0022821182777312678,0.002375485039426514,0.00217185478678475,0.0017201877762924932,0.0011635062056411522,0.0006692198505725072,0.00034131957204357557,0.0001605318639198586,-1.4140696438103744e-05,-0.0003777846965324919,-0.001072763696792838,-0.0020914339656512913,-0.003239278421301759,-0.004186925305496623,-0.004597511222628182,-0.004273498501644117,-0.0032505177203876745,-0.0017893145537072738,-0.0002688810474251468,0.000966275634170949,0.0017318157766106198,0.0020473249872971617,0.0020867037507994444,0.0020689385249105193,0.0021474827068788194,0.0023498005621102763,0.0025875283258846725,0.0027211189265280693,0.002639570078317503,0.0023144436666362005,0.0018048279493688975,0.0012162547545660812,0.0006396851052925219,0.00010567815624660859,-0.00042098728304873473,-0.0010043917341648872,-0.0016800847998480644,-0.002409874169637463,-0.0030745758496637694,-0.0035108848620831893,-0.003576392296049925,-0.0032125277716209127,-0.0024755612211335583,-0.0015206463110204094,-0.0005457390533080564,0.00027967085843682215,0.0008697441432874841,0.0012376537368586488,0.0014654487148138518,0.0016444298981116991,0.001818177302371633,0.0019611810820324184,0.002006594323075069,0.0019047128777526837,0.0016702309620561793,0.0013810605831811292,0.0011250619232901393,0.0009304987552137306,0.0007319187694479758,0.0004025981155939257,-0.00015919734894438942,-0.0009413374056087029,-0.0017853525869522013,-0.002439521898463519,-0.002675019160247635,-0.002401049786974487,-0.001712468139379799,-0.0008436174255396448,-5.748648799738858e-05,0.0004675251165863831,0.0006972233682043933,0.0007261958930456254,0.0007048930753054389,0.0007513572333359992,0.0008917737317088296,0.0010546773926737062,0.0011138048526809813,0.0009517578644550359,0.0005134833958169861,-0.00016775250629727002,-0.0009732057155179718,-0.0017244461679008895,-0.0022267806027746664,-0.0023247170263690055,-0.0019574408548957045,-0.0011932207959264429,-0.0002202654772820306,0.0007138491359385533,0.0013948105799976632,0.0017236715750673912,0.0017453653228069487,0.001607568562287335,0.00147310300582027,0.0014354451601989874,0.001483080721538154,0.0015270836932408717,0.0014681822815353633,0.0012588712485426888,0.0009241681523855718,0.0005337475937408089,0.0001486908997815233,-0.00022035093020299332,-0.0006163235872239095,-0.0010980797811115954,-0.0016853491712518528,-0.0023218348105525587,-0.002882260901073631,-0.0032219602230658655,-0.0032399492636643614,-0.0029187071962105014,-0.002321829719747216,-0.0015589570647053185,-0.0007436938105483059,3.4019335009868954e-05,0.0007153405827046962,0.0012670736935590805,0.001674261649214999,0.0019375577591795225,0.002074754192453637,0.002120213457139504,0.002115990441176099,0.0020947461837498966,0.0020627585252590225,0.0019947122579763964,0.0018466568206581262,0.0015821711117939509,0.0011974222007102738,0.0007307203487677909,0.0002511206399050329,-0.0001687829715002835,-0.00048497299593574486,-0.0007067364758504867,-0.000901191225031038,-0.001167193492705011,-0.001580351264457849,-0.0021322188562430656,-0.0027020349670308255,-0.003090097583456746,-0.0031068476898176026,-0.002672830248680224,-0.001870469598894234,-0.0009120634008057164,-3.744657039446637e-05,0.000600724767668051,0.0009960538552095818,0.0012576673130200726,0.0015130433489277905,0.0018106636215889376,0.002086913632977206,0.0022158908063942854,0.002103245160382694,0.0017565957689389098,0.0012847938513160962,0.0008301137144747261,0.0004827524864940735,0.00023493015154780195,1.0717299484071154e-06,-0.0003138719594206035,-0.0007439874045283894,-0.0012327960244214737,-0.0016591385666832263,-0.0018990910558953143,-0.001885074525391711,-0.001628995493126098,-0.001201680807638091,-0.0006886581523875915,-0.00015413181173813445,0.00036617675556523707,0.0008472679388412023,0.0012548456178240043,0.0015441846436287491,0.0016795209170469315,0.001655458337031544,0.001499039638599435,0.0012482095491922697,0.0009239005203315067,0.0005192384590448269,1.5186553143572762e-05,-0.0005888890026009106,-0.001250834108723825,-0.0018824745392369629,-0.002369841866961393,-0.002608959978761651,-0.002543015944317757,-0.0021842461981658188,-0.001608500241556188,-0.0009236773811597341,-0.00022832049528724932,0.00041747402908107125,0.0009950058227236498,0.0015066022807737529,0.0019482828616845705,0.0022942417985220643,0.002503016657857582,0.002540702105915775,0.0024048629617489316,0.0021315728738884863,0.0017793132317159264,0.0013997539022022186,0.0010137064669408385,0.000604567202837354,0.0001289238185026788,-0.00046252912790801506,-0.00119819278546824,-0.0020556021820740873,-0.002938145913508688,-0.0036777608842029825,-0.00407888961702876,-0.0039954253756625925,-0.0034038289255483526,-0.0024271045507296227,-0.0012885296115299797,-0.00021727553463509188,0.0006407879132251523,0.0012581617601878801,0.0016939006287732656,0.0020234434366683553,0.0022777959708400633,0.0024280878518538967,0.0024198981776251535,0.00222995131716409,0.0019038243816477413,0.001545668275695043,0.0012631263368516623,0.0011024146352673185,0.0010176593520186024,0.0008969692116113341,0.0006293761293392877,0.00016936003128292863,-0.0004402843727193946,-0.0010948896162691342,-0.0016781813361504928,-0.0021017392974079624,-0.0023166379712459433,-0.0023050187185404336,-0.0020704208173644495,-0.0016386372895856205,-0.0010659914191713349,-0.0004419021466877297,0.00012598971195407842,0.0005441656065784788,0.0007688447419202531,0.0008242694870577499,0.0007901431392183171,0.0007613046163216432,0.0007982770414432868,0.0008926991369241129,0.0009647006294469928,0.0008947941864517124,0.0005785247508978602,-1.6483415696298426e-05,-0.0008133678964917014,-0.001627460406731516,-0.00221494782410847,-0.0023590353400093564,-0.001961777550632145,-0.0010975715556726805,4.511440375339938e-06,0.0010484692448228883,0.0017894923691879798,0.002123666365697463,0.002104754447125865,0.0018847355465805473,0.0016181321162815074,0.001387947766283066,0.0011918377479288352,0.0009847600213987765,0.0007382475198528266,0.00047079780347721555,0.00023038862956748472,4.7174807055814626e-05,-0.00010533709936965925,-0.0003104351651555793,-0.0006658140747102237,-0.0012203872252843555,-0.001924066228908514,-0.002620062366055747,-0.0030915755505329656,-0.003148840327579067,-0.002718129903360361,-0.0018858541120093462,-0.0008689822832239497,7.762923621635449e-05,0.0007690217127762741,0.001155448815239742,0.0013136909165503978,0.0013772727342756183,0.0014518152672749135,0.0015639231036789344,0.0016655202336757421,0.001680890029558894,0.0015626347950171105,0.0013240616186115974,0.0010329759941848332,0.0007731754014365191,0.0005953867591566235,0.00048426350188519537,0.00036105096828653095,0.000124608996524772,-0.0002870878389491882,-0.0008473594171286066,-0.0014342694126318037,-0.00187740251937919,-0.0020363812698589723,-0.0018669378374278796,-0.0014355183980025706,-0.0008758570282038076,-0.00031846399281320627,0.0001610537036864604,0.0005470762125780271,0.0008505708855224142,0.0010705433992521812,0.001180894080690525,0.0011487567026421616,0.0009654286826552996,0.0006632739909645243,0.0003045261240978008,-5.020211322471623e-05,-0.0003709472546025492,-0.000664471231739278,-0.0009535376371986596,-0.0012436513116491639,-0.0014989714386482338,-0.0016431793439128164,-0.001587560411313755,-0.001274670822057022,-0.000716482969281761,-4.880403723538291e-06,0.0007166223643608558,0.001310143455934452,0.0017004572628567642,0.001898991605161057,0.0019795375057437645,0.002019461916048167,0.002042607952757886,0.002000777870058369,0.0018073294574091777,0.0014022555640320748,0.0008056634111953551,0.00012241895033767163,-0.0005078774564086917,-0.0009855720837601452,-0.0013039056989806192,-0.0015468654329042547,-0.0018317759205040912,-0.0022292563408735787,-0.002706647019162574,-0.0031279231431710027,-0.0033111922284812375,-0.0031127210087546118,-0.002492969624231184,-0.0015326059273345848,-0.00039585397485593116,0.0007338297647917519,0.0017105089462452038,0.0024507920083641234,0.0029263523387500563,0.0031422536956573722,0.0031213779917996613,0.00290176515582841,0.002539059940875072,0.0021030279058501726,0.0016645089070744484,0.0012773031732256058,0.0009616695463976489,0.0006943886356447423,0.0004097526628267107,1.6720226259850932e-05,-0.0005652057986091732,-0.0013588975241872045,-0.0022921614050533177,-0.003195738195708495,-0.003849853778010696,-0.004065921017737351,-0.003766297991805452,-0.0030208797029049614,-0.002018926660825491,-0.0009875945433484533,-9.730426033358465e-05,0.0005976635744554261,0.00115318109281663,0.0016699018656980706,0.002208528939322884,0.002736666501055547,0.0031380343378567795,0.003275754938469178,0.0030689029222032687,0.002536442818848186,0.0017864952695469784,0.0009634236930614408,0.00018723201063262332,-0.00048231040860405154,-0.0010442329101197447,-0.0015266464256310432,-0.0019488646589070303,-0.002294109886941857,-0.002503244833756265,-0.0024912244646486635,-0.0021817427116417034,-0.0015504792028804603,-0.0006610932817984725,0.0003268359052027287,0.0011940704358608335,0.00173860354837747,0.001862437591808748,0.0016219387507127193,0.0012071218819342143,0.0008517739165732717,0.0007165501439032429,0.0008052391707238501,0.0009585241152354996,0.0009299783724693127,0.0005088068721986856,-0.0003672694076111006,-0.0015603634383632077,-0.0027665004429534568,-0.0036234120873302692,-0.0038485637545543367,-0.0033500428316002636,-0.0022628899271634226,-0.0008945114004061513,0.00039734433765837337,0.001340213470270686,0.0018368355898983584,0.0019726491841191504,0.0019437283658186092,0.0019454154688548042,0.0020789308399676927,0.0023206991789933218,0.0025623879087056365,0.002688737873222939,0.002640489689723337,0.0024249709773495084,0.00207711707873707,0.0016094664297974124,0.0009944451148370132,0.00019374737365433553,-0.0007889037539056366,-0.0018742636050838265,-0.0029218777988938615,-0.003785094509208932,-0.004369439673303307,-0.004654609406198286,-0.004667479724641688,-0.00443014083067356,-0.0039258420908154686,-0.0031125524744182167,-0.001977703365529172,-0.0005947813592390231,0.0008627714820098815,0.002167902958308452,0.0031240096445628615,0.0036391657307727867,0.00374932124511484,0.0035810215339330187,0.0032795820012185323,0.0029456274954973776,0.0026126292000259246,0.002269132190305869,0.0019014576134337698,0.0015235471906864515,0.0011743425442452104,0.0008877968120999074,0.0006583348451560393,0.0004253543316829878,8.804410908419438e-05,-0.00045313158251636225,-0.0012430845579835645,-0.002228584119339714,-0.0032477837499836283,-0.004067469141189212,-0.004462135358728194,-0.004304366928970961,-0.0036229859087986093,-0.0025960769030925735,-0.0014778638756111318,-0.00049404396060689,0.00024208889572535403,0.0007520089772736265,0.0011462976247602348,0.0015405482582915662,0.0019797870710489135,0.002409689060439992,0.0027063628460167483,0.0027471380318031947,0.002485301819245608,0.0019892502429580826,0.0014223790838533588,0.0009687099598181758,0.0007383899818742459,0.0007019849804601118,0.000693147073030206,0.00048741547264681377,-7.544485052097443e-05,-0.0009864182897372092,-0.0020391383022663164,-0.0029033529269763725,-0.0032702861495196487,-0.0029962229740934637,-0.002166795857768712,-0.0010487087581352197,3.802934403189691e-05,0.0008510777057897772,0.0012927442446161353,0.0013960983415304527,0.0012643061001670571,0.0010133911736501305,0.0007458135334083849,0.0005461198202354888,0.00047223640178044584,0.0005295978758185229,0.0006451551911469916,0.0006747269533452713,0.0004615712284380515,-7.418132363675237e-05,-0.000866218416544584,-0.0017008245311781727,-0.0022946062648471605,-0.0024156843139800724,-0.0019873737863482575,-0.0011228743636430786,-7.592602757176522e-05,0.0008658851579905917,0.0014930041765127166,0.0017405426813760661,0.001684940255509121,0.0014812588234265594,0.0012788130984834074,0.0011584825053552036,0.0011174133096095386,0.00109730425223849,0.0010295172852778501,0.0008673422888695092,0.000592116744576245,0.0002016811087049786,-0.0002994099149287732,-0.0008950214578452471,-0.0015418038560235671,-0.0021591779314045164,-0.0026394135984319626,-0.0028779243347336766,-0.002808941242003035,-0.0024276984035559194,-0.0017891591757908845,-0.000987222905416094,-0.00012717157744926693,0.0006966094584135054,0.001412775231639729,0.001976825667940301,0.0023696942855173293,0.002591675584484995,0.0026514839645906665,0.0025542350438355864,0.0022967970839372306,0.0018771926779550241,0.0013147889917086253,0.0006668177252135278,2.4511494717339207e-05,-0.0005166686781749412,-0.0008995752025500762,-0.001134703667721643,-0.0012945110391155332,-0.0014716322841918197,-0.0017235086819624532,-0.002035394948238132,-0.0023221125487772917,-0.002465177908058096,-0.0023633036197656045,-0.001971965936503929,-0.0013188784283759856,-0.0004952724874057555,0.0003703186874806886,0.0011476337700019592,0.0017402395742580593,0.002109285698587432,0.0022744032054439495,0.0022891190857305325,0.002202444175137231,0.002029113527837034,0.0017481151050447263,0.0013313228983696656,0.0007825207124804489,0.0001580316731556535,-0.0004484992954695878,-0.00094975305822684,-0.0013076152906742575,-0.0015429531234234018,-0.001700688934105336,-0.0017926530310436667,-0.0017639293436957073,-0.001518222804571444,-0.0009949735536902283,-0.0002457637993372201,0.0005520194303820393,0.0011672874879297419,0.0014343925870911808,0.0013424928036277293,0.0010343789338037724,0.0007139933459444148,0.0005225622669004854,0.0004618378196958985,0.00040851502362117807,0.00020354570470052305,-0.00024322448252499045,-0.0008928978908958302,-0.001586940231355949,-0.002111633275941748,-0.0022825502072180335,-0.0020150775091664712,-0.0013578080400245384,-0.0004775837913313047,0.00040081497187010153,0.0010790156500212656,0.0014572477243665178,0.0015599163244302012,0.001502793618121108,0.001421707117373606,0.0014027631397044485,0.001449931885383008,0.001501059577366312,0.0014749131567221012,0.0013175356540998835,0.0010229904723740545,0.0006237609861737273,0.00016437200371957928,-0.0003222260954554555,-0.0008219995156687732,-0.0013288665611005494,-0.0018242095997740987,-0.002261459163845282,-0.0025678951256057256,-0.0026655461447487134,-0.0025013674187583327,-0.0020716998987910648,-0.001429714221498221,-0.0006728150894968649,8.540738854247252e-05,0.0007488091029318315,0.0012648946966323101,0.0016314729371950572,0.0018795734056280826,0.0020416908120585086,0.002124450456460624,0.0021028453572197333,0.0019391453243118818,0.0016129980064293807,0.0011420770150846818,0.0005800374570786896,-5.268459294677707e-06,-0.0005576593015601325,-0.0010463204130827554,-0.0014609552755834158,-0.0017937860949321718,-0.00202042032661865,-0.002091951300561881,-0.0019466187434021914,-0.0015413764191010506,-0.000891622585894411,-9.57567711478138e-05,0.0006790516233517183,0.0012547055684126104,0.001518504492641795,0.0014742973924320567,0.0012357420086620602,0.0009639671350109864,0.0007855964345303435,0.000736338437198746,0.0007571727140819125,0.000739370747035934,0.0005896795532481839,0.0002794771091173718,-0.0001463968889181494,-0.000600727754766889,-0.0010008650243225946,-0.0013002812840940947,-0.0014884399371009908,-0.0015680238547067051,-0.0015336826399574483,-0.001370233313611703,-0.001068860708292122,-0.0006452748822849784,-0.00014469311284647337,0.0003691133107880658,0.0008319228632881237,0.0011935473787006647,0.0014241644150738272,0.0015143840067730638,0.0014718559767763525,0.0013147840126310616,0.0010628742835116882,0.0007302600458071473,0.0003270533958689463,-0.0001290020779810788,-0.0005988326955717746,-0.001018846382511698,-0.0013146075802546275,-0.001425587625406232,-0.0013276577781792147,-0.0010423995281406305,-0.0006304013248978396,-0.00017228672374184468,0.00025581277493632324,0.0006040820094816339,0.0008594036459986789,0.001038756800269833,0.0011679427286136138,0.0012567805816944971,0.001285670244076183,0.001213270170857307,0.0010026929923709017,0.0006510748960460776,0.00020289621961732621,-0.00026472488494375676,-0.0006794512621864119,-0.0010121094212987031,-0.001290117822009104,-0.0015732380019977568,-0.0019027292056350623,-0.002254053726661485,-0.002524201742560471,-0.002565870845710254,-0.0022538805813113847,-0.0015509849829808847,-0.0005403144993269726,0.0005923688116568645,0.0016207982662153645,0.0023586471483051006,0.0027222366133822905,0.002746591611486852,0.002549812655496904,0.0022682940622501123,0.0019982978915831467,0.0017701939230127476,0.0015595858137948135,0.0013205635291135929,0.0010195499616746189,0.0006527455328795378,0.0002410592935781214,-0.00019094679456240177,-0.000636112505406552,-0.0011090420164525648,-0.001627609576534046,-0.002182209703807913,-0.0027147819519313804,-0.0031256160855866405,-0.0033076214778901287,-0.0031888166824629765,-0.0027593270447046933,-0.002071832875983598,-0.0012221631578363998,-0.00032462823411394956,0.000509177468373828,0.0011893574105809315,0.001667550662212976,0.001952414927829181,0.0021075589744825552,0.002222701961521683,0.002365226714889405,0.0025362766417596156,0.002659280353359076,0.002613966663381797,0.002302172897138548,0.0017088325823427677,0.0009195607589236249,8.115953462784544e-05,-0.0006708931589228218,-0.0012705040028436788,-0.0017273949359982526,-0.002082721130651485,-0.0023517577269513736,-0.00249888589708718,-0.0024625808758408987,-0.0022082764537142575,-0.0017661904720740213,-0.0012244034374621756,-0.0006825877907943818,-0.00020073063051144328,0.00022121322680570708,0.0006212840991789538,0.001029972424285955,0.0014342232085329486,0.0017739084909470326,0.00196884943185601,0.0019543497503282685,0.0017023827657748256,0.0012222786025574226,0.0005526275363729705,-0.00024083675459912334,-0.001059431799404824,-0.001770549621595332,-0.002226016865313131,-0.0023014599917338878,-0.001942238133751998,-0.0011943838833740543,-0.00020420123257536933,0.0008171246742622966,0.0016538738677455722,0.0021507771198982,0.0022585016853950116,0.0020409994718257754,0.0016410657261383614,0.0012190233754187669,0.0008913112951305033,0.0006936778397480049,0.0005797800946347575,0.0004498714387303074,0.00019467434040022769,-0.000261560174166074,-0.0009307601896965502,-0.001750097170940457,-0.0025921516700316187,-0.0032938305778787624,-0.0036977941810447243,-0.003695937140178595,-0.0032610125970794733,-0.0024535105839367634,-0.0013998557201076547,-0.00025214562093177296,0.0008508117786399547,0.001804876204627628,0.002542318468412224,0.003025222917112955,0.003243479736251706,0.0032195984271523705,0.0030100487696236343,0.0026912966828359563,0.002331036562665512,0.001960474024932813,0.0015669430901667347,0.0011128998754926082,0.0005679240775716186,-6.862635337453061e-05,-0.0007674752824291795,-0.0014855449952228534,-0.002179087968237192,-0.002799620975179404,-0.003278010317415208,-0.0035188938226858443,-0.0034243810395371216,-0.0029422724903153414,-0.002109739454294483,-0.001060843831139232,1.1569046773253142e-05,0.0009206195380277395,0.0015442146432969482,0.001853007803700636,0.0019019874623726952,0.0017968884175389834,0.0016519343588786645,0.0015513483132521422,0.00152221846119077,0.0015254639719504996,0.0014705067931419257,0.0012518628617772237,0.0007947260926717522,9.107658849897247e-05,-0.00078691561615392,-0.001698234815385157,-0.002463168260066596,-0.0029051371003131696,-0.0028978943542831547,-0.0024084826349383553,-0.001520404362443362,-0.0004213429495187413,0.0006485869491990423,0.0014728709589221134,0.001928835441891871,0.0020217010631290674,0.0018671493603472616,0.0016293180357687931,0.001440145562765913,0.0013353256134464718,0.001238356084682066,0.0010051403729740961,0.0005113755571841843,-0.0002614249665173911,-0.0011892920358292781,-0.002041674741110018,-0.0025733339469443204,-0.0026258513649714404,-0.002189214067503104,-0.00139726867361091,-0.0004657571025995508,0.0003916091278248649,0.0010287868689129777,0.0013915934073428263,0.0015028587062831552,0.001428349606025293,0.0012443403188866665,0.0010165286612123085,0.0007879677493655359,0.0005705737763852356,0.0003413309450579238,5.1502066579779595e-05,-0.0003455950217752415,-0.0008562328157297923,-0.0014183830601379233,-0.001904947468109052,-0.002163107326803461,-0.0020743559673109197,-0.001607590333524354,-0.0008401050038970783,6.375659100897688e-05,0.000907388450801476,0.0015273240779280705,0.001843223945760533,0.0018734981748516804,0.0017113724872265222,0.0014722679369564733,0.001236071342331986,0.0010109877529442136,0.0007366213589152054,0.00032655093008585403,-0.00026762754331348913,-0.0010012841879721334,-0.0017224820018886255,-0.0022157635163368066,-0.0022924478004072942,-0.001885396338831545,-0.0010951245845795775,-0.00015562344620029473,0.0006669767244583424,0.0011898537505153901,0.0013812980642808966,0.0013469311737564485,0.0012468828196367482,0.001194184541076758,0.0011929184086148024,0.0011494810022162597,0.0009460197549292146,0.0005277353665846421,-5.164019888309027e-05,-0.0006545268713476798,-0.0011377492721587716,-0.001433172767292984,-0.0015769876582331047,-0.0016665249774989162,-0.001772621721251864,-0.0018691265971151234,-0.0018333218180185415,-0.0015232940058204734,-0.0008831237432599635,-4.940986822200063e-06,0.0008954378965051555,0.0015766023384125114,0.0018859760684530491,0.0018268033861338479,0.0015446335870104807,0.0012454676602660618,0.0010913150947841135,0.0011258814185447401,0.0012642107572468251,0.0013471184215204603,0.0012296172329816569,0.0008564491138512608,0.0002859589062021699,-0.0003469328567333293,-0.0009034536694276848,-0.001305816781378165,-0.0015586720660466808,-0.0017193189485332607,-0.001838744001772856,-0.0019114606228215728,-0.0018662280132404419,-0.0016054331290575126,-0.0010715992897808726,-0.0003018529075781468,0.0005639664137421998,0.0013300611914449558,0.0018225224293291788,0.001956248132120612,0.0017573330363548712,0.0013357639995643352,0.0008302431470873081,0.0003551174700504797,-3.045693469771321e-05,-0.0003254341523578493,-0.0005659272026713922,-0.0007907744178896833,-0.0010097957858111839,-0.0011917856739810844,-0.0012791562132239414,-0.001218721873306123,-0.0009873061327261479,-0.0005972239005361921,-8.515211970600814e-05,0.0004988900572932026,0.0010905890318596435,0.0016045259283957475,0.0019401561321488307,0.0020122182965934725,0.001795048890023277,0.0013519751805748667,0.0008230092744030246,0.0003670415467316489,8.407464701828011e-05,-3.995400122314038e-05,-0.00013007736233001222,-0.00035461370435656856,-0.0008242466106999217,-0.0015133810962540389,-0.002251980242829495,-0.0027974741944186672,-0.0029489119022280737,-0.00264009396372871,-0.0019617581426461476,-0.0011059353257226452,-0.0002703961013733763,0.0004202431493910878,0.000937586552709198,0.0013169781533927953,0.0016034244391833002,0.0018158546121784707,0.001947441794381736,0.0019892225268345405,0.001949260818469154,0.0018495117970219496,0.0017064130787901983,0.001517229192041657,0.0012677397547614956,0.0009543022212557312,0.000597040334555637,0.0002276423767528426,-0.00014094710967775797,-0.000536706126651604,-0.0010184671664909294,-0.00163096154458299,-0.0023486042438785534,-0.0030458341777383556,-0.0035226558524337846,-0.003583135879241838,-0.003129819200233752,-0.0022224751134850033,-0.0010666074302970994,6.52428760525188e-05,0.0009416907919784258,0.0014589172085383312,0.0016657535608749744,0.0017177985867756305,0.0017855555197016201,0.001964444832673385,0.0022322403003288797,0.0024716810493875356,0.0025393806345999585,0.002339620486578775,0.0018650908950446307,0.0011899731134887442,0.00042768288103516147,-0.0003183587785431904,-0.000983929542834226,-0.0015422801047026368,-0.0019809260464063736,-0.0022784294555077316,-0.0023996375325512015,-0.0023129005176866007,-0.002016120768212858,-0.0015512954521558647,-0.0009949507020598522,-0.00042944328441729446,8.594371461335428e-05,0.0005262656598700942,0.000891484588976017,0.0011882303244744302,0.0014169403729745785,0.0015687173146397945,0.0016263548470846273,0.001563971438781001,0.0013475895121396243,0.000944846963677185,0.0003482432903614761,-0.00039608037065067816,-0.0011737783720559385,-0.0018209988541962644,-0.0021777160853536774,-0.002152288389715055,-0.0017610926963572025,-0.0011189348732131223,-0.00038582015826431375,0.00029806835583977656,0.0008534758647515751,0.0012627740613796717,0.0015401356073822625,0.0016970060254729493,0.0017270490967840216,0.0016189607721704361,0.0013845709798811594,0.0010757503176110378,0.0007685090439879252,0.0005170126382031289,0.00030764545110302543,5.110340240598141e-05,-0.00037031929672645485,-0.001019943531962828,-0.0018365934846266913,-0.002625714535345157,-0.003129000487359232,-0.0031427896234897945,-0.0026215289240141874,-0.0017061678592934905,-0.0006594433792472408,0.0002558298189277088,0.00088849030941887,0.0012438687493505852,0.0014452987303281324,0.0016404191865309523,0.0019061066588609448,0.0022031172507692856,0.002403322571543697,0.0023717892565896445,0.0020536483862439005,0.0015122221820932326,0.0008952401311853537,0.0003514674800750928,-4.982091579496927e-05,-0.00034839435565747626,-0.0006569674704712334,-0.0010840730891448851,-0.0016614352584803523,-0.00231406297716981,-0.0028846937060821374,-0.0031965773501130123,-0.003123576080081105,-0.002637567205339192,-0.0018164424778326234,-0.0008143164319969902,0.00019001791223330084,0.0010458940050590492,0.0016683081719891554,0.0020496410289076914,0.0022409187620368327,0.0023083885562928297,0.002287052342101011,0.0021621232022036863,0.0018961702677731981,0.0014853309711197176,0.0009984031286850445,0.0005578349784824237,0.0002647909663323917,0.0001196081050582363,2.0944669702910594e-06,-0.00026198933284108674,-0.000784722947061603,-0.0015260291689292893,-0.002291343496747628,-0.002821028586524663,-0.002917642846990408,-0.0025376793069283223,-0.0018014227589550657,-0.000924916787912641,-0.00011858205928612755,0.0004930132348818702,0.0008959779980420686,0.0011562017809848089,0.0013596302078559407,0.0015583762348701903,0.0017459419513696439,0.0018650109757133548,0.0018362019359191503,0.001592627195481942,0.0011097748261716933,0.00042471910167921854,-0.00036112002138153547,-0.0011012923228153068,-0.0016447990853508108,-0.0018845492890944987,-0.001791924405848695,-0.001419973392230676,-0.0008746114718528304,-0.00027120180671598784,0.0002994907770048601,0.0007807396443369753,0.0011370943129982744,0.0013366953495190573,0.0013482498834516603,0.0011595682313551932,0.0008045634141175107,0.00037301905499710343,-1.5851998477063082e-05,-0.000270314141428478,-0.00038122342227219007,-0.0004357057201849673,-0.0005710567562682748,-0.0008890040850655645,-0.0013799173129143247,-0.0019051266817381425,-0.002252310876833161,-0.002235120263175198,-0.0017823365637190717,-0.0009699338195364375,1.5737714246942046e-05,0.0009577551280135968,0.0016879896276359315,0.0021316113028885877,0.0023063440990718147,0.002288028589427138,0.0021641751233936993,0.0019958744156734565,0.0018006068132127944,0.0015586246083342191,0.0012366429867498863,0.0008164542321789732,0.0003139337113604346,-0.0002228984652160816,-0.0007380558996844446,-0.001200434996455048,-0.0016211581515725153,-0.0020365390746348152,-0.0024611514334186768,-0.002842215914523407,-0.0030538991350029907,-0.002947496670350028,-0.0024347161631877072,-0.0015549742309475766,-0.0004832656120369292,0.0005315418265938469,0.0012690302179881397,0.001628702521371047,0.0016641408769675111,0.0015428298355227917,0.0014538311746088032,0.0015134291435951507,0.0017180605277650144,0.0019635270368885656,0.002110069709623274,0.002051721568229928,0.0017565834818066128,0.0012690835622007316,0.0006841539469075659,0.00010768998795246008,-0.00038459426880886865,-0.0007768962560171788,-0.0011162737926978731,-0.0014799036447674793,-0.0019169389868769144,-0.0023961869996394565,-0.002795355376782106,-0.0029469101424043497,-0.0027200465604213667,-0.002092397176036884,-0.001169406407414602,-0.0001421090979428271,0.0007891919197761117,0.0014835047383318827,0.0018916081472768118,0.0020488963110008055,0.0020422090764451143,0.001967561047514999,0.001891546437256371,0.0018256263964986778,0.0017213363321309768,0.0014914402341789617,0.0010531176540636387,0.0003768662653811355,-0.00048220314123180496,-0.0013880879616224352,-0.0021629940931854417,-0.0026447852591086033,-0.0027387646145498584,-0.0024451018696555254,-0.0018543633035954291,-0.001113920366255922,-0.0003763366613719122,0.0002518927749984841,0.0007396569397181489,0.0011236279748912208,0.0014659678546178254,0.0017988510039681097,0.0020864349202034836,0.002227248551547613,0.002098949913203447,0.0016239926264085436,0.0008216596626532595,-0.0001825149364950336,-0.0011960600691095285,-0.0020261389898369466,-0.0025375105087302027,-0.0026755786866839524,-0.002454682173984213,-0.0019337921534799828,-0.0012017424090436232,-0.00037418703190426287,0.0004149789283793325,0.0010438986067734589,0.001448330569396388,0.0016525007338553548,0.0017545098626385312,0.0018633577003024319,0.002021641659209118,0.002164888157246289,0.002149356301603434,0.0018359007183687908,0.0011786358271665418,0.00026174213179995477,-0.0007390243160638227,-0.0016436468103051792,-0.002345634652924469,-0.0028313360038367368,-0.0031359414568825593,-0.0032768755198461126,-0.003217999333664371,-0.0028904676062691437,-0.0022520597347534003,-0.0013401362121120363,-0.0002809930805856954,0.0007497686684860042,0.0015906392417116045,0.0021465453653135964,0.002407982969189061,0.0024361355940264863,0.002328320675101306,0.00218107485810018,0.0020626386060596325,0.001999315894827463,0.001975016745655662,0.0019407268878543615,0.001830348318414467,0.0015801933664575836,0.0011487929677363555,0.0005308465632371762,-0.00024151098254321845,-0.0011104520891504085,-0.002007046070427047,-0.0028552810467378058,-0.0035631802452226564,-0.0040161054807641835,-0.004093256734664114,-0.003713127899412908,-0.002887479273530422,-0.0017481697691935129,-0.0005209493488910416,0.0005503577782771743,0.0012959237750290564,0.001682451182732389,0.00181254930352689,0.0018585320139146329,0.0019633758873887396,0.0021618036599377185,0.0023657605202450976,0.002422124783640684,0.0022068332313452616,0.0016978180644650154,0.0009851439833782301,0.00021895674328161038,-0.00046600357466901473,-0.0010014669750878446,-0.0013866283716792076,-0.001648516187367616,-0.0017953605600117474,-0.0017964189331547452,-0.0016007762797084057,-0.0011815135060572475,-0.0005760335928821617,0.00010494377756629382,0.0007105264096418777,0.0011116238500484073,0.0012582370309625799,0.001195972178849936,0.0010279129326344755,0.0008442482966922552,0.0006662227123962748,0.00044235920791714343,9.816306367567656e-05,-0.0003967777324883915,-0.0009906346916194065,-0.0015639301521636808,-0.0019840860840188396,-0.0021631905966879037,-0.0020852066608032186,-0.0017925774564383646,-0.001348323138795696,-0.0008018625629762129,-0.00017946301638840928,0.0004997973736762862,0.0011999304542715623,0.0018569262174227073,0.0023895981336336464,0.0027244229859254205,0.0028182691900997714,0.0026678784807050633,0.002306121302516069,0.0017921839370807888,0.0012015247358386255,0.0006153721047929216,0.00010599064648814148,-0.00028294742353988326,-0.0005542597080926845,-0.0007621542182286827,-0.0009957931320503386,-0.001342506056455747,-0.0018422605790048671,-0.0024523864694299645,-0.0030424490485633014,-0.0034303599089147334,-0.0034520251854735116,-0.0030357858441607054,-0.002243658890021343,-0.001253769142986184,-0.0002880970713354168,0.00048025361932783564,0.0009937095844435363,0.001317143719221012,0.0015828577030236731,0.0019045777531494523,0.0023079118660009924,0.0027150112221406984,0.002990445013906084,0.0030206698798302817,0.0027803816333928618,0.002346694340452231,0.0018529423096179181,0.001410281379798601,0.0010447883836397424,0.0006875715631316925,0.0002220419081602129,-0.0004414374396761985,-0.0013055772972018916,-0.002268846299739024,-0.0031531462438516736,-0.0037603336487915954,-0.0039365384807469525,-0.00362529211513502,-0.002892418214227577,-0.0019093706999825108,-0.0008942018216033876,-3.069958103312561e-05,0.0005963384699257742,0.001015025673425786,0.0013223967074594816,0.0016100946897077448,0.001904296877763449,0.002152555268922356,0.0022598924059221972,0.002148417723237242,0.0018042183312528763,0.0012856344194648018,0.000691155998602555,0.00010936815537412311,-0.0004168028143132829,-0.0008902072408071865,-0.001327056605175297,-0.001716677656290917,-0.0020028510121601725,-0.002101220608858583,-0.0019426006456277679,-0.0015142732587688117,-0.0008730657505969434,-0.0001236960624447787,0.0006214567686913691,0.0012759064014229474,0.0017898680335682502,0.002140287221379679,0.0023148289877622124,0.0023042852713052566,0.0021070313811724153,0.0017372901070063541,0.001225554185733712,0.0006072961712567502,-9.131025913935499e-05,-0.0008554624748836078,-0.0016631060214663178,-0.002454059665168584,-0.003110606609530108,-0.00347392767536914,-0.003402000361668282,-0.0028450834695180954,-0.001894491812877668,-0.0007676390272255571,0.000272517747341668,0.0010252480088839555,0.0014312497897897942,0.0015828124135038551,0.0016603494479725325,0.0018273338970402379,0.002137226585901104,0.0025023205847863046,0.0027433176829025534,0.0026925276137622187,0.002289723062635446,0.0016125907914301026,0.000824873852829205,7.82221355076669e-05,-0.0005675358730033867,-0.0011555298975110713,-0.001770993326079361,-0.002451801343444926,-0.003129863237980757,-0.0036398759350226707,-0.003788636011104599,-0.0034445355240093813,-0.002601624053604895,-0.0013920819552027805,-4.758722160725162e-05,0.0011712531132445174,0.0020514077701963627,0.0024853380935826353,0.0024926068036522013,0.0021992231764495812,0.0017837154766498823,0.0014115330331131433,0.0011832761381214989,0.001114753706835568,0.001151229239719587,0.0012023717720109155,0.0011770799451801869,0.0010030711020888076,0.0006315312028461074,4.07283615586544e-05,-0.0007484687027767218,-0.0016496839412502922,-0.0025040771207946906,-0.0031120035349508626,-0.0033010247162402286,-0.002998125242335353,-0.0022651237349384256,-0.0012764591909963225,-0.0002518445416652875,0.0006213168291718369,0.0012414446396417879,0.0016054157772851171,0.0017834578204447941,0.001872250420830427,0.0019467165756975283,0.0020288207905473725,0.0020831782303946996,0.0020366731836354846,0.0018093705597305963,0.001343232327336828,0.0006226527087851042,-0.0003115717110472086,-0.0013535495521121012,-0.0023355975992479434,-0.0030558460839252934,-0.003334399713280965,-0.003081381264191389,-0.0023426270786496457,-0.0012931273677853359,-0.0001764506854326402,0.0007793266396294782,0.0014273423337967587,0.0017245624766498296,0.0017155172489330555,0.0014987219115346288,0.0011938681338143952,0.0009136315485389894,0.0007354697850938639,0.000673699433722638,0.0006640393425943006,0.000578305704683443,0.0002772760977694004,-0.00031246131407662315,-0.001133782707497722,-0.001987869187366055,-0.0025969187235699255,-0.0027201582229390425,-0.002266449436635954,-0.00134230588683404,-0.00020811335079192004,0.0008336041366959167,0.001559148661911257,0.0018959094471576957,0.001918872960752998,0.001784122913476143,0.001640146682278466,0.0015627702395331299,0.001541080031664427,0.00151056649937659,0.0014042187294216043,0.001187408224174567,0.0008594710872121634,0.0004311071055185696,-9.610587402327354e-05,-0.0007256732311476749,-0.001437749518303668,-0.002160670336883775,-0.0027724215235119557,-0.003142052527967257,-0.0031897809914314453,-0.0029268266941371132,-0.002446584320970401,-0.0018706024214801653,-0.0012834355884427616,-0.0006982935615050831,-7.489650519233379e-05,0.0006239679602966018,0.001376465297711846,0.0020855048822229815,0.002615964346185152,0.002864221847711412,0.0028168016628247286,0.0025602584835908897,0.0022344756406929766,0.0019568067656918686,0.0017616891213211015,0.0015892560259068524,0.001326272834322476,0.000873481863684557,0.0002016438135791517,-0.0006314850938140498,-0.001506920222175028,-0.0022927711304999853,-0.0028851240434068707,-0.0032214234738992494,-0.0032689280713360034,-0.0030095841639165913,-0.002442900551432967,-0.001609591718444585,-0.0006160855274637464,0.0003678263703383624,0.0011517822837940127,0.0015946929736718302,0.0016663052126356514,0.001463517188977587,0.0011665247398087901,0.000953763632807744,0.0009193889769739602,0.0010365998728317414,0.0011843859563789132,0.0012197271411562005,0.0010528432517685111,0.0006840561200373394,0.00018679822354005025,-0.0003437070147875215,-0.0008360547261724892,-0.0012518475660618842,-0.001560413930015746,-0.0017108855794320103,-0.0016356491222137173,-0.0012915987588455271,-0.0007108586633431052,-1.9014799323483302e-05,0.000602050203844967,0.0009916346491638099,0.0010841275444117727,0.0009364357034864798,0.0006943580085206097,0.0005177415502640604,0.0005030504126232216,0.0006384658740301218,0.0008087524320759069,0.000846290962112022,0.0006077715900784384,4.612195661213509e-05,-0.0007530237079280829,-0.0015895169807102704,-0.0022188877768550227,-0.0024469988604256254,-0.0022062533036364585,-0.0015760959377718027,-0.0007381871471915897,0.00010801594756163822,0.0008225777308348774,0.0013562250373631438,0.0017273890990466743,0.0019707346925148935,0.002096452727029933,0.0020858831996864143,0.0019195329917214405,0.0016100988496651728,0.001212090627909629,0.0008000599702127724,0.00043162268792072125,0.00012014809171216482,-0.00016864826319954373,-0.0004987050662714032,-0.00093471349571152,-0.0015103976442083194,-0.0021991906317752664,-0.0028967869964397638,-0.003431201793388849,-0.003611014632478929,-0.0033017559747252944,-0.0024965220109864203,-0.0013401700119912642,-8.622719576708965e-05,0.0009982996067815736,0.001735031575211011,0.00209297887336873,0.002176535074891268,0.002151991067729179,0.002151873165073902,0.002205835269736045,0.0022333728699407075,0.002103563486382872,0.0017319278823444203,0.0011599358766439202,0.0005642475151403144,0.00017667572542259303,0.00014942676918268996,0.00044257377894561757,0.000809822276563457,0.000906494564823097,0.00046903871865237173,-0.0005328957405538015,-0.0018593213974509694,-0.0031008119760792562,-0.003863737403274357,-0.0039423126362516485,-0.003391526733580358,-0.0024717723401897363,-0.0015042035645693166,-0.0007183729439925041,-0.00016987893416506262,0.00023875872240622115,0.0006588222068286953,0.0011815868376429907,0.0017744659989872569,0.0022974513756196476,0.0025834807310238044,0.0025331556389261147,0.002170470436330056,0.0016311262347679435,0.0010928590832558285,0.0006868424605212045,0.00043661147284144823,0.000255473938405858,4.135450641366291e-06,-0.00042009093776799653,-0.0010092279970400307,-0.0016276348073443097,-0.0020655115220189636,-0.0021380500473362745,-0.001779197687653786,-0.00108096015618355,-0.00025814517714806183,0.0004429329413322429,0.0008465137799804911,0.0009124584621478886,0.0007368246568736289,0.0004918828287724087,0.000337246223116287,0.0003454409783435954,0.0004757469370099568,0.0006047655008193495,0.0005944232467342922,0.00036210661138852033,-7.984584697414236e-05,-0.000630173186982192,-0.0011421232545955266,-0.0014799070113680124,-0.001562158641641333,-0.0013787545380391903,-0.0009837158992883114,-0.0004746188712826845,3.5312672874640355e-05,0.00045184564337587816,0.0007351659489810308,0.0009171107155314798,0.0010791443469170543,0.0012917259776001739,0.001549224847597145,0.0017500028061250557,0.001748536680234461,0.0014557753374284904,0.0009211894312322524,0.00033068932290618086,-9.420197721038707e-05,-0.00023983995251128365,-0.0001905609849067333,-0.00019369858086576647,-0.0005068661205104975,-0.0012180466479578811,-0.0021569055842255874,-0.0029630591824743742,-0.0032758171065565425,-0.002929874097667681,-0.00203857258314367,-0.0009209582711432705,7.299266070575402e-05,0.0007290960163539537,0.0010364079320073247,0.0011361467960955792,0.0012051233095771038,0.0013533156595216989,0.0015870692413455726,0.0018361469100585763,0.002006726752079348,0.0020240985305910006,0.001853940802941606,0.0015096332973728844,0.0010507271926722401,0.0005666875759319826,0.00014088837705146843,-0.00019318501296186814,-0.0004753392444736683,-0.0007979130797440183,-0.0012441250865164043,-0.0018193758620514335,-0.0024196199541494084,-0.002861655400253139,-0.0029632532305331745,-0.002630390556274215,-0.0019039843525748795,-0.0009420248545453179,5.031466104611507e-05,0.0009025985521505906,0.0015304093609153767,0.0019350079992074551,0.0021617185622779863,0.002249377300561458,0.002203953076335744,0.002009868985295305,0.0016652286965297943,0.0012099563700010097,0.0007212172998527377,0.0002754266848356464,-9.723324522290329e-05,-0.00043120041626921394,-0.0007981836335295305,-0.0012459926970620691,-0.00174119092383282,-0.0021565238317053713,-0.002320032349405719,-0.00210431369230542,-0.0015059267098580969,-0.0006661342907281528,0.00018388794392548485,0.0008263619208101947,0.0011526626917738138,0.0011992387289500943,0.0011062150075726153,0.0010260096146084423,0.0010365369661303851,0.0011068410535725686,0.0011281579026940149,0.0009841775386083963,0.0006157538393822268,4.7183447977299474e-05,-0.0006286050205187169,-0.0012845365035437546,-0.001790913881334395,-0.0020377794197490263,-0.001955709380151274,-0.0015394901629351828,-0.0008642686912514628,-7.555607322750485e-05,0.0006545303016153312,0.0011885142882575974,0.0014695521698468426,0.001526151680234865,0.001436165649387889,0.0012768629042827757,0.0010938432097140033,0.0009037139781378259,0.0007185780240202386,0.0005648686267393905,0.0004755096058035417,0.00045716626872159224,0.0004570143923641274,0.000360204786207291,3.412857028171857e-05,-0.0005944901355414794,-0.0014713193277545661,-0.002401692616956722,-0.0031137923381226716,-0.003373221652912934,-0.0030897331651346593,-0.0023566978042374375,-0.0014006337643995513,-0.00046966097348538193,0.000276383819882878,0.000815963857620898,0.0012357103043819978,0.0016459335727365939,0.0020949660023801995,0.00253149467526337,0.0028336264071210458,0.00288411462282842,0.0026443795131212045,0.002181291219983417,0.0016305080462903423,0.001120391597518151,0.0007045927416754194,0.0003434210677349639,-5.866589036929073e-05,-0.0005858154711702707,-0.001253673383802971,-0.001991456094302898,-0.002668109560599421,-0.003145373981984327,-0.003330471318469388,-0.003204837412341669,-0.002818847526620347,-0.0022592526781311647,-0.0016086842693673812,-0.0009188518310733875,-0.0002094677362963176,0.0005109327963479799,0.0012185993312956785,0.0018608816796496452,0.0023646547865522087,0.00266246673723937,0.0027216012148343714,0.002560207755708816,0.002242987758441784,0.00186009931455217,0.0014989128223264025,0.0012167256851272961,0.0010188967982339382,0.0008477462758316686,0.0005923811490822497,0.00012900664919228335,-0.000613258658454661,-0.0015892281898619567,-0.0026174908958075597,-0.003428213042078093,-0.00376594948258286,-0.003499082812457386,-0.0026794474819530284,-0.0015212796006968503,-0.0003123073866106538,0.0006952475869685267,0.001360831079106104,0.0016715721038320654,0.001707346516854852,0.0015864342451368469,0.001420520838622611,0.001288735774284526,0.001223807522462055,0.0012021635950542656,0.0011415957496500023,0.0009204517458099854,0.0004276258109589706,-0.0003676825505242988,-0.0013600249933321264,-0.002306086514275386,-0.002898491873930979,-0.002895029964601375,-0.0022422376620050877,-0.0011209177849634696,0.00012364968619721058,0.0011371984969695973,0.00171297147570854,0.001862326066862664,0.001767030388949326,0.0016528009216798623,0.001663215354083928,0.0017996571029147293,0.001945287478781079,0.0019446007856855187,0.0016888972141577976,0.0011652658707034093,0.0004519697895357977,-0.0003281542816811018,-0.001065855238124086,-0.0017038358107572353,-0.002239280975233937,-0.002695079070363829,-0.0030783744820463907,-0.0033489314004604507,-0.003415987264402792,-0.0031718665803567745,-0.002552592028285219,-0.0015955713517255478,-0.0004567287935743227,0.0006341276506641861,0.001465639158001231,0.0019384131482204985,0.0021063401483586534,0.002138451544260716,0.002219265531020291,0.002442459432977644,0.002757798576513506,0.003000854689483045,0.002987778862212055,0.0026213281328892777,0.001949129149858855,0.0011419230363833104,0.00040297671443702276,-0.0001422951055962882,-0.0005143470063070498,-0.000862927313730315,-0.001369073818101811,-0.002117067827098007,-0.003010801828327274,-0.003789957777170912,-0.004146963183293377,-0.0038853436843254664,-0.0030302668185046323,-0.001824440507893395,-0.0006082699191390089,0.000346224349875831,0.0009494666366504269,0.0012932236247461283,0.0015474261260193603,0.0018314888691908233,0.0021435427143597437,0.0023814537927913802,0.002425027914815045,0.00221577158078393,0.0017850572150790872,0.001224085420282871,0.000626720147919027,4.716987643655973e-05,-0.0005025695045639408,-0.0010205982952216637,-0.001476546247808774,-0.0017978404188036797,-0.001894565455079423,-0.001709759312115471,-0.0012627163378593764,-0.0006549327217838013,-3.2019205844414315e-05,0.0004759431554265698,0.0008002545193906338,0.0009428050810793335,0.0009520720008468957,0.0008880916803993778,0.0007977597376375633,0.0007069306299917162,0.0006218532127660757,0.0005299162360546237,0.00039780569849882854,0.00017526954950232996,-0.00018531904362607625,-0.000693976405924014,-0.0012899074965119586,-0.0018358840385586757,-0.0021555851845533156,-0.002103790608525625,-0.001635716900856546,-0.0008372268036360245,0.00010328994553995591,0.0009688353793091039,0.0015957522608717849,0.0019226502279758968,0.001986070791152262,0.0018741761217101532,0.0016714118619057202,0.0014259911981343147,0.0011519040501991647,0.0008534359403027973,0.0005476245535514319,0.00026439752861662414,2.1552749723638626e-05,-0.0002075781446149649,-0.0005042347684882913,-0.0009699958493671147,-0.0016538992554725597,-0.0024807240250602886,-0.003234994763062045,-0.0036313831662785215,-0.003447645997668369,-0.0026476480390025064,-0.001418239461115379,-9.238581763281898e-05,0.0010004727284185745,0.0016742218421535464,0.0019438737060911,0.001979991010518573,0.001994785616207462,0.0021252285451302086,0.002371042873074462,0.002610400947495745,0.0026756782650983755,0.0024461613206189638,0.0019125598486796416,0.0011850897577304247,0.00044291425069725634,-0.0001512214881160068,-0.0005298985308045136,-0.0007522750616388388,-0.000967817101825018,-0.0013274337070700345,-0.0018870859073732956,-0.002556505238763041,-0.0031245614791846925,-0.003353085569698421,-0.0030933295140052742,-0.0023643874618883252,-0.001350614524847569,-0.0003178034207095884,0.0005073932957142239,0.0010298167272363122,0.0013016311682199704,0.0014578322512833802,0.0016138405102644527,0.0017883651651118965,0.0018977348587899305,0.0018228044870844526,0.0015031903759617367,0.0009950903259814687,0.0004517522540836928,3.679703050541187e-05,-0.00017345151136954337,-0.00023377196984021142,-0.000290423365357399,-0.0004832330149106786,-0.0008510794791505042,-0.0012980867101560914,-0.001638647786999012,-0.0016924321649049593,-0.0013744141655367837,-0.0007329347108322417,7.755413519338142e-05,0.0008661716120620378,0.0014775412208949835,0.0018337673416856557,0.001937014798399682,0.00184369347976574,0.001628338252443177,0.001350407261603998,0.001030370832517362,0.000640572732841652,0.0001191916555102774,-0.0005878521685191423,-0.0014681883458175673,-0.0023991551134371447,-0.0031563981457469912,-0.003489941287967652,-0.0032396185772193427,-0.0024271401070528275,-0.0012655945129600031,-7.283698520146875e-05,0.000866242609450369,0.0014131476441675665,0.0016072603982165438,0.0016085856029163783,0.0015934375800715735,0.0016628705688304425,0.0018069611345866755,0.0019322469903122186,0.0019266851835789912,0.0017222627495643871,0.0013235585732808198,0.0007933767943406661,0.0002105975227825116,-0.0003714405330263477,-0.0009407741477791586,-0.001508058925293723,-0.002065594388876541,-0.00255184037827203,-0.0028494905127372516,-0.002827401311200733,-0.002408640261428864,-0.0016261009287977491,-0.0006294313157823687,0.00036636330310260484,0.0011655669356335633,0.0016644667259562004,0.0018746858824165982,0.001889917422928287,0.0018214600666426502,0.0017421193747039444,0.0016665553770766433,0.00156945914009787,0.001420022121985083,0.0012057306503266958,0.0009310852044918947,0.0005970935197237414,0.0001824181863910447,-0.0003520317325577375,-0.0010285285252299432,-0.001805703547365475,-0.002554199566729145,-0.0030830437019001775,-0.003214281333710137,-0.0028685728503743298,-0.002112132699588682,-0.0011362152931562745,-0.00017961323776145323,0.0005648966122597208,0.0010151082567212348,0.0012094568971389012,0.0012652678897968742,0.0013104543342565775,0.0014230409310685976,0.0016055070378296688,0.001800093579115369,0.0019280936768539367,0.0019254161272708194,0.001755567798529916,0.0014023622880881608,0.0008610594358037481,0.00014499215567057456,-0.0006931230309392732,-0.001544373933162247,-0.0022532799865044445,-0.002659988107002305,-0.0026587484875537494,-0.0022435631823312426,-0.001516737991009515,-0.0006545709110256435,0.0001544955624916901,0.0007712263473204923,0.0011401792152261662,0.0012861623999268351,0.00128073263491414,0.0011999264793052503,0.0010942869089468725,0.0009807564541487656,0.0008515117996629649,0.0006866784992707073,0.0004608780233506248,0.00014470125319709427,-0.00028836235878394127,-0.0008411965547712951,-0.0014646218883545537,-0.00204243160204095,-0.002411809541807853,-0.00242233412787914,-0.0020090983315392257,-0.0012383771496161512,-0.00029304759366869325,0.0006014629799951459,0.0012719008413130599,0.0016589103014742726,0.0018134469719191916,0.0018386214549807487,0.0018206254334678302,0.0017920037310866568,0.001740431897188776,0.0016418290757771218,0.001483958578031371,0.0012624306636102,0.0009597703626743233,0.0005355772434420857,-5.2654953400720636e-05,-0.0008060693907468033,-0.0016500038153891598,-0.002439269857368406,-0.003007599752470525,-0.003234495145946921,-0.0030905405048240607,-0.0026373283670358127,-0.0019877790989557527,-0.0012548440947773459,-0.0005173578341406907,0.00018548825068042405,0.0008389256136649851,