0.002379888465154404,0.001564968888710753,0.0006926472091902484,-0.00029720495642036014,-0.0014906382751262665,-0.0029202250947034363,-0.004473348704939648,-0.005857001143991631,-0.006668844980930698,-0.006561312525228225,-0.005418182658288886,-0.0034411092864860262,-0.001088283350444037,0.0011078089601532183,0.0027476690539220824,0.0036919074652152044,0.004054810295226214,0.004086993374039437,0.004023497817227998,0.003978282168667375,0.003926444866218054,0.0037606267850983344,0.0033714758883202434,0.002701765264774472,0.0017531862647894724,0.0005608192675818111,-0.0008301812078690002,-0.0023583551081782475,-0.003911010609077824,-0.005291975686362549,-0.006233507965457706,-0.006471201450651177,-0.005856162061081013,-0.004443459477250595,-0.0024992471262936296,-0.0004131718007212499,0.0014413561103207655,0.0028268850594156975,0.003684770578957363,0.004092245333853081,0.0041736497063520695,0.004025293832930742,0.0036934981765856566,0.003202075098239827,0.0025901886461932437,0.001918776224128916,0.0012345466087599142,0.0005218773910519257,-0.00030728463406535107,-0.0013558628884127741,-0.002637177958032504,-0.003989410663326897,-0.005078682862041243,-0.005513841704605822,-0.0050257530577525154,-0.0036160078817885338,-0.001588597490210381,0.0005592689211157914,0.0023333649077992543,0.0034269446211599697,0.0038067591039871586,0.0036703934895481027,0.0033104110028741186,0.0029604071538003886,0.002695499231159711,0.00242338613362686,0.0019561347059837853,0.0011208868157611728,-0.00014005488220436959,-0.0017172489682960412,-0.0033467134381412007,-0.004681845625283178,-0.005400408373787026,-0.005308944235294338,-0.004405123907111257,-0.002873583130275567,-0.0010195398792911799,0.0008277122930242034,0.0023995993282143373,0.0035331266928991757,0.004173082054894049,0.004348332786739239,0.0041421859626313475,0.0036662308453650804,0.003033982824804146,0.0023276076339149346,0.001563153743391608,0.0006775898621966365,-0.00043556643832411894,-0.0018391820379098256,-0.00345200498856684,-0.004999939341632559,-0.006070719600923213,-0.0062687175390156195,-0.005401044213662322,-0.003593845185718538,-0.0012664728912078786,0.0010307423050235976,0.0028309109105695914,0.0039066355335554154,0.004298869828161723,0.004226948454638644,0.003947532131978215,0.0036390830966264425,0.0033536463102052643,0.0030320263639523545,0.0025525533859219627,0.0017859258276620399,0.0006451873797036734,-0.0008694536924069258,-0.0026355208023606273,-0.0043992751257863815,-0.0058133241771917985,-0.006527179939765361,-0.006307715134030839,-0.005139007291580151,-0.0032476590011921713,-0.0010307334069420812,0.0010848393919775357,0.0027828080882712153,0.003930258053351239,0.004557103647360709,0.004773004751367568,0.00468342223052925,0.004353280653728336,0.0038222751226802834,0.0031356594951016583,0.002348368444891312,0.0014907903005720916,0.0005260975334717182,-0.0006513565053540781,-0.0021473963822637725,-0.003950766259021682,-0.005837223021381042,-0.007373486818391986,-0.008052518328869104,-0.007511134675187426,-0.005718324061847696,-0.0030246088442139646,-3.574989941291471e-05,0.002625747951177044,0.0045455011887253986,0.0056176596741191465,0.00598919770030183,0.005906115247657447,0.0055643756479038615,0.005045842807840813,0.0043510838495294515,0.0034758854274735376,0.0024599535662100974,0.0013721290439961816,0.00025477271492396834,-0.0009147577031756641,-0.0022004111480108074,-0.0036255734361711144,-0.005085839383552266,-0.006322833222373895,-0.006993575882376996,-0.006811718880817141,-0.005688790210224225,-0.003796738564619607,-0.0015139912127212912,0.000718044108477186,0.002552449227695257,0.003829427534502005,0.004567639435823346,0.004878029614901057,0.004864674136775642,0.004574205517519149,0.004013043569900657,0.003200819615602507,0.00220565235963046,0.0011280075687566074,4.708951429271827e-05,-0.001020891313813744,-0.002108513128253185,-0.003226123300274436,-0.004281897715783313,-0.005057668276050718,-0.0052747208796417346,-0.004724571140926128,-0.0033924703713465202,-0.001500095982690149,0.0005599243636172223,0.0023634475074437115,0.0035973990824986818,0.004142212723656417,0.004070834749419479,0.003583988513275521,0.0029220266388999953,0.0022868451022020346,0.0017881240858828597,0.0014164909475238156,0.0010485572044547124,0.0004936943796569148,-0.0004165056290693233,-0.0017209826955872263,-0.00325504451400302,-0.004661313435862617,-0.005502569379902329,-0.005437024574885591,-0.004374195881243015,-0.0025310359232829484,-0.00035619550676279656,0.0016419718561130196,0.003080182389302172,0.003812794526977156,0.003930272130148441,0.003662098056845224,0.003245872430331258,0.002828861044217072,0.0024374512704336665,0.0020073617985448106,0.0014403331416143732,0.0006544804562921484,-0.0003834903637375973,-0.0016378301861747677,-0.0029892222503709286,-0.004234711389904784,-0.005118934883006451,-0.005401668553581901,-0.00494125116645007,-0.0037558406150062953,-0.002030803531458781,-6.715483871985465e-05,0.0018058769474528407,0.0033180781688302045,0.004314757128556694,0.00476889861307514,0.004754045506194883,0.0043960887294787355,0.0038249115672019185,0.003139351904476881,0.002388007778666627,0.0015633725420015029,0.000610761816931542,-0.0005409453962203274,-0.00192426464723291,-0.0034693455428274084,-0.004966874893953331,-0.006094536593241905,-0.006516324638635649,-0.006019068167624472,-0.004618527195158568,-0.002575236166198226,-0.000307691594116775,0.0017532324075578874,0.0032973790161966617,0.004200913301673315,0.0045123277517742965,0.004385576633570571,0.0040017470297175825,0.003511102005184603,0.0030062804104450344,0.00251909968779873,0.002026750791733958,0.001459626359260323,0.000715897654535671,-0.00030479466711963053,-0.0016441901876692684,-0.0032221231109934496,-0.004804533835453663,-0.006038885858407292,-0.006562291316103804,-0.006142386400663227,-0.004782532262714184,-0.002735108834843768,-0.0004147548651942538,0.001744111288811212,0.003417711971379851,0.004459648865321061,0.004892086098003372,0.004846094612695629,0.004490362419477728,0.003977848745202176,0.003418809387821373,0.002872377137991701,0.002345805825781815,0.0017969913228999858,0.0011434496658393213,0.0002843163970824332,-0.0008601656422399226,-0.002295534293527889,-0.003903994221627756,-0.005429044869300568,-0.0065213290120365325,-0.006848028188118387,-0.006228054797998215,-0.004726239875211691,-0.0026489099145514377,-0.0004337166711563058,0.001512340811222541,0.002943863340058238,0.003816980260315528,0.004234602383482464,0.004344566694310295,0.004254353148831543,0.0040023945121356415,0.003582391183479257,0.002984065853890446,0.002212950222874661,0.0012805101680206164,0.00018897172519725524,-0.0010563272640540782,-0.002399803875161312,-0.0036864487847428594,-0.004662335457742112,-0.005051862425871674,-0.0046826750221071,-0.0035843723272324544,-0.0019934895720808395,-0.00025600587970871686,0.0013132256280109242,0.002529818359862974,0.0033496591465841602,0.003806767389763901,0.003940866133895184,0.0037686473116114636,0.003305961057433604,0.0026034309752951033,0.0017505607334491772,0.0008360728381060828,-0.00010425066059692315,-0.0011031260136692032,-0.0022149738211512493,-0.0034290656473746073,-0.004601822054166493,-0.005464163016172103,-0.005715374699060998,-0.005158585085092246,-0.0038037238928047817,-0.0018819895433378963,0.00023262382306965185,0.002150626880154441,0.0035827950602343945,0.004402140608661299,0.004642531275621564,0.004450311243852971,0.004015472288091398,0.003506195388429941,0.0030220149001154674,0.002572269755454544,0.0020809906812500178,0.001417205903304705,0.00044799258005807506,-0.000893943165382318,-0.002547036710323751,-0.004290758977650414,-0.005775728012293192,-0.00662048533650956,-0.006546673242509342,-0.005494652485639094,-0.003659899813547028,-0.001425481474321576,0.0007793302548072577,0.002623467842081699,0.003951191465725345,0.004764163746858583,0.0051381944550390485,0.005139438231278269,0.004794789449842726,0.004124110892023306,0.003192282095249384,0.0021241084066767986,0.0010570344697490325,6.16008167972946e-05,-0.0009055817319207815,-0.0019667077030332196,-0.0032130608586212013,-0.004586533596271966,-0.005834511178248066,-0.006581294465140476,-0.006489435911573896,-0.005427504584065799,-0.0035520634781790773,-0.0012572614357021263,0.0009811514271548646,0.0027836482183681626,0.0039767922908030195,0.004591806448221252,0.004775414449040229,0.004680641683550797,0.004401774743075221,0.003975360972837351,0.0034210839960861434,0.0027750478399910603,0.0020838362031072723,0.0013652681805952738,0.0005731074352691582,-0.0003937203656902862,-0.00162477516847404,-0.0031042621313121686,-0.004648260164419592,-0.0059248275569481045,-0.00656509406369867,-0.006317075425599913,-0.005161888686739203,-0.0033287840249104786,-0.0012026052193056303,0.0008228279883358504,0.0024684814839948796,0.0036181772065137065,0.004288017207980916,0.004555736196741064,0.004499559460966634,0.004176530070280467,0.0036369816133358045,0.0029467618498102604,0.0021867556243069636,0.0014203871935486892,0.0006498800206418948,-0.00019954185330253152,-0.0012371938023547108,-0.002512371859546898,-0.003918409692184888,-0.00516620447401775,-0.0058697102109367,-0.005717334776238226,-0.004638116981593328,-0.0028605198481497576,-0.0008206972522607687,0.0010303292492485887,0.002409182190315109,0.0032722355933780256,0.0037514836316316466,0.004013014679100764,0.004136715234186361,0.004088810148714143,0.003787813349172343,0.0031998953638568816,0.0023855182307030744,0.0014627339008972712,0.0005198795133611939,-0.00044844277572450575,-0.0015234651940300241,-0.0027650585325601964,-0.004101179910013401,-0.005288125631002269,-0.005983220285851347,-0.005897246395633136,-0.004939999240055146,-0.003275037693266512,-0.0012547305899667845,0.0007237402810717454,0.0023602196325641345,0.0035206086106626374,0.004213429418134377,0.004511132701963643,0.004479823881861245,0.004161946193485429,0.0036074569206541885,0.0029070136834182915,0.0021784564484830338,0.0014993993668740186,0.0008333546927764782,1.9868627937560924e-05,-0.0011339106851045075,-0.0026951240994560724,-0.004477180208674936,-0.006040412297051389,-0.006850626071550639,-0.006524413231426193,-0.00502711566097463,-0.002709916584577068,-0.00016443271277080272,0.0020246539244474625,0.0034990375593319514,0.004214979525973661,0.004375565349106219,0.0042649910630075585,0.004085833123634076,0.0038842504002972096,0.003586028280014514,0.003097135100626339,0.0023889161079143012,0.0015100612148384466,0.0005280439952919422,-0.0005413759868113546,-0.0017472874434445464,-0.0031339249431463715,-0.004630720044462256,-0.005986832257373281,-0.0068170696680768875,-0.006756441268400498,-0.005645344707904846,-0.0036389645929135587,-0.0011735252978000198,0.0011973377955879236,0.003012923498916081,0.004060523588215324,0.004409556356895712,0.004323574404586717,0.004105461727618207,0.003954639041894803,0.0038994580469075275,0.003824620319210245,0.003564932134358956,0.003006899943885969,0.0021427293256592074,0.001054086944134989,-0.00015351486886153138,-0.0014154763290206871,-0.0027238952127686734,-0.004079840299459217,-0.005413430013581989,-0.006531891569558865,-0.007145745332180844,-0.0069763369316940965,-0.005892763092690121,-0.004000737151982014,-0.0016294577423493703,0.0007800900463957117,0.0028287279686002175,0.004280294606385171,0.005099500646882123,0.005401860940490009,0.005354756000456958,0.005087992713904395,0.004658379645801402,0.004074940448362629,0.003353051712123657,0.0025504551160427367,0.0017539480818489915,0.0010218100876570884,0.0003218336111417626,-0.0004829652597755318,-0.0015700350188210923,-0.0030315345197222967,-0.004753881091726966,-0.006385767005803844,-0.00744012030629527,-0.007497961729069181,-0.006412155688322652,-0.004396432298261041,-0.0019441945268033017,0.0003820785153060137,0.0021773509242213763,0.003318912356188547,0.003936365981089784,0.0042637166352927115,0.004471905855195533,0.004579460303967666,0.004481765231173715,0.004063087958889306,0.003306025595316793,0.002320236900041077,0.0012718919906699161,0.00026847474415593256,-0.0007107441242379251,-0.001777879255809258,-0.0030091314169151924,-0.004313042154848644,-0.005393496050087921,-0.005850826462076497,-0.005375042588110439,-0.0039220007244895995,-0.001769078213995193,0.0005827095855891857,0.002605758814684278,0.003938638612218944,0.004485156710508682,0.004389645824295802,0.003922182713044392,0.003341652825757522,0.0027990031010905548,0.002310185836835196,0.0017909106092200693,0.0011221778877947308,0.00021332346453627557,-0.0009572325170096971,-0.0023259467025100395,-0.003745780666695113,-0.005001699719290241,-0.0058451215629779655,-0.006052645091946328,-0.005498989892883558,-0.004213959845203846,-0.0023897091911613934,-0.00032745493858710346,0.0016526023415854864,0.0032949310481648754,0.00445237531160763,0.005084911408391648,0.005232718107169212,0.0049869993616512166,0.0044680470188604125,0.003803530341619495,0.003096532069813972,0.002385766230140739,0.0016188313519750193,0.0006665695900320561,-0.0006080824683389,-0.0022461805859201175,-0.004105288811537615,-0.00584706597760686,-0.007028265491666963,-0.007267291237699189,-0.006408871477421896,-0.004600664345555689,-0.0022391419749493158,0.00018590258223769035,0.0022646584856796104,0.0037737361358905867,0.004680153848255859,0.005069090097322577,0.005055321832997438,0.004729246535987981,0.004152434504910251,0.0033828064072499355,0.0024954673924510277,0.00157504479546946,0.0006795710929519208,-0.00019966715557713434,-0.0011468141398623998,-0.002274561263277337,-0.0036307412914751507,-0.005106152760132367,-0.006407928192046905,-0.007136655997850209,-0.00694509163252104,-0.0057005392711697855,-0.003563422353831731,-0.0009402057192833927,0.0016621257534676062,0.003805851508951305,0.005241456922873238,0.005936748001214446,0.0060234785338482855,0.005701597919804709,0.005149786216018011,0.0044771486698458275,0.0037248516099458173,0.0029011436844512367,0.0020193816833816167,0.001111589469349505,0.00020848855253569236,-0.0006974449927321866,-0.0016711818749653444,-0.0028059457243718444,-0.004144786980537151,-0.005592427537413307,-0.0068795377842517675,-0.007624232692704158,-0.007481123465448268,-0.006308599743413886,-0.004261765501139738,-0.0017525316051938667,0.0007082050471957076,0.0027048856215421066,0.00404915745537617,0.00479058658506252,0.005117838374625348,0.0052190252576494135,0.00518256079053928,0.004985383754321852,0.004557979483939522,0.003870545229850199,0.002977906434649738,0.0019941656985703934,0.0010184330843291396,6.722250990423681e-05,-0.0009344153732002657,-0.0020888929746767245,-0.003422935073262772,-0.004807738247141721,-0.005957801972273357,-0.006523817116687007,-0.0062423346431557235,-0.005068046097611235,-0.003216660179517585,-0.0010907843243391554,0.000875472904865763,0.002373470073979137,0.003301591294092353,0.003741107590047219,0.003856432313220088,0.003787160029304385,0.003593187148253699,0.003271796053157216,0.0028158153619368908,0.0022576333207160793,0.0016605145836024837,0.0010637581543234517,0.0004289487916150171,-0.0003592627468693738,-0.0014190131992953795,-0.0027583235651522306,-0.004194741102989229,-0.0053719289314786405,-0.00588626705706734,-0.005468838828093822,-0.004126491770364079,-0.002160070760132155,-4.3901861610588146e-05,0.0017712736593013209,0.0030281341281779106,0.003721082147155727,0.004024777592021104,0.004146553079670479,0.004193520049514257,0.0041287036130209665,0.0038316782132353875,0.003213394407262196,0.0023027161013048324,0.0012442185317439525,0.0002089904829453403,-0.0007182176758714037,-0.0015924479685722871,-0.002556608941067424,-0.0037097296729898623,-0.004979938597266064,-0.006091601286706615,-0.006660471397003863,-0.006370333047690783,-0.00513301894628619,-0.0031440312257156435,-0.0008083854429129463,0.0014171925836245027,0.0031824748092076625,0.0043320733169265125,0.004899996762202339,0.0050346371468571825,0.004903749869595549,0.004625020425137394,0.004244013052433476,0.003753989708265954,0.00313451417950343,0.0023827663755313184,0.0015208710867483737,0.0005789062488563018,-0.0004304980843737074,-0.001522317819985921,-0.002717424888881017,-0.0039930631473439095,-0.00523328738939788,-0.006217844626711372,-0.006673880895167537,-0.006379193689830247,-0.005269233409117136,-0.003488891216785967,-0.0013559133918456306,0.0007488097160412864,0.0025091499554584845,0.0037590553196646557,0.004493357126897812,0.004814140432654592,0.004851653453676408,0.004701675305922537,0.004403064532138241,0.00395409769063007,0.0033474095216571792,0.0025979592246878017,0.0017467346775685562,0.0008394465669566774,-0.00010420725622657453,-0.0011070667910978466,-0.0022181718517151165,-0.0034623277849596405,-0.0047772095706640795,-0.005976034255865905,-0.00677116180385187,-0.006866562164725715,-0.006085105198903877,-0.00446660575581189,-0.002279995474226449,6.193651384127916e-05,0.0021438843231159892,0.0036785645523320955,0.004572981735141492,0.004913381125737406,0.004887706652055363,0.004685949577865112,0.00442277331228889,0.0041134855211482566,0.003707158335474304,0.0031504698467412647,0.0024394542884860343,0.0016254488842099152,0.0007725177114403725,-0.00010181945117798943,-0.0010549450456808199,-0.0021844702633750574,-0.003538820122151459,-0.00502305253625546,-0.006365026708475014,-0.007181426352266379,-0.007127385623111454,-0.006059455949533483,-0.004124465962759836,-0.0017213732358748674,0.0006485518379045472,0.0025672475525424145,0.003829251690558635,0.00445995261949242,0.004632017680181376,0.004541173046190614,0.004313234269779018,0.00398267865589348,0.0035331169605702824,0.002954114038630923,0.0022675809096200598,0.0015078199845946503,0.0006792778452789175,-0.00026314837032915324,-0.0013802002331823305,-0.0026702995924720117,-0.003997548937029299,-0.005085927158132013,-0.005606698977269743,-0.005325714806811586,-0.004229837351484541,-0.0025541769855989237,-0.0006879066578773809,0.0009899410883098443,0.0022523325083718044,0.0030700053593249125,0.0035505725552155572,0.003824152575469044,0.003952394105437527,0.003910306124563689,0.003634923371751825,0.0030912738967567768,0.0023030515635870854,0.0013309240838331958,0.00022578929875249665,-0.0009965492462273825,-0.00233172489663373,-0.003727430165186178,-0.0050332692946764524,-0.006004446534960892,-0.00637175303536619,-0.005948051366857158,-0.004716842244884601,-0.0028568226499593482,-0.0006906644667833293,0.0014162467886706075,0.0031617318052528827,0.004376317663259385,0.00503598151432949,0.005223456998055249,0.0050640266802268455,0.004669197573103041,0.004111874849163688,0.0034342274528289473,0.002668189353056942,0.0018433948112715134,0.0009728237408623963,3.1294265206360144e-05,-0.0010440358073049187,-0.0023125940878929753,-0.003760571221026213,-0.005242813614761994,-0.006481107095708301,-0.0071368808873762905,-0.006934187284759414,-0.005777660553667527,-0.0038093213976356337,-0.0013771160872467479,0.0010710910846797668,0.0031237017333698904,0.004519202710848408,0.005198292401583415,0.005281030469233265,0.004985207431976443,0.004525391007273429,0.004038262867659579,0.0035625547075095513,0.0030686737472143733,0.0025051506811607175,0.0018263497856690336,0.0009901280888870072,-5.4449660530075765e-05,-0.001356884985923764,-0.0029182867045508118,-0.0046291739927725485,-0.006238649895548913,-0.0073941615332603645,-0.007752091829950514,-0.00711323112937556,-0.00551546768729395,-0.003235308511535457,-0.0006983311254132557,0.0016558360959689836,0.0034941021200843693,0.004655977064246364,0.00515769260831565,0.0051489063356817385,0.004841882717337132,0.004432611162033183,0.004036525634472965,0.003663451173265716,0.00324473834441734,0.0026985972302139595,0.001994271300455881,0.0011739374172864865,0.0003187283276993238,-0.000515932747422542,-0.0013477444519379037,-0.0022586350942443044,-0.0033255389404918644,-0.004527334757834621,-0.005686929496193105,-0.00649644807800924,-0.006630043979127838,-0.00589455648573607,-0.00433736734660109,-0.00224822168203335,-5.0659955266484286e-05,0.0018589499501391763,0.003241904816404708,0.004059436556901306,0.0044225951396636085,0.004492495336778365,0.0043899991889859,0.004157388692634055,0.0037796411670089057,0.0032392686860167096,0.0025623462487922135,0.0018219045734999524,0.0010943883284321592,0.00039927138948411264,-0.0003307875236298211,-0.0012159463048147063,-0.0023383249988439586,-0.003643648410436115,-0.004900413798436122,-0.005756465179873785,-0.005878396872909107,-0.0051072712536861745,-0.003547854855060856,-0.0015407802291344391,0.00046996022744737935,0.0021060126835667414,0.0031765809403059035,0.003701315811960557,0.003838798859465601,0.003772523301751732,0.00361929926544837,0.003400901879053192,0.0030767071459847943,0.0026002201112024287,0.00195599202291589,0.0011568356796481986,0.00021630566778688267,-0.0008677284729474761,-0.0020916330686399586,-0.0033929612293936186,-0.004605063562543617,-0.005465542871410035,-0.005696336621739023,-0.005125500533175368,-0.0037861448734786097,-0.0019325163296137191,4.35489295437166e-05,0.0017577748101929532,0.0029691705603646606,0.0036415695801478264,0.003906171098342212,0.003952166550446267,0.00390960310964138,0.0037901793382980093,0.003514185869420137,0.0029957878108905355,0.0022211178488661595,0.0012626798465482426,0.00022467591687062188,-0.0008310901051580258,-0.0019130935892634894,-0.0030526562584709898,-0.004213833724213546,-0.0052325440315075696,-0.005842143337265273,-0.0057833152219685015,-0.0049360478243722465,-0.0033947248102497267,-0.0014436753121871405,0.0005496630230252865,0.0022647708873117347,0.0035188909127694037,0.004284992160900702,0.004642862199339858,0.004700466083642727,0.004532106556319021,0.004163399528469537,0.003600014064023522,0.0028686053858728356,0.002033417230406142,0.0011728441129077358,0.0003313290805119273,-0.0005173900050133122,-0.0014623785108931928,-0.0025949929614093705,-0.003922130116028452,-0.005302354176984928,-0.006449328092486203,-0.00701484845327884,-0.006721399515272099,-0.0054852774244192205,-0.003471994098901856,-0.0010555026396947612,0.0013037019888250216,0.0032107337033581663,0.004455653020831077,0.005052428969837729,0.005185659694799926,0.005093926542857223,0.0049468632243625105,0.004775073143433154,0.004484790725751329,0.003944038062947717,0.0030872979978217997,0.001975005311232031,0.0007709087666734448,-0.0003495485761459616,-0.0013027273812044827,-0.002144592151300617,-0.003026417158578075,-0.004077667943596464,-0.005282554708847942,-0.006426716048145508,-0.007155560116450577,-0.007124026554834526,-0.0061635469842308156,-0.0043782395854316,-0.0021188044594308425,0.00015210338821775417,0.002034404400202934,0.0033222373056900007,0.004038824679550758,0.004371148248229214,0.004545913907654541,0.004709591536420397,0.004867792210510258,0.00490784245835198,0.004686111813132044,0.004127527677166123,0.0032777378614393853,0.0022761008387039558,0.0012670516545603369,0.0003084634415316292,-0.0006596656889044844,-0.0017599114666302467,-0.003065402342977675,-0.004500316018969469,-0.005818754334688989,-0.006682812487787532,-0.0068018164286172585,-0.006059121811872289,-0.004562178058701496,-0.002597352042807265,-0.000521909864549054,0.0013491333843807087,0.0028134495991417466,0.00379308842268701,0.0043030152338320825,0.004407213404339805,0.0041877884709492965,0.0037343765484481074,0.003143523932064895,0.0025115093018372005,0.0019116277038722998,0.0013622548737764989,0.0008057606223007732,0.00012182739805154883,-0.0008138388121910563,-0.0020413347034073186,-0.003442448010134721,-0.004731428503359142,-0.005535644727232192,-0.005541533232855942,-0.004637530137919693,-0.0029786727183578237,-0.0009359820417030882,0.0010446729313827916,0.002603191133814027,0.0035702252452768177,0.0039777552425371565,0.003987625022336138,0.0037869985604023944,0.0035057600063877177,0.003188750339746492,0.0028204701212979437,0.002370854323336097,0.0018237880250828735,0.0011697038209150354,0.0003774926919526832,-0.000616022138234114,-0.0018692304083526702,-0.003359178514170828,-0.004912919853900908,-0.0062052718757493125,-0.006850670852057615,-0.006559949935071908,-0.005284824773196362,-0.0032669483610648364,-0.0009543215862455182,0.0011783058828241312,0.0028119624711608732,0.003873611592474049,0.004493162137737287,0.004864265163404007,0.005099297950993354,0.00516611551147018,0.0049374785272808495,0.004309747467932682,0.0033037718218242567,0.0020766092921069516,0.0008363318003707837,-0.00028046300178131094,-0.001283159397647634,-0.0022998297899559043,-0.0034604495599501565,-0.004761433449191173,-0.005998118747717853,-0.006815785513089102,-0.006861930696915921,-0.005961430517058737,-0.004218871218564486,-0.0019911205752154134,0.0002548534054989485,0.0021234030365059452,0.0034210436226044475,0.004181251611520517,0.00458515700423958,0.0048288400986763015,0.005007869676759383,0.005075818327272337,0.004893267603097929,0.004335249302853301,0.0033922677607743233,0.0022023083507042517,0.0009902724347978862,-5.311101885834674e-05,-0.000881094522898602,-0.0016191307806167992,-0.0024855546340817975,-0.0036416199971443497,-0.005052933270429863,-0.006444905327510219,-0.0073882182444532235,-0.0074801674251496544,-0.0065327314641354245,-0.004670719741313523,-0.002289114865732646,0.00010790011179529169,0.002103966760848103,0.0035070518986625807,0.004365637593247269,0.004870914502644163,0.005209847197911467,0.0054532719120581365,0.005534960820420083,0.005321393746659254,0.004721448864478485,0.003766914187136583,0.0026151400111825997,0.0014712182575832545,0.000474370712677851,-0.0003832160308972246,-0.0012510625066409656,-0.0023212590046388006,-0.0036837726315636227,-0.005217626693246541,-0.006588030482504931,-0.007365200902727206,-0.007211669572458504,-0.006042289319550432,-0.004072711423940383,-0.0017326249218278292,0.0005068093016351461,0.0023003520429723846,0.0035128290604101303,0.0041964969976181704,0.004497193885501009,0.0045537992916233686,0.004443026037376465,0.004182332365616522,0.0037659904427872356,0.0031960980614221942,0.002485472392778949,0.0016377735483577543,0.0006309261078026118,-0.0005698878886198125,-0.00196354190402427,-0.0034517629038799237,-0.004808894045395013,-0.005720257236713881,-0.005891033281540162,-0.005179945295968907,-0.003685055215150087,-0.0017270027041833501,0.00026840695948309855,0.0019282914424476078,0.003051553768771017,0.0036372328719178814,0.0038243358634545994,0.003788214832876597,0.0036508739313697003,0.0034448062837481594,0.0031359748496419563,0.002679351423856862,0.0020658933371833763,0.0013302955551187782,0.0005178327858618972,-0.0003616373436520372,-0.001352345262153331,-0.0025179992899472237,-0.003862722771075471,-0.005252926464749822,-0.006399372565177254,-0.0069340728776792915,-0.006561356422088103,-0.005209300080376215,-0.003094964901901282,-0.0006587849043525828,0.0016037756999654823,0.0033277218016204728,0.004388895425696792,0.004892538092900014,0.005061326128519395,0.005094041668780656,0.005071346227271607,0.004947754124898411,0.0046159187070085594,0.003993362906931667,0.003079556870623568,0.0019567546883750616,0.0007420834591690105,-0.00047685090340774956,-0.0016837091054041197,-0.00292461235091994,-0.004246238404785302,-0.005609850643282094,-0.006833237390732022,-0.007608837427705435,-0.007609247974267008,-0.006637729143841164,-0.0047455359132729065,-0.002247472466476124,0.0003799381577518212,0.0026690279133155933,0.004315998129913557,0.005249166790828133,0.005590171844967091,0.0055443979828395315,0.00528687702382708,0.004900068301948278,0.0043817209160835245,0.003700487163028205,0.002856301168326258,0.0019079019689683227,0.0009530060798546285,7.418438065303094e-05,-0.0007164107722867772,-0.0014963885018862842,-0.0023953123127946254,-0.0035091277657999225,-0.004807150008596695,-0.006085401605322229,-0.007004705787416717,-0.007210822949491153,-0.00648670575304661,-0.004861993497694611,-0.002621381438158384,-0.00020486559092460405,0.0019516964434662955,0.0035604545368938347,0.004548293024388549,0.005026618908364545,0.005190766345648057,0.005205179033698443,0.005130909034741312,0.004924042405338874,0.004493694407728588,0.0037795477035977793,0.0028056264448908896,0.0016850648780063564,0.0005755703738303851,-0.00039379774209239967,-0.0011902482981795556,-0.0019013344834608204,-0.0026906748496343244,-0.0036934471605287087,-0.004900047111172666,-0.006097306431213898,-0.006916681878254708,-0.006981896305864831,-0.006087086291537449,-0.0043111140367532025,-0.0020040642742471747,0.00034869029147275964,0.002313880469688433,0.0036554884557278376,0.004373929021358169,0.004636189472575759,0.004649029331257719,0.004548530329774807,0.004359170612519152,0.004029562404016298,0.003507922931319485,0.002802378011612837,0.0019871266844497235,0.0011538609349639683,0.00034490783221984944,-0.00048189912635939977,-0.0014245955318113487,-0.002552427790296244,-0.0038125417779085466,-0.004990710067205528,-0.005765446866735132,-0.005840981280448987,-0.005091838129197587,-0.003637003151962635,-0.0017988827330333891,3.088620051963848e-05,0.0015443649257949597,0.0026098348963075856,0.0032665835161281446,0.003642298094326489,0.0038514290699142957,0.003933169074316413,0.003855544791085688,0.0035690130033318454,0.0030643956324693435,0.002392278202865969,0.0016313009814811895,0.0008302607836690496,-3.12721895433329e-05,-0.0010294295119609375,-0.0022287670877658124,-0.0035967882774325033,-0.004953420955012781,-0.005995908477516574,-0.006400991430355489,-0.00596097135259477,-0.004684580396095666,-0.002806780031466594,-0.0007002108656385036,0.0012641571850114507,0.0028346312887135732,0.0039221988167531365,0.004565626957149762,0.0048568487901159835,0.004876976651037974,0.004672840245421229,0.004270598481334358,0.0037005116536727818,0.0030073086590168595,0.0022379134602575936,0.0014169104135379799,0.000528277509313724,-0.0004813287834492334,-0.0016718750752454956,-0.00305804922427385,-0.00455579269069954,-0.005956869443464493,-0.006957964413986332,-0.007248753944084569,-0.0066302556472093155,-0.005110831111022484,-0.00293063275855472,-0.000496806532558315,0.0017463789478537523,0.0034587021495341534,0.004498409569874523,0.004932839493427769,0.004965296184594779,0.004816438028047931,0.004619740665675148,0.004381655040004154,0.00401998454703658,0.0034489638737881375,0.002653762841252108,0.001706995868619516,0.0007191747240251766,-0.0002410087402762944,-0.0011993702092967893,-0.002258951406729791,-0.0035123073456374398,-0.004930414276333305,-0.006299410055035926,-0.007258431096243497,-0.0074365842506674065,-0.006625189318175852,-0.004892899253115193,-0.002578063855677797,-0.0001600201763342306,0.0019237895355525276,0.00342421606882193,0.00432667623745345,0.004789712725756954,0.00502033826354074,0.005154699643487774,0.005201558714249864,0.005068429685289399,0.00464526863453373,0.0038915006704624885,0.0028744206716369573,0.0017383333608683924,0.0006250333362536596,-0.0004057261063107286,-0.0014057842676846175,-0.00249351334603973,-0.0037508798938720046,-0.005117796423056638,-0.006351595904248086,-0.007091965816405594,-0.007012816548866245,-0.005985666110796342,-0.004162967521006109,-0.0019302858523418472,0.00024916446698637965,0.0020134418822234657,0.0032123106244548345,0.003903812418138872,0.004258411718797385,0.0044373630609132325,0.004513452293922942,0.004466057567396094,0.004234154839800852,0.00377975440195446,0.0031169328888223467,0.002292683852303672,0.0013422502954792822,0.00025913501555262507,-0.0009910645329818612,-0.0024144811836575605,-0.003922753417119297,-0.005302003699286336,-0.00624897100470858,-0.006471650209892841,-0.005813376099600074,-0.0043393739966482055,-0.0023374068511229523,-0.0002246748011061169,0.0016000545816185474,0.0028921491070056588,0.003622802260802271,0.00394058678393603,0.004056677394758247,0.004117113269500734,0.004131725209571838,0.003995409896813911,0.00358145593944396,0.002842992136049792,0.0018552190867410685,0.0007707007326842329,-0.00028148932866883466,-0.001281447723936186,-0.002322781561482181,-0.0035203986395386916,-0.0048731916073104405,-0.006172280282400602,-0.007028522282166138,-0.007025589623134518,-0.005926413107417379,-0.0038210082444327153,-0.0011298411007263764,0.0015460724752896073,0.0036560153389012806,0.004899666575391008,0.005304570200428333,0.00515318704792557,0.004806143237362517,0.004516650122062195,0.004329560465712126,0.004107918278620488,0.003657818636010358,0.00286963686590394,0.001790114766768355,0.0005864080300632061,-0.0005683512249806535,-0.0016090600178334457,-0.00261269237006542,-0.0037222354566383764,-0.005001625906515737,-0.006313724892364725,-0.007310373482856524,-0.007562245003965519,-0.006769312249387245,-0.004935342496875632,-0.0024033207185837056,0.0002722252793393999,0.0025468988733565855,0.00408570253602182,0.004846717014538301,0.0050266476513559245,0.004916484532251865,0.0047495194663798816,0.004612465523839131,0.0044484071520999105,0.004132071426290176,0.0035656758933667074,0.002740578294890702,0.0017352794373900568,0.000658941176294452,-0.0004195363272128141,-0.0015089708382434292,-0.0026706201684260295,-0.003938135341014032,-0.005228984944709096,-0.006309774272825293,-0.006855392625176848,-0.00658687344678325,-0.005417938885765782,-0.0035252495276521835,-0.0012975590357139995,0.0008110749360584213,0.0024466792613118235,0.0034595376300855614,0.003909025985146077,0.003984867029566759,0.003895642708193733,0.0037792431652444065,0.003668379003759784,0.003512607220830201,0.0032323739285157055,0.0027706697089703424,0.002116086242076255,0.0012917118401282917,0.00032647908886446946,-0.0007630531317483421,-0.0019598782901711752,-0.003205829148352882,-0.004362127422963298,-0.005209537421061484,-0.005507957270395703,-0.005097028764509547,-0.003986051762966435,-0.0023782833416664713,-0.0006077315656045934,0.000983627801723272,0.002165900091971614,0.0028794915786521623,0.00321009755987479,0.003306011442678206,0.0032902043430144126,0.0032124009167570477,0.003054084564171284,0.002765999221205893,0.002304715120140367,0.0016471459683560137,0.0007866026213794005,-0.00026931574857592077,-0.0014829323523281597,-0.0027579366356975544,-0.003923095152399238,-0.00475376285761076,-0.00503496133661839,-0.004640986498540686,-0.0035919472217625648,-0.0020580215419150898,-0.0003098874555269891,0.0013603811177075032,0.0027147663180554582,0.003616640870914749,0.004041407577529065,0.004054879934570675,0.003771363452002598,0.003307217066235288,0.0027457584554330308,0.0021236508546353308,0.0014383555250945517,0.0006669614014231719,-0.00021465444538063224,-0.0012162410794944799,-0.002316931431345961,-0.0034448080676772403,-0.004460178763737659,-0.005162008299912035,-0.005333727488659758,-0.004822625999357862,-0.0036198095133105415,-0.0018966348510472855,3.0188526646776485e-05,0.0017972700939540098,0.0031156303756498336,0.0038594646528783833,0.004082386847868603,0.003957337994037123,0.0036761719389304874,0.003364653974371532,0.0030539158038091338,0.0027087915521250253,0.0022762075067102425,0.001711587982189737,0.0009714974590288544,-2.495996520781186e-07,-0.00125352381336687,-0.0027687945828837462,-0.0043867106886013255,-0.0057930618261452,-0.006598801350152339,-0.006493468435806045,-0.005393873526397416,-0.003501464266757397,-0.001230861441965653,0.0009533896000439111,0.0027043790042661107,0.003881932360666718,0.004532610650274537,0.0047927521386789095,0.004782284500902692,0.0045494667945546585,0.0040865105829420885,0.0033898866745896055,0.002514017646168105,0.0015758391501067544,0.0007028695497560148,-4.331147579711062e-05,-0.0007163898849499104,-0.0014670488059457878,-0.0024539345007081655,-0.0037240814934622595,-0.005128491003935734,-0.006329580099773328,-0.0069140186459876775,-0.006566833799833245,-0.005222893270177193,-0.0031166746715642238,-0.0007016408581219109,0.0015221060524568415,0.0031883240204951457,0.004170845683200303,0.004575570586962917,0.004636434009168679,0.00457701654968947,0.004508369725145193,0.004406744471449227,0.0041689184280702864,0.003702924503081075,0.0029981421455005652,0.002135616728807456,0.001236038137018724,0.00037945054195370596,-0.0004514372177585348,-0.001363798888744904,-0.0024788379676037335,-0.0038256935438600636,-0.0052670269572128075,-0.006506989720317789,-0.007189435626122241,-0.00704301758449918,-0.006000714168117226,-0.00423312551735395,-0.0020812883764552196,7.244111575642667e-05,0.0019291289893716712,0.003338478503660175,0.004288360337335267,0.004843281799572843,0.005076195155048992,0.005030195424247309,0.004721202593971012,0.004167100069381504,0.0034167497266881655,0.002557281749200958,0.0016936983259060203,0.0009108234485545354,0.0002364461859427115,-0.00037548933785269353,-0.0010292125876534986,-0.0018372673206810456,-0.002849506959388024,-0.003990338690429377,-0.005042193270964506,-0.005701016320039712,-0.005693389088035116,-0.004902587551386121,-0.003434361434278003,-0.0015819222871138235,0.00029155228820850154,0.0018871064709179498,0.0030520230964812996,0.003779959848208893,0.004149460306400451,0.004249279240685784,0.004133426938827577,0.0038203807130989973,0.0033210202641202266,0.002665868477517421,0.0019087390696745801,0.001103628762184577,0.0002721255764106105,-0.0006116647183898255,-0.001598789141012687,-0.002708037592695344,-0.0038625338283376828,-0.00486407671187299,-0.005437165238208329,-0.0053364842493890535,-0.004468061443342093,-0.0029562022815217822,-0.0011126889707127067,0.0006811054764790794,0.0021190239248988583,0.0030680434653792598,0.0035747477249066725,0.00378817976298158,0.0038505909065902682,0.003818859119996983,0.0036549322868149135,0.0032799950308484652,0.0026499019792072106,0.0018000377949382155,0.0008311599272116123,-0.0001510371478188118,-0.0010974851365375452,-0.0020311864064756174,-0.003000053283263162,-0.003995283397469138,-0.004892181005954576,-0.005461784019289743,-0.005458698668820107,-0.004740779923478215,-0.0033532920610873374,-0.0015292449692043135,0.0003943618021850693,0.0020985327894598124,0.0033800718264186845,0.004183224728853399,0.004564795991962287,0.004627331500568241,0.004463120724716532,0.004133101150498078,0.0036763298966254066,0.003127373403469705,0.002520075353672307,0.0018720456685622064,0.0011623379574663775,0.0003237161239020939,-0.0007341131566599849,-0.0020703826260231283,-0.0036484689589547726,-0.005294162741280161,-0.006708513541864622,-0.007545488874041323,-0.0075314423844956326,-0.00657547972905159,-0.004816374611889258,-0.0025796156455096413,-0.0002636473510628255,0.0017899561751516329,0.003383553177438838,0.004477053816797402,0.005138144892897699,0.005467705774072913,0.005541941721537623,0.0053937572090388694,0.0050296834870697535,0.004460648458828032,0.003722853064393228,0.002876263086336618,0.0019830397296223185,0.0010781678591435353,0.00014797638498986854,-0.0008684876073480432,-0.0020457614395630887,-0.0034105046976922954,-0.004877749962864771,-0.006224947970728617,-0.0071352518227037285,-0.007306319059589307,-0.006578522439306738,-0.005017123739853744,-0.0029034602632551695,-0.0006385331169645166,0.0013931186357712699,0.002936918046803765,0.0039154670041827615,0.004401303380648803,0.0045395880577540505,0.004462783338289331,0.004238037223841947,0.0038682596969024327,0.003336684887550627,0.002657753637617619,0.0018929720095980699,0.0011160074975477248,0.00035215957114346596,-0.00045591608748387063,-0.0014151524296114799,-0.0025868156340898667,-0.003885593849440635,-0.005047133777072483,-0.005703620784945742,-0.005540214879203536,-0.004451388247869734,-0.0026121717258599238,-0.00042615079699883903,0.001622541572523743,0.00314127011500213,0.003949104496423445,0.00410086558588525,0.003817647849170076,0.0033665760675447615,0.002948662465691588,0.002639655775275488,0.0023947594241721503,0.00209602663071278,0.0016098227231026738,0.0008327003978751389,-0.0002771158983651127,-0.001675949305966787,-0.0032181912515938053,-0.004660228256060878,-0.005702300633655754,-0.006070935611430303,-0.005616774623485873,-0.004382309324013067,-0.002600283936377813,-0.0006171540708986391,0.0012234793084569965,0.002681986078114772,0.0036649644677076033,0.004200383272087129,0.004373091054880204,0.004264254621554275,0.003927141679507518,0.0034016223419193288,0.0027409367218583485,0.0020169118413876233,0.0012901370698575729,0.0005652939939449448,-0.00022745047887683188,-0.0011949873733746587,-0.002395615510424922,-0.0037521675809847064,-0.005022945813323699,-0.00586340451461648,-0.005960466135053518,-0.0051752852564535415,-0.003618662888949856,-0.0016163272609724649,0.00041930949132077685,0.002144722042965394,0.0033913809827075367,0.004177079766085674,0.0046293986941926355,0.004872374603172608,0.004942313249643322,0.004777755233864841,0.004282744108906104,0.0034176089519366176,0.0022552338577941033,0.0009641090867661981,-0.00027243858113386917,-0.0013494071011855876,-0.0022849268496553587,-0.003185111760430423,-0.0041468663314209045,-0.005156307024167089,-0.0060463807024158265,-0.006545016065767208,-0.006392927751667278,-0.005469328113368443,-0.003859608060860811,-0.001832972139759085,0.00025354379959202644,0.002075302601535204,0.003432345535330488,0.004282353354633228,0.004711544845960992,0.00486495193866347,0.0048709611086574164,0.004793717930985475,0.004630028036500112,0.004341872272212504,0.003896478564269439,0.003285989375440029,0.0025177551442621213,0.0015896693923236754,0.00047608242088955765,-0.0008571809338807771,-0.0024089171269888556,-0.004089893727994401,-0.00569393107519389,-0.006922518626947029,-0.007470286293749422,-0.007142381941443799,-0.0059463172029886584,-0.004104811476192562,-0.0019770225335274875,7.181966117955e-05,0.0017843745027333762,0.0030557832079627337,0.0039013907618198457,0.004384404890294935,0.004555992441464657,0.004440848501791149,0.0040632273926810274,0.0034792717555801314,0.0027804026619391653,0.002057850016501017,0.001350897866394897,0.0006187487522943705,-0.00023408809191021644,-0.0012820141630447458,-0.0024919808534738567,-0.003682243934843264,-0.004563078647569338,-0.004850407690156098,-0.004397219066844472,-0.0032716091561197855,-0.0017372409694763058,-0.0001464686879364078,0.0011961749005393386,0.0021308119872249062,0.0026581016071295484,0.0028805267786086645,0.00291439929621289,0.002827397210740152,0.0026323234177912792,0.0023253991904623387,0.0019255166207337183,0.00147368197181338,0.0009893113396983542,0.00042394235287025267,-0.00033354008418341394,-0.0013791471857762343,-0.0026819691740709297,-0.004017847593807984,-0.005014244077097307,-0.005304843971227753,-0.0047145948044184875,-0.003363129064972045,-0.001615827051291104,9.474159914150905e-05,0.00147054929655024,0.0024520532959464232,0.0031697172345884215,0.0037889650056594,0.004359254038749358,0.0047659032486288555,0.004808151768972105,0.004342568122323432,0.003392122607219228,0.002148871153482979,0.0008698753358217349,-0.0002656226604281678,-0.001245947024306413,-0.0022049780117014027,-0.003298932576904452,-0.004556523334778953,-0.005797088140319272,-0.00667358248067958,-0.006823463316648844,-0.006045838497321238,-0.00440824401613743,-0.002228857268565229,4.9944150454349725e-05,0.0020273945509418005,0.003470661478563084,0.004352953622526191,0.0048010622444069435,0.004989574882677898,0.005038323090955955,0.004963151994233717,0.004699741523443948,0.004178706205239535,0.003399802539402712,0.0024537929818558408,0.001474791603795802,0.0005534350088696764,-0.00032912219962527513,-0.001295229840514312,-0.002484925602779352,-0.003934218387980895,-0.0054898691804287185,-0.006819208759910741,-0.007522947069472112,-0.007300097611667497,-0.006082469002650005,-0.004071623787229016,-0.00166409685628023,0.0006923177992008544,0.0026406319391897833,0.003996960482603818,0.004753078084217533,0.005018137515017559,0.004939695521554495,0.00464263138943091,0.004205709135966472,0.0036709233535836563,0.0030635124144184887,0.002400036796533969,0.0016779686045099297,0.0008612357142712489,-0.00011405546729027554,-0.0012999405851632589,-0.002674467216305702,-0.004092001605853464,-0.005285024357459348,-0.005934845047818296,-0.005790709918059493,-0.004784088649574107,-0.00307923757279587,-0.0010296381892960498,0.0009421979497718009,0.0024855362703692352,0.0034204482557468373,0.0037593875281474614,0.003655931375909611,0.0033154588511739042,0.002910287017952571,0.0025296981445714225,0.002173886505661523,0.0017811525757944438,0.0012677717236009387,0.0005630371744447131,-0.0003661791278064572,-0.0014969709956699352,-0.0027345551480576595,-0.003905948255831395,-0.004778259250514612,-0.005111359576778205,-0.0047358391824058954,-0.0036269939899245523,-0.0019391809394965964,2.1548236258821674e-05,0.0018820867269196571,0.003314383157945463,0.004132462532100291,0.004336146796326925,0.004083852997019696,0.0036075057433308,0.0031098623387331614,0.0026918414702493255,0.0023378997174313934,0.0019532227527983537,0.0014212860757036822,0.0006502700586170376,-0.0004027680840609754,-0.0017202313394000081,-0.0032115651319677683,-0.004701430570423824,-0.005936756911419794,-0.006631876246044623,-0.006550894542798048,-0.005598569147364775,-0.0038762792355736568,-0.0016707330614031551,0.0006256554020389593,0.0026311779653155638,0.004080749141404218,0.004881582470347914,0.005103473804559897,0.0049171071644271945,0.0045129797581216526,0.004035473942355224,0.003552677943322354,0.003062215133374698,0.002517846046851683,0.0018576733945881324,0.0010224202807195071,-3.4152744749192974e-05,-0.0013305630930026107,-0.0028293354217467327,-0.004402779799308094,-0.005819327645747849,-0.006778816719682305,-0.007001310467335807,-0.006337158442940138,-0.004842846285859834,-0.002777961949769256,-0.0005196570146394832,0.001564009044713105,0.0032207499683536045,0.004355966188025879,0.005004016438055104,0.005259260390544116,0.005211097810592261,0.004914438374028893,0.004399089010599658,0.0036970665215063222,0.0028598474426206324,0.0019495205680892956,0.0010088188423385764,3.1923335103586263e-05,-0.0010381642616594682,-0.002271368888453035,-0.0036804259992498983,-0.0051531949634772214,-0.006433345807822875,-0.007179848021166212,-0.007094293270067049,-0.00605957038629394,-0.004215002002165043,-0.0019199126559986909,0.00038177335585288673,0.002325790436201596,0.0037342338999040584,0.004615535884386156,0.005075738337818131,0.005211556352101936,0.005058248537612338,0.004617280190832443,0.003925504970010343,0.0030957403369381567,0.0022822204071657427,0.001586358501427399,0.0009720069894321893,0.00026345553228499007,-0.0007517913242185461,-0.002165663421096465,-0.0038321021059417072,-0.00537017867572337,-0.0063031537644505035,-0.006270236437486101,-0.005201929632739922,-0.0033650243698178234,-0.0012524454365180683,0.0006238268182843414,0.0019302666238887529,0.0026057298755869157,0.0028194342230022937,0.002832992617823137,0.002849580472122753,0.0029275516029703234,0.002989726657225058,0.0029025254429074342,0.0025645457247837422,0.001950740518400185,0.0010982893348725912,6.404144433777303e-05,-0.0011002402764576297,-0.002330339386457548,-0.0035071843942442917,-0.004435610107943676,-0.0048814126016745365,-0.004661871788275833,-0.003740927924488515,-0.002268592918174533,-0.0005355568752900483,0.0011337267900630027,0.002490185904299054,0.003416283681848365,0.003912313967484567,0.004040107957835309,0.00387129602126537,0.003471380768211277,0.002913764487909784,0.0022897969805278943,0.0016850114594139211,0.0011253657827024588,0.0005337369976265842,-0.0002542364757928727,-0.0013966263595817517,-0.0029108813378736368,-0.004579706108749047,-0.005974982042643153,-0.006616572486602173,-0.006195549555252982,-0.004737278223465297,-0.002603995214029028,-0.0003304763616984763,0.0016117074011765156,0.0029865028506160557,0.003816193732105191,0.004267887169460137,0.004496644613316775,0.00454894500677393,0.004373704844894924,0.0039095811214904,0.0031700501674995765,0.002258942312385896,0.0013061591235227993,0.00037511776092700826,-0.0005826247970507275,-0.0016811639551043795,-0.002983796518654535,-0.0043928548508110335,-0.005626973247215523,-0.006314889189983324,-0.006160150949943304,-0.0050846692586188815,-0.003272070334522806,-0.0010930750975781988,0.0010388049056334848,0.002803656446851881,0.004044451735723481,0.004755527112499743,0.005018059445170487,0.004927729205189989,0.00455075994486878,0.003919732466292814,0.0030553255361716013,0.0019882760010855064,0.0007638559081969724,-0.0005674565686514278,-0.0019527652467892823,-0.003317272509529841,-0.004531636634447996,-0.005399030698160475,-0.005692766839274276,-0.005242808185600159,-0.004029181114840172,-0.0022252451952382334,-0.0001587236608102934,0.0017935839492245666,0.0033245663970817517,0.0042739279233567785,0.004637836027352953,0.004522811871873113,0.004077557733556059,0.0034344044235895058,0.0026753232678840156,0.00182215535856783,0.0008465354145712342,-0.00030105598351843504,-0.0016429819015353149,-0.003117608916618584,-0.0045418051321371045,-0.00562643208132182,-0.0060585959942654356,-0.005624969090751584,-0.004317811857285103,-0.0023653071646948507,-0.00016386788248832856,0.0018593651855861257,0.0033902186437885567,0.00431209460678726,0.004697449354983984,0.004718977793488373,0.004531669014473239,0.0041875633407942835,0.0036238243968261877,0.0027244388214411773,0.0014185630717025687,-0.00023730249772130904,-0.002035215531271047,-0.0036622505590841845,-0.004797226562881184,-0.00521587999809836,-0.004861102203338475,-0.003852806527786248,-0.002439595945132895,-0.0009174603362311559,0.0004513454324108206,0.0014943348909010267,0.002150643892146317,0.0024616900243350026,0.002537370105449489,0.0025049011163453677,0.0024514079365778674,0.0023788104747911494,0.002192785017466286,0.001739326605139439,0.000882970738934919,-0.00040172333879021993,-0.0019675415873938507,-0.003498484297748676,-0.004592981730335866,-0.0049022976944421565,-0.00426823575766435,-0.002797212392169423,-0.0008336802712456432,0.0011572880247943831,0.002747110159057252,0.0036753945170332177,0.003907825908215109,0.003606331161534733,0.00303271612734068,0.002429431773175299,0.001924557685326013,0.0014941708653484333,0.0009924237824324622,0.00023701838966585142,-0.0008803953356739057,-0.0023017243346015862,-0.0037723558934699307,-0.004900582771080828,-0.005295524116157914,-0.004729119916187498,-0.0032461629491585082,-0.0011655297663973677,0.0010310817687986034,0.002870384899193609,0.004040150520684094,0.004461196375159536,0.004261113883489362,0.003676821133585575,0.0029365496442103917,0.002169844022718739,0.0013759627968779554,0.0004582634806514522,-0.0006901357141560559,-0.0020848021374352435,-0.0035811807409519693,-0.004881107582532953,-0.005625322478355715,-0.005536336702188763,-0.004542630611035561,-0.0028195821084517755,-0.0007263060075614787,0.0013258586202348497,0.00300480447940214,0.004131096469048176,0.00467728876079084,0.004718993174807744,0.004379308755287118,0.0037931431471987386,0.003089068599815445,0.002368735226052969,0.0016725885612092568,0.0009483869621967345,5.951564346121411e-05,-0.0011415378752420663,-0.0026933809197895535,-0.004425474473473763,-0.005953387562971804,-0.006800766715600794,-0.006602377259979076,-0.0052839948448930585,-0.0031175448863620366,-0.0006169672281786687,0.001669414060497085,0.003358878742558617,0.004329196232205218,0.004680321751328865,0.004611352680093382,0.004297410576136724,0.003831423006444126,0.003241473483703323,0.0025445485797394494,0.001782527002721726,0.0010107932481807091,0.0002530687225942257,-0.000533413518900394,-0.00144183307808099,-0.002543739675110843,-0.0037994143202976834,-0.005010578005263659,-0.005858582231103105,-0.006023340834574015,-0.0053273259627434275,-0.0038279698593139478,-0.0018072266950303335,0.0003353151285794315,0.002226883238232167,0.003630808246703288,0.00447772372928919,0.004824699966283106,0.00478359637847488,0.004463404271346298,0.003948085584404558,0.0033019050817515608,0.002579001332015384,0.0018200750559742818,0.001037519117519302,0.00020507191843704048,-0.0007310214495773692,-0.0018143771652755574,-0.003026413877836467,-0.004245261118234592,-0.005243954275775774,-0.005744277316810439,-0.0055165745869257005,-0.0044863353492901655,-0.002794040673544551,-0.0007701176325799483,0.0011719166821686816,0.0026771580216248566,0.0035599349551296696,0.0038356131027542932,0.003669417536583698,0.003279493434118494,0.0028462086331911413,0.0024628266111318413,0.002130809986259781,0.0017809887329896504,0.0013030042857327128,0.0005815734600132544,-0.0004525290344170022,-0.001761051376873511,-0.0031562220041530197,-0.004319775110509512,-0.004901329474992495,-0.004663557958667658,-0.0036000165381101148,-0.0019556091841856048,-0.00013255919511048056,0.0014689144802346806,0.0025917232957860074,0.0031793217628789732,0.0033372024161415974,0.0032376276349542757,0.003026127817921856,0.002770791975721622,0.0024601984850925354,0.002029924413935565,0.0013958307163489734,0.00048777940711359835,-0.0007109990204032573,-0.0021209102466386628,-0.0035409124887814175,-0.004672118525772687,-0.005202978020085557,-0.004930276112407958,-0.003857695712832924,-0.0022145744019330385,-0.00037675915549267034,0.0012743344602980581,0.002484498446633329,0.0031888354320678677,0.003482505595894047,0.0035284067970273057,0.003457797120478044,0.0033133424654820023,0.0030516596094184627,0.0025873304961633896,0.0018448682744289144,0.0007949078813853764,-0.0005281195338411766,-0.0020178084644885694,-0.0034938448025308806,-0.004716382829212253,-0.005430312889688762,-0.005438467909050872,-0.004678768293755827,-0.0032658264615884475,-0.0014675999687865206,0.0003797394258139732,0.0019805192305937837,0.0031602758113663558,0.0038844562772671577,0.004217140981359264,0.00425261627302452,0.0040606695265737805,0.003669998301940921,0.0030857521274904524,0.0023160753941779124,0.001382812926895925,0.0003120166723706991,-0.0008770033035582744,-0.002160431741608183,-0.0034725341758041974,-0.0046672867004949135,-0.005517491004055212,-0.005772579313449013,-0.005258255226495964,-0.0039691391433805965,-0.0021027792650316277,-1.191440141345057e-05,0.0019067054239286223,0.0033383090377267703,0.004137387762495068,0.0043432280959759765,0.004125296104774517,0.0036917029415669197,0.003206181867967833,0.0027457419578735638,0.0023026428077112795,0.0018111952767548933,0.0011776527433605929,0.0003075026380154774,-0.0008601249945319384,-0.0023045513953483233,-0.0038774060613775783,-0.0052932932538160464,-0.006187596034097933,-0.006237817276333766,-0.005301230062175952,-0.0034991475808380792,-0.0011966806897656084,0.0011204851800570917,0.003015157310167629,0.004233023854261107,0.0047453254982517965,0.004696483224227494,0.004301396693675437,0.0037508708578004738,0.003161397988227339,0.0025698851294872578,0.0019514183044337199,0.0012401258471493176,0.00035096527665903906,-0.0007856939961757124,-0.002169893142489897,-0.0036750585474192984,-0.005028193854219768,-0.005865431183247314,-0.005863528152838006,-0.004893529758571677,-0.0031114633068012737,-0.0009234033707876488,0.0011682431750265454,0.002758509208159056,0.003671338005770714,0.003968102869765179,0.0038493353576569754,0.0035236244929211713,0.003119880897516719,0.0026727591736589304,0.0021572956800308242,0.0015281017207326257,0.0007386269510495262,-0.0002494842922985622,-0.0014424829215115916,-0.0027698218352893616,-0.004045702891159915,-0.004980279173273917,-0.005263381914750747,-0.0046953960649936104,-0.0032983397623520764,-0.0013394328052941853,0.000754819869408765,0.002553141420905021,0.0037643201494180264,0.00430565359029828,0.0042770206629121595,0.0038731510038143126,0.0032877547288700393,0.002649180426524589,0.001998003725947177,0.001297514583758808,0.00046694098674269515,-0.0005673110782075725,-0.001810541719557827,-0.0031503956567573224,-0.004350088393534787,-0.005104626372149812,-0.0051495188874792815,-0.0043770346455149,-0.0029010210209059533,-0.0010313761053718094,0.0008348435602948141,0.0023538844333970688,0.0033397189017555866,0.003787739429811721,0.0038195614257807084,0.003591283351553091,0.0032179483406967434,0.002744706359587323,0.002160060402906561,0.001425204334501177,0.0004986831376058369,-0.0006432887558374688,-0.0019779020729903344,-0.003396566174625597,-0.0046797422004412875,-0.005523075721570975,-0.005631047190419196,-0.004847010513652149,-0.003250244961192454,-0.001156437394198222,0.0009897178944879635,0.0027774625351142165,0.003965320202700678,0.004526360784417778,0.0045955180573408385,0.004363171093813299,0.003978781618209865,0.003508809158169629,0.002952293023822798,0.0022841387990419353,0.0014896093150007501,0.0005718930890660822,-0.00045980178467492174,-0.0015994324623472196,-0.002831861223226953,-0.004098331606522539,-0.005260553623550697,-0.006096049827364958,-0.006347948479886675,-0.005821752796600104,-0.004486535391651858,-0.00252376071487208,-0.0002880755436968549,0.0018089184685208337,0.003437539920177174,0.004444711289192678,0.004863728387297067,0.0048464300674585115,0.004564971547788045,0.004138410704048876,0.0036139444267090093,0.0029943133663849677,0.0022776472885700084,0.0014773693752824202,0.0006123558959271588,-0.0003163570256209122,-0.0013341068342757954,-0.0024675914396833287,-0.003691984686223851,-0.0048805984977649125,-0.005797054396810938,-0.0061546634936301935,-0.005730482136405893,-0.004481644128328126,-0.0025973174341234924,-0.0004474949167595358,0.0015528312733036915,0.0030953217967450014,0.0040678073198571925,0.004541640459115561,0.004676676749350609,0.004607795094207292,0.0043799057354860045,0.003961375867518465,0.0033135923663776025,0.0024597917562941773,0.0015003867564608463,0.000561566738238894,-0.0002869824175533311,-0.0010836595343386834,-0.0019502587533753422,-0.002994500351568326,-0.004194933859691207,-0.005344129646842446,-0.006099293766534708,-0.006126955165432354,-0.005267446707393587,-0.003626874962928988,-0.0015443987033503387,0.000544651138295822,0.0022726334362010345,0.003447434205087652,0.004063645217803962,0.004234693762612218,0.004101467708510548,0.0037720644825614573,0.0033138089972048375,0.002777822340777658,0.002216548686280005,0.0016686307754863934,0.0011213086787196112,0.0004894304858289411,-0.00035213202744678314,-0.0014813312773244007,-0.002831537776138827,-0.0041512135130088185,-0.005066185228407832,-0.005230748103578143,-0.004493216596986853,-0.0029826777742220107,-0.0010643513703499062,0.0008131320278345653,0.0022942695030403236,0.0032257461740212608,0.0036541590315790832,0.003735655603218521,0.0036242106590116912,0.0034019949081006465,0.003074691590555237,0.0026089882984217825,0.0019703299955284256,0.001135420052300241,8.745921700617383e-05,-0.0011777883980418839,-0.0026181822914482173,-0.004099720535699508,-0.005380877543360115,-0.006160650109691133,-0.0061840327525071685,-0.0053544013181086635,-0.00378899014563093,-0.0017839989966343451,0.0002912957784435039,0.0021145940948527173,0.0034893855694209585,0.004359776225853766,0.004774869733302822,0.004833770817390862,0.004638133119941061,0.004264545643464196,0.0037557649065341203,0.003123089391070993,0.002352262056457545,0.001410755523724286,0.00026170723772754335,-0.0011076848786249133,-0.0026441525415814267,-0.004191240169535288,-0.005488610996264851,-0.006231254527496288,-0.006179254873291848,-0.00526937711938324,-0.0036645422534714975,-0.001704659708039039,0.0002213923051789267,0.0018160345817028677,0.0029542567144461166,0.0036732165029337944,0.00409070435292555,0.004307377250640815,0.004347538131533033,0.004164740784374583,0.0036995505922360144,0.0029467877111465325,0.001983823245168293,0.0009357525778349773,-0.00010287432106621003,-0.0011331373260191012,-0.002245714145397097,-0.0035291650861432418,-0.004942275927339536,-0.0062397584011504,-0.007020319662400078,-0.006892273376246441,-0.005672723574490553,-0.0035075512003965937,-0.0008416744190574736,0.0017466196061281629,0.003761789698550704,0.004953435577629566,0.005357910827358242,0.005217080918641799,0.004829252928929754,0.00441117985660076,0.004033114013963305,0.0036424670325268145,0.003142027415100124,0.0024643762277951745,0.001598198373156183,0.0005632723727509669,-0.0006293719402554052,-0.00198481988895871,-0.0034789919811073376,-0.004988299201688411,-0.00625479014531684,-0.006936234046472074,-0.006737003465608439,-0.005555576488208057,-0.003562940219149914,-0.0011615176662523067,0.001157110954481357,0.002982259603605847,0.004100751254304653,0.004517217875432051,0.004390028711173001,0.003932320010192007,0.003330558459661284,0.002707201280643774,0.0021208467076782606,0.0015789854088163217,0.0010441802282540912,0.00043599514492996425,-0.0003509047652596019,-0.001394825667412495,-0.002670230356389936,-0.003988337905298167,-0.005009032088953454,-0.00534899594375827,-0.004751703654218207,-0.0032335636504791524,-0.0011175606216864864,0.0010784422968353386,0.0028485926197967344,0.0038943514216589472,0.004208835395180037,0.004017043154301469,0.0036200097598784553,0.003236320759884247,0.002920696255680882,0.002583157978950257,0.0020743090692282922,0.0012773665992060583,0.0001630705107983508,-0.0012008612684620823,-0.002667527117778723,-0.004035876129498767,-0.005078887734168355,-0.005583721868684165,-0.005407399497997916,-0.0045319689147339335,-0.003088660887951334,-0.0013286927125145667,0.00045244303003147537,0.002001427280645674,0.0031629447604352434,0.003885889969459019,0.004193160411883597,0.004145381271651428,0.003819973565535841,0.0033031153923387116,0.002676428424773964,0.0019880159154515666,0.0012224690817535556,0.00030225406605423734,-0.0008582543100020656,-0.0022627137958047363,-0.0037602639787775094,-0.005048076280441684,-0.005767917900292159,-0.005656070985252883,-0.004665836300189557,-0.0029923398588628,-0.0009874231914536438,0.000981277712470439,0.002645617033518054,0.003873817220517936,0.00463485655796717,0.004939984850686554,0.0048119442431575725,0.004297002124454466,0.003493345365517412,0.002552924462010882,0.0016341599472356116,0.0008249686505088186,8.78059739463995e-05,-0.000724913695082848,-0.0017769868302267493,-0.003120864038217314,-0.004611012073862546,-0.0059171797988741386,-0.006641481057707612,-0.006482680545831836,-0.005364407482728241,-0.0034671284040416676,-0.0011579828823879957,0.0011384037838001635,0.0030671254591274127,0.004421307881399558,0.0051546358626653405,0.005340322857174423,0.005106958457923565,0.004584106142087098,0.003876846578684926,0.0030661686346248555,0.002215790799624875,0.001367507088439113,0.0005247692920080298,-0.0003571199608707835,-0.0013523176162640587,-0.002511591116303776,-0.00379574471458557,-0.005034414147767778,-0.005946033901377523,-0.006226658196406828,-0.005675412846222902,-0.004296811868430014,-0.0023249927045033434,-0.00015221977561009756,0.0018075641501841759,0.003257402394225832,0.004096047483573499,0.004405835548451116,0.004365012747303345,0.004137930690884565,0.003804688271117832,0.003362719339911285,0.002783775445775431,0.002074461367334831,0.0012920391202597224,0.0005057250068664902,-0.0002621374048277055,-0.0010626034459221753,-0.0019824919204016974,-0.0030566865974686304,-0.004185739710540368,-0.005121550989194127,-0.005548078618592087,-0.005224473130859158,-0.0041132279646466366,-0.0024180095206278425,-0.0005065105598228313,0.0012390785769736392,0.0025616632827999133,0.003389079473657244,0.003797473046419204,0.003917876223019969,0.003849917842942266,0.003628567473308797,0.003247046404244785,0.0027019451548310155,0.0020182865557869453,0.0012354628841684645,0.00037147849034071856,-0.0005946291227875877,-0.0016925216756547836,-0.0028912709448331428,-0.004039561272086398,-0.004872276288949793,-0.0051040299614441235,-0.004569079915345357,-0.0033248010423118854,-0.001648435294270684,7.866530144567187e-05,0.001532519725364273,0.0025588455523842058,0.0031780108148617803,0.00349826235094513,0.003609893333336598,0.0035335037077848445,0.0032437567216606717,0.0027294682265080515,0.0020287339549717454,0.001208050720649161,0.0003086966632107655,-0.0006837745667316894,-0.001806958546253261,-0.0030385686185199143,-0.00422413657983574,-0.005081501510619637,-0.005300945770562046,-0.004692432715078492,-0.003293714536402848,-0.0013741533936646544,0.0006666163569228579,0.0024455559707024415,0.0037122106698658855,0.004388087702410795,0.004533097258873228,0.0042770636337883805,0.0037582037766478614,0.0030905249815944176,0.0023563387946300167,0.0016057882204627426,0.0008502238398648686,5.429804026281057e-05,-0.0008539377687384158,-0.001939902211397255,-0.003194912984018062,-0.004479898062821135,-0.005524659829126995,-0.006004537882878759,-0.005671534772904447,-0.004477304705312011,-0.0026198330356971954,-0.0004826313980574766,0.0015061500312334602,0.003024106155570038,0.0039427616238997465,0.004321214263292095,0.00432583748509956,0.004130539491205303,0.0038497219288075434,0.003524831605653726,0.003149275953265006,0.0026984907551776457,0.002140203635278069,0.0014251885136913763,0.0004818185277252169,-0.0007589680037057065,-0.0023028379519449433,-0.0040231939895561415,-0.005633949836621429,-0.006743945085859994,-0.006990362050471611,-0.006195867224695905,-0.0044672264134817076,-0.002175437361633655,0.00017988543329399797,0.002154644437798383,0.0035009951612453073,0.004202705421420281,0.004406370136989761,0.004305083070750889,0.004045736633612469,0.0037003509379417415,0.0032908741414847823,0.0028230126692055614,0.00229113248187801,0.001654950191179998,0.0008254901719629918,-0.0003005544186330229,-0.0017568612567665743,-0.0034211053805480113,-0.004992201382610846,-0.006067653686514905,-0.0062969188752916745,-0.005535777128690572,-0.003920203334102774,-0.001820689598283778,0.0002982133628833618,0.0020423928040162373,0.0032019614333844443,0.003773959694772397,0.00390229378767619,0.003778910253545661,0.0035568438246428506,0.0033054419882299533,0.003008471363458577,0.00258799006960786,0.0019391589726672558,0.0009730513206212602,-0.00033202542645890433,-0.0018821059383234398,-0.003449174170367457,-0.0047099461220134866,-0.005344175265040787,-0.005157001306430106,-0.004165713619683919,-0.0026026106902624514,-0.0008295178561329858,0.0007926274845422724,0.0020160337381357144,0.0027553678971621396,0.0030679328398192035,0.003090014587057843,0.002963751403397366,0.002779659567396609,0.002546773986283933,0.0021948213197165506,0.0016093727067331123,0.0006944315793068381,-0.0005554650499529975,-0.0020041451940916383,-0.003376151979192431,-0.004327853381745873,-0.004568806235257372,-0.003981639482546413,-0.0026802194002197065,-0.00097379337024234,0.0007456736934778094,0.0021373026746148212,0.0030070756347463498,0.0033346324093197145,0.0032364954136232717,0.0028934728099951797,0.002472607670162638,0.002066004642570681,0.0016614975119322094,0.001155834199916422,0.00041297591282136753,-0.0006476175342219566,-0.0019694764243365468,-0.003330256138240532,-0.0043941706854334125,-0.0048338488748120075,-0.004467879223986735,-0.003344884008799103,-0.0017296169409157939,1.3414386440728596e-06,0.001499620730517676,0.0025532676858316633,0.0031213225011793105,0.003295750266047327,0.0032232542972159654,0.0030262629376361424,0.0027508147580333066,0.0023538859700775717,0.0017320892183418201,0.0007850495336001719,-0.0005053211427910304,-0.0020122569687591337,-0.003455653551364027,-0.004469259157618772,-0.0047290734489096,-0.004089929869005943,-0.002662543854438044,-0.0007874021275804402,0.0010863696579086824,0.0025607573498535497,0.003414429333446092,0.0036433485651041157,0.003410088784100461,0.0029370885009243446,0.002398071307719094,0.0018533936328761628,0.001249179797637294,0.00047250435877752624,-0.0005641186198405447,-0.001844226586550895,-0.0032090759597987783,-0.0043814095042098815,-0.005048987744130968,-0.004976606205343473,-0.0040977763622300585,-0.00254486463742186,-0.000607037060148665,0.001360330415444265,0.0030341854872814253,0.004196409479442438,0.004765792563500501,0.004790258030755426,0.004406105370504487,0.003773514731217096,0.003004885669161065,0.0021136736626469156,0.0010150787125540737,-0.00040553594956551796,-0.0021761390912650616,-0.004132352193519895,-0.005895958106060658,-0.0069786484203378405,-0.006980667782885029,-0.005785946826514338,-0.003641572263692946,-0.0010683896957716507,0.0013529849761807833,0.0032046976433945775,0.004347604235183112,0.004885652008296803,0.005024397302720985,0.004922589355807649,0.004622610587962367,0.004081805318334375,0.003258516884674089,0.0021786657795697254,0.0009354291117443131,-0.00036747312311043666,-0.0016730266317095807,-0.0029733220675770603,-0.004247519631119158,-0.005382603141377654,-0.006147720318266511,-0.006262009291318396,-0.0055302768947009025,-0.003968386462637374,-0.0018396695999852483,0.00042482643120768816,0.0023826159279887165,0.0037336571776924667,0.004400301415486463,0.004505124725061585,0.004270991363603991,0.003902311235670818,0.0035067138109075528,0.0030845330651077625,0.0025713464018939603,0.0018942491060224957,0.0010089179911390836,-8.899864813324219e-05,-0.0013621931216895747,-0.0027225210028617493,-0.004015372640147467,-0.005019067752910746,-0.005484038292049002,-0.005215395885987467,-0.004168537876470091,-0.0025055225480390764,-0.0005700824554670085,0.0012206422966676731,0.0025234594997100204,0.003187624883144311,0.0032885983272983262,0.003062374349639715,0.0027751216181163708,0.002594875877344989,0.002528230377553809,0.002446248403155225,0.002173524209798104,0.0015845093697222624,0.0006589560268404162,-0.0005174165274792275,-0.001788262420679964,-0.002969129672796892,-0.0038804033419173817,-0.004371537953408864,-0.004344398192754154,-0.0037767476278935115,-0.002736514752476485,-0.001375361045006107,0.00010129434958335969,0.0014789996926365843,0.0025791816334160404,0.0032918106452018803,0.0035891692840203685,0.003519171975550495,0.0031805159730637148,0.002685777273718503,0.0021222436607948886,0.0015222954824270708,0.0008547696297411752,4.574933446900618e-05,-0.0009702732185585932,-0.002182167558420705,-0.0034477190834144656,-0.004491978751645429,-0.004981762892492345,-0.004659484641225777,-0.003476196640417129,-0.0016492839485713643,0.0003979092930124458,0.0021934551306220912,0.0033937190941039012,0.003890710450503188,0.003802973917043387,0.0033708659460458122,0.0028251685116700816,0.0022976922946319487,0.001802451366502043,0.0012712303429265996,0.0006083257688987228,-0.00026043365481355225,-0.0013494192165932597,-0.0025833593750315496,-0.0037833790026318504,-0.004687998566822752,-0.005022172098695996,-0.004600199081863661,-0.0034180154502473376,-0.0016828351007766884,0.0002451920592527884,0.0019777951921396727,0.0032312070150586915,0.0039040738165196692,0.0040691939672727355,0.0038942909735952174,0.0035421446583073376,0.0031044325132098733,0.002595629529269384,0.0019924108727078353,0.0012780025921356993,0.00045716757236456945,-0.0004602997259012067,-0.0014778129259500608,-0.0025978453726302124,-0.003770903770400082,-0.004844321100401763,-0.0055640353275671,-0.00565444896519183,-0.004945587012298424,-0.0034755647716132984,-0.001503424425107959,0.0005804906861042638,0.0023989564421722804,0.003711022322125823,0.004456784647619951,0.004716344544535261,0.004622889454743715,0.004287347479008618,0.0037726901537065843,0.003115688249286504,0.002361124948902748,0.0015702848530624418,0.000792642536309758,2.5591214123131924e-05,-0.0007964385160059281,-0.0017592945114780028,-0.0028889720632466493,-0.004084695761947097,-0.0051172577431128265,-0.005707373190059163,-0.005646025064655684,-0.004888022585786884,-0.003565397596593951,-0.0019191264187533134,-0.00019832296161012504,0.0014107960472486748,0.0027947351080703647,0.0038781446220692802,0.004590369369749456,0.0048689466146580075,0.0046987632609105144,0.004150919458941188,0.0033791379228719593,0.0025587433490912867,0.001796016183366699,0.001065165220715227,0.00022354983937507793,-0.0008879117946469016,-0.002308262053969273,-0.0038649276653667255,-0.005191901907866584,-0.005864257450472157,-0.005587868167130456,-0.0043464632466515,-0.002426199534768582,-0.00030263683768428496,0.0015509034911407055,0.002835132714761321,0.003495816463142065,0.0036742273268615304,0.0035829176961843,0.0033844345538204795,0.003133841175169767,0.0027970214150051425,0.0023103473091692266,0.0016323351891998341,0.0007587084044489248,-0.00029174176200408406,-0.0014900672418373697,-0.0027839420977861353,-0.00406181044795606,-0.005127190367877153,-0.005721775784627142,-0.005608732217548621,-0.004682742831704159,-0.003044240932104679,-0.000987661336738492,0.0010975851741412861,0.002863137077068122,0.004105444434025414,0.004791836916595704,0.005011301370296235,0.004892446298605866,0.0045394518052599905,0.0040115488513777,0.0033345158040644137,0.002513787641856445,0.00153195488569481,0.0003439022288020323,-0.0011005099446873665,-0.0027933430095308004,-0.004592800734408519,-0.006192942301559938,-0.007186365230792101,-0.007214087111809742,-0.006134425192157293,-0.00411674688646326,-0.0015997220196490066,0.0008715376233566628,0.002847319555912438,0.0041140579921459305,0.0047140363825516965,0.00485316012806844,0.004760501018521657,0.004575277392237865,0.004307956607479712,0.003876181278467257,0.0031801311193243075,0.0021707610655475225,0.0008781354397054712,-0.0006046362873914237,-0.0021590749270999844,-0.003667146990203404,-0.005005877587756634,-0.006022713644666264,-0.006528597834293958,-0.006340650351941623,-0.005368900155838223,-0.003698214309384534,-0.0016042971052731595,0.0005231824156916001,0.0023184341401856047,0.0035655807971361263,0.004246459537478876,0.00449184744642921,0.0044742149465114706,0.004309270153378884,0.004020220961461416,0.003574365992067719,0.002954935448823298,0.0022105951906154016,0.001443140362998036,0.0007392118743879505,9.490293743153036e-05,-0.000606521092513785,-0.0015334704277908497,-0.0027848105049805404,-0.004276046641379927,-0.005706800322714625,-0.006645552951104301,-0.006703801993979868,-0.0057169741686454,-0.003837381450639452,-0.0014865094281594163,0.0008118827843289615,0.002633367324122917,0.0037894950022708714,0.004339513778971579,0.004487198595575847,0.004432992857435737,0.00426858486055526,0.003966650576714399,0.00345511886888443,0.0027126028963097466,0.0018124335287557926,0.000882777538545969,1.3660659789015064e-05,-0.0008146702920871409,-0.0017164501386353688,-0.0027924999585288925,-0.003996454922368576,-0.0050740378629948995,-0.005637329176510332,-0.0053496388357974715,-0.004118999495571548,-0.00218402502165387,-3.554361955501505e-05,0.0017883036157391864,0.002925763918645054,0.0033195348633653704,0.0031908421539739293,0.0028855634881661428,0.00268351728292226,0.002672597293905194,0.0027425220826535163,0.0026802549224690412,0.0022967037345140093,0.0015119863738978483,0.00036874181617149824,-0.001005238399430975,-0.002439780633649811,-0.0037416116474797163,-0.004698503056199359,-0.005100081707809468,-0.004795068723918524,-0.0037664802713124105,-0.0021756184251789878,-0.0003325292474928779,0.0014055986839076665,0.002758304147966268,0.003602615702496633,0.003973581196067735,0.003997071170705636,0.0038029243174875684,0.003467421916695336,0.003006376997914092,0.0024064401563954102,0.0016632349784588183,0.0007981226890967102,-0.0001545463216509068,-0.0011735276892123384,-0.0022604209325321,-0.0034120278526566777,-0.004564155996323627,-0.005547803572222251,-0.006105300359181668,-0.005981367201780512,-0.005049903155683593,-0.003402032077722533,-0.0013354370936284753,0.0007566771910924842,0.0025363994536311443,0.0038282634824184664,0.0046306659786290215,0.0050419167457753595,0.005161650130451978,0.005034043897432301,0.00465997081031408,0.004051369298872605,0.003271866571986949,0.0024228450254047606,0.0015805617648938322,0.000732349126253381,-0.00023245857599870723,-0.0014539612122383171,-0.002984691902339438,-0.0046919022778901445,-0.00624617220786308,-0.007220341690011995,-0.007260191016074043,-0.00624308107782745,-0.004341857833828173,-0.0019605847903143197,0.0004224270674369425,0.002422035784310558,0.003844531933271079,0.004683999064755158,0.005042621535706993,0.005035341717060698,0.004733787237776548,0.004169207745779948,0.003374577123453121,0.002424567917523681,0.0014375044735969746,0.000530235882943626,-0.0002494123103536069,-0.0009658052085722453,-0.0017723824843245781,-0.0028151998808783286,-0.0041050698752654845,-0.00543404630059525,-0.006403909830337258,-0.006579014879665139,-0.005699118781269543,-0.0038373614144920445,-0.0014046560150992667,0.0010158886113940894,0.0029204881812525986,0.004084907805099453,0.004606043029496183,0.004772364733776638,0.004851372653798853,0.004926440327207805,0.004876677107518337,0.004497689053048811,0.003671060848643852,0.002464429042030547,0.001097370414863789,-0.00019682672686666602,-0.0013119261794292017,-0.0023103077360425123,-0.0033339565173552232,-0.0044457910355797025,-0.005513542648499218,-0.006223885656476367,-0.006230076876093374,-0.0053474326261897225,-0.0036762983109351315,-0.0015755393920211748,0.0004968455844099554,0.0021779408701166356,0.003316037096633336,0.0039551976619382504,0.004224020719555578,0.004219842090430924,0.003966076683099915,0.003454582640991687,0.0027192034255538074,0.0018681334690775894,0.001040922125338729,0.0003195483210724156,-0.00033550948904993575,-0.0010645333024568101,-0.0020007816600690503,-0.0031379514175949768,-0.0042625794296790006,-0.005009512531357414,-0.005024126093993509,-0.004144421185600357,-0.0024982225070892834,-0.0004601715502633945,0.001503580268082156,0.0030150273739077285,0.0038989784672659256,0.00419175534645079,0.004063034649154321,0.0037066183311998883,0.0032563619707097332,0.002756709719511587,0.0021830224403703116,0.0014841241642320879,0.0006184058589664517,-0.0004277304710097413,-0.0016300073652426067,-0.002911168508869426,-0.004122920099417823,-0.005048285990213447,-0.005448765604813579,-0.0051522598886011226,-0.004139744433006959,-0.0025755752926472546,-0.0007552145965660892,0.0010036003020959458,0.002464670682592314,0.0035186664878707396,0.004159938300381462,0.004428948926328072,0.004367877226065545,0.0040142969370518785,0.003420586043813978,0.002664838270086123,0.0018288675425897545,0.0009519574905994182,-1.3436395017774917e-06,-0.0011200942369330232,-0.002465956986347161,-0.003972393518184816,-0.005391937098877563,-0.00634420436752591,-0.006461301703304493,-0.005562684807778474,-0.0037627766451424085,-0.0014463613527721175,0.0008785646953920224,0.002772422867344256,0.004003603024814991,0.004577586437773354,0.004662527007296251,0.004469259265369084,0.004154282965453849,0.0037851814360480044,0.00336299150566556,0.0028651815597874014,0.0022724301013719002,0.0015663662777080057,0.0007135079791344924,-0.0003364151737363483,-0.0016192817514815894,-0.0031000993701511877,-0.0046245109576763385,-0.005918493245884653,-0.006655820157475793,-0.006573975612720006,-0.005586114555933469,-0.003832402882434323,-0.0016432241014277353,0.0005686011179211913,0.0024364430492245866,0.0037350699153927422,0.004410829113169069,0.004548679698106515,0.004304095141078332,0.003835227875204042,0.0032589976570210144,0.002634738818809957,0.001965881635705525,0.001211617476444459,0.0003102333429057019,-0.0007806389321394661,-0.002032481958226231,-0.003306811206911557,-0.0043599417345803896,-0.004907255150429789,-0.0047285818327019715,-0.003766246270711691,-0.00216478660909909,-0.00023127517967341717,0.0016624995419632425,0.0031890370493574877,0.00414282813957439,0.004468282902821256,0.004242580983192793,0.0036292186505689447,0.0028191970008209235,0.0019748045087415716,0.0011889086881260596,0.00046963636625317465,-0.0002450988891032717,-0.0010461945332174726,-0.0019960129495023267,-0.003073265815016257,-0.00414296634618966,-0.004971866215960139,-0.005295261781928289,-0.0049161751261386395,-0.0037955229438719237,-0.002088842492189824,-0.00010793784358943136,0.0017773198226867597,0.0032533657211937083,0.004146197044390675,0.004446286281618448,0.0042762397231820605,0.003822506229921802,0.0032584517356205283,0.0026824568844683342,0.002088625308590706,0.0013814571268134371,0.0004356311569096826,-0.0008157393499959486,-0.0023014098313300993,-0.0037862318288208146,-0.0049271805919000496,-0.005397794223516661,-0.00502492097477851,-0.0038671922295492383,-0.002192941166502844,-0.00037119597707083803,0.0012638501605756317,0.002507396680667128,0.003303393950317631,0.003701058620853871,0.0037896410244099275,0.003650210365365641,0.0033391427448951996,0.0028929442530745706,0.002334591566408731,0.001670371843903756,0.0008829514902961761,-6.317114520274723e-05,-0.0011921718675722336,-0.0024694167778792943,-0.003761879495238281,-0.00483916207487199,-0.005431764590875708,-0.005329681162390732,-0.004474599108451302,-0.0029960277514599967,-0.0011709841558334713,0.0006705560137090177,0.002245564271432667,0.003379844557813586,0.004017994133625861,0.004197351103063888,0.004012499883319782,0.0035864438434144866,0.0030470566519309574,0.0024997730997839483,0.0019953416855549334,0.0015058635722427418,0.0009288404208861028,0.00013002368933349984,-0.0009841297389342096,-0.0023928819644872786,-0.003922537073679325,-0.005269293911933624,-0.006085848944442368,-0.006103320875513996,-0.005237727515288591,-0.0036308985559990363,-0.0016038304682762868,0.0004566451437424449,0.0022238781626710215,0.003512907651124388,0.004288825485368795,0.004615513119469131,0.004587511979377366,0.004286815081126653,0.0037791661768230593,0.003133018848752777,0.0024311989642206194,0.0017567258078728999,0.0011579674700894743,0.0006161336862989517,3.986804121022965e-05,-0.0007007032810741134,-0.0017068097559240123,-0.002975123363197281,-0.004348919148522159,-0.005529778455665459,-0.006161805545727907,-0.005964632257392334,-0.004859534949206157,-0.003026259265728957,-0.0008558727009104184,0.0011849873155221106,0.0027182699227027178,0.0035728494784802015,0.0038073181804225776,0.0036365435457691776,0.003308115150970684,0.002994402891129528,0.0027483518679366926,0.0025280559733916992,0.0022548414464051403,0.0018588259127799906,0.0012897868081568316,0.0005082074892104865,-0.0005097519670852923,-0.0017350639965479668,-0.00303581058371577,-0.00416180889023675,-0.004802452134241128,-0.004710113683870179,-0.0038285429379872806,-0.0023470122042829706,-0.000636406383500074,0.0009063217897811465,0.0020208840338703012,0.002663917937859038,0.002968723494793676,0.0031199200985729727,0.0032257570733972216,0.003263335371545011,0.003118211877449285,0.002677822536963922,0.0019092062616143637,0.0008725674964640739,-0.00032485351150025806,-0.0015854554048743644,-0.0028365444840500412,-0.003993020060781607,-0.004907421343006119,-0.005365824368528081,-0.005156864709832546,-0.004183702294907315,-0.0025497027910012134,-0.0005576806209779938,0.0013870660202727424,0.0029230497911801132,0.0038544353573173543,0.0041911947238392165,0.004097129369995491,0.003783495861327738,0.0034082704612497295,0.0030271501495338685,0.002605045600094782,0.00206291468516884,0.0013253369411247568,0.00034975880953425824,-0.0008590413701696501,-0.002236315792100349,-0.0036436407424518327,-0.0048686725812626406,-0.005658181404099167,-0.005787954791902264,-0.005145847762426292,-0.00378798014249326,-0.0019371001728802632,7.944383611252238e-05,0.0019260877110639939,0.0033507446812157424,0.004238374686100135,0.004611118623324773,0.0045820946444488,0.004288556110621475,0.0038367104430515045,0.0032802987860200646,0.00263264877251697,0.0018916512351259877,0.0010537512203439583,0.0001095832435047132,-0.0009629554279515734,-0.0021834439788564306,-0.003523301690915045,-0.004853568244569445,-0.005930955360183945,-0.006454932323451579,-0.006185126063144425,-0.005061852342784388,-0.00325888943193821,-0.0011314351994778315,0.0009168136947469277,0.0025769299420433595,0.003716613507852604,0.004370660855192891,0.004663793872546075,0.004720628751597669,0.0046112940296638245,0.004348896619355862,0.003921517843752423,0.00332661300190597,0.0025835607268671684,0.0017205443750953275,0.0007506291243583112,-0.00034071905568968183,-0.0015804496682897777,-0.002965048049054252,-0.004409605524472715,-0.0057217395554549685,-0.006629303195465669,-0.0068654733819537555,-0.006278631786368399,-0.004910999942496573,-0.0029996927491706695,-0.0008950157325235942,0.0010628267452941138,0.0026470390409429724,0.003782906240592382,0.004516359984366098,0.00494190986063807,0.005132486155281816,0.005104191175350721,0.004826713798549553,0.004266514076279153,0.003433775570620122,0.0024022554027296177,0.0012862175177808482,0.00018535374099901014,-0.0008671735403018516,-0.0019136716410064602,-0.0030208975058575137,-0.004192787600304284,-0.005302821258049724,-0.006099820666886529,-0.006299985092934238,-0.005721974872542215,-0.004389089510961297,-0.0025378570019128667,-0.0005271874386866831,0.0013000721236964036,0.0027282751506972226,0.0037009785215565386,0.004272367267547925,0.004521897451022591,0.00449087629281306,0.004178199011659597,0.003588552927817774,0.0027873235351018755,0.0019088838755526739,0.0010975978400278737,0.0004144415057034545,-0.00022114775499687165,-0.0009952212294252782,-0.0020680110252814547,-0.0034175201116389727,-0.004763489683804463,-0.005643741931633393,-0.005623671568696613,-0.004527591684636501,-0.0025547729574998813,-0.00020803866479158508,0.0019234527458847396,0.003402080390783248,0.004076233648034522,0.004063373198641352,0.0036251155730869285,0.0030246329593915646,0.0024391685701876057,0.001944432184399055,0.001538982022949879,0.0011673319703367634,0.000728296408235047,8.942707338496677e-05,-0.0008640804242829535,-0.002146560420970524,-0.0035985418196043074,-0.004884727328557842,-0.005595181893712635,-0.005416549198684228,-0.0042853359629409,-0.002434784998961767,-0.00030570148529240676,0.0016303414718077756,0.003042429019977227,0.0038266015542364135,0.004081561899661014,0.004006269961739989,0.0037831097866814728,0.0035046047316353445,0.003167572231733354,0.002717224439880032,0.0020995240746198135,0.0012870684773117003,0.00027437749975915617,-0.0009323275757836353,-0.0023019929418086507,-0.003739164570169978,-0.005049579354368653,-0.005955106968012801,-0.006176513952700666,-0.005553178963145134,-0.004133107937844384,-0.0021751978833345832,-5.668856923606751e-05,0.0018635330553591729,0.0033522329176672435,0.004332228650071749,0.004840390219225664,0.004957251041187995,0.004755911297311719,0.0042912197012947885,0.0036174324161438844,0.0028060046573610627,0.0019410658888356597,0.0010895723038012591,0.00026309201357041306,-0.0006006237068881546,-0.001611490159906122,-0.0028524476606470854,-0.004285466833506781,-0.005694016315653968,-0.006714098448388267,-0.006962620029699157,-0.006209919820982944,-0.004505247795862751,-0.0021817767933214366,0.00026616047859673363,0.0023699938492249386,0.003843967215424941,0.004642552787461699,0.004906520597662524,0.004842401817927644,0.004606808291042778,0.0042540143557650185,0.003762255018145191,0.0031063984533554337,0.0023196967493823795,0.0014992571216535687,0.0007499782952824739,0.00010448050584796318,-0.0005234835356092283,-0.0013090052786799908,-0.002408851651577928,-0.0038271695524734334,-0.005334266688100975,-0.006504370445372067,-0.006877660240566852,-0.006175427350326145,-0.004453886973829755,-0.0021059350272892895,0.00029779121751687945,0.002246316234206406,0.0034794247558402555,0.0040388786510906155,0.004168963989494482,0.004138035640685193,0.0040877787980679176,0.003988907421187876,0.0037119238161917546,0.0031525050038673117,0.0023235073704462126,0.0013541776606986735,0.00040229272675369884,-0.00045528121413466777,-0.0012719459396081908,-0.0021774413032395346,-0.003247621435732885,-0.004382926475328439,-0.005286469324096457,-0.0055763815207937745,-0.004979992941671006,-0.003497435413751756,-0.0014341826532436144,0.000719016911492621,0.0024888519605032722,0.003593083986974277,0.004003642268456052,0.003890146804096886,0.0034974429508956156,0.0030295545460495895,0.0025886024172319328,0.002175722592085615,0.0017292853015075673,0.001168400008814556,0.000423994417772731,-0.0005401070509355487,-0.0017050139330797786,-0.0029716103924841194,-0.004148331197842926,-0.0049761813426228985,-0.0052013885560334705,-0.004674434933430187,-0.0034270694214152027,-0.0016805105148217706,0.00022665665460311845,0.0019557067468134104,0.0032704281766718253,0.004079946647990654,0.004416080935325309,0.00437411873914216,0.004055110137009549,0.0035338385472981986,0.0028550317030742365,0.0020451308308649663,0.0011240311934281768,0.00010916154237935224,-0.0009837523467774224,-0.0021320355156557065,-0.0032832080713117158,-0.004327123699487916,-0.005087314170602595,-0.005354815625692175,-0.004964592189171765,-0.0038820651929481844,-0.0022501595785808675,-0.00036229883592310986,0.001433017886870025,0.0028509498269968124,0.0037540147407873585,0.004163163104535364,0.0041998565143043474,0.003999434231448969,0.003646765372670652,0.0031646148732566762,0.0025475575622347186,0.001805166798831184,0.0009771862957421162,0.00010989029830678581,-0.0007832301398451741,-0.0017366838662708722,-0.002798020990753337,-0.003953928313116198,-0.005065304344009895,-0.0058667832386946886,-0.006052727700013463,-0.005415655648891614,-0.00396289873895273,-0.0019426907736751183,0.00024017935685739786,0.002177780882787539,0.003603782364987761,0.004459761367805097,0.004858560763956554,0.004975728202543648,0.00493510405681438,0.004751361531313669,0.004354996790358081,0.0036760296935514454,0.0027284305217102384,0.0016365535805880492,0.000579611370920643,-0.0003164536704226931,-0.0010692741890638725,-0.0018427687510392953,-0.002841939478124828,-0.004151356834283684,-0.005616287289658121,-0.006851919554065472,-0.0073941052651653495,-0.006917779931106078,-0.005403799518363334,-0.00316246799285908,-0.0007045660944490259,0.0014662242528525183,0.003032532015486376,0.003936139608866961,0.004329850600163706,0.004451567626424454,0.004490397903084771,0.004506522311506871,0.0044341538614570165,0.004155150189466829,0.003596041173501649,0.0027895873661032697,0.0018627279860083798,0.0009581169595187788,0.00014055020549815303,-0.000646596864421548,-0.0015379734880457963,-0.002634121481734593,-0.003887650518304286,-0.005065000367060904,-0.005821628336949049,-0.0058594596736537205,-0.00507974135420175,-0.0036411629387918362,-0.0018883975431916594,-0.0001947642344952283,0.00118836305232827,0.0021945523933128335,0.0028971248571589554,0.003401160030430614,0.0037486207863908928,0.00389349452008085,0.003752591543578314,0.003288515480727211,0.002563569424533349,0.0017249469267699527,0.0009273183937377325,0.00024128339149767663,-0.0003899346834669963,-0.001107964199521566,-0.0020257958554165028,-0.003108589201743249,-0.004128700531574284,-0.004738333118132515,-0.004632781832681522,-0.0037160349664723236,-0.0021705878337948794,-0.0003859290609598768,0.0012157164968127727,0.002356863995014349,0.002988409015388993,0.0032447943474436273,0.0033148720140326934,0.0033167232600763924,0.003249754045406795,0.0030381962630433522,0.002617954319680328,0.001994779126791485,0.0012311591184923734,0.0003798140925420384,-0.0005724520673361438,-0.0016914389814603986,-0.0030071579212911587,-0.004408386078490807,-0.0056044930521996425,-0.006205064002237212,-0.005892452559728334,-0.004594814694426519,-0.0025553626234051455,-0.00024947467112285723,0.001809824490582065,0.0032731191269847423,0.004057900685000962,0.004311117942303354,0.0042707443683647935,0.004118077141554566,0.0039045042726700606,0.003578597946326933,0.003072745674797887,0.0023767340011223996,0.001546088088689163,0.000647391233967918,-0.0003077637348244627,-0.001377723615618144,-0.002627827473105993,-0.004022864035121665,-0.00535255051804121,-0.006260915112770556,-0.0063882096101120335,-0.0055537212687194575,-0.0038684514532578334,-0.0017029549402722281,0.00047393876183800243,0.0022894368626975243,0.00358369093233199,0.004396196056419487,0.004853493765106399,0.005044905526913439,0.004966678499334025,0.004558764582159319,0.0037936463993222427,0.0027448854974471103,0.0015814178147333744,0.0004869378442666405,-0.00044347761526741206,-0.0012586487302293813,-0.002114910414544537,-0.0031611872863224395,-0.004409703628198879,-0.005670174330266855,-0.006592850346099876,-0.006806246975272685,-0.006083170034749166,-0.004452888445088543,-0.0022053938360058253,0.0002118536053826596,0.002353975070848075,0.003923215911888447,0.004839111745506813,0.005213058384924116,0.0052494441794119495,0.005126487051367091,0.004915454840277796,0.004573994204561116,0.0040086333653732605,0.0031643061123487947,0.002085125436040133,0.0009081750547664782,-0.00020821038678852115,-0.0011790455807636972,-0.0020478615529506304,-0.002956539283203973,-0.004033034181585325,-0.005257012669366513,-0.006391204381649435,-0.007039853808569256,-0.006823024228708724,-0.005579101930885175,-0.00347933382130543,-0.0009818056708947095,0.0013559568594696853,0.003104623104933008,0.004109844294054731,0.00448993861752106,0.004505566437560388,0.00439115604419517,0.004245833238842773,0.004030805911816325,0.003649533534532307,0.003042915347305166,0.0022364844185492035,0.0013184802810556058,0.0003752707555444621,-0.0005645378973569717,-0.0015349169721324144,-0.0025786264433793737,-0.003667487199197031,-0.004651476080872699,-0.00528030331227795,-0.005299862552818241,-0.0045775633456302854,-0.003186608994656671,-0.0013984144537661596,0.0004156855206247287,0.0019214856137402076,0.002928732759526112,0.0034227888952581133,0.003521075972747034,0.0033905503938313833,0.0031720497441450747,0.00294100713492732,0.002706550956005582,0.0024308811462535065,0.002049167798759558,0.0014839119745432257,0.0006622536091708119,-0.00045358403492872065,-0.0018254121814120419,-0.0033072531438228152,-0.004648714221542296,-0.005548749437560296,-0.0057501164762167704,-0.005138853454214851,-0.00380180752331658,-0.00200885972284512,-0.00012173617684046339,0.001530145692883872,0.002748269704899252,0.0034947098785355745,0.0038493787398726073,0.003930665349192668,0.003829584924116643,0.0035891928558301695,0.003224637396356656,0.002751404177742749,0.0021895160679797476,0.001538348296357463,0.0007492821511135481,-0.00026464497516225896,-0.0015647833199701282,-0.0030955256086026327,-0.004627473212507442,-0.005791757698243893,-0.006211579623537453,-0.005671343624055497,-0.004229877888089057,-0.002210003329134503,-6.750192609984915e-05,0.0017887947532785838,0.003131494762526344,0.003943115925265393,0.004342064561252085,0.004464398088428029,0.00437597589871018,0.0040616014637246236,0.003483512316413053,0.002655199717533514,0.0016692792182416915,0.0006555117195436783,-0.00029989555770394585,-0.0012100529612810904,-0.002168168851810157,-0.0032545955600944663,-0.004426800052182936,-0.005470624325419515,-0.006060475567391284,-0.005908115112930154,-0.004918040468580461,-0.0032558077693459193,-0.0012851968528930459,0.0005908756045714277,0.002094649557904867,0.0031540399456530684,0.003865891711773665,0.00437902998507922,0.004775520260986881,0.005018963769925302,0.004990199608856443,0.004577891771099724,0.0037656145937002964,0.002666794581589703,0.0014902334915917951,0.00045218413012867466,-0.00032541402732340645,-0.0008812771322831959,-0.0014052830359110608,-0.002143204869200306,-0.003250320103403502,-0.004665609570651844,-0.006081889703569043,-0.007045486447634092,-0.0071483983418557055,-0.006217618478485722,-0.0044010138175820356,-0.00210511232571053,0.00017719733151837572,0.002055018896741212,0.0033528620359202983,0.004110556180542271,0.00449412289480176,0.004678921362780474,0.0047643612742122796,0.004750313989042465,0.004570829497333145,0.004157287735261089,0.0034955529126752295,0.002647803513549301,0.001726694249305639,0.0008339187913971936,-1.9971516438260783e-06,-0.0008469776303552268,-0.0018184988722710939,-0.002992828277831187,-0.004312033336927489,-0.0055499310695039245,-0.006370100738070966,-0.006459051231671406,-0.005671668258141133,-0.004113005724193649,-0.002111100031326536,-9.298967580676024e-05,0.001573980575925418,0.002699655996598962,0.003298154078286708,0.003524319068967143,0.0035637994311352866,0.003538969980596723,0.0034760083659911047,0.0033368559647771064,0.0030795260292173464,0.002697669033845547,0.0022126970117183954,0.0016311996634645997,0.0009083454393959895,-4.3609440799550515e-05,-0.0012918836317778427,-0.002794802993759915,-0.0043451420170747684,-0.005595360971932971,-0.00617256249689949,-0.005834984863182638,-0.004588864813273882,-0.002699703026616571,-0.0005889500459107327,0.0013293354635618658,0.0027873819137721454,0.0037146419454361515,0.004192396548639337,0.004356052847010603,0.004308356025630634,0.004086939310614218,0.003688727511093598,0.0031185595285182516,0.0024195561639237828,0.0016609407816514528,0.0008916965063677624,9.503848372296867e-05,-0.000816864146538441,-0.0019499791788082713,-0.0033364848227000633,-0.0048548388362539,-0.006217706569945642,-0.007052697949637122,-0.007047968210921135,-0.0060915728422388255,-0.004330047236135738,-0.002114036128843491,0.00013845872310395976,0.0020881174578473325,0.003560282847474616,0.004544118366942188,0.005127343696695196,0.00541475356406354,0.005473155125130896,0.005320361360970035,0.004949079119208631,0.0043606504316190215,0.003583810768696668,0.002667537092990487,0.0016555550191096012,0.000561925003136189,-0.000633708060831279,-0.0019636279340637204,-0.0034287233887373638,-0.004951986231143025,-0.006352589786576298,-0.007362701422385201,-0.0076956739096714095,-0.007148877329985032,-0.005698955038999034,-0.0035410955365882285,-0.0010466728758122402,0.0013468094306492682,0.0032678804637071507,0.004512690100118349,0.005079738168963318,0.005129866177154975,0.004892677489900753,0.004561405441988132,0.004222682013977603,0.00385050058412133,0.003359868368146942,0.0026827940641980658,0.0018184031372833827,0.0008287415041308419,-0.00021014808172441593,-0.0012615446423963003,-0.0023424268655402323,-0.0034822160212879243,-0.004648926591395107,-0.00569390973382235,-0.0063632880211205185,-0.006387296112581016,-0.005608120513477454,-0.004076032281550836,-0.0020563287070345065,6.058842556569759e-05,0.0019001391302624483,0.0032263818662780887,0.003994156963847985,0.004317923366091468,0.004383466184528934,0.004349564034145198,0.0042841633086485986,0.004157532583951415,0.0038851651297632786,0.003390931052012096,0.0026558330334273753,0.0017292112418826082,0.0006998451353488103,-0.0003547951867331703,-0.001409833906823014,-0.002494994919294975,-0.0036468393238665397,-0.004832418944175862,-0.00589269167899468,-0.0065552472164659295,-0.006531220228034413,-0.005656287015993737,-0.003997178468213522,-0.0018553906237355462,0.00034215325547201376,0.002207542128284775,0.0035221892835960314,0.0042698874180664695,0.004572391850557769,0.004582674355159893,0.004404050857576621,0.00407215921582523,0.0035889015204878614,0.0029668345240192627,0.0022455491020229976,0.0014701991851682416,0.0006540348485195376,-0.00023918388018538597,-0.0012687008778689553,-0.002452146871224315,-0.003699172718490496,-0.004790737140823385,-0.005432774623963583,-0.005371481880305137,-0.004516272174320879,-0.003002797737024847,-0.0011554740119623726,0.0006362557237443917,0.0020645023827623597,0.0029973101716664237,0.0034791407284285023,0.003651513598480583,0.0036498621116176034,0.003536569755613824,0.0032981684091447053,0.0028910707385097004,0.00229332204137015,0.0015243284362166842,0.0006242565504920287,-0.0003816484467201392,-0.0014949281184853621,-0.0027104958063010227,-0.003954686304676664,-0.005043125276116517,-0.0057053075545767705,-0.005683216459657817,-0.004857886354043087,-0.0033295545636252487,-0.001398156544409627,0.0005504998906870818,0.0021915346202421083,0.0033630619982289844,0.004076792745214762,0.00444567912214376,0.0045819675505733536,0.004528921147444291,0.004261480593157473,0.0037435909169797124,0.002992576824348777,0.0020982542688096095,0.0011789158805459079,0.0003043172565877319,-0.0005566696386219267,-0.0015184096278331172,-0.0026896540426509267,-0.004060471773152964,-0.005435156026179675,-0.0064639520494791,-0.006774187314401511,-0.006141339314856049,-0.004609726496813072,-0.002494251942976973,-0.0002589664102718594,0.001664485251867741,0.003026641852071889,0.003810471575577687,0.004172300434595544,0.004319348129989636,0.004393985179306004,0.004419804772403631,0.004324221170981232,0.004010954624309273,0.0034341385520995807,0.0026312611481779883,0.0016984841177797635,0.0007255683452563172,-0.0002665993316338046,-0.0013393003812524086,-0.0025793222698769,-0.003997317904572295,-0.005444380392375468,-0.006611032417123533,-0.00712895146339273,-0.0067320438036733675,-0.005392239476600934,-0.0033550060374714806,-0.0010536140748434468,0.0010551134287072588,0.0026539436569224754,0.0036532135646444213,0.0041695623905345786,0.004414720748241343,0.004556825784945737,0.004629525517556274,0.004537336796176614,0.004149642064421031,0.0034205775108514204,0.002453010999112229,0.0014580103601056645,0.0006292452614989823,1.2011319834572886e-05,-0.0005416683448958558,-0.0012886966510662278,-0.002419693410074625,-0.0038954541127103545,-0.005400788537068198,-0.006456941870527073,-0.0066394177204830394,-0.005783085682213994,-0.004062442798381373,-0.0019076940641785097,0.000189627690232035,0.001871900380658802,0.0030135978267869846,0.0036898087314788932,0.004057131634830642,0.004229639660847633,0.00422128530630383,0.0039757854325922284,0.00344858265665614,0.002676320121697693,0.0017828751019031681,0.0009167605488305569,0.0001627768886781443,-0.0005095568356587356,-0.0012197252759499468,-0.002080591390531618,-0.0030891212774654046,-0.004074204678712649,-0.0047435421059195395,-0.004813508483065275,-0.004153093328673344,-0.002859951751232295,-0.0012241456233362316,0.0003991564989733236,0.0017346731560609655,0.0026705674819149307,0.0032441299021174833,0.003555430991952293,0.0036756783494108197,0.003610355177457137,0.0033301562873982744,0.002831150386377354,0.0021674180445063022,0.0014260902010007478,0.0006638647328291963,-0.00014188640287176462,-0.001080243720314171,-0.002227011361840053,-0.003543253998594941,-0.004821607551355765,-0.005729158719718012,-0.005938619944587409,-0.005281120195862864,-0.0038347709850260203,-0.0018992194729705839,0.00012629891423864557,0.0018918533630002468,0.0031983682512118877,0.0040153928093545855,0.004427766091151426,0.004554005033552392,0.004480341859398491,0.004235572438868547,0.0038082663604411763,0.003188904912776215,0.0024085381845115245,0.001545944072346707,0.0006915674184602876,-0.00011369044871985106,-0.0009203460839127736,-0.001849327168539602,-0.0030021616455306404,-0.004349667842950022,-0.005674677130415311,-0.006620418324799128,-0.006832089118403344,-0.006118678663548106,-0.004547096297660603,-0.002420084323399528,-0.0001553672621601655,0.0018665184094455315,0.0034117266692614643,0.004419750616077031,0.004955298073795437,0.005127984584863075,0.0050281385461538345,0.00470615362620814,0.004191190794521443,0.003522627877941357,0.002766009161180018,0.00200044470135572,0.0012834517126888885,0.0006125145923343148,-9.213484841269368e-05,-0.0009629883318356316,-0.002114922227693174,-0.003552659170937289,-0.005104911159988118,-0.006435719787270008,-0.007150087837509702,-0.006955931782248493,-0.00580219586618567,-0.00391595973948261,-0.0017137632874683192,0.0003667149394351314,0.002025109064515022,0.003169476110067874,0.0038793571270216787,0.004301727030161034,0.004549082720060339,0.004652784752695882,0.004582003309643532,0.004298870685077822,0.00380580299134023,0.0031551623572885004,0.002420533492226989,0.0016524795895286593,0.0008474632222918604,-5.137158716177193e-05,-0.001118875363229848,-0.0023897811161560432,-0.003800405094375357,-0.0051592822751482335,-0.0061732025489541435,-0.006536149231478018,-0.006054481849341236,-0.004750034014961116,-0.0028798353825827076,-0.000848973745099603,0.0009465685862429695,0.0022666765196728868,0.0030871466954342395,0.003547425961993829,0.003825563318325834,0.004018742215146202,0.0040977540025098165,0.003953522718269793,0.0034960596670250595,0.002736321269130825,0.0017959903184971906,0.0008390793100843784,-2.7708942940880095e-05,-0.0008155360870136123,-0.0016280113990488467,-0.002560234643911612,-0.0035865722522306675,-0.004514745543491318,-0.005045772254717439,-0.004913320261090728,-0.004024619955895836,-0.002521955149670495,-0.0007308670916575578,0.000972977955404261,0.0023042740781069556,0.0031470158238493876,0.0035457175540540525,0.003632112757240744,0.003537593202741868,0.0033362743642241996,0.003035925176784007,0.002604368513397265,0.002004616014028213,0.0012178427588609647,0.00025063515541314516,-0.0008630854823892897,-0.0020546662151574423,-0.0032091610270169324,-0.004164296263499829,-0.004736063784182656,-0.004771920145462697,-0.004210505455441739,-0.00311544726891742,-0.0016615764378595046,-7.926975637726882e-05,0.0014127455980183655,0.0026522207299273775,0.003541640300018008,0.00403275123004146,0.004113475932858235,0.0038133284635314705,0.0032193774391117043,0.0024768830264858023,0.0017529867508482688,0.0011678942520859164,0.0007281254994504485,0.0003073056031080556,-0.0002998616863808189,-0.0012656257569414974,-0.0026117940168653886,-0.004150415653880157,-0.005522177957098478,-0.006323732086897482,-0.006266974398152573,-0.005293378749746346,-0.003589327739546814,-0.001502092291301453,0.0005928561722060367,0.002405479766517741,0.0037811278931675707,0.004684805527250573,0.005151141243193895,0.005238593141315436,0.005009381005072238,0.004531356541844675,0.0038829598583256706,0.003146112789041107,0.0023873057703564806,0.001638836072634868,0.0008913086488767379,0.00010002410742421873,-0.0007975549280653701,-0.0018549146233012876,-0.0030807044142695276,-0.0044010333541728,-0.005638896951454435,-0.0065351118345366435,-0.006821392301567817,-0.006325079563182168,-0.005056505749468388,-0.0032285594230324834,-0.0011904612177632526,0.0006956230533809167,0.002176367515587121,0.003172430995507459,0.0037635927375794234,0.0041099578830606906,0.004352803117258882,0.004543392080922367,0.004630246363973893,0.004504651250172479,0.004075655796077189,0.0033328115143435584,0.002362771008679288,0.0013103397782257852,0.00030431412526662647,-0.0006102944045492135,-0.001490681359375716,-0.0024452654272345297,-0.0035331762670918043,-0.004670919218309028,-0.0056111790846312595,-0.006024561804349246,-0.005652449318781223,-0.004448071409545534,-0.00262252290786482,-0.0005673832981822867,0.0013015973994206854,0.0026942948296220194,0.0035176715695174757,0.0038489549592384646,0.003844451327539254,0.0036442316493262815,0.0033223455514907454,0.002895792123958507,0.002367239207833522,0.001760011063705129,0.001117387132353266,0.00046970974710349757,-0.0002002659903408785,-0.0009584353001671004,-0.001872023978611807,-0.0029335919652573065,-0.004003208033976673,-0.004815495208651304,-0.005066026772469645,-0.004543927167666145,-0.0032441376601722964,-0.001396938650378771,0.0006059617704721978,0.0023546327742144115,0.00356405384081323,0.004151619105139359,0.004221443756862869,0.00397627197154639,0.003609512015550687,0.003230323437017517,0.0028481143949403275,0.0024076083659863878,0.0018419044325437813,0.0011096709910083204,0.00020141919785741973,-0.0008745938327648216,-0.0021008582772846012,-0.0034333081540068745,-0.004762581220507709,-0.005885210864763717,-0.006524057540510905,-0.006414263487250045,-0.005426645854665928,-0.003663581164167559,-0.0014625380140548244,0.0007130512585639667,0.0024504734489763243,0.0035422020805801454,0.004036366869202752,0.0041603048668900616,0.004167369563806245,0.00419769917622941,0.004227326003053089,0.004121006885967278,0.0037429382725087767,0.0030531895273265804,0.002136126787890114,0.0011519443913145875,0.000245165210152181,-0.0005355238532967736,-0.0012593843824695574,-0.002061669647742748,-0.0030420756764600403,-0.0041689191367098605,-0.005246891825771098,-0.00597469743945696,-0.006068466908911608,-0.005387891099849116,-0.004000170984275193,-0.002153396489252617,-0.00018074464290530467,0.0016119546322119712,0.0030252327608576955,0.003988527348911249,0.0045334136649128574,0.004741895242078036,0.00469549348839546,0.004443170092997021,0.00399665569837666,0.003352316901062626,0.0025273743270574057,0.0015871703802090862,0.0006389250959569633,-0.000215166731687899,-0.0009420857754026081,-0.001613782116084051,-0.0023765277501657644,-0.0033545778351723003,-0.004536359775787984,-0.005714847410208539,-0.006532688067875721,-0.006624413055094949,-0.00578705708755333,-0.004087701430201982,-0.0018497035482742238,0.00047233893860836485,0.0024607370996091093,0.0038648387025409523,0.004644628195665152,0.004928812805434946,0.004923131636006536,0.0048125210804381285,0.004690982110656925,0.004539341597225749,0.00425706740598848,0.0037352742592517765,0.002935750021918684,0.0019299963021256585,0.000868696982569372,-0.00010657439982315932,-0.0009560563625117722,-0.0017743357515080929,-0.0027296951139851467,-0.003935253965791552,-0.0053257462571860426,-0.0066209564029519555,-0.007413496998008073,-0.007346639865553421,-0.006289688597042278,-0.004412777201627126,-0.0021183417098829373,0.00013029454803843775,0.0019862977872489944,0.0033117185458082445,0.004153306006234737,0.00463955020607379,0.004873050708497055,0.0048798710083123725,0.004631988108162727,0.004111739584656389,0.0033653419956284954,0.0025052753586344086,0.0016578446710668246,0.0008897536823258765,0.00016411679761131625,-0.000637769374243573,-0.001630484795848359,-0.0028176626076058557,-0.004028917209219189,-0.0049497683183953286,-0.005244584422823946,-0.004715408428939054,-0.003411044944140826,-0.0016233722393774502,0.0002295023220955214,0.001770185181636482,0.002791666963118839,0.0032899320590643634,0.0033986827753412197,0.0032786119383719026,0.0030310802916862323,0.0026800730855651043,0.002215239613574454,0.0016472317690671995,0.0010237141041352226,0.00039219945886549755,-0.0002549381141875956,-0.0009964700798178456,-0.0019277335211828085,-0.003059172831560213,-0.004236521241912886,-0.005149807550807652,-0.005446742407868353,-0.004896939934778159,-0.0035150748690006006,-0.0015715886751728673,0.0005146863166275433,0.0023410233491324285,0.0036555863918369155,0.004401829736225433,0.004668579592838759,0.004592863123229565,0.00427915391267957,0.0037750292536355623,0.0030980493898048805,0.002273616076447461,0.0013431474592461201,0.00033586189953565323,-0.0007617700754764966,-0.0019932223145732665,-0.003362223469751695,-0.004746387516589228,-0.005865764114597931,-0.006356018466724463,-0.005929067985301529,-0.0045367427859687864,-0.0024356241651793844,-0.00010203086144816077,0.001964598102795841,0.0034425480493796875,0.004282662773628329,0.004652249697472405,0.004774511899813885,0.004769852096455095,0.004597144182648874,0.004123181302541835,0.0032624941887086645,0.002083528575301477,0.0008013261754819556,-0.0003436563214378396,-0.0012384243811642479,-0.001971303671284287,-0.002764679456354016,-0.0038003705816918943,-0.005049153610304067,-0.006220538417087678,-0.0068752120862078875,-0.006639442007579632,-0.0053970665447251685,-0.003351802172410101,-0.0009353641874411987,0.0013740109564809818,0.0032203767116023027,0.0044517883772135815,0.00510174685422946,0.005307432153583931,0.005218016442585342,0.004933645004487661,0.004491229028250988,0.003890068799440192,0.0031340564602130457,0.0022611477998956695,0.001338722014261958,0.00042508792993598026,-0.0004767255606106999,-0.0014332182718080138,-0.0025356672245476493,-0.003807393339099389,-0.005116637864736508,-0.00616339884655482,-0.006574978948281155,-0.006076492029969214,-0.00464469026101082,-0.002551485624959573,-0.00026450762572970544,0.001743566531232716,0.003173482888260452,0.003974753516138857,0.004291570917116571,0.004327069014960387,0.004213352432247417,0.003960174540694762,0.0034994080721210017,0.0027812254006930976,0.0018481318517716825,0.0008321539478945176,-0.0001234075844977208,-0.0009594017086232916,-0.0017375634105460712,-0.002580638562461714,-0.0035483754485106838,-0.004534709000272526,-0.005265664418711687,-0.005413476018016247,-0.0047642323528501755,-0.003339544981864496,-0.0014023276089875983,0.000650532289634207,0.0024416503200164375,0.0037304329765962016,0.004447378705147718,0.004653495419458888,0.004469436866333913,0.004019346524157249,0.003407802796461226,0.0027185956962077137,0.0020122490154011598,0.0013108718269896201,0.0005820566380875529,-0.000252957522398516,-0.001271924167413963,-0.0024792493844221905,-0.003749560929243602,-0.004830239337507984,-0.005417475429888373,-0.00527689040922181,-0.004349502544867417,-0.002788245257446147,-0.0009072305959630498,0.00092877922058233,0.002421021189714733,0.003410166803587375,0.0038845919690037316,0.003934833554923831,0.003688010455890342,0.003257515510694804,0.002725152592332764,0.002147951675190885,0.0015671961386925317,0.0010022437714948258,0.0004316711926321289,-0.0002166681860304103,-0.0010428643632891784,-0.0021149463615745667,-0.0033965767058738872,-0.004706072264040594,-0.005742646987133713,-0.006182486098728946,-0.005806415853902485,-0.004597750087051242,-0.0027601495443141215,-0.0006461271992437844,0.0013681054841647566,0.0030033714121035417,0.004144838996701211,0.004836142010428154,0.005212476341666357,0.005407772081433634,0.005479375733747214,0.005384552419756692,0.005018146443655071,0.004289690042426074,0.003196500867295898,0.0018494076144247506,0.0004320354671131177,-0.0008872576226102854,-0.0020398840124128534,-0.0030825513835058146,-0.0041390532753266,-0.005284874054021784,-0.00644214669492784,-0.007355375356084101,-0.0076772977759770895,-0.0071305891639378335,-0.005662012248021649,-0.0035025365603972756,-0.0010946535189051512,0.0010803992723587166,0.0026892419074326553,0.0036545565491800758,0.0041355515694249945,0.0043985285932495125,0.004651448126657004,0.004932467866249913,0.005109954761898921,0.004987545871152552,0.004447933899327533,0.0035475104365258942,0.0025030891308159987,0.0015746748412146516,0.0009096121909312625,0.0004402069945507272,-9.647561163377526e-05,-0.0010123974533079476,-0.002465671620881524,-0.004312966318072781,-0.006110488523316244,-0.007281074836891058,-0.007371426764230205,-0.006267095617440261,-0.004250352578704228,-0.001870955977150111,0.00029758184442412665,0.0018853343839213684,0.0028249073275669334,0.003289477754347791,0.00352690403047829,0.003696012527284827,0.003796628552995172,0.003719463027394612,0.0033663014745491902,0.0027509690263147458,0.0020106045636229396,0.0013206974634566578,0.000773715498922086,0.00030701922889603435,-0.0002649377059231832,-0.0011262357890711636,-0.0023159649828593176,-0.0036547556578178553,-0.004791224658233153,-0.005347644616779558,-0.005086898569351425,-0.004013660367354938,-0.0023637915333249134,-0.0004980837941224204,0.001237851126530299,0.002618588542474031,0.003568495070584478,0.004119661563717377,0.004337242341217952,0.004261649876214019,0.0038992472017360556,0.0032578334176620967,0.002391231072653153,0.0014097993692694809,0.0004380294293186925,-0.0004578101486408107,-0.0013184107660197419,-0.002267866042862509,-0.0034122413457502295,-0.0047123903129093255,-0.005916526387720205,-0.006617014375392664,-0.006423860902778992,-0.005167130550760674,-0.00300887688173838,-0.00039125069733100446,0.0021538328332325984,0.004222084384992027,0.0056558339361637115,0.006506955333498738,0.0068894588282213225,0.006836820882550889,0.006268501932441783,0.0050876911214464485,0.0033346131586587465,0.00127397770465074,-0.0006657332297878025,-0.0020836634724603004,-0.00281708065291828,-0.0030355003819798982,-0.0031479516298424507,-0.0035661965525342855,-0.004456227759306364,-0.005620594392055093,-0.00658010995182479,-0.006810569997276382,-0.006004590296849628,-0.004219190941263927,-0.001839370952107029,0.0006074582818471346,0.0026751637425212454,0.00414386127913639,0.005028854931033042,0.005478114710608191,0.005638102367365644,0.0055701123927552176,0.005254856063462517,0.004662464077307507,0.0038256217052428767,0.002857565599364908,0.0018985487097926707,0.0010255779849478058,0.0001888467213667091,-0.0007724899540048433,-0.002027697048112034,-0.003613536261756295,-0.005338131356466184,-0.006800414223708881,-0.007536214165684091,-0.007225924064209466,-0.005853929849442781,-0.0037297972994758954,-0.0013576346236088218,0.0007744005143351336,0.0023721012747821655,0.0033956519179197515,0.003990225565446904,0.004345598696989238,0.00457298605200993,0.004663327040142605,0.004533610632925848,0.004113527891531561,0.003406277145268606,0.002483740004348346,0.0014277661562692797,0.0002700600135524074,-0.0010152189583002998,-0.0024510033100935934,-0.003966667658968987,-0.005344588897415507,-0.006255830829487916,-0.006383360561460116,-0.005572666798498729,-0.003924974157081018,-0.0017765263690316473,0.0004273699353731194,0.00229494573713779,0.0036029750955314686,0.004316382997447834,0.004525566822712148,0.004358147491972131,0.003922013063019954,0.0032995033643452676,0.002569772967741753,0.001819483560550786,0.0011202785082690336,0.00048714269273551693,-0.00014479147841582542,-0.0008945436613880763,-0.0018623525911046325,-0.003045072544901176,-0.004288558513236105,-0.005310224426396388,-0.005789700282149911,-0.005489352545394285,-0.0043494957644702945,-0.0025161396251335505,-0.0002946601568383425,0.0019417512522583308,0.003845980669931466,0.005162085287972004,0.005754604578249644,0.005613299747186427,0.004846461436461018,0.003664595409811892,0.002344717125582948,0.0011668033206211977,0.00033054894893922663,-0.00011848904948322237,-0.0003148537161597504,-0.0005246770104966023,-0.0010278444195554576,-0.001974297790023277,-0.00328200223152146,-0.00463556047537747,-0.005600445494749702,-0.0058073499972737365,-0.005117841183779793,-0.0036855728905807288,-0.0018808301303438078,-0.00012117950970315665,0.0012990790459786812,0.0022946377240092236,0.002959810272087969,0.0034592067381266035,0.003908989975737657,0.004310962438878389,0.004563558606714385,0.004531049002301762,0.0041259774838044334,0.0033593445363804047,0.0023348488693683118,0.0011948519631215621,5.101795151233479e-05,-0.0010599104713814884,-0.0021683492390884257,-0.0033137961987999114,-0.004467919925856827,-0.005485559186928449,-0.006120649576632266,-0.006111377632758858,-0.005299240514539743,-0.0037228733090079883,-0.0016352821055662693,0.0005695712036390064,0.00248834882195812,0.0038367241331313806,0.004518387263478369,0.004612902895907245,0.004302374812476779,0.003781939066834851,0.0031962046358136017,0.0026191538083869077,0.002066753761569717,0.001517629413493695,0.0009244935699632178,0.00021922175913627003,-0.0006704323927010803,-0.001778997220917539,-0.0030463940429932977,-0.004281434938104133,-0.005185552138504888,-0.005449163139992389,-0.004886305006418394,-0.0035384065558356176,-0.001683999551829705,0.0002601868744280731,0.0018996686880349343,0.003002624756905224,0.003552423241230539,0.0036956266216761516,0.0036258587751416666,0.003474155411734221,0.003263778601559886,0.0029411940644048064,0.002445730649373646,0.0017616844960438415,0.0009199027046495238,-3.873406040769763e-05,-0.0010942230548615954,-0.002236030046721982,-0.0034118215557881167,-0.004478819417615845,-0.005208205164827747,-0.005359789302648735,-0.004792752392812986,-0.003547193011367377,-0.0018450190843981834,-8.374268272753904e-06,0.001656630223713334,0.002948210431414378,0.003792979756057171,0.0042133107532233965,0.00427436099549596,0.004046097132654305,0.003593616508249137,0.002985506772220695,0.0022991224302163446,0.0016071446478211505,0.0009469542434104377,0.0002927458412210767,-0.0004427891966441986,-0.0013627263124998369,-0.0025089786783856955,-0.003793443266948625,-0.00498310173926079,-0.0057623624536827876,-0.005853044214677821,-0.005134767047100544,-0.003702800500264437,-0.0018334077875216859,0.00012250413309391773,0.0018610708753073045,0.003205507869105018,0.004116666005672806,0.004644492080750546,0.004857935298910847,0.0047959915862802556,0.004464792259604831,0.003873943690796801,0.003077713405689563,0.002182073833567961,0.0013028501377742414,0.0004981845090967663,-0.00027680045024014915,-0.0011528193273211242,-0.0022630524466367733,-0.0036332438673576705,-0.005108244310416883,-0.006365765058450458,-0.007024401394400569,-0.006800307160164904,-0.005635552641315135,-0.0037319057918461618,-0.0014729945202912073,0.0007228359236607043,0.002543140604921152,0.0038512366533914794,0.00466726941760309,0.005091508581212957,0.005223275513377472,0.005116809959064115,0.004784199884625008,0.004228028249379749,0.003475607910301637,0.002591751522938989,0.0016612697661701208,0.0007498436362954893,-0.00013348692696898013,-0.0010448429212379221,-0.002069323231437384,-0.0032493038121940744,-0.004512633247955242,-0.005646960381953501,-0.0063497659494428935,-0.006343163402384933,-0.005500893237591585,-0.003920971712719477,-0.0019035714159962459,0.00015560197464195683,0.0019029545619482927,0.003131351763576272,0.003810770178335486,0.004045836184211048,0.0039948730828283235,0.0037954608208231712,0.0035263444815671024,0.003207759475129867,0.0028212615265953756,0.002328266361796913,0.001680355770551259,0.0008293356297747416,-0.00025175395383239107,-0.0015354992620488532,-0.0029085175647449923,-0.004163907208033319,-0.005035776465010159,-0.005275504911153474,-0.004744964905879714,-0.0034858395310834204,