0.0001355413678640742,-0.00022154330059908104,-0.000674594398922418,-0.0011933713999721816,-0.0016736751117892809,-0.00197823458720766,-0.0019996445001416617,-0.001710922346189846,-0.0011783437805272944,-0.000533522264025854,7.775661633840653e-05,0.0005446701013790692,0.0008190103973248139,0.0009146974407115128,0.0008848174257822545,0.0007892814488445398,0.0006673444190749391,0.0005247950089789398,0.00033825107747108025,7.251102644929971e-05,-0.00029603583277583684,-0.0007570525165254798,-0.0012521221755138418,-0.001676661064964445,-0.0019035011364055218,-0.001825237158798434,-0.0014001643387785059,-0.000679422525800959,0.00020159730968053596,0.001067371663184783,0.0017624828026027851,0.002199457152793786,0.0023729764416696984,0.002338429270398245,0.0021712815816205258,0.001930568397071513,0.0016431278372754017,0.0013110934033046054,0.0009317710502454077,0.0005131125093556276,7.31087291349653e-05,-0.0003750827164867819,-0.000837956308107181,-0.001340402202942265,-0.0019033292023222944,-0.0025110678841909974,-0.0030893962843055456,-0.003512097964333133,-0.003639057145506594,-0.0033705179828600884,-0.0026919045451607258,-0.0016880932884794338,-0.0005213892323421825,0.0006167114631518064,0.001561111527104915,0.002216155681952865,0.0025711564386370804,0.0026839444307769403,0.002642046468584471,0.002521506669871046,0.0023624337585445446,0.002168555185306117,0.001924541973910306,0.0016182193404379519,0.0012559244288667787,0.000864396995195792,0.00047920667261146894,0.00012666676515858699,-0.00018986222146746986,-0.0004912941198857714,-0.0008121696775756449,-0.0011850524433943467,-0.0016261829929439203,-0.0021231819606466907,-0.002623995812811493,-0.0030323653006696983,-0.003221517341669159,-0.0030728236607592703,-0.0025286508492852245,-0.0016324329016065065,-0.0005298257285435053,0.000575460417424899,0.001491940853397658,0.0021026977249304474,0.00239061817845478,0.0024186326230306934,0.002281491875078514,0.0020582930094956023,0.0017890708551958812,0.001480207865139499,0.0011258398770937414,0.0007267254325034479,0.00029522745884659176,-0.00015202748932169926,-0.0006024424786469572,-0.0010446555854245311,-0.0014523576726904095,-0.0017670654834300514,-0.0018999894309291877,-0.00176417170926486,-0.0013253897509543624,-0.0006410488496980535,0.00014227324452877995,0.0008386084071616279,0.0012967664029909353,0.0014609494319674878,0.0013865869065238013,0.0012025740376069942,0.001037258688875962,0.0009445468070706706,0.000870120592760483,0.0006812065525158182,0.00025004681484954534,-0.0004528042016030925,-0.0013114058447131168,-0.00209740414047291,-0.0025707025405739777,-0.0025938043376311764,-0.0021956435736965813,-0.0015493128636114982,-0.0008778705877146078,-0.00034248690667013277,2.592520260879898e-05,0.00031816238080281363,0.0006714007069047571,0.0011718385007129977,0.0017889667494403196,0.0023762376906639833,0.0027376039665320383,0.0027255663071798653,0.002320007289743661,0.0016460768286580515,0.0009200494774023768,0.0003494011873319777,3.73750645061852e-05,-6.0525698336415246e-05,-0.00010829737235476446,-0.00030542302159886113,-0.0007875040853162719,-0.0015553112632901555,-0.002461432559219108,-0.00326003090559464,-0.003700196584266175,-0.0036241015588940745,-0.003026688969343877,-0.002050224594515754,-0.0009191313796029451,0.00014983637861450106,0.0010179321036192922,0.001646865267680808,0.002073556459167041,0.00236052054914865,0.0025510342017335385,0.0026479577499659997,0.0026193253853602464,0.0024228517588637853,0.0020376954222335146,0.0014911465917573634,0.0008675734579572875,0.0002897094141312718,-0.00012745353808477642,-0.0003336109709684383,-0.0003812101742859085,-0.0004162294757693073,-0.0006136048952351907,-0.001081066224421184,-0.0017808801785002622,-0.0025197239269247242,-0.0030250605111763695,-0.003075596341006449,-0.002615261557608665,-0.0017837548991670245,-0.0008442337853546613,-5.030957997898119e-05,0.00047041676603024355,0.0007523112893472648,0.0009345574619324801,0.0011542513559138698,0.0014586743040597874,0.0017865724338947825,0.0020199248718996074,0.0020638021580297494,0.001900126164483023,0.0015849812404910943,0.001199084042521342,0.0007904638114786038,0.0003504582473910062,-0.00016059371321870664,-0.0007569222894233714,-0.001382036931397187,-0.0019105581900045001,-0.00220106821094854,-0.0021675898323077745,-0.0018231092745683317,-0.0012672648527469045,-0.0006286219878331124,-2.1893676316827888e-06,0.0005763297846133177,0.0011063739912061288,0.0015721877345575093,0.0019097233314693991,0.0020224735226975757,0.0018414118529948558,0.0013873861478825998,0.0007850986978849134,0.00020727996798235193,-0.00022197645454003715,-0.000501214211248383,-0.0007486010439660432,-0.001116634128147758,-0.0016749319135041284,-0.0023353806648825936,-0.0028701103382242823,-0.0030174236930445414,-0.002618901100778896,-0.0017123016029661768,-0.000527970269439774,0.0006124862465782617,0.0014439627519319555,0.001874006306558496,0.0020043579101989427,0.0020467811229737142,0.002183206806764153,0.0024532612942719852,0.0027344046638260273,0.002821580277607468,0.00255292962548588,0.0019046382344556924,0.0010030089311468305,5.472117709072141e-05,-0.0007577703606242661,-0.0013548249931703046,-0.0017729652893541264,-0.0021143945255828306,-0.002468319126663438,-0.0028490612969274388,-0.003179945267886821,-0.0033253222427421874,-0.0031520239732405393,-0.002592802012027546,-0.001686159670512062,-0.0005759947349650968,0.0005312063822323548,0.0014368179832090378,0.0020195452932842976,0.0022727301184456124,0.002291421857218007,0.0022153835243676682,0.0021567448642582435,0.002148637988677039,0.0021392462483422092,0.0020312646193398464,0.0017435807847363239,0.001261973852553303,0.0006527081164190301,3.252652054545934e-05,-0.0004888492081972638,-0.000862688728097279,-0.0011214200282439796,-0.0013522551497696838,-0.0016375251327370418,-0.001994675447349767,-0.002350227266942682,-0.002563978660841893,-0.0024926388065985884,-0.002060962668523387,-0.0013047509270066033,-0.0003653090165168687,0.0005606618389207793,0.0012923183800445292,0.0017271116720645506,0.0018696640952876194,0.0018151018323188646,0.0016927578502905396,0.0015954742967420519,0.001530885323426333,0.0014230305791104662,0.0011648109110421593,0.0006901374544994145,2.2158783338368116e-05,-0.000728965743120391,-0.001411771284668764,-0.0018915077488387082,-0.002090034245422314,-0.001996489240652803,-0.0016567414915976825,-0.0011552302073188545,-0.0005962385902697643,-8.341289490308837e-05,0.00030493818724836367,0.0005407688365537957,0.0006591136033656016,0.0007446784654414518,0.0008887824524659897,0.0011335882404278986,0.0014365410285448906,0.001682886705114558,0.0017453127723833504,0.001556036026288743,0.0011451741887462592,0.0006208937551060454,0.0001055682985193773,-0.0003306479285901707,-0.0006989701722538704,-0.001069299987487541,-0.001511590321726177,-0.002035275626421969,-0.002559543860787737,-0.0029305936089706495,-0.002979688159798305,-0.002596952546919301,-0.0017870279558737183,-0.0006787176417776616,0.0005178027410218819,0.0015849255578740716,0.002364904034417765,0.0027901709500447805,0.0028727171182508443,0.0026733015331730768,0.002276117281923837,0.0017788779959805115,0.0012880526199141882,0.0009021528827345614,0.0006782395675862177,0.0005976503974403636,0.0005580289247798902,0.00040851064581593063,1.8680320573839695e-05,-0.0006517317853432577,-0.001519390363412775,-0.002398845172224842,-0.003069581113525175,-0.003357867540971813,-0.0031978634605797,-0.002647848595006721,-0.0018578937395288258,-0.0010060225446939658,-0.00023301339402906514,0.0003949597263713817,0.0008827644334585053,0.0012713942069590089,0.00159596150213958,0.0018592892145135416,0.0020306703539577885,0.002065951954279243,0.0019378186487402174,0.001662400136602725,0.0013074042332835408,0.0009708645425976293,0.0007332748076021617,0.0006057567502047714,0.0005083255513359986,0.0003016930907724279,-0.00013480767829204387,-0.0008190554013773094,-0.0016266690063890467,-0.0023260066027390677,-0.0026749857876794845,-0.002530570821996793,-0.001915109305091855,-0.0010093219948039303,-8.025376647778507e-05,0.000620001991715813,0.0009432108111018158,0.0008908786760824033,0.0006037574689037225,0.00029927884661407576,0.00017801255686987743,0.00033406663344306324,0.0007084565259932467,0.0011112128311690911,0.0013078314720193376,0.0011320884495590955,0.0005702505743514804,-0.00022615905856191882,-0.0010054888597580984,-0.0015249526994621054,-0.0016479880466731623,-0.001383769330872755,-0.0008564491374402558,-0.00022997227455081627,0.00036480046227275456,0.0008617309035039832,0.001241578512012676,0.0014901208013312702,0.0015718387791849408,0.0014435780129243927,0.0010986802276740548,0.0006046266862645019,9.723993279864849e-05,-0.0002771521839237713,-0.00044249788653057576,-0.0004458981459425455,-0.00044201296291809686,-0.0006077250309260089,-0.0010312033000959666,-0.001640915208285661,-0.002221053557254513,-0.0025103474232059395,-0.0023317380512573914,-0.001681659018324481,-0.0007311355906502997,0.0002583765868339583,0.001055195600427673,0.001549612400896084,0.001775646567993869,0.0018606854644481836,0.0019369056787398287,0.0020626482489065636,0.0021919170888493474,0.0022031988553917075,0.001968274379785009,0.00142262918344072,0.0006015505187083096,-0.00037160621850121714,-0.001330668909712323,-0.002116591880559204,-0.002610646192279554,-0.0027490644594027674,-0.0025298918370817913,-0.0020178273111181866,-0.0013387541740612703,-0.0006504858677352993,-8.962609162059586e-05,0.0002825300813184147,0.0005007523508984216,0.000664240929331732,0.0008678863708774918,0.001138843924160062,0.0014186467751026706,0.0016007986918848847,0.001597594332457214,0.001392595393767577,0.001046990665749991,0.0006592086868796371,0.00030595303778615656,1.8298747787123164e-06,-0.00029837105948099686,-0.0006558707758253247,-0.001088031102051495,-0.0015301233070984547,-0.001848224780606652,-0.0019039343081203258,-0.0016365885053690587,-0.0011113801490617056,-0.0004979996804778395,1.3179421413342363e-05,0.0003090966170960846,0.000406187099926877,0.00042426642951115144,0.0004998738209129319,0.0006965778257956524,0.0009709115097628453,0.001212924539670538,0.0013272721198356835,0.0012930407793812053,0.001159047446492311,0.0009823043681342419,0.0007623539305297339,0.00042939979580669833,-9.519355084244019e-05,-0.0008040606337070834,-0.0015459688322291964,-0.002060202185586585,-0.002099975737143032,-0.0015776077418261163,-0.0006390802701523564,0.0003882357912322371,0.001152538936548853,0.0014483263714250437,0.0012999049461631953,0.000913730050060019,0.0005393331026855451,0.0003303478361384375,0.00028488831886103747,0.000284287789056239,0.0001876697497292532,-8.32506244389697e-05,-0.000512606596672978,-0.0010126102103882558,-0.001469408814454516,-0.001781231443567067,-0.0018778100124425706,-0.0017289257292405714,-0.001351130458020094,-0.0008094444880437761,-0.00020300885786676565,0.0003680016440717902,0.0008393443506795671,0.001200192019388988,0.0014788164342669752,0.001706561383707506,0.0018853303132114418,0.001980198422806289,0.0019407977876182672,0.0017366759020692683,0.0013841087923456372,0.0009472695838034415,0.0005107330342940942,0.00013619098834634455,-0.0001728975071079718,-0.00047537395712677136,-0.0008564306868033047,-0.0013669099979969684,-0.001972426118725842,-0.0025460806336504082,-0.002914490042348109,-0.0029344631297403096,-0.0025593183163864397,-0.0018610822419291425,-0.0010002287447222428,-0.00016055398282599585,0.0005196807404829048,0.0009904141401582021,0.0012891274484199727,0.001500011586936901,0.0016965292645150863,0.0018998328643583904,0.002074812046939841,0.0021608078641201078,0.002112676909461867,0.001924953815237069,0.001627226610159769,0.0012588814644730083,0.0008420744150644651,0.00036938816811532126,-0.00018711825625108367,-0.0008488376106261109,-0.0015966436288403333,-0.0023465254726942916,-0.0029522645725858134,-0.003244704064559795,-0.003099197122418824,-0.002502073271152525,-0.0015778488804926044,-0.0005530176355640149,0.0003334905321559986,0.0009288357158604692,0.0012197618027769506,0.0013117409513542725,0.0013490643978364082,0.0014262077455464849,0.0015426917787375303,0.0016217885310753494,0.0015708139131379263,0.0013375875257619785,0.0009290777882576553,0.0003928972792408346,-0.00020919660101012864,-0.0008080225280068287,-0.0013146927292692762,-0.0016176836592452842,-0.0016154414363843356,-0.001276985274487957,-0.0006872268532453726,-3.155173283916966e-05,0.0004859723684850225,0.0007440702959761064,0.0007579344100768362,0.000648751975742954,0.000553122131693431,0.0005380887765261796,0.0005780213697040943,0.0005991286575556739,0.0005480264373100444,0.00042925375726821395,0.00028654963354029605,0.00014750515775484416,-2.1555643847500413e-05,-0.0003102633509438689,-0.000802554930431095,-0.0014929799337347607,-0.002236715093512839,-0.0027766846883339113,-0.0028484106012255242,-0.0023133047140520935,-0.0012461699859883965,7.757463263760329e-05,0.0012942658734470189,0.002106798099119669,0.0024018140753267626,0.002272155567314566,0.001940431652227703,0.001631585332625372,0.0014651747348207048,0.0014208339322803129,0.0013850323934145436,0.001241456570736636,0.0009472286087440129,0.0005518751228461702,0.00015403263818344895,-0.00017113767404070804,-0.00042486461276574315,-0.0006836095425954976,-0.0010447825203179768,-0.001553804993330341,-0.0021577474506513754,-0.0027135222771958257,-0.0030461971111037686,-0.0030257604950697735,-0.002622955284427727,-0.0019180406581776155,-0.0010610813875244053,-0.0002055960971299813,0.0005506878359454715,0.001188213337571261,0.0017406678607332447,0.0022393529951577435,0.0026632363793166226,0.0029292633659693764,0.002932756544909031,0.0026151207461122257,0.002016634198054524,0.001278314955011075,0.0005853699580270948,7.926268155674342e-05,-0.00021366871002016959,-0.000394218962493373,-0.0006301957959577546,-0.0010520430655846613,-0.0016609969562438266,-0.0023046432576995855,-0.002739332021601107,-0.002749329783106166,-0.0022591513443984213,-0.0013786536276807044,-0.0003574694642181173,0.0005261488992711575,0.0010840969585546147,0.0012859291124415184,0.0012456123338629812,0.0011405652683608076,0.001109330300034701,0.0011816806905668227,0.0012739485471087119,0.0012458055989549577,0.000983457921177307,0.0004641562075981887,-0.00022910977577103207,-0.00094529775521851,-0.0015303740708228213,-0.001882761577238237,-0.001972168287693115,-0.0018203186000215778,-0.0014665205437619777,-0.0009475356605403931,-0.00030508585505797215,0.0003920952506622691,0.0010398441711481406,0.0015222676841129472,0.001758951011450012,0.0017452698318870276,0.0015570366844417389,0.0013138684345153353,0.0011215514849694094,0.0010238631023783097,0.0009852268739939762,0.0009081066068616354,0.0006757186874203885,0.00020491012381805085,-0.0005080844465019298,-0.0013669390418404276,-0.0021929356789370516,-0.0027808327310854812,-0.0029736465068506556,-0.002723466683115686,-0.0021078861870729953,-0.00129234147659216,-0.00045773994154540585,0.0002675880484048427,0.000836552044904843,0.00126388219865298,0.0015807682671953752,0.0017993329069919154,0.001910153746442692,0.0019074578276587208,0.001813775288043621,0.0016763551481224854,0.001531566855348541,0.0013626007527058922,0.001087050751833522,0.0005942967346407716,-0.00018138618706290224,-0.001193748168053354,-0.002267024416783379,-0.0031452878598294933,-0.003588383482144507,-0.003467973181855147,-0.002817307982167167,-0.0018132415047425752,-0.0007033643901169463,0.00028462016860378823,0.001011829592425191,0.0014525133629106606,0.001672932488779116,0.0017805231032446318,0.001867127854890204,0.001970276433509024,0.002067545653151774,0.002101499794224063,0.0020151704723784876,0.001773679292155082,0.0013620606973534198,0.0007723471810090804,4.380012667388848e-06,-0.0009079965108034248,-0.0018622439269169082,-0.0026802387727361595,-0.0031551165706637995,-0.0031402974080764695,-0.002631278440086932,-0.001784001213405738,-0.0008485319373547615,-5.189079297786606e-05,0.0005004924491797345,0.0008462568347440703,0.0011025142033662255,0.0013631031611830993,0.0016239262968205698,0.0017812644055504173,0.0016997019925347099,0.0013036396850967483,0.0006347700999261357,-0.00015745690903929896,-0.0008820102929874172,-0.0013856161916784154,-0.0015997473754126136,-0.001537161577199528,-0.0012546656156735233,-0.0008159691845409406,-0.00027889142472740437,0.0002940904154190825,0.000823346122907615,0.0012196799257343804,0.0014152423341086502,0.0013981412075352046,0.0012235168392771383,0.0009887843287405946,0.0007863525406322216,0.0006624811632531361,0.0006044701157609661,0.0005572006068092486,0.00045242482211937593,0.00023302635202609697,-0.00013332870481858657,-0.0006457852256372802,-0.0012630041518120402,-0.0019022493253762853,-0.0024537596038900853,-0.002809882842569356,-0.002894789211832248,-0.002678301696682932,-0.0021708483095288543,-0.0014127238217086211,-0.0004725139122391032,0.0005459368832304843,0.0015051940607655606,0.0022607510960801786,0.0027084176139055695,0.0028266183858361876,0.0026840747290735414,0.0024032996084609104,0.0020995854136210577,0.0018314093431721682,0.0015890575575073086,0.0013214754984466268,0.0009777314057495907,0.0005354881825591802,4.442528961992056e-06,-0.0005866445064879485,-0.0012013515202146492,-0.0017952053913566051,-0.0023093295059291256,-0.0026728452104127407,-0.002821917246412441,-0.0027270808460229863,-0.0024100757810453623,-0.001936765710501314,-0.0013893139050952738,-0.0008345023062339959,-0.0003056891461518604,0.0001946493966133683,0.0006768550131262182,0.0011419661308641267,0.0015675028417365912,0.001909573579085496,0.0021219944607789366,0.002182154256166034,0.0021057267191694562,0.0019365043692603796,0.0017141389977025044,0.0014404377031979906,0.0010698849344530734,0.0005368014783778738,-0.00019206846050496824,-0.0010690884172033924,-0.001951591412105349,-0.0026347343817734042,-0.0029196171948542714,-0.0026883365276895305,-0.0019562717432155784,-0.0008824369956549445,0.00026730055969901873,0.0011969629779959448,0.0016780278225852138,0.001635897991374677,0.0011862256817380759,0.0005929036650022537,0.00015332658181260944,5.898065349647236e-05,0.00030215389687815496,0.0006816858122426256,0.0009083112939463768,0.0007547765974446048,0.00017188203201197873,-0.0006877476833067819,-0.0015453057838516315,-0.002126261142183722,-0.0022759773612097277,-0.0020044819122683735,-0.00144779236464189,-0.0007800997568997999,-0.00013284773516691385,0.0004380264862228465,0.0009328038295246337,0.0013651983409013295,0.001731627411739406,0.0020093662593094106,0.0021739068827500863,0.002213205378245526,0.0021256430183609243,0.0019075651035478753,0.0015461049902089755,0.001026290698641308,0.0003476676387450565,-0.00046126616059096815,-0.0013385622142067185,-0.002194181323560328,-0.0029217484073237733,-0.0034152104404625372,-0.0035902608558048233,-0.0034065204726997506,-0.0028808696764377993,-0.0020833450252354447,-0.0011170543724210711,-9.414330283811893e-05,0.0008799244630879979,0.001712245266043133,0.002327525846524986,0.0026805570702173598,0.0027729338496027805,0.0026601929714702923,0.0024365392853163835,0.0021975401175632976,0.0019969064042095743,0.0018200998066896879,0.0015902591281282445,0.0012055442255056266,0.0005911319479123029,-0.00025802142631944,-0.001262695932211614,-0.0022779496207505673,-0.003133527490750171,-0.003677352740802219,-0.003808330419312726,-0.003495791505804235,-0.0027881314579173417,-0.0018083832592462477,-0.0007289322277400474,0.0002762471293114815,0.0010859270822754657,0.0016635771079723818,0.0020455519704289,0.0022913281569195386,0.0024285233629363005,0.0024298152241948347,0.002235774551754249,0.0018047463842541843,0.0011539640764720565,0.0003667161766323407,-0.0004331076098749136,-0.0011183380468089955,-0.001587538574127138,-0.0017795236014510572,-0.001678599605251615,-0.0013159965597459248,-0.0007667167302104116,-0.00013773515355728705,0.0004531838303151784,0.0009028890871956713,0.001144779675609691,0.0011619036233665974,0.0009890535003024448,0.0007020660173918647,0.0003923807332562294,0.00013025768602769835,-6.894435980301815e-05,-0.0002543528345708211,-0.0005123053188460696,-0.0009110015748741975,-0.0014456563603439119,-0.00201593151637044,-0.002451259556199766,-0.0025742613413702233,-0.002272839226750229,-0.001548007028925379,-0.0005174184147526493,0.0006243500374000788,0.001669202184056985,0.0024549684134808954,0.002898421381395356,0.002995273142283874,0.002798489511732836,0.0023940976447430797,0.0018852607812824827,0.0013788242994555058,0.0009611155171046722,0.0006614938737982386,0.0004240308871705492,0.0001179254455892317,-0.0003994975473267845,-0.0011901428139221883,-0.0021657566629460865,-0.003091651066635051,-0.003674121900936127,-0.0036910187198542664,-0.0030964457244156652,-0.0020440569634472966,-0.0008195209852720545,0.0002786244197443635,0.0010481634566326412,0.0014339550598896351,0.0015077424849674163,0.0014012425915865176,0.0012357405604055665,0.0010848258623555565,0.000979870615264996,0.0009376581787647522,0.0009771249504175322,0.0011067006796153796,0.0012933378200960701,0.0014442332313595013,0.001425687924910528,0.0011164550109729683,0.00046812545994955,-0.00045883631686292935,-0.0014991643111354164,-0.0024235354224702967,-0.0030022710398754818,-0.0030756300392060934,-0.0026115302443089077,-0.0017277726653663283,-0.0006602737203950878,0.0003206293063754554,0.0010136513223107351,0.0013589507985177145,0.0014397854709374996,0.0014128393600344096,0.0014090999507512436,0.0014637683138565719,0.0015125090279682035,0.0014471549616604973,0.0011878617069801633,0.000725306009057113,0.0001154615703267774,-0.000554158128625194,-0.0011932826061014897,-0.0017154427537621933,-0.0020338018053908443,-0.002070221422956118,-0.0017858972278114896,-0.0012146314827590628,-0.00046891130878578673,0.00029393613120202956,0.0009284553017161138,0.0013472682259602561,0.0015330398372412988,0.0015179096587720371,0.001352057207166163,0.0010833722687017613,0.0007538206133994443,0.00040140578832934784,5.515249873686771e-05,-0.00027535963579651085,-0.0006007327867290941,-0.0009314164909439784,-0.0012459036258343035,-0.001475175034108479,-0.001525508720461674,-0.0013326484496589393,-0.0009115083551105467,-0.0003632683355515835,0.0001699354664263527,0.0005751798048042704,0.0008185481361832525,0.0009438854165819762,0.001025060427850739,0.001106640194444477,0.0011728504541763682,0.0011624177197223935,0.0010144163651668032,0.0007108286841161674,0.0002878311838233005,-0.00018689948004373694,-0.0006495186646270894,-0.0010612590288540948,-0.0014036408709515837,-0.0016568883882318102,-0.0017821134829986123,-0.0017230947584783878,-0.0014290356043687071,-0.0008867429364695265,-0.00014581585696163922,0.0006770474380023816,0.0014216984176293479,0.0019328569497842289,0.0021165896429558412,0.001978280540626992,0.0016185114438606579,0.0011840243382503857,0.0007987162104841907,0.0005133155166421402,0.00029924618823680177,8.226501786525375e-05,-0.0002103255942111043,-0.0006133374653515791,-0.001105897720863969,-0.0016087715831130012,-0.001996911952436283,-0.0021338173223001576,-0.0019271639222155786,-0.0013845096754612814,-0.0006331531770346309,0.00012061071728091424,0.0006815460282841418,0.0009569084551198895,0.0009930356858202558,0.0009311639095589636,0.0009076645748376489,0.0009616553371786169,0.0010103856967281926,0.0009095077751223303,0.0005589880131011331,-1.5805110469261372e-05,-0.0006617949356433714,-0.0011749731194892331,-0.001404026601422875,-0.0013150895990797855,-0.0009848855076287169,-0.0005402964972443113,-9.169903910481118e-05,0.0003013170367545798,0.0006244312507585224,0.0008817994927716602,0.0010721475621950282,0.0011815242380012131,0.001192520811630318,0.0011005246576775486,0.000924746090615782,0.0007047756331518402,0.00048174983613362855,0.000273861528504356,6.22534517572956e-05,-0.0002005178979016765,-0.000559964141032745,-0.0010210925992838898,-0.00152219443382518,-0.0019381302252777495,-0.002118599452908124,-0.0019501424376386165,-0.0014153159406134412,-0.0006179252176280574,0.00024446717029568646,0.0009537926888985183,0.0013577054065646707,0.0014262587262454073,0.001251108862492794,0.0009908020355077823,0.0007938014651862647,0.0007375635634611826,0.0008059874803594225,0.0009044499935239479,0.0008986049757424429,0.0006641163453981528,0.0001390856207035985,-0.0006325364566071886,-0.0014879060557825678,-0.0021837333095240464,-0.0024847787699879666,-0.0022659413175671107,-0.001572636401911896,-0.0006024116200792574,0.00038305588403859296,0.0011654413771206768,0.0016394750433414186,0.001816052045408632,0.0017712493100280361,0.0015810520395414225,0.0012815645012505751,0.0008717922418904541,0.000347223295980956,-0.0002647416941031701,-0.0008928327446180004,-0.0014391141172720404,-0.0018105533824545332,-0.0019434868616643821,-0.001810022514651747,-0.001412754758483764,-0.0007827787373189749,1.157676282778023e-05,0.0008545385379954715,0.0015906884845470867,0.0020631677774114567,0.002172974473236635,0.0019288946489998278,0.001454125364795894,0.0009361033667777088,0.0005398396619919791,0.00033034228780859994,0.0002479842940480826,0.00015086679975289926,-0.00010082990028371062,-0.000566155437641643,-0.001190759365231405,-0.0018314164759644885,-0.002318551784279624,-0.00252364344043103,-0.0024032133570854137,-0.002005970375420816,-0.0014451316742530734,-0.0008496461872723634,-0.0003145625927601991,0.00012939134393822054,0.0005145650637809337,0.0009040291780329118,0.0013426736839886153,0.001816021762137045,0.0022405921029379186,0.0024953922208254533,0.0024805458116297233,0.0021706907252864393,0.0016321849614502186,0.000994741004795034,0.0003945046281008033,-8.072225138721061e-05,-0.00041828889093297687,-0.0006703246828123296,-0.0009147476877810264,-0.0012079428449791804,-0.0015517779044175064,-0.0018897228422681018,-0.002131600315645347,-0.0021920358726684143,-0.0020227905527498338,-0.0016258663949294447,-0.001046476660021414,-0.0003546450527020117,0.00037293095559771613,0.001062936759480284,0.0016470007951721367,0.0020607704148755597,0.002248389887359647,0.002176643137016392,0.001855278356421349,0.0013515691936889502,0.0007836650381849415,0.0002844221167686732,-5.480356882515795e-05,-0.00023218417660308532,-0.0003425563615330223,-0.0005292117690441232,-0.000898924652039397,-0.001445494648445718,-0.0020281903089965554,-0.0024236630133452957,-0.0024284999952347286,-0.0019595448236809964,-0.001099436505622156,-6.529705339178033e-05,0.0008806013885613005,0.0015324338955619485,0.0018081762316383848,0.0017574858504001202,0.001515106583395676,0.0012293932138824832,0.0010025762928473029,0.0008654613443829081,0.000785257344069549,0.0006902399517608222,0.0004983640856071325,0.00014836440984207378,-0.00036650386300537377,-0.0009739151824514553,-0.0015290046703464732,-0.0018641551758938287,-0.0018653085339968075,-0.0015319987454694847,-0.0009800708082610102,-0.00038015994180798374,0.000131357873211656,0.000512280433559694,0.0008089792221143703,0.001094913690626963,0.0014000107629761165,0.0016789473507414503,0.0018338260253310441,0.0017682120992885525,0.0014342395999971966,0.0008489705513931229,8.220608665936846e-05,-0.0007669262809310729,-0.0015897628180770148,-0.0022804264150768617,-0.0027450909732073046,-0.00291353089112639,-0.0027532044326278628,-0.002279482390474228,-0.0015537167009546508,-0.0006674219182404175,0.0002784633958983967,0.0011863237206731242,0.001962735188730714,0.0025181107393928005,0.002780188511738365,0.0027232384530370196,0.0023945108230177987,0.001911836411420241,0.001421802013700563,0.0010364363971521687,0.0007847841230735697,0.0006080340111330075,0.00039851072176452063,5.6351192825233594e-05,-0.00046736634030470974,-0.0011558008810908045,-0.0019339055695464856,-0.0026848695342829316,-0.0032695041194166314,-0.0035526366189582636,-0.003439968495922038,-0.0029167634360393636,-0.002067432909063333,-0.0010560121759397004,-6.62913547550782e-05,0.0007723461173843177,0.0014307795971668135,0.001965776015579383,0.0024504052930643993,0.002894521460580606,0.0032130284187148897,0.00327021070960495,0.0029746830254638915,0.0023596967097771837,0.0015881871449088415,0.0008708880489050309,0.0003466200647314158,3.2909092154868663e-06,-0.00030633294254413045,-0.0007622285089412719,-0.0014525496417081849,-0.002303634018199627,-0.0031043684707819158,-0.0036064906640238398,-0.003640749731379572,-0.003186078780711737,-0.002361842905003713,-0.0013590118173682467,-0.00035690696180545813,0.0005288191689432545,0.0012497223386536231,0.001795933439347965,0.0021667082306748168,0.0023608258172667894,0.0023845017025396916,0.002259965102634384,0.002021515328068566,0.0017001157784487667,0.001308107417360427,0.000835603214384868,0.0002630668413886743,-0.00041350990910066573,-0.0011552289545413105,-0.0018658938855955058,-0.002404931880982069,-0.0026310640988371128,-0.002461476799534844,-0.001916195835258535,-0.0011191090363459062,-0.0002492528603814298,0.0005329234421312698,0.0011410601301117761,0.0015674273911647884,0.0018395725645758633,0.001967671597941919,0.0019273831686298162,0.0016923172435620876,0.0012858954080969753,0.0008012841563680338,0.0003602592465812249,3.24531597905135e-05,-0.00022424575378057667,-0.0005470345411198994,-0.001071163062582059,-0.00180981269961358,-0.0025947233913817458,-0.003130219958399743,-0.0031412929909539243,-0.002530902065290483,-0.0014487582594348706,-0.000225027717700387,0.0007947918841009653,0.0014169494741453925,0.001671706757965554,0.001753830734488503,0.0018751461923815476,0.0021237223520994422,0.0024144773772597724,0.0025545970508978294,0.0023749517231054676,0.0018409210660504144,0.0010742277381520784,0.00027732557959407107,-0.00038604247553724865,-0.0008756126048939044,-0.0012725247034723148,-0.0016965341634918275,-0.002200179071683403,-0.0027099050791455676,-0.003051536657176217,-0.003043123467204482,-0.0025976521151199025,-0.00177565935692559,-0.0007616282557633258,0.0002164126147609917,0.0009767397684037134,0.0014394985497903409,0.0016307916266959177,0.001646589604004772,0.0016015981388263494,0.0015849327574669193,0.001633329558401966,0.0017243719549509835,0.001789638695896647,0.0017454688604929484,0.001532253451862313,0.001144753368186468,0.0006351819843094981,8.386946365078945e-05,-0.00044614242274797395,-0.0009398645508537924,-0.0014222629663737485,-0.0019132387075877129,-0.0023762049787796765,-0.0027006875616882794,-0.0027410484745262987,-0.0023963062561804926,-0.00168395670108816,-0.0007574112572713963,0.00015161006217265423,0.0008367037304430684,0.0012066352667214908,0.0013099411915980506,0.001284153390623713,0.0012650407748287808,0.0013116628386762703,0.0013880765063808138,0.001404612283563411,0.0012855481797569893,0.0010176198187519274,0.0006511615038710115,0.0002595961660677591,-0.00010981160372309823,-0.0004579928520233813,-0.0008143572972154898,-0.0011908343328290347,-0.0015436104408607897,-0.0017718088745762271,-0.0017586277597737472,-0.001433719186361761,-0.0008222689397208194,-5.247493526077838e-05,0.0006864182522462756,0.0012189486815505544,0.0014561916265200966,0.0014283333669142721,0.0012566758597693526,0.001078354886657554,0.0009675623860995902,0.0009011088342107225,0.0007866331560659793,0.0005291358923896457,8.921864436651551e-05,-0.0004994657676296291,-0.0011512949992747623,-0.001761600085448772,-0.002227853490147302,-0.002457168224721516,-0.0023750308221940947,-0.0019470403965885143,-0.00120706824175844,-0.00027012591810252756,0.0006886637722138178,0.0014872569325185523,0.0019982838314172875,0.0021882638893331234,0.0021160686264834927,0.0018946240367439643,0.0016375677620784853,0.0014159763146327172,0.001239951502731045,0.0010654739131693047,0.0008186800129840075,0.00042903052771293455,-0.00013664918022355112,-0.0008495907401641459,-0.001615556183462538,-0.0022981234684482646,-0.0027620632528168225,-0.0029186292309401106,-0.0027522786004662804,-0.002317342436100501,-0.0017085542684710927,-0.001022330054155885,-0.0003287652013145715,0.0003340370369331121,0.0009458830467460551,0.0014843499673827033,0.0019139015427302175,0.0021916069479302096,0.0022853057054802338,0.002192612197280676,0.001949360645670356,0.0016220824329170591,0.0012867251571039768,0.0010017221542750268,0.0007857202644216191,0.0006084061159410319,0.0003987172528759897,7.057350107042798e-05,-0.0004381266580369713,-0.0011243579260110715,-0.001895723597116474,-0.0025829174307333974,-0.0029942431810844722,-0.002992347520106967,-0.0025551847685274655,-0.0017881046269304526,-0.0008805202894054541,-3.101608656525326e-05,0.0006207651129598224,0.0010259680908520049,0.0012162230797745559,0.0012668107865089024,0.001256160838251634,0.0012381284020810009,0.0012325715615209803,0.001231386655524183,0.0012121527479899163,0.0011495711658681853,0.0010181290204754247,0.00078840064223784,0.00042839090669015585,-7.881650484534334e-05,-0.0007030376358190965,-0.0013411409116062946,-0.001825720452667478,-0.0019815139297916424,-0.0017100309687201492,-0.0010553748126700799,-0.0002057856742789777,0.0005799805700789332,0.0010858778633795012,0.0012291092679442466,0.0010780436641038276,0.000792077540798786,0.0005250680795939014,0.00035155986068525656,0.0002527027812581845,0.00015599135630612725,-7.370177195839631e-06,-0.00026306568894076364,-0.0005851535507778729,-0.0009099489458101347,-0.0011583128624921913,-0.001258974055529959,-0.001171101072246474,-0.0009018683918650262,-0.0005096611653786442,-8.596290433793893e-05,0.00027927605283792367,0.0005323007408608261,0.0006725163186862369,0.0007442011505560918,0.0008092060261656363,0.0009154245693769967,0.0010750507301368567,0.00125895848663534,0.0014056316019021792,0.0014399019252983,0.0012968419694513395,0.0009448576936873024,0.00039941340445371265,-0.0002794984386961367,-0.0010046217950517241,-0.0016831105654467686,-0.0022313998589554725,-0.0025796027773889,-0.002670813405085067,-0.0024646461085423075,-0.0019509685180417332,-0.0011705386111657055,-0.00022901389833610074,0.0007125478950123722,0.0014781515441713215,0.0019365473726927584,0.0020516904200599166,0.001894566318182759,0.0016056389515120481,0.001325632715743762,0.0011322881244952058,0.001017660274605961,0.0009149760809314566,0.0007527127818522093,0.0004983265860831999,0.00016570450894293903,-0.0002106301136989635,-0.0006078686864451178,-0.0010258499746087773,-0.0014681872566276108,-0.0019091653740885904,-0.002273277172259608,-0.002446822271500858,-0.0023210441297888216,-0.001846354097446934,-0.001068724319648355,-0.00012717707808799876,0.0007889042857937699,0.0015036269887982842,0.0019111638973938914,0.0020019820953428155,0.0018510885107212195,0.0015775237536774448,0.0012951078951066208,0.0010750345839876212,0.0009319354339562711,0.0008320586844577319,0.0007131172261171581,0.0005055048737143747,0.00015241523193180312,-0.0003669733721118982,-0.0010112051019912198,-0.001660983016688814,-0.0021369028020331773,-0.0022609306458341192,-0.0019413968014741888,-0.0012351549436323513,-0.00034354683265037586,0.00046601625725699455,0.0009760198060763457,0.0011108775148564233,0.0009555210198878961,0.0006922518617313412,0.0004931204413173922,0.00042831872888315177,0.0004393615489210476,0.0003876445549702136,0.0001474837046509922,-0.0003091812992881487,-0.0008820661287318122,-0.0013817194412965293,-0.0016181499336200694,-0.0014924364461439566,-0.0010420757252520784,-0.00041524319666359213,0.00021003256682410151,0.0007127328565101828,0.0010702407261962402,0.001334003029174656,0.001563038607688072,0.001764771739884939,0.0018835687223288547,0.001841799861910021,0.0016021286596506561,0.0012062956084923086,0.0007613656683980903,0.00037829219144072353,9.951250953056401e-05,-0.00013687241474941592,-0.0004670999082472655,-0.0010156959409002948,-0.0018004295461438793,-0.002686790876774816,-0.0034259534433071772,-0.0037619082374520255,-0.003550728494891607,-0.0028259668955604575,-0.0017762929533852308,-0.0006537331787258152,0.0003318966927585216,0.001077496277171819,0.0015879733137494625,0.0019301610293641035,0.0021744974172135446,0.002355362890673462,0.002463963820937959,0.002469952781559288,0.0023551233557596533,0.002136980390431497,0.001865223625396626,0.0015906869108582825,0.0013258905977186531,0.0010254035124151629,0.0006043251696086261,-1.0801686667514143e-05,-0.0008268976795346201,-0.0017586272161105728,-0.0026489116043429232,-0.003324601188079592,-0.003656323378289597,-0.003592767882321517,-0.003159034834970244,-0.0024306627768271197,-0.0015047816354846933,-0.0004837238499667916,0.0005280028777052317,0.0014236163415166047,0.002101992783077185,0.0024868625302271125,0.0025502483075274377,0.002326999207237013,0.00190879950589465,0.001414960575179547,0.0009494666399976217,0.0005627379873818445,0.00023722986720345796,-9.29910992914279e-05,-0.0004943335697984695,-0.0009794416703632484,-0.001476770590910721,-0.001846148505744995,-0.0019387554872153032,-0.001672805256073404,-0.0010833554510576036,-0.0003162545211570756,0.000432934292213312,0.0010021545779598084,0.001322473486535073,0.001423986893466221,0.001392208471760006,0.0013082547419406444,0.0012099995182938248,0.0010899108856092395,0.000917825230002866,0.0006648234222396743,0.0003134812827678443,-0.00014198844272654098,-0.0006923109369630062,-0.0012997382290588493,-0.001884158604094412,-0.002327894797460558,-0.0025100879537158743,-0.0023593335940475793,-0.0018944321011722717,-0.0012245880269586638,-0.0005039906160338567,0.00013448674065314912,0.0006277355333794456,0.00098688327267264,0.0012615164430006536,0.0014924042705437048,0.0016844439641874377,0.0018127818842393736,0.0018502953051682948,0.0017919069435084665,0.001657884355343706,0.0014766704278044024,0.001262363166162884,0.0010026664029099018,0.0006631791003620471,0.00020436385268316707,-0.000395061045611423,-0.0011140097754500325,-0.0018728801852637934,-0.002538692883418177,-0.002960762088930976,-0.003028329640888504,-0.002721299134841066,-0.0021220058654241557,-0.001377636647111508,-0.0006350872362083616,1.2500529506789251e-05,0.0005391631253894722,0.0009606720565804749,0.0012961603440539025,0.0015458365434994363,0.0016964666806548016,0.0017436966476267524,0.0017086984601902624,0.001632857813009913,0.0015523054996377998,0.0014702543443527545,0.0013478701602050965,0.0011224859865814263,0.0007440366792118282,0.00020851328631542126,-0.0004313600592286477,-0.0010838578836827378,-0.0016520262560366906,-0.00206179269449863,-0.002269632330928526,-0.0022534639264420817,-0.0020047917170858084,-0.0015365009259110606,-0.0009014104025046547,-0.00020019792815756095,0.0004391366283904871,0.000906373466971918,0.001153783525086044,0.0012123000626454335,0.0011674674704323985,0.0011078625232495178,0.0010754440130601704,0.001045984731064784,0.0009491140870170262,0.0007139018478604749,0.0003129567703443924,-0.00021728695572460158,-0.0007861936901307287,-0.0012793336448476867,-0.0015944533363958613,-0.001669951301673093,-0.0014979403836683765,-0.0011193642157346015,-0.0006049365549759233,-3.2001133797067644e-05,0.0005310346749119795,0.0010277845699401787,0.0014103549067244734,0.001639929402963449,0.001695874301367665,0.001586439223191741,0.0013495826067231936,0.001039452104298289,0.0007052535920877989,0.00037394093567485456,4.407517763515157e-05,-0.0003081670515024408,-0.0007130391723464738,-0.0011848230668240582,-0.0016994524800040978,-0.0021826963021404143,-0.002519801542782993,-0.0025901288830051236,-0.002316603631384263,-0.0017075014517930762,-0.0008667878169436127,3.741933100736162e-05,0.0008350291785298928,0.0014177837103480071,0.001772023138810353,0.0019618101049858772,0.0020709378783497264,0.002138888022018867,0.0021333098881988768,0.001979877004718385,0.001630165568719676,0.0011178065618896514,0.0005576484944267674,8.233683244521445e-05,-0.00024213422305535432,-0.0004615133623001111,-0.0007035715788054585,-0.0010890980591063487,-0.001639674993712831,-0.0022411288638321935,-0.0026868068544932287,-0.0027766495111328513,-0.002416594908097978,-0.0016656147846460536,-0.0007100638246649892,0.00021526057266605617,0.0009168810722732937,0.001303740698080279,0.001400856650207327,0.0013196092943076917,0.0012030698318746882,0.001168599231040982,0.0012663790764828827,0.0014647097209498055,0.001663061190642269,0.0017253539983437126,0.0015226656743492575,0.0009765991085011368,9.679398468034276e-05,-0.000996477044100765,-0.002079108863242299,-0.0028729033026966386,-0.003135930912292489,-0.0027637117850439043,-0.001850769560060418,-0.0006698020445106184,0.00043410154435054174,0.001186329203872703,0.001488928722197965,0.0014353359722912974,0.0012317325669970992,0.001075013498569142,0.0010555916125281526,0.0011300433279096476,0.0011638987614427953,0.0010096292825950669,0.0005780788671226238,-0.00012143356315628376,-0.0009762568297988618,-0.0017951191450434343,-0.0023569791671085773,-0.0024772658658823886,-0.002075623965788692,-0.0012187182211835469,-0.00011265038287445735,0.0009612579956470586,0.0017444354619487392,0.0020897453653674447,0.002001257001707796,0.0016106167041258527,0.0011064279489244198,0.0006525062430475677,0.0003309996886234402,0.0001301401431255721,-2.648099387649863e-05,-0.00023023211342715604,-0.0005428768891901962,-0.0009724797019498722,-0.0014697474731612656,-0.0019373616286295161,-0.002249362162678953,-0.0022837601627487365,-0.0019666365646028713,-0.0013115566316953726,-0.00043023473626820785,0.0004984594917326156,0.0012900505819987513,0.0018173344048810925,0.002045561806611017,0.0020268094166533655,0.0018610485498714042,0.001646320444359678,0.001442814245604713,0.001264529063915553,0.0010946510834587803,0.0009085027277635616,0.0006882217835558709,0.000423560787818231,0.00010439876218526159,-0.00028456589708116713,-0.0007590771568615623,-0.0013194717710409678,-0.0019301468674905332,-0.002506660078471676,-0.0029239852198893234,-0.0030520379109543545,-0.002808601849170754,-0.0022038715011106717,-0.0013485064743452655,-0.0004147735561447079,0.00043144285670369505,0.0010910392265234905,0.001552159156380423,0.0018633242456600361,0.0020806391137760958,0.0022247183525025954,0.002273952102416284,0.0021943966157128465,0.0019803590819065728,0.0016720915744473659,0.0013342790320200629,0.0010091366500418063,0.0006787576269146527,0.0002679978999538307,-0.00030573601046426013,-0.0010603227670336443,-0.0018979435926691534,-0.002613843625412146,-0.002973330640429392,-0.0028240722991691065,-0.0021827617823746122,-0.00124230297605517,-0.000288836782069901,0.0004279685359714141,0.000798978539580985,0.0008782742480778127,0.0008198601194841938,0.0007744233938329756,0.0008090582138082312,0.0008889275523774758,0.0009173329909118923,0.0008003754479261947,0.0004989955879386987,4.765215022697769e-05,-0.000460553084717756,-0.0009089493245587545,-0.001195584896506129,-0.001261454627281619,-0.0011019238514606482,-0.0007606434435337866,-0.00031003610714649054,0.00017365651238198526,0.0006305113448978357,0.0010237551361476913,0.0013321414745525203,0.0015365542516750008,0.0016140833689171194,0.0015465799335132088,0.0013375940502097377,0.0010228035383787995,0.0006623166482108925,0.00031583244598386696,1.378867295867732e-05,-0.00025876589601820906,-0.0005547709111619237,-0.0009342363852527752,-0.001420722983408444,-0.001964950497005954,-0.002438809200376355,-0.0026744995530367695,-0.002539706749985679,-0.0020118055516676714,-0.0012044951466213703,-0.0003230026343955658,0.0004318033560842483,0.0009548298745116343,0.0012686175908221602,0.00147852186744843,0.0016841533552395716,0.0019074204826637989,0.0020834352511500086,0.002115646535455881,0.0019526526786678273,0.0016309533021166098,0.0012530251034346236,0.0009153199235638824,0.0006354312590058843,0.0003294320269368577,-0.00014064043723247444,-0.0008724784266332813,-0.001835506609751935,-0.0028428360220941517,-0.0036079243624281545,-0.0038656887591002644,-0.0034985970938885905,-0.0025980283869091133,-0.0014218246220757621,-0.00026826914738563865,0.0006608619946670407,0.001327355159618384,0.0018184774338167336,0.0022381904232852954,0.0026070941913437402,0.00283959693662275,0.002809446800963256,0.0024528943924243874,0.0018348125459685827,0.0011305593558988331,0.0005335241856460823,0.00014635193492298318,-7.643045150941942e-05,-0.000298244143247646,-0.0006980518095036051,-0.0013521039084801257,-0.0021654851405500685,-0.0028933472911412484,-0.0032451814351517876,-0.0030219625732270565,-0.002217601395222982,-0.001032657407067278,0.00020787858140807434,0.001191563786505686,0.0017405776714695038,0.0018590152420445275,0.0016895562029933147,0.0014150357031615813,0.0011661187116851904,0.0009816942686491474,0.000828309734048633,0.000649415336584899,0.0004064712800865384,9.162687066191846e-05,-0.00028240294915550675,-0.0006951666800665042,-0.001118651773906004,-0.0015062076601363053,-0.0017852866886434592,-0.0018684065233081925,-0.001683100644106656,-0.0012070768797430742,-0.0004904105931873153,0.0003469572507261517,0.0011438258662608367,0.001744844031005935,0.002051020609226784,0.0020532515590505956,0.0018306935296871654,0.0015100908040885845,0.001203709991655394,0.0009583199298777174,0.0007433258266394301,0.0004832480695320207,0.00011267014982601319,-0.00038083520694285374,-0.0009493645918947877,-0.0015103838653623154,-0.001981984970130212,-0.0023038817791635703,-0.002437801075576831,-0.002359195579489971,-0.002056552001740325,-0.0015438174168949266,-0.0008758314956020735,-0.00014879799306247773,0.0005249853455706347,0.001059753287062107,0.0014303714038705437,0.001672254594423038,0.001843515241711763,0.001974402984847355,0.0020407199141333626,0.001981575049056306,0.0017494810942074769,0.0013567514253303103,0.0008836815601279505,0.00043949689065812364,9.895989352409176e-05,-0.00014497498958889214,-0.0003800486617664626,-0.0007214262464877141,-0.0012347486454156462,-0.0018799499551199084,-0.002509648719407479,-0.0029247880883183225,-0.002958223580957263,-0.0025442042191843157,-0.001744034413636117,-0.0007236636276630876,0.0003009861504877571,0.001129529128021973,0.0016353792053125512,0.0018013648103089436,0.0017186026149971765,0.0015425581597691904,0.001419060935890911,0.0014135271825278448,0.0014818363730207146,0.0015017420936190068,0.001348161779678609,0.000967575605980318,0.00040725268143156155,-0.00021465642130743422,-0.0007736432249737734,-0.0011946203241785876,-0.001467660896276688,-0.001622584132074327,-0.001686251193499687,-0.001652062398707419,-0.001479575084827998,-0.0011238940548096567,-0.000578401675776385,9.409446660464975e-05,0.0007634520975431205,0.0012730740496844813,0.0015027691000527668,0.0014216613588211447,0.0011024826534050745,0.0006889689237615654,0.00033223281005019013,0.00012590575862389715,6.882472848549707e-05,7.163771021748274e-05,5.408267461499752e-06,-0.00022845422820693198,-0.000639667091895159,-0.001132366392361795,-0.0015415404431992773,-0.001705954699615611,-0.0015403268016481394,-0.0010703319778739592,-0.0004162220993916778,0.00026090686304087703,0.0008202592178733416,0.001183509290390581,0.0013471284869148667,0.0013682909273818903,0.0013335264039674008,0.00131932093462713,0.001355238322201986,0.0014042177041628037,0.0013740619990476502,0.0011613170000975672,0.0007081183289797594,4.0117659138967036e-05,-0.0007378246817490905,-0.0014855951181482262,-0.0020837736777753347,-0.0024677791391273574,-0.0026239609070899043,-0.0025601118030156187,-0.002280685854385061,-0.001789113591577898,-0.001112762122339117,-0.0003241236745031965,0.0004661167180150501,0.0011451436451352494,0.0016402345328289385,0.0019390842928816857,0.0020767549389109187,0.002101651187490399,0.002045550657132313,0.001915992474860922,0.0017103491782658623,0.0014347809301192029,0.001109257200055033,0.0007523333155583357,0.0003574298016091721,-0.00011636764544289881,-0.000721125610650781,-0.0014688057051179173,-0.0022825126050232906,-0.002989990181399195,-0.0033783721505448233,-0.003288879268706147,-0.002699167073084022,-0.0017437572627756657,-0.0006586944084246654,0.0003193667888748188,0.001045261391847112,0.0015023446845659916,0.0017709769008144249,0.0019528975247156523,0.002098377642325454,0.0021778227796266456,0.0021099772538750207,0.0018237755446080728,0.0013127602336015698,0.0006502225251995004,-3.922857216365639e-05,-0.0006304961055603941,-0.0010421078924551593,-0.0012545658454583054,-0.0013011366249970548,-0.0012421029311958872,-0.0011365976728033803,-0.0010215911373358364,-0.0009017498569136189,-0.0007516729917097478,-0.0005319447138297774,-0.00021652596792379018,0.0001803612677161299,0.0005963783752733827,0.0009437801340132328,0.001153371064303809,0.0012109942472856323,0.00115865973755114,0.0010566163574680554,0.0009321818819766065,0.0007521673957932744,0.0004398731253878492,-7.21208382436434e-05,-0.0007842499951269019,-0.001599948196339499,-0.0023401104450612273,-0.002797434736647861,-0.0028095793918300766,-0.002323014428656333,-0.0014221171284874046,-0.00030921498716849564,0.000761383609818711,0.001572721797734685,0.002020473889875215,0.0021373394056367224,0.0020525739863449513,0.0019095989958917295,0.0017912028230198734,0.0016955553041450083,0.0015690962459826104,0.0013628424697388734,0.001067692925461408,0.0007079732947759143,0.000308327532635223,-0.00013225980871058658,-0.000635936663311673,-0.0012149163535222912,-0.0018389530959321719,-0.002426352123502475,-0.0028653898742704463,-0.0030528402310527553,-0.0029284776413255782,-0.002491471597547369,-0.001797797777032996,-0.0009460361546863583,-5.800580713604623e-05,0.0007441122969612259,0.0013633347070383436,0.0017508174725893288,0.0019169186230044422,0.0019230762634397096,0.0018549029589044594,0.001786103808242334,0.0017485330437735798,0.0017221187034825289,0.0016490557833555215,0.0014642412700036414,0.001126052529736089,0.0006331899671474689,2.279533611138323e-05,-0.0006440521380750616,-0.001297846690292297,-0.0018688233938591171,-0.0022889964703322455,-0.002496844867923027,-0.002450938396951101,-0.002147590703192089,-0.0016291993183229479,-0.0009741450610660982,-0.00027268192960549126,0.00039666640208565215,0.0009774916062224152,0.0014308376458155047,0.0017248938549673516,0.0018324796276505254,0.0017431566125681525,0.0014826790160037738,0.0011213085536519556,0.0007553157500455861,0.00046373862236395,0.00026356107426049087,9.506612617283638e-05,-0.00014400769315097545,-0.000527405315519004,-0.0010337669232662761,-0.0015314288870904693,-0.0018337906696938495,-0.0017988323840840079,-0.00141407506575305,-0.0008130492553418182,-0.00020984745113940707,0.00021104844803815576,0.00038445072464398603,0.00038148251983772933,0.0003479071593158994,0.0004068515714979893,0.0005880406247216054,0.0008225662388392516,0.0009958318865676073,0.0010164210768735596,0.0008576465461805073,0.0005557117535139582,0.000179147954808505,-0.00020310044187091952,-0.0005367733590589596,-0.0007809220465747049,-0.0009019907184353087,-0.000873524648860086,-0.0006830094157926512,-0.0003415078786115691,0.00010881615138482186,0.000593826333584818,0.0010182942176780528,0.0012909175517520461,0.0013567707949365385,0.0012203519951245825,0.0009417840488642351,0.0006027923096869184,0.00026042091812966336,-8.131167414959068e-05,-0.00046085345763599117,-0.0009153313932275754,-0.0014335452875224208,-0.001938421569146785,-0.0023106626463194864,-0.002437796875874992,-0.002259426377512322,-0.0017871877824868932,-0.0010963082931436182,-0.0002988475389227354,0.0004893035763909881,0.0011786168732679627,0.0017248071056784448,0.002127464869333008,0.002405748793964971,0.0025630969609519993,0.0025654425320439326,0.0023533242668829345,0.0018851953653862014,0.001183410666731866,0.0003481747020074265,-0.0004743988780316164,-0.0011517293741472889,-0.0016149212928704248,-0.0018710737662961034,-0.001975364925433346,-0.001984497010562145,-0.0019203242014796207,-0.0017622945107004981,-0.0014689788348240544,-0.0010136690691685145,-0.00041419433148986344,0.0002569548722241139,0.0008856051955400461,0.0013472844508256227,0.001548076894611827,0.001462370309437655,0.0011509091191170705,0.0007439755722351321,0.00038818240823704307,0.0001780298243184023,0.00010933867007366198,8.543032772945908e-05,-2.1551814706479767e-05,-0.000285658914622951,-0.000667788841516896,-0.0010205094582015745,-0.0011599706667218173,-0.0009671221379866245,-0.0004604772985706675,0.00020238182170665916,0.000796560296942769,0.0011361082007624768,0.001158968063935421,0.000948349489544479,0.0006819939446736751,0.0005361289245029298,0.0005913983805030309,0.0007858980232952767,0.0009384358711363026,0.0008337964259363018,0.000333561156861949,-0.0005386083449174153,-0.001581699650672978,-0.0024867191851098394,-0.0029625135416784677,-0.0028570992138147464,-0.0022135288165374464,-0.00123566713073091,-0.0001899254178910142,0.0006995659412859104,0.0013120384383273791,0.0016326800974564564,0.0017164821475778315,0.0016440743249984402,0.0014888453778225006,0.0012980386532306367,0.0010833585078283653,0.0008200951553492055,0.0004593986125231112,-4.220468454487901e-05,-0.0006811288403254897,-0.001371676278660543,-0.0019446327496768778,-0.002197440609554448,-0.0019848794532402346,-0.0013057510241720571,-0.00032990966919948383,0.0006627430896567889,0.0014063226115029787,0.0017678703340433615,0.0017927059418698828,0.0016527790363444926,0.0015333214047000892,0.001526001877695719,0.0015857141699055135,0.0015659077903497532,0.0013037491585374014,0.0007061760434564667,-0.00020280141445289915,-0.0012866015472209563,-0.0023405067034048513,-0.0031530515361858705,-0.003563603169159751,-0.0035027598852588855,-0.0030079134186195154,-0.002210002594043099,-0.0012930081433123377,-0.0004366860735251694,0.0002385226731775182,0.0007033491450868135,0.0010141969674562902,0.0012709105427388058,0.001556274650494372,0.00188777935130256,0.002208438297379051,0.00242175315061677,0.002448344879291994,0.0022678636306577484,0.001920713427283776,0.0014727058610259792,0.0009714061364185249,0.00042701333822564407,-0.00016958317531219017,-0.0008077863103770756,-0.0014290577025197933,-0.0019326618594914563,-0.0022142484407106427,-0.0022146354103410497,-0.001950856008128431,-0.0015126523799324056,-0.0010260204924009341,-0.0006011720448733204,-0.00028952389464457205,-7.08078010971452e-05,0.0001226892229066784,0.0003576093195131751,0.0006543835013357625,0.0009716320349744583,0.001227302607817055,0.0013399862528217289,0.0012630145279429184,0.000993827385005243,0.0005622905816920134,1.5625804237942315e-05,-0.0005862267501852826,-0.001166312259198693,-0.0016303360359968305,-0.001881432435063049,-0.0018492230465398654,-0.0015198974604605858,-0.0009492856303976488,-0.0002473813729275413,0.0004615301053290115,0.0010827489429813143,0.0015740407186411083,0.0019355955909435513,0.002177872151432859,0.002293016531650603,0.002250897600324487,0.0020212990799896597,0.001605087055409233,0.0010513375186176495,0.0004457181052591429,-0.0001277769377012912,-0.0006317873577735347,-0.0010974175139544006,-0.001600423773442833,-0.0021955072488699344,-0.0028446912342297752,-0.0033905527822311347,-0.003605873115067723,-0.003304867705175373,-0.0024567312540044557,-0.001231432446519278,5.833621244877182e-05,0.001094638175637029,0.0016969961820003153,0.0018900583552553707,0.0018597316241681652,0.0018279731665616153,0.0019234118171543003,0.002122754329735251,0.0022897060309421194,0.0022768663981804346,0.002021474557979826,0.0015774054743673287,0.0010712500250444805,0.0006176074564537863,0.00024940415067042226,-9.508070761215311e-05,-0.0005230447983492694,-0.0011066002517283132,-0.001818985702818535,-0.0025261584011527175,-0.0030405590243208196,-0.003207195242192037,-0.002973607784105371,-0.0024074247654142372,-0.0016587405510655182,-0.0008947611962136329,-0.00024169003555474965,0.0002454310728384231,0.000583575623459389,0.0008414994272359333,0.001105875595956199,0.001440219533196149,0.0018484043672260385,0.0022610771762389074,0.0025591368791714106,0.0026293251022795833,0.0024240005810913096,0.0019888575478903,0.001438183505609007,0.0008890909405824821,0.00039402411255775997,-8.413351712003968e-05,-0.0006338893722847422,-0.0013138674952330371,-0.0020797691604231457,-0.0027704583231028153,-0.00316913880014622,-0.0031080226541688365,-0.0025565498617902494,-0.0016429178775193422,-0.0005989170474848201,0.00033817959282902825,0.0010125222978367532,0.0013840444724990849,0.0015038151481405926,0.001457565170869872,0.0013166296974448804,0.0011210847520662691,0.0008916585098689002,0.0006465528990094679,0.0004016370970224548,0.0001543345115863218,-0.00012713877655119873,-0.0004871037414760711,-0.0009388998225507142,-0.0014222254329501892,-0.0017974541964799634,-0.0018940657989436392,-0.00159539493820462,-0.0009136376091108747,-7.110526245801985e-06,0.0008790563180773284,0.0015223760787204184,0.0018231515116287943,0.0018381806557373082,0.0017291936098043333,0.0016579571728228973,0.0016912727498887216,0.0017710818854623242,0.0017625869319003405,0.0015443087296490004,0.001080689074120083,0.0004343527736986033,-0.0002822480198037601,-0.0009772766584228447,-0.0016227767489725706,-0.002243021771010241,-0.002858325440103074,-0.0034248967727466993,-0.0038150791029784156,-0.0038579917562740337,-0.0034237260315767098,-0.0025065942740665195,-0.0012593666246831928,4.7315314427230594e-05,0.0011284112487636414,0.0018036686459013303,0.002071745219824011,0.002097304033834114,0.0021139845262668705,0.002293274673385545,0.002650208546002541,0.0030374116029897734,0.0032300238370250147,0.0030536959148943174,0.0024841212820783743,0.0016624270708586741,0.0008183772840165005,0.00014643320055412502,-0.0002938288151248205,-0.0005982394782184737,-0.0009523166963425942,-0.0015185930556823454,-0.00233595264025279,-0.0032785846384323514,-0.004091990221564024,-0.004489969693856595,-0.004271476347389339,-0.003407597988798881,-0.002060799333063447,-0.0005281819783232273,0.0008647307882059716,0.0018719974098836793,0.0023936902946343885,0.0024818606724911706,0.002294316720711096,0.0020208496716002163,0.0018104478585988844,0.001723703289821129,0.0017241711377041181,0.0017070893711255523,0.001549385846972226,0.0011599890100297283,0.0005162145144848433,-0.00031838864671915063,-0.0011970204168654402,-0.0019191433839694531,-0.0022893472214913493,-0.00219240575308393,-0.0016522029166712358,-0.0008388932096961473,-1.030083132276408e-05,0.0005908246596329524,0.000835114168336675,0.0007510388575192846,0.0004932773679419871,0.0002536620948531067,0.00016446890659663118,0.00024508200868629017,0.0004130377101995873,0.0005403912953809448,0.0005151682134915195,0.0002779762990819771,-0.00016861895933106182,-0.0007626864278072749,-0.0013879189337502923,-0.0018883185424132627,-0.002104826158709441,-0.0019306380395387244,-0.0013605785993421019,-0.0005044590956279427,0.00044809249156764854,0.0012964701897522168,0.0018988967757870728,0.0022113649047694273,0.00227992864437655,0.0021933586636388824,0.0020235969420648136,0.0017887963531213894,0.001460114200225049,0.001004054899966042,0.0004270491560806745,-0.00021196118015939878,-0.0008302074694257519,-0.0013683243423801453,-0.0018186057059258523,-0.0022106560797513198,-0.002563682744478778,-0.002841853715156842,-0.0029492507393870777,-0.002773424335993738,-0.00225221329001884,-0.0014220168786996024,-0.0004171125651229977,0.0005804555770370864,0.001412212777990596,0.0019971679709496217,0.0023422221035142633,0.002509406368091347,0.0025639591176696303,0.002534895979652463,0.0024090144720500567,0.002158011285711317,0.001778261729147411,0.0013141305131655744,0.0008443194754078932,0.0004346351024806111,8.706101579184338e-05,-0.00027494711107245494,-0.0007637869253843383,-0.001445768088666523,-0.0022703034302748054,-0.00305991350906442,-0.0035748617575125127,-0.0036197243004448282,-0.003133976747069587,-0.002219993661038118,-0.0010987454984860568,-2.0265844625948822e-05,0.0008270530332592365,0.001370018755254965,0.0016489904653202874,0.0017683217126183144,0.001827801393518372,0.0018717395099772487,0.0018799502736511326,0.0017984132803712063,0.0015841219954742989,0.0012342054845477096,0.0007852675944796138,0.0002914552772208764,-0.0001982911474566787,-0.0006491204761022273,-0.0010357343487166985,-0.0013346304634036651,-0.001521307817224508,-0.0015731339921957774,-0.0014745093801580623,-0.0012218091195749703,-0.0008274296539128301,-0.0003229063673972827,0.00023919541123056673,0.0007864058315696185,0.001234608732219909,0.0015067663225778551,0.0015583704194980464,0.0013969777200674644,0.0010816536672728424,0.0006975371660052673,0.0003153591937584262,-4.325585682737106e-05,-0.0004128320869134901,-0.0008529749486529015,-0.0013898993691978986,-0.0019622951489137617,-0.002410047129817624,-0.0025270832418056877,-0.002162545621451941,-0.0013183282034994255,-0.00018226124583211874,0.000933357023201162,0.0017240110234615174,0.0020280226390936326,0.001891151544561865,0.0015257473026029705,0.001189203009312784,0.0010517478847151562,0.0011261667308927353,0.0012902968666538078,0.0013754941948213105,0.0012598788580976557,0.0009145938898479434,0.0003915133390524361,-0.0002212707890284291,-0.0008394140621165948,-0.0013981839268042944,-0.001849622865517287,-0.002157698064011038,-0.0023003038271245785,-0.0022732684753092635,-0.002088443866140468,-0.0017670348028826941,-0.0013366027173035205,-0.0008345565721817124,-0.00030893420039672425,0.00019430650039836423,0.0006534988816068858,0.0010825209079756014,0.0015129584707502595,0.0019529096799425524,0.002352902429923856,0.0026104849115908923,0.0026182504802248693,0.002326273379263292,0.0017770922501265359,0.0010901972670185394,0.0004078049334881621,-0.00016320842712664154,-0.0005823362447943689,-0.0008711710242983598,-0.0010860836734580613,-0.001285937979570816,-0.001507361962637032,-0.001752644032818486,-0.001990314804665531,-0.0021652384961341645,-0.0022137236506178924,-0.0020805524218660025,-0.001736534116439017,-0.0011937268016891408,-0.0005119636492461779,0.0002099448536362112,0.000859223640891614,0.0013428289349213332,0.001616906404867363,0.0016997399869077977,0.001661951522328934,0.0015964155874157579,0.0015781500037186816,0.001628500941386776,0.0016978466966778192,0.0016773180440949487,0.0014414787489969187,0.0009099511443162603,0.00010205903147188049,-0.0008449109361811252,-0.0017099586078819357,-0.002266030107566574,-0.002368336477492891,-0.0020122876327525524,-0.001332972432444486,-0.0005465488721622873,0.00013738420326562877,0.000590398265991537,0.0007943419082611973,0.0008179886729100163,0.0007608074786118963,0.0006968508415693834,0.0006463745466270421,0.0005836745034528924,0.0004687429592808846,0.00027937381700577805,2.4374712420713264e-05,-0.0002662126885981507,-0.0005619607338573326,-0.0008461030398041052,-0.0011127289022846139,-0.0013519754217430823,-0.0015380155826994202,-0.0016317630689354804,-0.0015971056255341205,-0.0014175807598494363,-0.001100788357760941,-0.0006702677076602253,-0.00015612095546285536,0.00040614650344392335,0.000971648704737295,0.0014880735179188683,0.0019081948490171914,0.0022041115635361855,0.002369841034709084,0.0024092755829138728,0.0023213186392719255,0.002097926310810828,0.0017394761852777502,0.0012755717617660384,0.00077235241275371,0.00031536487864291445,-2.6441466762685184e-05,-0.00023717064864683035,-0.00037104300584053286,-0.0005389412120480795,-0.0008656642521004002,-0.0014304532291336246,-0.0022125480382531107,-0.003068201780451735,-0.0037596617785279167,-0.004036291273344513,-0.0037396275587084503,-0.002883908046049164,-0.0016671239035403005,-0.0003981853586830982,0.0006305919179594709,0.001264138881705422,0.0015363264035221367,0.0016251761916337665,0.001736518345301077,0.0019819050692602607,0.002320427149513085,0.002595758726152664,0.0026412027761190653,0.0023844482320526353,0.0018878173905194815,0.0013049351204988224,0.0007880224043628466,0.00040580311229986785,0.00011826648944118702,-0.0001834296727870903,-0.0006000012362819766,-0.0011545523182588772,-0.001766992675884514,-0.002283376207206431,-0.002542872324305638,-0.0024481958463972767,-0.0020066727100034936,-0.0013257225758139827,-0.0005685676522939082,0.00010767859280625736,0.0006049331557401634,0.0009077991434818119,0.0010704050200375736,0.0011743246562840295,0.0012788147535304781,0.001388346614857916,0.0014524389574976106,0.00139483134712761,0.0011547067712549455,0.0007193491252383401,0.00013440652804754417,-0.0005103986164581194,-0.0011112739056110383,-0.0015815816326676902,-0.0018715949315516694,-0.0019712955010403725,-0.0018987733657188917,-0.0016823319096546793,-0.001346443433227128,-0.0009096911972072794,-0.00039576494577923466,0.00015188147824815416,0.0006675710964226618,0.0010829223188040724,0.0013601558815887701,0.0015149212152230024,0.0016065583553269468,0.0016965242586891073,0.0018020710221517806,0.0018793728363283167,0.0018505154819252623,0.001656854738910439,0.0013015038846362378,0.0008504682122645519,0.00039025153734557894,-2.9696167624025942e-05,-0.00042926506392551865,-0.0008797148695085613,-0.0014440545513361022,-0.0021136117298013145,-0.0027830807517397935,-0.003282605074633036,-0.0034499042198279585,-0.0032022196020278972,-0.00257101173170538,-0.001686509534965152,-0.0007259688776312463,0.00014703030623791353,0.0008278499033119958,0.0012883511787444217,0.0015671056727347423,0.001740920854309672,0.0018891997062950882,0.0020615024956132395,0.0022566280964414513,0.0024205459953840418,0.0024681600082813535,0.0023254227703980207,0.0019743775524378024,0.001474266343071981,0.0009388286229480482,0.00047448749295192906,0.0001123592377265712,-0.00022118607611554156,-0.0006672027324077078,-0.0013409280551740627,-0.0022329759776180515,-0.0031685745927145332,-0.0038612280671352223,-0.004041138010872297,-0.0035889571172495853,-0.0025977128853986345,-0.0013280757597022963,-8.63085593241187e-05,0.0009032507967685257,0.0015642571737457017,0.0019498962442274282,0.0021671962610598323,0.002297156235596758,0.0023542007364799103,0.002296641133887943,0.0020696266121203737,0.0016501511444422577,0.0010702563634793249,0.00040962548429906997,-0.00023633506297012549,-0.0007957725353424908,-0.0012455448283171923,-0.00160676166896936,-0.0019112323750084719,-0.0021579072094362025,-0.002288102913341519,-0.002201086431691478,-0.0018086762423416114,-0.0011007435241382458,-0.00018029244490233017,0.0007605985696656765,0.0015181993487451417,0.001967052180707583,0.0021108138479093747,0.002064938205201317,0.0019828350878836457,0.0019690730289089937,0.002027276003050684,0.0020665850909550873,0.001955572713762672,0.0015885004262348413,0.0009293507286290482,1.9896698384608107e-05,-0.0010386038190649688,-0.0021110941484101435,-0.0030501067467137172,-0.003714588351897197,-0.003993722802561944,-0.003836405420506813,-0.0032745152065908603,-0.0024226270414139613,-0.0014455160470887589,-0.0005035642532105246,0.000298044287764816,0.0009302968885242572,0.0014227821742161695,0.0018219331155138923,0.0021518989783073346,0.0023992470047988317,0.00252543518646209,0.002495094689848063,0.0023021992111066734,0.0019800338483774186,0.0015897181014489802,0.0011922185486354477,0.0008181226975586951,0.00045346127753792174,5.268604785281571e-05,-0.0004273698066740528,-0.0009936057163159274,-0.0016028034188310047,-0.002171659888701789,-0.0025994048873456805,-0.0027910317180268535,-0.0026791448314870685,-0.0022475328123695475,-0.0015517116187658512,-0.0007202208115212928,7.801294628081144e-05,0.0006952146734440134,0.001065593959139399,0.0012276466556853998,0.001289459250213195,0.0013556811812450694,0.001463235770689719,0.0015685971012134251,0.0015926445269374878,0.00148715816906274,0.0012728649167167336,0.0010227416760895474,0.000805798272335161,0.0006338908394383619,0.00044931890097003164,0.00016095437158001507,-0.00029555794734253325,-0.0009112192303989868,-0.0015967338495691081,-0.0022155186917089975,-0.002635329617396066,-0.002771700138786141,-0.002606387507821441,-0.0021797607648700677,-0.001567680396243525,-0.0008564951172149594,-0.00012560672190479614,0.0005598169596965629,0.0011486927625453378,0.001601579203316236,0.001891225524360549,0.0020086575627974606,0.0019710987995456217,0.0018219399004792609,0.0016141639755516495,0.001380066728621672,0.0011050922369244096,0.0007293723226538867,0.00018813956670007482,-0.000524788070698819,-0.0013102379033460222,-0.001973207213679012,-0.0022970743518165478,-0.002146931513772684,-0.0015420369828653545,-0.0006528212237671724,0.0002761781076060011,0.001031843021099023,0.0015080360774794499,0.0017168352012092078,0.0017423126486892987,0.0016744102183589666,0.001563900523672287,0.0014179668690067863,0.00122621748422409,0.0009879898013556274,0.0007142892533284627,0.00039974044196561384,-1.176241628670846e-05,-0.0006289212146908031,-0.0015570649990739693,-0.002799141889181519,-0.004171516078284976,-0.005304780423128553,-0.0057624984216729505,-0.0052383999185012815,-0.0037300442114075443,-0.0015819862699141618,0.0006420620358828636,0.0023980051595503507,0.0033831681816244605,0.0036251190024364824,0.0034037668784137574,0.0030685600414451786,0.0028609612682747557,0.002831145526862095,0.002871139250182336,0.002820747538084999,0.0025735075349187313,0.002125477376099659,0.0015528795626150557,0.0009476449811677563,0.000359151797738089,-0.00022207325542009462,-0.0008355097900742947,-0.0015025649995605108,-0.0021925040000597674,-0.002821059712772751,-0.0032786829416626977,-0.003471281286183984,-0.0033540309553589283,-0.0029448827718357197,-0.0023146963608876017,-0.0015619370056654913,-0.0007859295235962692,-6.928705160669609e-05,0.0005296843095711582,0.000980661294684246,0.0012847930182377657,0.001474064254750921,0.0015993315244791696,0.0017062482831667182,0.0018095586202901259,0.0018818984130486945,0.0018667790135336573,0.001710063566866673,0.0013909289516004972,0.0009327928059881089,0.0003887972694358627,-0.00018478771388022127,-0.0007452418538873636,-0.0012573659717271945,-0.001672879915632273,-0.0019194432110462402,-0.0019194056843889256,-0.0016338892541211346,-0.001102152451169445,-0.0004436369844356534,0.0001843969228466458,0.000648803005830162,0.0008861820382150209,0.0009125708202892425,0.0008027636700195557,0.0006570010986623715,0.0005671928549712236,0.0005852815995731798,0.0006971669418890835,0.0008151191372187164,0.0008043535171325971,0.0005443911920055072,2.974937656640038e-07,-0.0007366128391881523,-0.001468872670365372,-0.0019712615714897854,-0.0020897753589732664,-0.0018089678914257723,-0.0012519230117351721,-0.0006144794278530662,-7.058506404236285e-05,0.0003013173277264904,0.0005353780272972669,0.0007350984525399595,0.0009973979882185974,0.0013470819618600347,0.0017170212120943035,0.001982814016024605,0.0020301137163841743,0.0018157405154197162,0.0013897487146369504,0.0008695584572841262,0.00038298964180132197,1.0047085765799418e-05,-0.0002497383778355032,-0.00047077401192054764,-0.0007586847235471453,-0.00119034600520127,-0.0017651295947634922,-0.0023917688366434263,-0.002917035805652872,-0.0031808702777118146,-0.003072118733984584,-0.0025643667878575654,-0.0017239887467000714,-0.0006914291855755505,0.00035941618283037393,0.0012732907612321412,0.001958100415521089,0.0024007155709817873,0.002645841084081779,0.002751859569734469,0.00275185083857446,0.0026427584489303255,0.002405083723988393,0.0020347155404535073,0.0015611502052275048,0.0010364051491085972,0.0005002871079367807,-5.261785125396752e-05,-0.0006746768127803394,-0.0014232924570850398,-0.002293218939146564,-0.0031652835964709578,-0.0038138256625542934,-0.003986157898295989,-0.003523171818145382,-0.0024580207339937768,-0.0010332529306568258,0.00038209792987903756,0.0014389060661576128,0.0019461522613519499,0.001934135184355108,0.0016155259111164796,0.0012683309602065855,0.0011017647519698465,0.001171164336951636,0.0013790830617186858,0.0015521943228270357,0.0015444650474626153,0.0013079691805499688,0.0008967497892539114,0.0004107905405487297,-7.718322978112625e-05,-0.0005600748988412018,-0.001072560185572499,-0.0016231962674892572,-0.0021367828286969082,-0.00245904915057792,-0.00243230306422342,-0.001995721467425272,-0.0012396151507011273,-0.000370885839972242,0.0003912514573713499,0.0009207374255428604,0.0012238047300513605,0.001394065846231797,0.001524463611321475,0.0016402852545758426,0.0016927677972757996,0.001605136784103474,0.0013296430537693264,0.0008753949891712035,0.0002953524621404984,-0.000347072005879055,-0.000999002647660591,-0.0016095380931520882,-0.002105011716288255,-0.002380413022914681,-0.002328738420591002,-0.0018974540818109645,-0.0011342391256558807,-0.00018648267473860784,0.0007500629571822108,0.0015031504722169753,0.001974878136884389,0.002149707137424544,0.002069796825338555,0.001804571515565719,0.001432289322239052,0.0010307399429854845,0.0006647907342669945,0.0003674780267552579,0.00012548908147103863,-0.00011706652141033199,-0.00043294600504245617,-0.0008735515913468265,-0.0014341163446790998,-0.002037405382838963,-0.00254604159516344,-0.002804600876311276,-0.00269914877754825,-0.0022091975103268597,-0.0014252495845772837,-0.0005193040930004285,0.000320552530237415,0.000960943864719566,0.0013652653696469097,0.0015875537853000993,0.0017241462720060437,0.0018514955226168626,0.0019849301826458947,0.002079500694394337,0.002068140819109509,0.0019099077583393258,0.0016165435467954694,0.0012423393802789783,0.0008481615472406934,0.0004660684320192555,8.594029716455279e-05,-0.00033237535025897394,-0.000832246810436571,-0.001431796255816659,-0.0021018585904645677,-0.002755578824087667,-0.0032561090545480337,-0.0034479269154074807,-0.003208463711607842,-0.00250284055501143,-0.0014158598220703016,-0.00014105888348136663,0.0010738656245461214,0.0020037103603594833,0.002512068954964479,0.0025817021869044498,0.0023021370728025167,0.0018261668815437412,0.0013159919962761764,0.0008976669665428133,0.0006339620781322637,0.0005175933000470272,0.00048295129133545285,0.0004331881461132393,0.00027671167696011753,-3.733805550466254e-05,-0.0004966672145598188,-0.0010241010030608377,-0.001496392361263252,-0.0017776803456050626,-0.0017602044674755427,-0.001404315015186776,-0.000766404383644525,4.182525854897097e-07,0.0006843640582430192,0.0010877415324488397,0.0011094672136966923,0.0007985485203547733,0.00034451783305924953,-3.1758055052469314e-06,-5.697646698789825e-05,0.00020487434124764588,0.000611441832705744,0.0008733772181828605,0.0007289762315171462,8.998297126207202e-05,-0.0008911695101600862,-0.0018740698171385267,-0.002481380247543078,-0.0024718414179859204,-0.0018452052081539526,-0.0008268886534995991,0.00025206876792086154,0.0011078791128146528,0.001607250343216272,0.0017769627260603585,0.0017348587403066952,0.001598848348901585,0.0014316133682056595,0.0012440139427963399,0.0010363336833712918,0.0008336640055221557,0.0006835576316513895,0.0006186448760977946,0.0006163174694777344,0.0005899737237460726,0.0004225668618637057,2.3914498074850313e-05,-0.0006203201677279362,-0.0014322085323369088,-0.0022625894383457848,-0.0029373798148458327,-0.003309660854728876,-0.003299913321781953,-0.002913425513950084,-0.002231569300897779,-0.0013810863382342452,-0.0004925339163474445,0.00033623766146608804,0.0010569163094101602,0.0016622079619902433,0.0021594827357597885,0.0025435852571741723,0.002785352350635561,0.002842382771259083,0.0026854721134742716,0.00232535203911523,0.0018240117917867709,0.0012821638118557018,0.0008052267517716367,0.00046014971010282916,0.0002417954913322513,6.79797331325767e-05,-0.00018690705271858865,-0.0006287961415135833,-0.001280616191843514,-0.0020545251723121266,-0.0027795784891718515,-0.003273038497255595,-0.0034159087371487093,-0.0031899678289562887,-0.0026596523492843248,-0.001920288915677006,-0.001055206840043572,-0.00013081920566437774,0.0007779491264637168,0.0015678727174629732,0.0021246703332425424,0.0023748300636219164,0.002334995003486543,0.00211617560669979,0.0018696998965363606,0.0017047288651429247,0.0016301154787606521,0.0015582980128444053,0.0013667880024298422,0.000974923718654157,0.0003874460041594695,-0.0003152551309565084,-0.0010216663508935404,-0.0016313160040807562,-0.0020705563264190245,-0.0022866699281622505,-0.0022419727066350513,-0.0019221187421934766,-0.0013530844411094476,-0.0006106820466777539,0.00018744894323093628,0.0009050698922820798,0.001417620634217168,0.0016429751940634345,0.0015672450456556061,0.0012563510785428636,0.0008405061808029084,0.00046522693106486606,0.0002220098324955655,9.35660738142085e-05,-4.685235394961767e-05,-0.00036689980603427596,-0.0009657582235676591,-0.00178577765717747,-0.0026032335548735494,-0.0031133119971322397,-0.0030686567631857432,-0.0023983044934238655,-0.0012449217316308214,9.5655648817992e-05,0.001297439082739826,0.0021278442343401842,0.00251730603251161,0.00255204558494915,0.0024038236656913933,0.002236361074904466,0.0021340393247104694,0.0020832327157997857,0.0020073604837421706,0.0018282961485142923,0.0015153250453231175,0.0010953195475536196,0.0006251936109627307,0.00015068026779313038,-0.0003205591921505912,-0.0008174719815771943,-0.0013803515215894168,-0.002027030348529216,-0.0027261173368096697,-0.003387990847984577,-0.003878892461839776,-0.004057647113216837,-0.0038260709491567046,-0.0031741176578259788,-0.0021964083824147444,-0.001066170972750764,2.534797860400485e-05,0.0009350565419647141,0.001606806777804816,0.0020660536377773045,0.0023789351993873165,0.002602581072108414,0.0027545943040618182,0.0028149872739609066,0.0027538546762906763,0.0025643269522514483,0.0022787117809629706,0.0019558213680885687,0.0016448830939906334,0.001347875589948317,0.001006953374805733,0.0005307413464156008,-0.00015111275924086033,-0.0010349772027475786,-0.002021681113850895,-0.002937690771217426,-0.0035878814555831166,-0.0038169541244672373,-0.0035584371484450226,-0.0028582683550592764,-0.0018665534595893123,-0.0007964557309927373,0.00014156892426988942,0.0008084504416842633,0.0011777174557379717,0.0013266468678505043,0.0013798700085591547,0.0014358699648724473,0.001517735500359337,0.0015745672190196492,0.0015280033107130662,0.0013299503347109435,0.0009919510917592448,0.00056895815207621,0.00011573769162010806,-0.0003445354220693367,-0.0008112463454008813,-0.0012646942535968209,-0.001630597615733763,-0.0017888038452941702,-0.001631580627387793,-0.0011374646302148824,-0.00040994273819744366,0.0003515357358878646,0.000938960204918427,0.001233587426905843,0.0012561558446433844,0.0011386352422553092,0.0010350614297802126,0.001026692436284854,0.001078153527871277,0.0010665624632367654,0.0008602618485635438,0.0003982245812439462,-0.00027177086528819934,-0.001009776216285653,-0.0016406506474721176,-0.0020224438928060848,-0.0020965880237636403,-0.0018992373443028232,-0.0015295502011260678,-0.0010914337384299406,-0.0006411156917825149,-0.00017215409448657036,0.00035204154259156346,0.0009397550918369976,0.0015284852254331374,0.001992498189529714,0.002201127925063937,0.002092458812033691,0.0017142565789902632,0.001203722395871408,0.0007158967927600522,0.000342053727699624,6.556574363461186e-05,-0.00021849928094719838,-0.0006297121762564915,-0.0012155717501665599,-0.0019020859527413352,-0.0025120535603756983,-0.002842195763755713,-0.002755856897480092,-0.0022410377669241158,-0.0014076158801346903,-0.00043429061221190264,0.0005000816733486011,0.0012668004446260539,0.0018040478533049608,0.0021056798721969337,0.002198963557647716,0.0021266782851504023,0.0019386263153813932,0.0016865238718608718,0.0014135220695774163,0.00113806904869897,0.0008433405634530976,0.0004852004910106552,1.982828417182664e-05,-0.0005627134985550673,-0.0012171505163031853,-0.001844233584724768,-0.0023138991411189237,-0.0025030360084786862,-0.0023372138296156395,-0.001823020383820376,-0.0010577141532941607,-0.00020902769715737618,0.0005316020469554386,0.0010091189357644683,0.001157940333962218,0.001025350534522029,0.0007495352835471128,0.0004961038509600257,0.00038107757716888285,0.00042012193606889945,0.0005315276581682141,0.0005897581218935936,0.0004974389990511192,0.00023560432548502667,-0.00013144946547362347,-0.0004922107328569714,-0.0007393318159681439,-0.0008082162139406776,-0.0006888794160992444,-0.0004158229708306609,-5.0489360414124723e-05,0.0003326939000903555,0.0006561370259121479,0.0008510257242322886,0.0008750098145220515,0.0007301248453675423,0.00046838522776484787,0.0001751575379591003,-6.699545693931384e-05,-0.00021683741559415704,-0.0002925021796056431,-0.0003553413413837981,-0.0004664422974062299,-0.0006419880220644861,-0.0008366363800901735,-0.000965957661884178,-0.0009520892660527867,-0.0007623390241229713,-0.00041963437258658734,1.3127244079944554e-05,0.00045665940186130237,0.0008319371613020117,0.0010706986049680745,0.0011300606097543937,0.0010133921989180486,0.0007817988089103549,0.0005344748831243649,0.00035525149330464974,0.00025519023184132086,0.00015673508774843295,-5.706063428820556e-05,-0.00045244193620011487,-0.000974073985925077,-0.0014469729430956033,-0.0016589672740141125,-0.0014783221296752638,-0.0009360889111555408,-0.00022118600846577876,0.0004127888073154022,0.0007767361434228479,0.0008362757223043106,0.0007112635780537056,0.0005881504990325245,0.0006011705680680054,0.0007547416844359302,0.0009301870431456564,0.0009654139003288308,0.000753330560754308,0.00030047360475094387,-0.00028052472535040917,-0.0008289327227986331,-0.001204752753016832,-0.0013329176109164614,-0.001209816933772857,-0.0008822534312868899,-0.00041981119869808703,0.00010266960385801579,0.0006093175443260693,0.001023354944559551,0.001275009129132261,0.0013206631041519108,0.001164069071395712,0.0008637237910341368,0.0005152965250441786,0.00021177835377958953,-1.3792140476989734e-06,-0.00015210692979994618,-0.00033050240228687773,-0.0006399327543501337,-0.0011308335560359292,-0.0017508609850865767,-0.002341794632258316,-0.002693087026202191,-0.00263297776971905,-0.0021150641174842596,-0.0012544134887387275,-0.0002878518334352309,0.0005291568474143389,0.0010397500310886923,0.0012536458042227887,0.0013247218795343467,0.0014485208831385835,0.0017406304137727248,0.0021705708773499034,0.0025892863895804197,0.002826093598280125,0.00278790293465928,0.0024986317829637375,0.0020616566833565678,0.001578416328336769,0.001079783589563948,0.0005137053030924414,-0.00020467515081593946,-0.0011127693312008395,-0.002141163321418079,-0.0031140289284737064,-0.003811892915984719,-0.004061727965749291,-0.0038055814070816975,-0.0031162871948206966,-0.0021613427514626613,-0.0011403648437248285,-0.00022592775256362048,0.00047339850684060885,0.0009235423027952926,0.001154016339743883,0.0012331700254825857,0.0012367759463527785,0.001217941081896674,0.0011882346360006838,0.001118841365777318,0.0009633739099060147,0.0006928437890995273,0.0003249507496246389,-6.94902422367057e-05,-0.00038961184549534365,-0.0005479677125313501,-0.0005123027482528218,-0.0003213394019129412,-6.322422939373162e-05,0.00017217403808435488,0.00033867187774773406,0.0004499334352852018,0.0005591383754615358,0.0007180723997348257,0.0009420057861137018,0.0011994152810823426,0.0014280704504381655,0.0015632852315933302,0.0015587892124768786,0.0013882751237832974,0.0010323935298298453,0.0004707615962119497,-0.00030227059243939907,-0.0012398228904807601,-0.0022103283898627377,-0.0030064579419782898,-0.003408429295304282,-0.003276440440518551,-0.0026212440938594758,-0.001609806609559678,-0.0005000394916311489,0.0004606944284029921,0.0011206515056187173,0.0014536446461713946,0.0015290012505963096,0.0014482043802271543,0.001286694283615434,0.001068370829971469,0.000777105880343406,0.0003894869444343429,-9.346949148227078e-05,-0.0006305497035965064,-0.0011427327832984231,-0.0015282523065518717,-0.0016858955599540273,-0.0015455688246661615,-0.0011016121961891039,-0.0004336386158532938,0.00030566975930223367,0.0009433624904316151,0.0013590022154259859,0.001535208012660114,0.001551261559846574,0.0015221511346870443,0.0015249540568370444,0.0015628818692522309,0.0015856177526507947,0.0015391553522150513,0.001398479524010642,0.0011585138264603749,0.0008017037687273128,0.00028542897944904846,-0.00042357153274119727,-0.0012851644323106722,-0.00214559611055615,-0.002769302211678549,-0.0029432016308756164,-0.0025969687445521468,-0.0018605609784810068,-0.0010130926523898034,-0.00034513205586219264,-1.3697680953212669e-05,2.3620500021323196e-05,-4.250612444623315e-05,-6.420543433217733e-06,0.00022206917240496019,0.0005698696814998121,0.0008590384509569865,0.0009261551559243235,0.0007220730127209399,0.0003317601462419254,-8.797680565889206e-05,-0.00040161193412303485,-0.0005545495651440207,-0.0005674658744877968,-0.0004840563750348227,-0.0003210001168690328,-5.881994177248887e-05,0.00032491310518922975,0.0008110610896640714,0.001319104778672651,0.0017273013795819714,0.0019208735693388762,0.0018413811181361905,0.0015134259209988075,0.0010385458328005014,0.0005596972631993634,0.00020762680649762956,4.504156859312311e-05,2.9841271854389817e-05,2.1187698034303684e-05,-0.00015923512707401643,-0.0006280921308752879,-0.0013530927590882761,-0.0021345709343470283,-0.0026807847220936603,-0.002745802136039455,-0.0022563985534584897,-0.0013562690092163827,-0.0003426854550810307,0.0004681254328821852,0.000874509930418264,0.0008578753250522154,0.0005633828613814303,0.0002147285712674721,9.456676478631493e-06,4.015077931048862e-05,0.00026846480563401257,0.0005553037919674626,0.0007302133075358166,0.0006704357642788938,0.00035728068480585847,-0.00011401851989935037,-0.0005755263303179458,-0.0008594448933215597,-0.000866410778278225,-0.000595935313908722,-0.00012926175994283108,0.0004161321224616392,0.0009286463899856485,0.0013222051756943166,0.0015386748701716212,0.0015509876145969987,0.001375170076858853,0.0010788012354761675,0.0007643452286056176,0.0005209629561849687,0.0003679938299553983,0.0002316657614389447,-1.636123102248012e-05,-0.00047027504536693767,-0.001103020041094951,-0.0017415938685772982,-0.0021320110423780243,-0.002064324890718436,-0.001486367076956745,-0.0005392226119897655,0.0005037262381517877,0.0013540273898684399,0.001814531221660493,0.0018265411803815176,0.001453302310093353,0.0008297908981666257,0.00011331907591681512,-0.0005497038270880807,-0.0010461269793471655,-0.0013171599286150252,-0.0013763272887207401,-0.0013099922054820266,-0.00124737280702152,-0.0013033473112284812,-0.0015173592093623762,-0.001820237989699076,-0.002050025693435011,-0.0020136174589385804,-0.001568430916575872,-0.000690107526329229,0.0005006504856537473,0.0017638869110077338,0.0028131366077570547,0.003411657246860448,0.003455569962079166,0.003007791961615278,0.0022655476565765437,0.0014749843537076434,0.0008330140735258993,0.0004229678698325287,0.00021149277357473354,9.980480870548213e-05,-6.023040843067609e-06,-0.00014650366821446908,-0.00030383200054837187,-0.0004334097405521726,-0.0005039706369684423,-0.0005184033672388879,-0.0005056721363829631,-0.000495916461392791,-0.0004996009330087742,-0.0005036021287526866,-0.0004827243102962981,-0.00041706621025246063,-0.00030712388488267307,-0.00018308353646404128,-0.00010558641264083552,-0.00015278022486791025,-0.00038955745291829186,-0.0008248981158970993,-0.0013784217766867682,-0.0018843590760416304,-0.0021472685258853846,-0.002030914018182015,-0.0015316972753337205,-0.0007880363304648111,-1.4169313383230464e-05,0.000603142875722832,0.0009817885830303683,0.0011525092060365933,0.001204819960084739,0.0012173460105750855,0.0012205979164714865,0.0012062739325234045,0.0011590415066779934,0.0010755647969820823,0.0009566830004146881,0.0007893656878605977,0.0005463964213929659,0.0002141367585016974,-0.0001708513601346097,-0.0005098405371460276,-0.0006735402184545841,-0.0005641704833632979,-0.00017192964062319113,0.00040634518951372634,0.0009941688680952453,0.0013933515204660966,0.0014517872217844788,0.001123361262289679,0.0005012840329016255,-0.00019881836600556648,-0.0007207256520867635,-0.0008935444643442393,-0.0007366057929275804,-0.0004668450586404196,-0.00038075726960390334,-0.0006688332303005987,-0.0012797362272757226,-0.001931053669384134,-0.0022690490802714193,-0.0020771626096069157,-0.0013982491810960286,-0.0004959143606869387,0.00030855041798342336,0.000808057279304504,0.0009838462328806128,0.000957125219714636,0.0008782653994185982,0.0008383323316227122,0.0008467036553840468,0.0008589470404152335,0.0008129709526545016,0.0006501964168667712,0.0003302550354966447,-0.0001451769520802986,-0.000706082714140297,-0.0012136925198746756,-0.001505317960869852,-0.0014677059832470763,-0.0010933058138661422,-0.0004816731294951201,0.00021265005261912042,0.000848146442250451,0.0013382842598995584,0.001652143633159393,0.0017901530390337208,0.001762966037218051,0.0015884028991205819,0.0012992636581589268,0.0009438249079825574,0.0005694593322780519,0.0001994642006740259,-0.0001746390426769235,-0.0005716994606480327,-0.000981759526814562,-0.0013408763661190378,-0.0015474260746203828,-0.0015177113143218653,-0.0012455358468823974,-0.0008213952551979467,-0.0003920557791251757,-8.289713444448676e-05,6.807886139117677e-05,0.0001233003515983015,0.00019852318738126972,0.00038414650423990995,0.0006798565465922102,0.0009782693009627837,0.0011063265376803867,0.0009041224047918765,0.00030431974320007174,-0.0006227878013883113,-0.001677644744692201,-0.0025908976487364743,-0.003111682332726395,-0.0030903876351329428,-0.0025236163350770367,-0.0015464483143750943,-0.0003813286543619789,0.0007303138180513227,0.0015877473041891691,0.002069718004747789,0.0021539734359964143,0.0019214084214801488,0.0015406493431388843,0.0012236254444885322,0.0011523285118975898,0.0013996271009602147,0.00188493801235361,0.0023984130511912703,0.0026917476312411453,0.0025914585301913644,0.0020735103432635528,0.0012617029257228757,0.00035968292437965795,-0.00043783028670452834,-0.0010088740573268211,-0.0013250512135668186,-0.001438524808190328,-0.0014521683617406958,-0.001482761785057336,-0.0016213192061554811,-0.001897738220122752,-0.0022630607280150665,-0.002601899717106459,-0.0027764023041755917,-0.00268645933839529,-0.0023186489913067034,-0.0017578112802848558,-0.0011525588519618645,-0.0006509651160578941,-0.00033936297001654556,-0.00021424924965745065,-0.0001973912782765961,-0.000181334184716089,-7.988886957428299e-05,0.0001402588970562885,0.00045921475862468857,0.0008318238537800586,0.0012262575677778834,0.0016475677731590634,0.002126547780748271,0.0026758727901986484,0.0032414086634746367,0.003687389831717314,0.003837752161723504,0.003559427401403671,0.0028408926575705234,0.0018154606443212644,0.0007103331162038578,-0.00024976225285822627,-0.0009253068588914379,-0.0012835874284620602,-0.0013585208201684074,-0.0011944661411653415,-0.000827617581212154,-0.0003202491300866861,0.00019010800279745132,0.000487398830241926,0.0003511800559847047,-0.0003223755266846019,-0.0014301197216506287,-0.0026717715907151815,-0.003667662982527923,-0.004121004120526163,-0.0039341569396009295,-0.0032225721870255226,-0.002235184164425776,-0.001237960363786509,-0.0004214328055266335,0.00013687871360725705,0.0004587002900873797,0.00062094615594936,0.0007032028895374107,0.0007451318482984393,0.0007306541712425911,0.0006096575045863506,0.00034972404990548907,-1.2810409652246404e-05,-0.00036057907988073287,-0.0005380960275580913,-0.0004277387235067428,-1.1508190002187078e-05,0.0006201160723032107,0.0013155627678997544,0.0019334003452467362,0.00239318864963258,0.002680515193329739,0.002815952524884453,0.002822702980990678,0.0027225785962181255,0.0025586570723732578,0.0024123779505000283,0.002380886241843382,0.0025118474709723603,0.002734450998458729,0.0028430713326969025,0.002565447443679525,0.0016926621239034929,0.00020121406001640603,-0.0017058660415118082,-0.003666327416196295,-0.00529879732669193,-0.006341958344666933,-0.006726655159820313,-0.006556156363253745,-0.006017086591923043,-0.005273804566211155,-0.004402233715580742,-0.0033956104312750784,-0.002233059507384846,-0.0009616765176115125,0.0002701282033005315,0.0012607723308927193,0.0018605022206237948,0.002063850832400439,0.00202378099703589,0.0019735554378087173,0.0021042686071201626,0.002472540908428477,0.0029878237903383092,0.0034753766464517034,0.0037691586373222938,0.0037824667542969564,0.0035278245675232894,0.0030892755693511563,0.0025709589380981286,0.0020496099073052908,0.0015497008773687204,0.0010464275272568813,0.0004906541980463485,-0.0001558320777155283,-0.0008881539132704508,-0.0016421706037605469,-0.0023033427270212513,-0.0027404883140534197,-0.0028523414990676297,-0.002607686958466313,-0.002063225542528432,-0.0013544336575645587,-0.000664473621369611,-0.00017898535157161643,-3.37571058117523e-05,-0.00026535222317597895,-0.0007829534294593755,-0.0013836284905249605,-0.0018208806237897208,-0.0019070022812316687,-0.0016006832237882894,-0.0010277178615984146,-0.0004156760905145063,2.4594845812114102e-05,0.00020339142653076191,0.00018443118312323498,0.0001328710543555163,0.0002167444373943903,0.0005208240462828374,0.0010154238952700565,0.001584844200733477,0.002088351113287234,0.0024179880579955973,0.0025292449656295958,0.002438453228738267,0.002194825173901337,0.001843950967085048,0.001402904700459586,0.0008614493470266865,0.0002087453897745722,-0.0005315610930988611,-0.0012816666489128112,-0.0019210420825488328,-0.002326587320768813,-0.0024217119743517182,-0.0022081540079664256,-0.001763383162441354,-0.0012058038292852096,-0.0006476168929969149,-0.00016002311106669666,0.00023515164319549324,0.0005511622061279125,0.000814458268171126,0.001047200200026037,0.0012548128851625436,0.0014140790495784776,0.0014650979493217066,0.0013211949761878557,0.0009076019967387185,0.00021814728874690383,-0.0006441692008979753,-0.0014784903094566156,-0.0020574886701435584,-0.0022272690218447834,-0.0019805966121266136,-0.0014587420089531445,-0.0008774571617226884,-0.0004182767440509963,-0.00014759214907470483,-7.35981589689667e-06,0.00012498938864566843,0.00035127349082865467,0.000694113926470701,0.0010913256369685458,0.001432674337165745,0.0016092482531610032,0.0015515791241420308,0.0012497660065169617,0.0007587424242080738,0.00018977228998590286,-0.0003146905262927128,-0.0006214998235455204,-0.0006510281939450561,-0.00040682494213909815,2.389755746049719e-05,0.000501541585063105,0.0008858325260225849,0.0010869410418515102,0.001093881968989192,0.0009671602209472103,0.0007988668708471619,0.0006590861158187699,0.000554662650087354,0.0004215284878885052,0.00015665533772940814,-0.000323659753117178,-0.0010271101628161361,-0.001859767503417171,-0.002647175751543817,-0.003195167545064348,-0.0033635145576612836,-0.003118044844452738,-0.0025361298148165777,-0.0017639439254272405,-0.0009504821098822716,-0.000195959908204992,0.00045999652077564554,0.0010145164843621468,0.0014700395069309146,0.0018223730753260175,0.0020719214452253657,0.002237575518000647,0.0023496643852878676,0.0024193035800946674,0.002408188531395365,0.0022310924018317108,0.0018028997456084692,0.0011066254773060367,0.00023661988780160695,-0.0006181252066625176,-0.0012478167992798495,-0.00151280401691013,-0.0014016000084631202,-0.0010276514332362638,-0.0005711921798173397,-0.0001976080006995352,9.598975285551956e-06,7.139080720802715e-05,8.036717351698856e-05,0.00012813854965837077,0.00023275722098526318,0.00031143343357881593,0.00022133141610886304,-0.00014897090937504343,-0.0007888400385963171,-0.001533040897401276,-0.002115713355484234,-0.002290073612684795,-0.0019516607547821801,-0.0011955521984869778,-0.00027216367857421046,0.0005356112921653007,0.0010439799067591647,0.001233920597245266,0.001219428492478392,0.0011491480080974023,0.0011103290572419867,0.0010930517475478488,0.0010248712326869694,0.0008387884661152776,0.0005228577662156186,0.00012255038133988352,-0.00029452519728980636,-0.0006770188595576648,-0.0010010981368129312,-0.0012509427767061706,-0.0013916230295282356,-0.0013636614959999607,-0.0011099428555462181,-0.0006178994902025967,5.387563572130101e-05,0.0007843737964589731,0.001428874081772277,0.0018645960918234296,0.002022246127040621,0.0018968074929462688,0.0015421087970326388,0.0010542544184491678,0.000544780693035915,0.00010537681459827698,-0.00022540837092457433,-0.00047500103813166543,-0.0007144342284850489,-0.0010048321287445504,-0.0013404934293028206,-0.0016266746967464375,-0.0017149235871885974,-0.0014837308859545664,-0.0009198347383479921,-0.0001492882154980977,0.0006057383975883058,0.001124297270318183,0.0012847937250527247,0.0011099151317278447,0.0007367437527370253,0.00033458652351978004,2.044523488325999e-05,-0.00018330580020371485,-0.00033524570256137243,-0.0005241040503891146,-0.0008136762944571871,-0.001208453011088941,-0.0016474144845483956,-0.002020174991068685,-0.0021960505933819874,-0.002059264581885414,-0.0015459064126501613,-0.0006761472074942139,0.0004303462351467769,0.001570255363721509,0.0025100247854349077,0.0030642514335267133,0.003167134752671049,0.0028999781024938165,0.002454209375555988,0.0020408620314792056,0.0017870385132971937,0.0016708143756399157,0.0015312037745927082,0.0011548427477635454,0.00040132055569564893,-0.0006962008178576684,-0.0019133498852865949,-0.0029190709188413816,-0.0034248107213582725,-0.003319545300163793,-0.002715513341106832,-0.0018804871047280935,-0.0010992597017263068,-0.000545660064135399,-0.00023268584330141898,-5.5234298592381215e-05,0.00011461279137259988,0.0003422190366213717,0.0006003974957603157,0.0008014520754608485,0.0008625759750352689,0.0007612598465716193,0.0005477835428581527,0.0003102974042314382,0.00011836214139391362,-1.5702785161721806e-05,-0.00013166221242672687,-0.0002783478651766948,-0.0004661999464821314,-0.0006506006567749388,-0.0007558903812001146,-0.0007183993824209237,-0.0005153257802376209,-0.00016326047848835802,0.00030147054552213167,0.0008352809073244646,0.0013804762664486412,0.001852311544088315,0.0021447989714151747,0.002165391717196742,0.0018806442390143533,0.0013400454046226615,0.000658062152725711,-3.552599949445878e-05,-0.0006446270055029634,-0.001125248841933962,-0.001467292818240978,-0.0016605137895408482,-0.0016757609480742355,-0.0014791678093808774,-0.0010697160020983073,-0.0005101868453302192,7.618452076939657e-05,0.0005475644032272701,0.0008012027147889385,0.0008134929341820606,0.0006405700159249433,0.00038152141055634576,0.00012617828387587518,-8.488440169282258e-05,-0.00026889975290170405,-0.0004748440519781144,-0.0007364229428462672,-0.0010296362120833253,-0.0012617315962521625,-0.001305105446435644,-0.0010649845464520758,-0.0005462016534779886,0.00012210291304558805,0.0007268287608463894,0.0010637134637110058,0.0010367154157173719,0.000708672514064789,0.00027152391292347257,-5.0794681450321575e-05,-0.00011483999611052939,7.484269336591621e-05,0.0003770718208483863,0.0005941523513365134,0.0005756153383995426,0.00029210507348321254,-0.0001543507247108401,-0.0005825706851931619,-0.0008150194678794463,-0.0007487423812185161,-0.00038552700305479956,0.00018188640360910634,0.0008108251661939092,0.0013556867839768986,0.0017063222736822792,0.0018111584477130682,0.0016825320357424555,0.0013836629096372509,0.0009999800070238118,0.0006029010349734337,0.0002195650117591116,-0.0001760574841737435,-0.00064098183463606,-0.0012155240148378826,-0.0018742675281793017,-0.002507604811055897,-0.0029521558343757986,-0.0030587570724044076,-0.00276103809405025,-0.0021050720822467606,-0.0012243176540958963,-0.0002780353635787624,0.0006080191601167931,0.0013660922690712724,0.0019705492088070934,0.0024033734473272537,0.0026314751642649787,0.00261196473543993,0.0023174130084283664,0.0017589939941628856,0.0009913488856926494,0.0001007909264003487,-0.0008097248848354974,-0.0016293027561623621,-0.0022447432616340877,-0.002553669409551512,-0.00248974003952115,-0.0020510126875618964,-0.0013144977956706474,-0.00042532358923816,0.0004374311073530187,0.001106477710366292,0.0014713356001871858,0.0015124945704217494,0.0013127011976878243,0.001032239256573517,0.0008458643563926515,0.000862374164037223,0.0010673499682777635,0.001325384617993449,0.0014464448257562605,0.0012817345258069393,0.0007965286185175834,8.414325913130914e-05,-0.0006780054480480546,-0.0013004507929666382,-0.001647069811413713,-0.0016720582437335192,-0.0014226601582597823,-0.0010127595094927364,-0.0005792468761728722,-0.0002371215902181288,-4.856795086218327e-05,-1.4540069091155926e-05,-8.802845402426651e-05,-0.00020128968646408903,-0.00029659208975036646,-0.0003494289480734732,-0.0003739967437863113,-0.000406305453696679,-0.0004724528407717972,-0.0005618554627124916,-0.0006255148980481408,-0.0006029181647320314,-0.0004590944133803579,-0.00020477751020702459,0.00011394442006280403,0.0004459855371856263,0.0007609406492796976,0.0010520876928836681,0.001318726528564807,0.0015455792365648385,0.0016966405836558538,0.0017274248329393,0.0016058395533156086,0.0013283636922018106,0.0009247247506368959,0.0004524659012245989,-1.4876551022711439e-05,-0.00040522633829226406,-0.0006712240641474969,-0.0008132730625475002,-0.0008877061109891448,-0.0009857234824756115,-0.0011841877682358848,-0.0014916200714377792,-0.0018236524473429325,-0.0020294924836823224,-0.001960680822372624,-0.001546332869090485,-0.0008340364235981654,2.4743620977133243e-05,0.000835466679571578,0.001435689410885923,0.0017489010456768193,0.0017950958875039905,0.0016588934622267482,0.0014366588751661493,0.001192558136537833,0.000944628134680608,0.0006805263400526951,0.00038341307467916713,4.6239234587219335e-05,-0.00033111230308454655,-0.0007483066888478963,-0.0011979391753664489,-0.0016451776531087607,-0.0020122674257004756,-0.00218936670612644,-0.0020758188503536053,-0.0016325731485874431,-0.0009150671852068636,-6.411171835965686e-05,0.0007451841106124102,0.0013721706076888357,0.0017604169860879933,0.001940524256116163,0.001986025844047535,0.0019530849387259267,0.0018456694791224887,0.001628945107985318,0.0012774294808967567,0.000818117675813483,0.00033268463300670757,-8.569761892841202e-05,-0.0003902504684542298,-0.0006100885516100449,-0.0008275697600569067,-0.0011167303259608968,-0.0014844861386457222,-0.0018557732509105569,-0.00211342189196596,-0.0021642822926152233,-0.0019847168333430223,-0.0016163357132555813,-0.001123000865282869,-0.0005497156338359406,8.144223462709828e-05,0.0007387385676654919,0.0013470386117769456,0.001792419610109645,0.001973045569973358,0.001862939257720392,0.0015392379119945497,0.0011468575940250041,0.0008192622484326211,0.0006059937425585091,0.0004537472030737126,0.0002523923480355476,-8.379706445600307e-05,-0.0005496298022182003,-0.001036411931582726,-0.0013804292170473088,-0.0014454894471911208,-0.0011940967830621483,-0.0007084568823995381,-0.00015087123082551876,0.0003129557709249326,0.0005850267923537406,0.0006643005505700534,0.0006237775675820545,0.0005541231133934991,0.0005087396782033418,0.0004809573227095654,0.00042233153156668386,0.00028488218871974857,5.64143782194078e-05,-0.0002336424769030644,-0.00053674662849388,-0.0008143943993917909,-0.0010499943837734794,-0.0012359016817454125,-0.001349417742368889,-0.0013416636232277995,-0.0011543425403762293,-0.0007576380118977902,-0.00018391741727410635,0.00046895752082405347,0.0010721772078826515,0.0015201901801659532,0.0017722153984980134,0.0018565827889217628,0.0018375742670446685,0.0017675621326606419,0.0016544210806090983,0.0014626402493041425,0.0011447489288965574,0.0006810733416836641,0.00010197354373176737,-0.0005201379329706566,-0.0011012574293640307,-0.0015779719937364187,-0.0019228832550246952,-0.002138407665506271,-0.002238202491575487,-0.002230929098604896,-0.002115885004933327,-0.0018896899428808207,-0.0015560003614499196,-0.0011306014036003274,-0.0006397885387834645,-0.00011496846654904897,0.00041250529380053476,0.000914200692561765,0.0013652080866564389,0.0017429762085489394,0.002024719930290251,0.0021851505294384703,0.002198863363802653,0.0020511960616394326,0.0017546809820121858,0.0013595899748862213,0.0009458931377064843,0.0005946177559270581,0.0003519212462697952,0.00020637449405575535,9.307993833011818e-05,-7.66854845821762e-05,-0.000373893903795417,-0.0008157831362586351,-0.001349838210179446,-0.0018650496238226256,-0.0022282124086907685,-0.0023325099545142853,-0.002138717980967991,-0.0016913389809907434,-0.0011027995809329565,-0.000512263316951654,-3.530494277367803e-05,0.00027551405069464177,0.00044200217459900836,0.0005376093782868347,0.0006419167058568272,0.0007972684494514087,0.0009910596534314412,0.0011699202481852368,0.0012716323864684275,0.0012526552006176114,0.001098211223289911,0.0008180521641060964,0.0004396621189459971,6.3198762532152425e-06,-0.00042256875255323014,-0.0007765266829068088,-0.0009885777229300973,-0.0010154563969651629,-0.0008536695595050628,-0.0005422871136808666,-0.00015041550016567536,0.00024423540066963845,0.000575719578218852,0.0008024499617388748,0.0009111918401044899,0.0009144092316764477,0.0008416714627381317,0.0007248137789678025,0.0005794723321796069,0.0003909556617757547,0.00011492040235241486,-0.0003010332212486933,-0.0008794222635890993,-0.0015751057343119973,-0.0022599779029368644,-0.0027463339183762103,-0.0028473679238891565,-0.0024521614052135025,-0.001580717673874126,-0.0003908299353577008,0.0008691496683561593,0.0019414642270322335,0.0026386264593138056,0.0028896835066902467,0.0027400094323990595,0.0023144659426578445,0.001767931459542538,0.0012449383175940783,0.0008544542934649743,0.0006508908628421605,0.0006133463092254355,0.0006321996535709957,0.0005271055256739353,0.00011267298897595828,-0.0007034680473771162,-0.001838697125924031,-0.0030249546887578336,-0.003894605501972609,-0.004133641130448202,-0.0036285028918493813,-0.0025273182081490923,-0.0011779846234053854,2.797351759350965e-05,0.0008250069776736612,0.001169647281053219,0.0012188573822342784,0.0012126642148539396,0.0013342952213312698,0.0016267891157088108,0.002002688402984794,0.0023223854515543032,0.002479330511650416,0.0024397367046236937,0.0022270275546888455,0.0018804625982805482,0.0014253640765240717,0.0008709450020768219,0.00022544067789201502,-0.0004903974799374113,-0.0012396321854984212,-0.0019698072324056265,-0.002611639471723738,-0.0030802649667759996,-0.003290306637861395,-0.0031868195783030925,-0.0027758825599922075,-0.0021308982165502465,-0.0013648326002513012,-0.0005843821191634115,0.0001432743787430018,0.0007905117817110207,0.0013423448383003348,0.001770127349913029,0.002031220568801531,0.0020963002343460844,0.0019812113835135634,0.001755152027841223,0.0015144290665886737,0.0013357195321172261,0.0012365639525057648,0.001166527387376713,0.001034623028655218,0.000757808624658234,0.0003037392464529075,-0.0002938062370746215,-0.0009499869949971113,-0.0015599241778048003,-0.0020267114286762183,-0.002276935081289646,-0.002267548445826421,-0.001993334580318527,-0.001497414583095282,-0.0008751631328842103,-0.0002573692658260323,0.00023102661408200503,0.0005209865744209512,0.0006303713645658136,0.0006546593160677639,0.0007182316565800264,0.0009089239780015243,0.0012265456794083884,0.0015688924923236802,0.0017637895837076022,0.0016389586241614563,0.0011052004680275648,0.00021676211808542258,-0.0008251628341634454,-0.0017377270329996903,-0.002267044287918777,-0.0022921221534190337,-0.0018687185332848103,-0.001189928742341799,-0.0004856706514905312,8.347319524442407e-05,0.00048163596326180886,0.0007773982898434323,0.0010673645946664906,0.0013935669550659635,0.0017042730048516211,0.001878870811350226,0.0017991524000757942,0.0014242443687918962,0.0008268150022740549,0.00017029324218014529,-0.0003628961976304062,-0.0006575049252986227,-0.0007222568553348551,-0.0006846393318265371,-0.0007207249897157575,-0.0009531487202575706,-0.0013727298414394741,-0.001831008184387173,-0.0021125756918734633,-0.002049013694922175,-0.0016102181782203804,-0.0009212262714575049,-0.00019608467451451842,0.00037196328271286473,0.000701306575851129,0.0008447761818084591,0.0009362294631025075,0.0010961770348327027,0.001353459876055702,0.0016284442199821926,0.0017852869988391946,0.0017189319577491744,0.0014225103445503944,0.0009953213955016971,0.0005898162161342447,0.0003314200031222887,0.00025599203900512294,0.000294683013804458,0.0003093734860454751,0.00015923673097496902,-0.00023214640281206292,-0.0008381041885474772,-0.0015350485616020706,-0.002150547024353933,-0.002531055094263776,-0.0025968541355007465,-0.0023582042003703167,-0.001889338808655456,-0.0012823345494461776,-0.000612251158688712,6.89877685146566e-05,0.0007170006240203107,0.0012790841486133454,0.001694840771533354,0.001914386499227413,0.0019223375211309792,0.0017525617958205166,0.0014835111674398758,0.001212404336061334,0.0010157355830769797,0.0009117223165871565,0.000844091298989645,0.0007013399542226927,0.0003697286811842113,-0.0002017401326615463,-0.0009573676426803888,-0.0017376399566446014,-0.002331508019275581,-0.002555203712095359,-0.002322197068275191,-0.0016751034728696003,-0.0007696535961940736,0.0001783544815867705,0.000960043637332107,0.001431432430969105,0.0015478038516037324,0.0013687063011509136,0.0010328459389479774,0.0007062209598486575,0.0005152991642022963,0.0004890059671725721,0.0005392782018000689,0.0004992495979385867,0.00021018323739807176,-0.0003826737893171091,-0.0011777408229010316,-0.0019424004320594424,-0.0024085351295392785,-0.002390849662203414,-0.0018674333326748878,-0.0009839535782646975,1.5094590266195081e-05,0.0008888009873092039,0.0014856712430588645,0.0017776386960322973,0.0018359010280048055,0.0017699901840685112,0.0016662024117243895,0.0015566888573600793,0.0014285963095782373,0.0012567731148387506,0.0010308887588830742,0.0007569827734900387,0.00043696242035506173,4.899448036536181e-05,-0.00044800769103918556,-0.0010816767864646934,-0.0018248358871325713,-0.002575145635572436,-0.003174103120245994,-0.003459482343914085,-0.003325429831106632,-0.0027615664567960142,-0.0018560774509278394,-0.0007666046130939074,0.00032529621250769263,0.0012592332614525898,0.0019288766702825885,0.002296810913401866,0.002390566298413113,0.0022840140467597393,0.0020716597880746394,0.001842897236677512,0.001660417756187515,0.0015458839990766594,0.0014774789689012658,0.0014032942635986488,0.0012675189806812246,0.0010364944020950955,0.0007085228082089976,0.00030081487250325774,-0.00017605656600315028,-0.0007342557585955103,-0.0013971367417490474,-0.002160367755324443,-0.002948771378372864,-0.0036035728333567623,-0.003923490697531737,-0.003750527491937949,-0.00305673872831023,-0.0019781498263761023,-0.0007685780110453038,0.0003059046914568092,0.0010748149527419998,0.0015164493943646098,0.0017336583981909929,0.0018731663352008151,0.0020365893154598506,0.002230360938987696,0.0023770282561485123,0.002375762758700788,0.0021730147352296797,0.0017996900564477957,0.0013524626794807738,0.0009319019106699457,0.0005778002535404354,0.0002450760643078638,-0.00016088224254120996,-0.0007085748276840149,-0.0013717314576903042,-0.0020143211231324247,-0.002444941846923836,-0.0025129430108525876,-0.0021902544236408854,-0.0015890352938267805,-0.0009037165210878874,-0.0003124898590834039,0.00010270999859913978,0.00037250470881350925,0.0005889668203932694,0.0008250941736282268,0.00107832190305661,0.0012721834520855496,0.0013099254229766307,0.001139921225671378,0.0007879316456198672,0.00033796627789578037,-0.00011869755370272567,-0.0005262815977987645,-0.0008703921281235294,-0.0011506662812685719,-0.001349680737140958,-0.0014266874966118025,-0.0013405803688505825,-0.0010815897997051944,-0.0006858424651996641,-0.00022246100472616542,0.00023627014359666967,0.0006413989846933994,0.0009756775599195672,0.0012424615500413172,0.0014456750091413032,0.0015759034098911965,0.0016128807776228373,0.0015427278860075497,0.00137675398367372,0.0011562979140466942,0.0009372209803100605,0.0007613831506229012,0.0006309844679021569,0.00050026215001502,0.0002901302689967472,-7.895387425364375e-05,-0.000647640146863331,-0.0013863871067420824,-0.0021860674806656703,-0.0028795395268900272,-0.0032925517940522227,-0.0033071978191640443,-0.0029096441486330645,-0.002196722133875462,-0.0013359818247240221,-0.0004996020419406063,0.0001940969967126336,0.0007061310884071773,0.001065679587840582,0.001336446896266517,0.0015787358916595573,0.0018200835082734733,0.0020423638733523693,0.0021907795331589947,0.002204149749145657,0.0020538291830931683,0.0017687074786997708,0.0014277109870465734,0.0011204212887735187,0.0008980163418327676,0.0007441690578005528,0.0005828765953574815,0.00031715084713406633,-0.0001239325553641737,-0.0007520655833767778,-0.0015100622156018603,-0.0022833214672950165,-0.0029264103574903706,-0.0033000298749386214,-0.0033115300367203265,-0.0029457075806506388,-0.002270210941031807,-0.0014094783268496195,-0.0004995642674614457,0.0003508536440003712,0.0010733625749397141,0.0016276970980235905,0.001984451899137944,0.0021223580991181394,0.0020424118268791177,0.0017838351251262402,0.001424778449062781,0.0010628839270891894,0.0007846510915993977,0.0006376416830644756,0.0006156577359545652,0.000660312553304419,0.0006778370972364875,0.0005678291500719648,0.00025854006916370387,-0.0002605050893996637,-0.0009217301623797483,-0.0015908418433114905,-0.0021082419801510353,-0.002345595250911636,-0.002250616739415494,-0.0018572600019843768,-0.0012584583646071653,-0.0005611602344460457,0.0001474718731604538,0.0008049405466516366,0.0013553820702998914,0.0017336586812324837,0.001875488935425919,0.0017549396926619528,0.0014223502795233456,0.0010050596750938092,0.0006533740736106988,0.00045487686161344823,0.0003714822643489296,0.00024831641671041677,-9.915313564789639e-05,-0.000765029855974749,-0.0016702708220713803,-0.002569151903323441,-0.0031467942722099565,-0.003158986372528194,-0.002543179931837946,-0.0014464952315466483,-0.00016134588095716,0.000994310451465339,0.0017924305218669856,0.0021571464373570074,0.002158180949349923,0.0019531118771806998,0.0017122075988061209,0.0015561039991107022,0.0015231799657047334,0.0015703004367017268,0.0016015517762942091,0.001513570148027008,0.0012415666156859475,0.000788066663170901,0.00021993992034971955,-0.000368258928781555,-0.0009071863911598602,-0.0013891553203492038,-0.0018595816799840954,-0.002362767069423362,-0.002876695715151089,-0.003286544576876736,-0.003425087444459646,-0.003161913032963944,-0.002485847601398754,-0.001525562809669916,-0.0004930626113313308,0.0004152008419311374,0.0010997938917715212,0.0015775213511833761,0.0019348884249966252,0.002251228565777907,0.002540302099806023,0.0027422667747505495,0.002764572631670912,0.002542698728732472,0.0020853491244906194,0.0014828945628284507,0.0008785433840681608,0.0004157096658470422,0.00017995042277265067,0.00015518836331737099,0.00021448150892519835,0.00016004842392200602,-0.0001913650669915488,-0.0009099700715569966,-0.0018931294780434537,-0.0028861330240024623,-0.0035832958973837682,-0.003759905221498137,-0.003364598433050537,-0.0025253567390071505,-0.0014741672532517023,-0.000440229023804627,0.0004287314740547515,0.0010849783962777353,0.001548512971700324,0.0018593656104541941,0.00204663253270407,0.002123697618862779,0.002097642679344305,0.0019759199637199533,0.0017640902228363814,0.001461096279797886,0.0010607340499219253,0.0005605002318658413,-2.7599009267098053e-05,-0.0006690291140141839,-0.0013026237964414533,-0.001841841195493533,-0.00218619036015921,-0.0022465592405630994,-0.001979139086998667,-0.0014121138992784948,-0.0006477829344549526,0.00016581465778877302,0.000882287976437102,0.001400443633780763,0.0016837620174824798,0.0017504184194521452,0.001645367247960414,0.0014134684776777322,0.0010867561386473969,0.000686467936186275,0.00023191365804309705,-0.0002518267855526895,-0.0007308275105482896,-0.0011639702842897973,-0.0015086802652958897,-0.0017291454247577204,-0.0018030077128751959,-0.001721997556053426,-0.0014868773640519689,-0.001104234752447926,-0.0005933130533477549,-7.554307994059838e-07,0.000592168371779061,0.0010864617045145493,0.0014056183904691097,0.0015348428701484197,0.0015279757574633423,0.0014709835343917218,0.0014241185561009828,0.0013835683988938055,0.0012905846801204938,0.001080297494307869,0.0007317422006898999,0.0002804330391163783,-0.00021363563690795243,-0.0007118767908158755,-0.0012139731739316156,-0.0017276001764567287,-0.0022155014748931013,-0.0025694701354570934,-0.0026450988532034673,-0.0023440279029366827,-0.0016885077130900877,-0.0008313994652335108,1.2882499438098818e-05,0.0006755532520049822,0.0011102007650593316,0.0013903121043396614,0.0016319130940209072,0.001895726769012956,0.0021362173316142753,0.002231676327190581,0.0020731620299093458,0.0016501170434806247,0.0010739599323467772,0.0005233144699977473,0.00014528343237741204,-2.658598137203136e-05,-8.910405094668741e-05,-0.00021211288113459148,-0.000539896795621794,-0.0011049317554164826,-0.0017989482447761027,-0.0024157600149356155,-0.0027439814643469658,-0.0026627660877095883,-0.0021924375914551706,-0.001476072340919842,-0.0007055500325461911,-3.51003669344431e-05,0.0004707908845858202,0.0008321253733678737,0.0011036091814665828,0.0013181474503812468,0.0014610948313355764,0.001489041262580358,0.001375547485760512,0.0011475195342784436,0.0008828594697300938,0.0006685089633325953,0.0005476102140070668,0.0004933374026001262,0.00042863911716962825,0.0002793073461460503,2.5225036790890894e-05,-0.00028340063795890863,-0.0005540175231562647,-0.0007043346100294063,-0.0007055634055128263,-0.0005906822684782804,-0.00042638615371837284,-0.000270618347472147,-0.00014445540622795962,-3.440062580019809e-05,8.101694564672949e-05,0.00020260923594696712,0.0003016696447816214,0.00033620492457128574,0.00027756244533607647,0.00012558997783209303,-9.770812500428596e-05,-0.0003662391529794559,-0.0006604046275033623,-0.0009601564051214456,-0.0012290216992141007,-0.0014081764137453556,-0.0014327131790619922,-0.0012636599498514454,-0.0009144356817532677,-0.00045145582309034926,3.4561844299371746e-05,0.00046950880457542434,0.0008230472058844964,0.001105809871209971,0.0013418383227642864,0.0015386392613863946,0.0016773362394990855,0.0017284674744819468,0.001678443660802918,0.0015439282754933022,0.0013622254751730414,0.0011654355034622262,0.0009581137693661732,0.0007136170826735656,0.0003891792172047619,-5.2018533379482104e-05,-0.0006232477133240028,-0.0013036999012163782,-0.0020311721393285426,-0.0026979545335341026,-0.0031601274098993536,-0.003273125060110808,-0.002951347602485563,-0.002224598188528062,-0.0012518584386355838,-0.000270160343239094,0.0005039550060914684,0.0009681824200679927,0.001168327790897345,0.001251569438226284,0.0013683822418181957,0.0015839828885008665,0.0018513103414311497,0.002055100988801608,0.0020909794323184447,0.0019259067925160955,0.0016061246921349366,0.001217589944865161,0.0008320334727259852,0.00047252073350178387,0.00011260292512675586,-0.0002981771679417774,-0.0007994025201188367,-0.001390516384861353,-0.002015971265715402,-0.002569372452966858,-0.0029186586624395583,-0.0029487668258521738,-0.0026080157764476054,-0.0019363235972504954,-0.001057367073228105,-0.00013488120603235524,0.0006855278879727721,0.0013191073305955068,0.001749966835765145,0.0020071803028781938,0.0021295634684908526,0.0021419425438118336,0.0020531355348450296,0.0018692667595901573,0.001607164712347028,0.0012955750096861102,0.0009623096822412181,0.0006158364130978348,0.00023498519214081915,-0.00022175651389121716,-0.0007856739831078588,-0.001438889145877021,-0.002091406245930398,-0.002596010257547657,-0.002802604323769535,-0.0026266042222207664,-0.0020926365911583082,-0.0013269607905001387,-0.0005022356195746161,0.0002339831523079939,0.0008078398101971256,0.0012215668244288866,0.0015150468564234867,0.0017155207521998925,0.0018089053772574987,0.0017497478835088941,0.0015005087064873927,0.0010714249303051691,0.000531733723824574,-1.81019837711112e-05,-0.0004964506641660046,-0.0008780068661074301,-0.001189156900796933,-0.001461007356947474,-0.0016743643135286304,-0.0017426713756833296,-0.0015544924939874583,-0.001052385500331442,-0.00029416855501769297,0.0005495044076066263,0.001265456796721253,0.0016951579261093631,0.0018013806434732038,0.001668773715700996,0.0014442459582593454,0.001255564142475869,0.0011528689413403401,0.0010996188214287966,0.0010103899481240372,0.0008086037638823434,0.0004693094619424688,2.4397354301929812e-05,-0.000467082868993838,-0.0009583185621396123,-0.0014339545770046323,-0.0018956684469576142,-0.0023267397533062533,-0.0026654194326023225,-0.002812265590946463,-0.0026726399810739774,-0.002209341322418595,-0.0014714733052882583,-0.0005807605894178726,0.0003159926691618949,0.0010995821090070213,0.0017073751999185697,0.002127476896654545,0.0023700383624984285,0.002441030218544013,0.002338323037683775,0.0020691567330416486,0.001668312577486688,0.0011949081725179558,0.0007054127635945963,0.00022455041676006148,-0.00025828203764276204,-0.0007588886204330553,-0.001255237201573665,-0.0016662096727865063,-0.0018741539614593734,-0.0017836048971595284,-0.001382547543343182,-0.0007670243038929711,-0.00010897306139831075,0.00041915940518361203,0.0007214666670711952,0.0008125116811809104,0.0007891755910746813,0.0007601910538134863,0.0007784010366196012,0.0008156662056990902,0.0007901797460268126,0.0006232082208145096,0.000288313680126413,-0.00017371732274884316,-0.0006774314114479387,