-0.0006698020445106184,0.00043410154435054174,0.001186329203872703,0.001488928722197965,0.0014353359722912974,0.0012317325669970992,0.001075013498569142,0.0010555916125281526,0.0011300433279096476,0.0011638987614427953,0.0010096292825950669,0.0005780788671226238,-0.00012143356315628376,-0.0009762568297988618,-0.0017951191450434343,-0.0023569791671085773,-0.0024772658658823886,-0.002075623965788692,-0.0012187182211835469,-0.00011265038287445735,0.0009612579956470586,0.0017444354619487392,0.0020897453653674447,0.002001257001707796,0.0016106167041258527,0.0011064279489244198,0.0006525062430475677,0.0003309996886234402,0.0001301401431255721,-2.648099387649863e-05,-0.00023023211342715604,-0.0005428768891901962,-0.0009724797019498722,-0.0014697474731612656,-0.0019373616286295161,-0.002249362162678953,-0.0022837601627487365,-0.0019666365646028713,-0.0013115566316953726,-0.00043023473626820785,0.0004984594917326156,0.0012900505819987513,0.0018173344048810925,0.002045561806611017,0.0020268094166533655,0.0018610485498714042,0.001646320444359678,0.001442814245604713,0.001264529063915553,0.0010946510834587803,0.0009085027277635616,0.0006882217835558709,0.000423560787818231,0.00010439876218526159,-0.00028456589708116713,-0.0007590771568615623,-0.0013194717710409678,-0.0019301468674905332,-0.002506660078471676,-0.0029239852198893234,-0.0030520379109543545,-0.002808601849170754,-0.0022038715011106717,-0.0013485064743452655,-0.0004147735561447079,0.00043144285670369505,0.0010910392265234905,0.001552159156380423,0.0018633242456600361,0.0020806391137760958,0.0022247183525025954,0.002273952102416284,0.0021943966157128465,0.0019803590819065728,0.0016720915744473659,0.0013342790320200629,0.0010091366500418063,0.0006787576269146527,0.0002679978999538307,-0.00030573601046426013,-0.0010603227670336443,-0.0018979435926691534,-0.002613843625412146,-0.002973330640429392,-0.0028240722991691065,-0.0021827617823746122,-0.00124230297605517,-0.000288836782069901,0.0004279685359714141,0.000798978539580985,0.0008782742480778127,0.0008198601194841938,0.0007744233938329756,0.0008090582138082312,0.0008889275523774758,0.0009173329909118923,0.0008003754479261947,0.0004989955879386987,4.765215022697769e-05,-0.000460553084717756,-0.0009089493245587545,-0.001195584896506129,-0.001261454627281619,-0.0011019238514606482,-0.0007606434435337866,-0.00031003610714649054,0.00017365651238198526,0.0006305113448978357,0.0010237551361476913,0.0013321414745525203,0.0015365542516750008,0.0016140833689171194,0.0015465799335132088,0.0013375940502097377,0.0010228035383787995,0.0006623166482108925,0.00031583244598386696,1.378867295867732e-05,-0.00025876589601820906,-0.0005547709111619237,-0.0009342363852527752,-0.001420722983408444,-0.001964950497005954,-0.002438809200376355,-0.0026744995530367695,-0.002539706749985679,-0.0020118055516676714,-0.0012044951466213703,-0.0003230026343955658,0.0004318033560842483,0.0009548298745116343,0.0012686175908221602,0.00147852186744843,0.0016841533552395716,0.0019074204826637989,0.0020834352511500086,0.002115646535455881,0.0019526526786678273,0.0016309533021166098,0.0012530251034346236,0.0009153199235638824,0.0006354312590058843,0.0003294320269368577,-0.00014064043723247444,-0.0008724784266332813,-0.001835506609751935,-0.0028428360220941517,-0.0036079243624281545,-0.0038656887591002644,-0.0034985970938885905,-0.0025980283869091133,-0.0014218246220757621,-0.00026826914738563865,0.0006608619946670407,0.001327355159618384,0.0018184774338167336,0.0022381904232852954,0.0026070941913437402,0.00283959693662275,0.002809446800963256,0.0024528943924243874,0.0018348125459685827,0.0011305593558988331,0.0005335241856460823,0.00014635193492298318,-7.643045150941942e-05,-0.000298244143247646,-0.0006980518095036051,-0.0013521039084801257,-0.0021654851405500685,-0.0028933472911412484,-0.0032451814351517876,-0.0030219625732270565,-0.002217601395222982,-0.001032657407067278,0.00020787858140807434,0.001191563786505686,0.0017405776714695038,0.0018590152420445275,0.0016895562029933147,0.0014150357031615813,0.0011661187116851904,0.0009816942686491474,0.000828309734048633,0.000649415336584899,0.0004064712800865384,9.162687066191846e-05,-0.00028240294915550675,-0.0006951666800665042,-0.001118651773906004,-0.0015062076601363053,-0.0017852866886434592,-0.0018684065233081925,-0.001683100644106656,-0.0012070768797430742,-0.0004904105931873153,0.0003469572507261517,0.0011438258662608367,0.001744844031005935,0.002051020609226784,0.0020532515590505956,0.0018306935296871654,0.0015100908040885845,0.001203709991655394,0.0009583199298777174,0.0007433258266394301,0.0004832480695320207,0.00011267014982601319,-0.00038083520694285374,-0.0009493645918947877,-0.0015103838653623154,-0.001981984970130212,-0.0023038817791635703,-0.002437801075576831,-0.002359195579489971,-0.002056552001740325,-0.0015438174168949266,-0.0008758314956020735,-0.00014879799306247773,0.0005249853455706347,0.001059753287062107,0.0014303714038705437,0.001672254594423038,0.001843515241711763,0.001974402984847355,0.0020407199141333626,0.001981575049056306,0.0017494810942074769,0.0013567514253303103,0.0008836815601279505,0.00043949689065812364,9.895989352409176e-05,-0.00014497498958889214,-0.0003800486617664626,-0.0007214262464877141,-0.0012347486454156462,-0.0018799499551199084,-0.002509648719407479,-0.0029247880883183225,-0.002958223580957263,-0.0025442042191843157,-0.001744034413636117,-0.0007236636276630876,0.0003009861504877571,0.001129529128021973,0.0016353792053125512,0.0018013648103089436,0.0017186026149971765,0.0015425581597691904,0.001419060935890911,0.0014135271825278448,0.0014818363730207146,0.0015017420936190068,0.001348161779678609,0.000967575605980318,0.00040725268143156155,-0.00021465642130743422,-0.0007736432249737734,-0.0011946203241785876,-0.001467660896276688,-0.001622584132074327,-0.001686251193499687,-0.001652062398707419,-0.001479575084827998,-0.0011238940548096567,-0.000578401675776385,9.409446660464975e-05,0.0007634520975431205,0.0012730740496844813,0.0015027691000527668,0.0014216613588211447,0.0011024826534050745,0.0006889689237615654,0.00033223281005019013,0.00012590575862389715,6.882472848549707e-05,7.163771021748274e-05,5.408267461499752e-06,-0.00022845422820693198,-0.000639667091895159,-0.001132366392361795,-0.0015415404431992773,-0.001705954699615611,-0.0015403268016481394,-0.0010703319778739592,-0.0004162220993916778,0.00026090686304087703,0.0008202592178733416,0.001183509290390581,0.0013471284869148667,0.0013682909273818903,0.0013335264039674008,0.00131932093462713,0.001355238322201986,0.0014042177041628037,0.0013740619990476502,0.0011613170000975672,0.0007081183289797594,4.0117659138967036e-05,-0.0007378246817490905,-0.0014855951181482262,-0.0020837736777753347,-0.0024677791391273574,-0.0026239609070899043,-0.0025601118030156187,-0.002280685854385061,-0.001789113591577898,-0.001112762122339117,-0.0003241236745031965,0.0004661167180150501,0.0011451436451352494,0.0016402345328289385,0.0019390842928816857,0.0020767549389109187,0.002101651187490399,0.002045550657132313,0.001915992474860922,0.0017103491782658623,0.0014347809301192029,0.001109257200055033,0.0007523333155583357,0.0003574298016091721,-0.00011636764544289881,-0.000721125610650781,-0.0014688057051179173,-0.0022825126050232906,-0.002989990181399195,-0.0033783721505448233,-0.003288879268706147,-0.002699167073084022,-0.0017437572627756657,-0.0006586944084246654,0.0003193667888748188,0.001045261391847112,0.0015023446845659916,0.0017709769008144249,0.0019528975247156523,0.002098377642325454,0.0021778227796266456,0.0021099772538750207,0.0018237755446080728,0.0013127602336015698,0.0006502225251995004,-3.922857216365639e-05,-0.0006304961055603941,-0.0010421078924551593,-0.0012545658454583054,-0.0013011366249970548,-0.0012421029311958872,-0.0011365976728033803,-0.0010215911373358364,-0.0009017498569136189,-0.0007516729917097478,-0.0005319447138297774,-0.00021652596792379018,0.0001803612677161299,0.0005963783752733827,0.0009437801340132328,0.001153371064303809,0.0012109942472856323,0.00115865973755114,0.0010566163574680554,0.0009321818819766065,0.0007521673957932744,0.0004398731253878492,-7.21208382436434e-05,-0.0007842499951269019,-0.001599948196339499,-0.0023401104450612273,-0.002797434736647861,-0.0028095793918300766,-0.002323014428656333,-0.0014221171284874046,-0.00030921498716849564,0.000761383609818711,0.001572721797734685,0.002020473889875215,0.0021373394056367224,0.0020525739863449513,0.0019095989958917295,0.0017912028230198734,0.0016955553041450083,0.0015690962459826104,0.0013628424697388734,0.001067692925461408,0.0007079732947759143,0.000308327532635223,-0.00013225980871058658,-0.000635936663311673,-0.0012149163535222912,-0.0018389530959321719,-0.002426352123502475,-0.0028653898742704463,-0.0030528402310527553,-0.0029284776413255782,-0.002491471597547369,-0.001797797777032996,-0.0009460361546863583,-5.800580713604623e-05,0.0007441122969612259,0.0013633347070383436,0.0017508174725893288,0.0019169186230044422,0.0019230762634397096,0.0018549029589044594,0.001786103808242334,0.0017485330437735798,0.0017221187034825289,0.0016490557833555215,0.0014642412700036414,0.001126052529736089,0.0006331899671474689,2.279533611138323e-05,-0.0006440521380750616,-0.001297846690292297,-0.0018688233938591171,-0.0022889964703322455,-0.002496844867923027,-0.002450938396951101,-0.002147590703192089,-0.0016291993183229479,-0.0009741450610660982,-0.00027268192960549126,0.00039666640208565215,0.0009774916062224152,0.0014308376458155047,0.0017248938549673516,0.0018324796276505254,0.0017431566125681525,0.0014826790160037738,0.0011213085536519556,0.0007553157500455861,0.00046373862236395,0.00026356107426049087,9.506612617283638e-05,-0.00014400769315097545,-0.000527405315519004,-0.0010337669232662761,-0.0015314288870904693,-0.0018337906696938495,-0.0017988323840840079,-0.00141407506575305,-0.0008130492553418182,-0.00020984745113940707,0.00021104844803815576,0.00038445072464398603,0.00038148251983772933,0.0003479071593158994,0.0004068515714979893,0.0005880406247216054,0.0008225662388392516,0.0009958318865676073,0.0010164210768735596,0.0008576465461805073,0.0005557117535139582,0.000179147954808505,-0.00020310044187091952,-0.0005367733590589596,-0.0007809220465747049,-0.0009019907184353087,-0.000873524648860086,-0.0006830094157926512,-0.0003415078786115691,0.00010881615138482186,0.000593826333584818,0.0010182942176780528,0.0012909175517520461,0.0013567707949365385,0.0012203519951245825,0.0009417840488642351,0.0006027923096869184,0.00026042091812966336,-8.131167414959068e-05,-0.00046085345763599117,-0.0009153313932275754,-0.0014335452875224208,-0.001938421569146785,-0.0023106626463194864,-0.002437796875874992,-0.002259426377512322,-0.0017871877824868932,-0.0010963082931436182,-0.0002988475389227354,0.0004893035763909881,0.0011786168732679627,0.0017248071056784448,0.002127464869333008,0.002405748793964971,0.0025630969609519993,0.0025654425320439326,0.0023533242668829345,0.0018851953653862014,0.001183410666731866,0.0003481747020074265,-0.0004743988780316164,-0.0011517293741472889,-0.0016149212928704248,-0.0018710737662961034,-0.001975364925433346,-0.001984497010562145,-0.0019203242014796207,-0.0017622945107004981,-0.0014689788348240544,-0.0010136690691685145,-0.00041419433148986344,0.0002569548722241139,0.0008856051955400461,0.0013472844508256227,0.001548076894611827,0.001462370309437655,0.0011509091191170705,0.0007439755722351321,0.00038818240823704307,0.0001780298243184023,0.00010933867007366198,8.543032772945908e-05,-2.1551814706479767e-05,-0.000285658914622951,-0.000667788841516896,-0.0010205094582015745,-0.0011599706667218173,-0.0009671221379866245,-0.0004604772985706675,0.00020238182170665916,0.000796560296942769,0.0011361082007624768,0.001158968063935421,0.000948349489544479,0.0006819939446736751,0.0005361289245029298,0.0005913983805030309,0.0007858980232952767,0.0009384358711363026,0.0008337964259363018,0.000333561156861949,-0.0005386083449174153,-0.001581699650672978,-0.0024867191851098394,-0.0029625135416784677,-0.0028570992138147464,-0.0022135288165374464,-0.00123566713073091,-0.0001899254178910142,0.0006995659412859104,0.0013120384383273791,0.0016326800974564564,0.0017164821475778315,0.0016440743249984402,0.0014888453778225006,0.0012980386532306367,0.0010833585078283653,0.0008200951553492055,0.0004593986125231112,-4.220468454487901e-05,-0.0006811288403254897,-0.001371676278660543,-0.0019446327496768778,-0.002197440609554448,-0.0019848794532402346,-0.0013057510241720571,-0.00032990966919948383,0.0006627430896567889,0.0014063226115029787,0.0017678703340433615,0.0017927059418698828,0.0016527790363444926,0.0015333214047000892,0.001526001877695719,0.0015857141699055135,0.0015659077903497532,0.0013037491585374014,0.0007061760434564667,-0.00020280141445289915,-0.0012866015472209563,-0.0023405067034048513,-0.0031530515361858705,-0.003563603169159751,-0.0035027598852588855,-0.0030079134186195154,-0.002210002594043099,-0.0012930081433123377,-0.0004366860735251694,0.0002385226731775182,0.0007033491450868135,0.0010141969674562902,0.0012709105427388058,0.001556274650494372,0.00188777935130256,0.002208438297379051,0.00242175315061677,0.002448344879291994,0.0022678636306577484,0.001920713427283776,0.0014727058610259792,0.0009714061364185249,0.00042701333822564407,-0.00016958317531219017,-0.0008077863103770756,-0.0014290577025197933,-0.0019326618594914563,-0.0022142484407106427,-0.0022146354103410497,-0.001950856008128431,-0.0015126523799324056,-0.0010260204924009341,-0.0006011720448733204,-0.00028952389464457205,-7.08078010971452e-05,0.0001226892229066784,0.0003576093195131751,0.0006543835013357625,0.0009716320349744583,0.001227302607817055,0.0013399862528217289,0.0012630145279429184,0.000993827385005243,0.0005622905816920134,1.5625804237942315e-05,-0.0005862267501852826,-0.001166312259198693,-0.0016303360359968305,-0.001881432435063049,-0.0018492230465398654,-0.0015198974604605858,-0.0009492856303976488,-0.0002473813729275413,0.0004615301053290115,0.0010827489429813143,0.0015740407186411083,0.0019355955909435513,0.002177872151432859,0.002293016531650603,0.002250897600324487,0.0020212990799896597,0.001605087055409233,0.0010513375186176495,0.0004457181052591429,-0.0001277769377012912,-0.0006317873577735347,-0.0010974175139544006,-0.001600423773442833,-0.0021955072488699344,-0.0028446912342297752,-0.0033905527822311347,-0.003605873115067723,-0.003304867705175373,-0.0024567312540044557,-0.001231432446519278,5.833621244877182e-05,0.001094638175637029,0.0016969961820003153,0.0018900583552553707,0.0018597316241681652,0.0018279731665616153,0.0019234118171543003,0.002122754329735251,0.0022897060309421194,0.0022768663981804346,0.002021474557979826,0.0015774054743673287,0.0010712500250444805,0.0006176074564537863,0.00024940415067042226,-9.508070761215311e-05,-0.0005230447983492694,-0.0011066002517283132,-0.001818985702818535,-0.0025261584011527175,-0.0030405590243208196,-0.003207195242192037,-0.002973607784105371,-0.0024074247654142372,-0.0016587405510655182,-0.0008947611962136329,-0.00024169003555474965,0.0002454310728384231,0.000583575623459389,0.0008414994272359333,0.001105875595956199,0.001440219533196149,0.0018484043672260385,0.0022610771762389074,0.0025591368791714106,0.0026293251022795833,0.0024240005810913096,0.0019888575478903,0.001438183505609007,0.0008890909405824821,0.00039402411255775997,-8.413351712003968e-05,-0.0006338893722847422,-0.0013138674952330371,-0.0020797691604231457,-0.0027704583231028153,-0.00316913880014622,-0.0031080226541688365,-0.0025565498617902494,-0.0016429178775193422,-0.0005989170474848201,0.00033817959282902825,0.0010125222978367532,0.0013840444724990849,0.0015038151481405926,0.001457565170869872,0.0013166296974448804,0.0011210847520662691,0.0008916585098689002,0.0006465528990094679,0.0004016370970224548,0.0001543345115863218,-0.00012713877655119873,-0.0004871037414760711,-0.0009388998225507142,-0.0014222254329501892,-0.0017974541964799634,-0.0018940657989436392,-0.00159539493820462,-0.0009136376091108747,-7.110526245801985e-06,0.0008790563180773284,0.0015223760787204184,0.0018231515116287943,0.0018381806557373082,0.0017291936098043333,0.0016579571728228973,0.0016912727498887216,0.0017710818854623242,0.0017625869319003405,0.0015443087296490004,0.001080689074120083,0.0004343527736986033,-0.0002822480198037601,-0.0009772766584228447,-0.0016227767489725706,-0.002243021771010241,-0.002858325440103074,-0.0034248967727466993,-0.0038150791029784156,-0.0038579917562740337,-0.0034237260315767098,-0.0025065942740665195,-0.0012593666246831928,4.7315314427230594e-05,0.0011284112487636414,0.0018036686459013303,0.002071745219824011,0.002097304033834114,0.0021139845262668705,0.002293274673385545,0.002650208546002541,0.0030374116029897734,0.0032300238370250147,0.0030536959148943174,0.0024841212820783743,0.0016624270708586741,0.0008183772840165005,0.00014643320055412502,-0.0002938288151248205,-0.0005982394782184737,-0.0009523166963425942,-0.0015185930556823454,-0.00233595264025279,-0.0032785846384323514,-0.004091990221564024,-0.004489969693856595,-0.004271476347389339,-0.003407597988798881,-0.002060799333063447,-0.0005281819783232273,0.0008647307882059716,0.0018719974098836793,0.0023936902946343885,0.0024818606724911706,0.002294316720711096,0.0020208496716002163,0.0018104478585988844,0.001723703289821129,0.0017241711377041181,0.0017070893711255523,0.001549385846972226,0.0011599890100297283,0.0005162145144848433,-0.00031838864671915063,-0.0011970204168654402,-0.0019191433839694531,-0.0022893472214913493,-0.00219240575308393,-0.0016522029166712358,-0.0008388932096961473,-1.030083132276408e-05,0.0005908246596329524,0.000835114168336675,0.0007510388575192846,0.0004932773679419871,0.0002536620948531067,0.00016446890659663118,0.00024508200868629017,0.0004130377101995873,0.0005403912953809448,0.0005151682134915195,0.0002779762990819771,-0.00016861895933106182,-0.0007626864278072749,-0.0013879189337502923,-0.0018883185424132627,-0.002104826158709441,-0.0019306380395387244,-0.0013605785993421019,-0.0005044590956279427,0.00044809249156764854,0.0012964701897522168,0.0018988967757870728,0.0022113649047694273,0.00227992864437655,0.0021933586636388824,0.0020235969420648136,0.0017887963531213894,0.001460114200225049,0.001004054899966042,0.0004270491560806745,-0.00021196118015939878,-0.0008302074694257519,-0.0013683243423801453,-0.0018186057059258523,-0.0022106560797513198,-0.002563682744478778,-0.002841853715156842,-0.0029492507393870777,-0.002773424335993738,-0.00225221329001884,-0.0014220168786996024,-0.0004171125651229977,0.0005804555770370864,0.001412212777990596,0.0019971679709496217,0.0023422221035142633,0.002509406368091347,0.0025639591176696303,0.002534895979652463,0.0024090144720500567,0.002158011285711317,0.001778261729147411,0.0013141305131655744,0.0008443194754078932,0.0004346351024806111,8.706101579184338e-05,-0.00027494711107245494,-0.0007637869253843383,-0.001445768088666523,-0.0022703034302748054,-0.00305991350906442,-0.0035748617575125127,-0.0036197243004448282,-0.003133976747069587,-0.002219993661038118,-0.0010987454984860568,-2.0265844625948822e-05,0.0008270530332592365,0.001370018755254965,0.0016489904653202874,0.0017683217126183144,0.001827801393518372,0.0018717395099772487,0.0018799502736511326,0.0017984132803712063,0.0015841219954742989,0.0012342054845477096,0.0007852675944796138,0.0002914552772208764,-0.0001982911474566787,-0.0006491204761022273,-0.0010357343487166985,-0.0013346304634036651,-0.001521307817224508,-0.0015731339921957774,-0.0014745093801580623,-0.0012218091195749703,-0.0008274296539128301,-0.0003229063673972827,0.00023919541123056673,0.0007864058315696185,0.001234608732219909,0.0015067663225778551,0.0015583704194980464,0.0013969777200674644,0.0010816536672728424,0.0006975371660052673,0.0003153591937584262,-4.325585682737106e-05,-0.0004128320869134901,-0.0008529749486529015,-0.0013898993691978986,-0.0019622951489137617,-0.002410047129817624,-0.0025270832418056877,-0.002162545621451941,-0.0013183282034994255,-0.00018226124583211874,0.000933357023201162,0.0017240110234615174,0.0020280226390936326,0.001891151544561865,0.0015257473026029705,0.001189203009312784,0.0010517478847151562,0.0011261667308927353,0.0012902968666538078,0.0013754941948213105,0.0012598788580976557,0.0009145938898479434,0.0003915133390524361,-0.0002212707890284291,-0.0008394140621165948,-0.0013981839268042944,-0.001849622865517287,-0.002157698064011038,-0.0023003038271245785,-0.0022732684753092635,-0.002088443866140468,-0.0017670348028826941,-0.0013366027173035205,-0.0008345565721817124,-0.00030893420039672425,0.00019430650039836423,0.0006534988816068858,0.0010825209079756014,0.0015129584707502595,0.0019529096799425524,0.002352902429923856,0.0026104849115908923,0.0026182504802248693,0.002326273379263292,0.0017770922501265359,0.0010901972670185394,0.0004078049334881621,-0.00016320842712664154,-0.0005823362447943689,-0.0008711710242983598,-0.0010860836734580613,-0.001285937979570816,-0.001507361962637032,-0.001752644032818486,-0.001990314804665531,-0.0021652384961341645,-0.0022137236506178924,-0.0020805524218660025,-0.001736534116439017,-0.0011937268016891408,-0.0005119636492461779,0.0002099448536362112,0.000859223640891614,0.0013428289349213332,0.001616906404867363,0.0016997399869077977,0.001661951522328934,0.0015964155874157579,0.0015781500037186816,0.001628500941386776,0.0016978466966778192,0.0016773180440949487,0.0014414787489969187,0.0009099511443162603,0.00010205903147188049,-0.0008449109361811252,-0.0017099586078819357,-0.002266030107566574,-0.002368336477492891,-0.0020122876327525524,-0.001332972432444486,-0.0005465488721622873,0.00013738420326562877,0.000590398265991537,0.0007943419082611973,0.0008179886729100163,0.0007608074786118963,0.0006968508415693834,0.0006463745466270421,0.0005836745034528924,0.0004687429592808846,0.00027937381700577805,2.4374712420713264e-05,-0.0002662126885981507,-0.0005619607338573326,-0.0008461030398041052,-0.0011127289022846139,-0.0013519754217430823,-0.0015380155826994202,-0.0016317630689354804,-0.0015971056255341205,-0.0014175807598494363,-0.001100788357760941,-0.0006702677076602253,-0.00015612095546285536,0.00040614650344392335,0.000971648704737295,0.0014880735179188683,0.0019081948490171914,0.0022041115635361855,0.002369841034709084,0.0024092755829138728,0.0023213186392719255,0.002097926310810828,0.0017394761852777502,0.0012755717617660384,0.00077235241275371,0.00031536487864291445,-2.6441466762685184e-05,-0.00023717064864683035,-0.00037104300584053286,-0.0005389412120480795,-0.0008656642521004002,-0.0014304532291336246,-0.0022125480382531107,-0.003068201780451735,-0.0037596617785279167,-0.004036291273344513,-0.0037396275587084503,-0.002883908046049164,-0.0016671239035403005,-0.0003981853586830982,0.0006305919179594709,0.001264138881705422,0.0015363264035221367,0.0016251761916337665,0.001736518345301077,0.0019819050692602607,0.002320427149513085,0.002595758726152664,0.0026412027761190653,0.0023844482320526353,0.0018878173905194815,0.0013049351204988224,0.0007880224043628466,0.00040580311229986785,0.00011826648944118702,-0.0001834296727870903,-0.0006000012362819766,-0.0011545523182588772,-0.001766992675884514,-0.002283376207206431,-0.002542872324305638,-0.0024481958463972767,-0.0020066727100034936,-0.0013257225758139827,-0.0005685676522939082,0.00010767859280625736,0.0006049331557401634,0.0009077991434818119,0.0010704050200375736,0.0011743246562840295,0.0012788147535304781,0.001388346614857916,0.0014524389574976106,0.00139483134712761,0.0011547067712549455,0.0007193491252383401,0.00013440652804754417,-0.0005103986164581194,-0.0011112739056110383,-0.0015815816326676902,-0.0018715949315516694,-0.0019712955010403725,-0.0018987733657188917,-0.0016823319096546793,-0.001346443433227128,-0.0009096911972072794,-0.00039576494577923466,0.00015188147824815416,0.0006675710964226618,0.0010829223188040724,0.0013601558815887701,0.0015149212152230024,0.0016065583553269468,0.0016965242586891073,0.0018020710221517806,0.0018793728363283167,0.0018505154819252623,0.001656854738910439,0.0013015038846362378,0.0008504682122645519,0.00039025153734557894,-2.9696167624025942e-05,-0.00042926506392551865,-0.0008797148695085613,-0.0014440545513361022,-0.0021136117298013145,-0.0027830807517397935,-0.003282605074633036,-0.0034499042198279585,-0.0032022196020278972,-0.00257101173170538,-0.001686509534965152,-0.0007259688776312463,0.00014703030623791353,0.0008278499033119958,0.0012883511787444217,0.0015671056727347423,0.001740920854309672,0.0018891997062950882,0.0020615024956132395,0.0022566280964414513,0.0024205459953840418,0.0024681600082813535,0.0023254227703980207,0.0019743775524378024,0.001474266343071981,0.0009388286229480482,0.00047448749295192906,0.0001123592377265712,-0.00022118607611554156,-0.0006672027324077078,-0.0013409280551740627,-0.0022329759776180515,-0.0031685745927145332,-0.0038612280671352223,-0.004041138010872297,-0.0035889571172495853,-0.0025977128853986345,-0.0013280757597022963,-8.63085593241187e-05,0.0009032507967685257,0.0015642571737457017,0.0019498962442274282,0.0021671962610598323,0.002297156235596758,0.0023542007364799103,0.002296641133887943,0.0020696266121203737,0.0016501511444422577,0.0010702563634793249,0.00040962548429906997,-0.00023633506297012549,-0.0007957725353424908,-0.0012455448283171923,-0.00160676166896936,-0.0019112323750084719,-0.0021579072094362025,-0.002288102913341519,-0.002201086431691478,-0.0018086762423416114,-0.0011007435241382458,-0.00018029244490233017,0.0007605985696656765,0.0015181993487451417,0.001967052180707583,0.0021108138479093747,0.002064938205201317,0.0019828350878836457,0.0019690730289089937,0.002027276003050684,0.0020665850909550873,0.001955572713762672,0.0015885004262348413,0.0009293507286290482,1.9896698384608107e-05,-0.0010386038190649688,-0.0021110941484101435,-0.0030501067467137172,-0.003714588351897197,-0.003993722802561944,-0.003836405420506813,-0.0032745152065908603,-0.0024226270414139613,-0.0014455160470887589,-0.0005035642532105246,0.000298044287764816,0.0009302968885242572,0.0014227821742161695,0.0018219331155138923,0.0021518989783073346,0.0023992470047988317,0.00252543518646209,0.002495094689848063,0.0023021992111066734,0.0019800338483774186,0.0015897181014489802,0.0011922185486354477,0.0008181226975586951,0.00045346127753792174,5.268604785281571e-05,-0.0004273698066740528,-0.0009936057163159274,-0.0016028034188310047,-0.002171659888701789,-0.0025994048873456805,-0.0027910317180268535,-0.0026791448314870685,-0.0022475328123695475,-0.0015517116187658512,-0.0007202208115212928,7.801294628081144e-05,0.0006952146734440134,0.001065593959139399,0.0012276466556853998,0.001289459250213195,0.0013556811812450694,0.001463235770689719,0.0015685971012134251,0.0015926445269374878,0.00148715816906274,0.0012728649167167336,0.0010227416760895474,0.000805798272335161,0.0006338908394383619,0.00044931890097003164,0.00016095437158001507,-0.00029555794734253325,-0.0009112192303989868,-0.0015967338495691081,-0.0022155186917089975,-0.002635329617396066,-0.002771700138786141,-0.002606387507821441,-0.0021797607648700677,-0.001567680396243525,-0.0008564951172149594,-0.00012560672190479614,0.0005598169596965629,0.0011486927625453378,0.001601579203316236,0.001891225524360549,0.0020086575627974606,0.0019710987995456217,0.0018219399004792609,0.0016141639755516495,0.001380066728621672,0.0011050922369244096,0.0007293723226538867,0.00018813956670007482,-0.000524788070698819,-0.0013102379033460222,-0.001973207213679012,-0.0022970743518165478,-0.002146931513772684,-0.0015420369828653545,-0.0006528212237671724,0.0002761781076060011,0.001031843021099023,0.0015080360774794499,0.0017168352012092078,0.0017423126486892987,0.0016744102183589666,0.001563900523672287,0.0014179668690067863,0.00122621748422409,0.0009879898013556274,0.0007142892533284627,0.00039974044196561384,-1.176241628670846e-05,-0.0006289212146908031,-0.0015570649990739693,-0.002799141889181519,-0.004171516078284976,-0.005304780423128553,-0.0057624984216729505,-0.0052383999185012815,-0.0037300442114075443,-0.0015819862699141618,0.0006420620358828636,0.0023980051595503507,0.0033831681816244605,0.0036251190024364824,0.0034037668784137574,0.0030685600414451786,0.0028609612682747557,0.002831145526862095,0.002871139250182336,0.002820747538084999,0.0025735075349187313,0.002125477376099659,0.0015528795626150557,0.0009476449811677563,0.000359151797738089,-0.00022207325542009462,-0.0008355097900742947,-0.0015025649995605108,-0.0021925040000597674,-0.002821059712772751,-0.0032786829416626977,-0.003471281286183984,-0.0033540309553589283,-0.0029448827718357197,-0.0023146963608876017,-0.0015619370056654913,-0.0007859295235962692,-6.928705160669609e-05,0.0005296843095711582,0.000980661294684246,0.0012847930182377657,0.001474064254750921,0.0015993315244791696,0.0017062482831667182,0.0018095586202901259,0.0018818984130486945,0.0018667790135336573,0.001710063566866673,0.0013909289516004972,0.0009327928059881089,0.0003887972694358627,-0.00018478771388022127,-0.0007452418538873636,-0.0012573659717271945,-0.001672879915632273,-0.0019194432110462402,-0.0019194056843889256,-0.0016338892541211346,-0.001102152451169445,-0.0004436369844356534,0.0001843969228466458,0.000648803005830162,0.0008861820382150209,0.0009125708202892425,0.0008027636700195557,0.0006570010986623715,0.0005671928549712236,0.0005852815995731798,0.0006971669418890835,0.0008151191372187164,0.0008043535171325971,0.0005443911920055072,2.974937656640038e-07,-0.0007366128391881523,-0.001468872670365372,-0.0019712615714897854,-0.0020897753589732664,-0.0018089678914257723,-0.0012519230117351721,-0.0006144794278530662,-7.058506404236285e-05,0.0003013173277264904,0.0005353780272972669,0.0007350984525399595,0.0009973979882185974,0.0013470819618600347,0.0017170212120943035,0.001982814016024605,0.0020301137163841743,0.0018157405154197162,0.0013897487146369504,0.0008695584572841262,0.00038298964180132197,1.0047085765799418e-05,-0.0002497383778355032,-0.00047077401192054764,-0.0007586847235471453,-0.00119034600520127,-0.0017651295947634922,-0.0023917688366434263,-0.002917035805652872,-0.0031808702777118146,-0.003072118733984584,-0.0025643667878575654,-0.0017239887467000714,-0.0006914291855755505,0.00035941618283037393,0.0012732907612321412,0.001958100415521089,0.0024007155709817873,0.002645841084081779,0.002751859569734469,0.00275185083857446,0.0026427584489303255,0.002405083723988393,0.0020347155404535073,0.0015611502052275048,0.0010364051491085972,0.0005002871079367807,-5.261785125396752e-05,-0.0006746768127803394,-0.0014232924570850398,-0.002293218939146564,-0.0031652835964709578,-0.0038138256625542934,-0.003986157898295989,-0.003523171818145382,-0.0024580207339937768,-0.0010332529306568258,0.00038209792987903756,0.0014389060661576128,0.0019461522613519499,0.001934135184355108,0.0016155259111164796,0.0012683309602065855,0.0011017647519698465,0.001171164336951636,0.0013790830617186858,0.0015521943228270357,0.0015444650474626153,0.0013079691805499688,0.0008967497892539114,0.0004107905405487297,-7.718322978112625e-05,-0.0005600748988412018,-0.001072560185572499,-0.0016231962674892572,-0.0021367828286969082,-0.00245904915057792,-0.00243230306422342,-0.001995721467425272,-0.0012396151507011273,-0.000370885839972242,0.0003912514573713499,0.0009207374255428604,0.0012238047300513605,0.001394065846231797,0.001524463611321475,0.0016402852545758426,0.0016927677972757996,0.001605136784103474,0.0013296430537693264,0.0008753949891712035,0.0002953524621404984,-0.000347072005879055,-0.000999002647660591,-0.0016095380931520882,-0.002105011716288255,-0.002380413022914681,-0.002328738420591002,-0.0018974540818109645,-0.0011342391256558807,-0.00018648267473860784,0.0007500629571822108,0.0015031504722169753,0.001974878136884389,0.002149707137424544,0.002069796825338555,0.001804571515565719,0.001432289322239052,0.0010307399429854845,0.0006647907342669945,0.0003674780267552579,0.00012548908147103863,-0.00011706652141033199,-0.00043294600504245617,-0.0008735515913468265,-0.0014341163446790998,-0.002037405382838963,-0.00254604159516344,-0.002804600876311276,-0.00269914877754825,-0.0022091975103268597,-0.0014252495845772837,-0.0005193040930004285,0.000320552530237415,0.000960943864719566,0.0013652653696469097,0.0015875537853000993,0.0017241462720060437,0.0018514955226168626,0.0019849301826458947,0.002079500694394337,0.002068140819109509,0.0019099077583393258,0.0016165435467954694,0.0012423393802789783,0.0008481615472406934,0.0004660684320192555,8.594029716455279e-05,-0.00033237535025897394,-0.000832246810436571,-0.001431796255816659,-0.0021018585904645677,-0.002755578824087667,-0.0032561090545480337,-0.0034479269154074807,-0.003208463711607842,-0.00250284055501143,-0.0014158598220703016,-0.00014105888348136663,0.0010738656245461214,0.0020037103603594833,0.002512068954964479,0.0025817021869044498,0.0023021370728025167,0.0018261668815437412,0.0013159919962761764,0.0008976669665428133,0.0006339620781322637,0.0005175933000470272,0.00048295129133545285,0.0004331881461132393,0.00027671167696011753,-3.733805550466254e-05,-0.0004966672145598188,-0.0010241010030608377,-0.001496392361263252,-0.0017776803456050626,-0.0017602044674755427,-0.001404315015186776,-0.000766404383644525,4.182525854897097e-07,0.0006843640582430192,0.0010877415324488397,0.0011094672136966923,0.0007985485203547733,0.00034451783305924953,-3.1758055052469314e-06,-5.697646698789825e-05,0.00020487434124764588,0.000611441832705744,0.0008733772181828605,0.0007289762315171462,8.998297126207202e-05,-0.0008911695101600862,-0.0018740698171385267,-0.002481380247543078,-0.0024718414179859204,-0.0018452052081539526,-0.0008268886534995991,0.00025206876792086154,0.0011078791128146528,0.001607250343216272,0.0017769627260603585,0.0017348587403066952,0.001598848348901585,0.0014316133682056595,0.0012440139427963399,0.0010363336833712918,0.0008336640055221557,0.0006835576316513895,0.0006186448760977946,0.0006163174694777344,0.0005899737237460726,0.0004225668618637057,2.3914498074850313e-05,-0.0006203201677279362,-0.0014322085323369088,-0.0022625894383457848,-0.0029373798148458327,-0.003309660854728876,-0.003299913321781953,-0.002913425513950084,-0.002231569300897779,-0.0013810863382342452,-0.0004925339163474445,0.00033623766146608804,0.0010569163094101602,0.0016622079619902433,0.0021594827357597885,0.0025435852571741723,0.002785352350635561,0.002842382771259083,0.0026854721134742716,0.00232535203911523,0.0018240117917867709,0.0012821638118557018,0.0008052267517716367,0.00046014971010282916,0.0002417954913322513,6.79797331325767e-05,-0.00018690705271858865,-0.0006287961415135833,-0.001280616191843514,-0.0020545251723121266,-0.0027795784891718515,-0.003273038497255595,-0.0034159087371487093,-0.0031899678289562887,-0.0026596523492843248,-0.001920288915677006,-0.001055206840043572,-0.00013081920566437774,0.0007779491264637168,0.0015678727174629732,0.0021246703332425424,0.0023748300636219164,0.002334995003486543,0.00211617560669979,0.0018696998965363606,0.0017047288651429247,0.0016301154787606521,0.0015582980128444053,0.0013667880024298422,0.000974923718654157,0.0003874460041594695,-0.0003152551309565084,-0.0010216663508935404,-0.0016313160040807562,-0.0020705563264190245,-0.0022866699281622505,-0.0022419727066350513,-0.0019221187421934766,-0.0013530844411094476,-0.0006106820466777539,0.00018744894323093628,0.0009050698922820798,0.001417620634217168,0.0016429751940634345,0.0015672450456556061,0.0012563510785428636,0.0008405061808029084,0.00046522693106486606,0.0002220098324955655,9.35660738142085e-05,-4.685235394961767e-05,-0.00036689980603427596,-0.0009657582235676591,-0.00178577765717747,-0.0026032335548735494,-0.0031133119971322397,-0.0030686567631857432,-0.0023983044934238655,-0.0012449217316308214,9.5655648817992e-05,0.001297439082739826,0.0021278442343401842,0.00251730603251161,0.00255204558494915,0.0024038236656913933,0.002236361074904466,0.0021340393247104694,0.0020832327157997857,0.0020073604837421706,0.0018282961485142923,0.0015153250453231175,0.0010953195475536196,0.0006251936109627307,0.00015068026779313038,-0.0003205591921505912,-0.0008174719815771943,-0.0013803515215894168,-0.002027030348529216,-0.0027261173368096697,-0.003387990847984577,-0.003878892461839776,-0.004057647113216837,-0.0038260709491567046,-0.0031741176578259788,-0.0021964083824147444,-0.001066170972750764,2.534797860400485e-05,0.0009350565419647141,0.001606806777804816,0.0020660536377773045,0.0023789351993873165,0.002602581072108414,0.0027545943040618182,0.0028149872739609066,0.0027538546762906763,0.0025643269522514483,0.0022787117809629706,0.0019558213680885687,0.0016448830939906334,0.001347875589948317,0.001006953374805733,0.0005307413464156008,-0.00015111275924086033,-0.0010349772027475786,-0.002021681113850895,-0.002937690771217426,-0.0035878814555831166,-0.0038169541244672373,-0.0035584371484450226,-0.0028582683550592764,-0.0018665534595893123,-0.0007964557309927373,0.00014156892426988942,0.0008084504416842633,0.0011777174557379717,0.0013266468678505043,0.0013798700085591547,0.0014358699648724473,0.001517735500359337,0.0015745672190196492,0.0015280033107130662,0.0013299503347109435,0.0009919510917592448,0.00056895815207621,0.00011573769162010806,-0.0003445354220693367,-0.0008112463454008813,-0.0012646942535968209,-0.001630597615733763,-0.0017888038452941702,-0.001631580627387793,-0.0011374646302148824,-0.00040994273819744366,0.0003515357358878646,0.000938960204918427,0.001233587426905843,0.0012561558446433844,0.0011386352422553092,0.0010350614297802126,0.001026692436284854,0.001078153527871277,0.0010665624632367654,0.0008602618485635438,0.0003982245812439462,-0.00027177086528819934,-0.001009776216285653,-0.0016406506474721176,-0.0020224438928060848,-0.0020965880237636403,-0.0018992373443028232,-0.0015295502011260678,-0.0010914337384299406,-0.0006411156917825149,-0.00017215409448657036,0.00035204154259156346,0.0009397550918369976,0.0015284852254331374,0.001992498189529714,0.002201127925063937,0.002092458812033691,0.0017142565789902632,0.001203722395871408,0.0007158967927600522,0.000342053727699624,6.556574363461186e-05,-0.00021849928094719838,-0.0006297121762564915,-0.0012155717501665599,-0.0019020859527413352,-0.0025120535603756983,-0.002842195763755713,-0.002755856897480092,-0.0022410377669241158,-0.0014076158801346903,-0.00043429061221190264,0.0005000816733486011,0.0012668004446260539,0.0018040478533049608,0.0021056798721969337,0.002198963557647716,0.0021266782851504023,0.0019386263153813932,0.0016865238718608718,0.0014135220695774163,0.00113806904869897,0.0008433405634530976,0.0004852004910106552,1.982828417182664e-05,-0.0005627134985550673,-0.0012171505163031853,-0.001844233584724768,-0.0023138991411189237,-0.0025030360084786862,-0.0023372138296156395,-0.001823020383820376,-0.0010577141532941607,-0.00020902769715737618,0.0005316020469554386,0.0010091189357644683,0.001157940333962218,0.001025350534522029,0.0007495352835471128,0.0004961038509600257,0.00038107757716888285,0.00042012193606889945,0.0005315276581682141,0.0005897581218935936,0.0004974389990511192,0.00023560432548502667,-0.00013144946547362347,-0.0004922107328569714,-0.0007393318159681439,-0.0008082162139406776,-0.0006888794160992444,-0.0004158229708306609,-5.0489360414124723e-05,0.0003326939000903555,0.0006561370259121479,0.0008510257242322886,0.0008750098145220515,0.0007301248453675423,0.00046838522776484787,0.0001751575379591003,-6.699545693931384e-05,-0.00021683741559415704,-0.0002925021796056431,-0.0003553413413837981,-0.0004664422974062299,-0.0006419880220644861,-0.0008366363800901735,-0.000965957661884178,-0.0009520892660527867,-0.0007623390241229713,-0.00041963437258658734,1.3127244079944554e-05,0.00045665940186130237,0.0008319371613020117,0.0010706986049680745,0.0011300606097543937,0.0010133921989180486,0.0007817988089103549,0.0005344748831243649,0.00035525149330464974,0.00025519023184132086,0.00015673508774843295,-5.706063428820556e-05,-0.00045244193620011487,-0.000974073985925077,-0.0014469729430956033,-0.0016589672740141125,-0.0014783221296752638,-0.0009360889111555408,-0.00022118600846577876,0.0004127888073154022,0.0007767361434228479,0.0008362757223043106,0.0007112635780537056,0.0005881504990325245,0.0006011705680680054,0.0007547416844359302,0.0009301870431456564,0.0009654139003288308,0.000753330560754308,0.00030047360475094387,-0.00028052472535040917,-0.0008289327227986331,-0.001204752753016832,-0.0013329176109164614,-0.001209816933772857,-0.0008822534312868899,-0.00041981119869808703,0.00010266960385801579,0.0006093175443260693,0.001023354944559551,0.001275009129132261,0.0013206631041519108,0.001164069071395712,0.0008637237910341368,0.0005152965250441786,0.00021177835377958953,-1.3792140476989734e-06,-0.00015210692979994618,-0.00033050240228687773,-0.0006399327543501337,-0.0011308335560359292,-0.0017508609850865767,-0.002341794632258316,-0.002693087026202191,-0.00263297776971905,-0.0021150641174842596,-0.0012544134887387275,-0.0002878518334352309,0.0005291568474143389,0.0010397500310886923,0.0012536458042227887,0.0013247218795343467,0.0014485208831385835,0.0017406304137727248,0.0021705708773499034,0.0025892863895804197,0.002826093598280125,0.00278790293465928,0.0024986317829637375,0.0020616566833565678,0.001578416328336769,0.001079783589563948,0.0005137053030924414,-0.00020467515081593946,-0.0011127693312008395,-0.002141163321418079,-0.0031140289284737064,-0.003811892915984719,-0.004061727965749291,-0.0038055814070816975,-0.0031162871948206966,-0.0021613427514626613,-0.0011403648437248285,-0.00022592775256362048,0.00047339850684060885,0.0009235423027952926,0.001154016339743883,0.0012331700254825857,0.0012367759463527785,0.001217941081896674,0.0011882346360006838,0.001118841365777318,0.0009633739099060147,0.0006928437890995273,0.0003249507496246389,-6.94902422367057e-05,-0.00038961184549534365,-0.0005479677125313501,-0.0005123027482528218,-0.0003213394019129412,-6.322422939373162e-05,0.00017217403808435488,0.00033867187774773406,0.0004499334352852018,0.0005591383754615358,0.0007180723997348257,0.0009420057861137018,0.0011994152810823426,0.0014280704504381655,0.0015632852315933302,0.0015587892124768786,0.0013882751237832974,0.0010323935298298453,0.0004707615962119497,-0.00030227059243939907,-0.0012398228904807601,-0.0022103283898627377,-0.0030064579419782898,-0.003408429295304282,-0.003276440440518551,-0.0026212440938594758,-0.001609806609559678,-0.0005000394916311489,0.0004606944284029921,0.0011206515056187173,0.0014536446461713946,0.0015290012505963096,0.0014482043802271543,0.001286694283615434,0.001068370829971469,0.000777105880343406,0.0003894869444343429,-9.346949148227078e-05,-0.0006305497035965064,-0.0011427327832984231,-0.0015282523065518717,-0.0016858955599540273,-0.0015455688246661615,-0.0011016121961891039,-0.0004336386158532938,0.00030566975930223367,0.0009433624904316151,0.0013590022154259859,0.001535208012660114,0.001551261559846574,0.0015221511346870443,0.0015249540568370444,0.0015628818692522309,0.0015856177526507947,0.0015391553522150513,0.001398479524010642,0.0011585138264603749,0.0008017037687273128,0.00028542897944904846,-0.00042357153274119727,-0.0012851644323106722,-0.00214559611055615,-0.002769302211678549,-0.0029432016308756164,-0.0025969687445521468,-0.0018605609784810068,-0.0010130926523898034,-0.00034513205586219264,-1.3697680953212669e-05,2.3620500021323196e-05,-4.250612444623315e-05,-6.420543433217733e-06,0.00022206917240496019,0.0005698696814998121,0.0008590384509569865,0.0009261551559243235,0.0007220730127209399,0.0003317601462419254,-8.797680565889206e-05,-0.00040161193412303485,-0.0005545495651440207,-0.0005674658744877968,-0.0004840563750348227,-0.0003210001168690328,-5.881994177248887e-05,0.00032491310518922975,0.0008110610896640714,0.001319104778672651,0.0017273013795819714,0.0019208735693388762,0.0018413811181361905,0.0015134259209988075,0.0010385458328005014,0.0005596972631993634,0.00020762680649762956,4.504156859312311e-05,2.9841271854389817e-05,2.1187698034303684e-05,-0.00015923512707401643,-0.0006280921308752879,-0.0013530927590882761,-0.0021345709343470283,-0.0026807847220936603,-0.002745802136039455,-0.0022563985534584897,-0.0013562690092163827,-0.0003426854550810307,0.0004681254328821852,0.000874509930418264,0.0008578753250522154,0.0005633828613814303,0.0002147285712674721,9.456676478631493e-06,4.015077931048862e-05,0.00026846480563401257,0.0005553037919674626,0.0007302133075358166,0.0006704357642788938,0.00035728068480585847,-0.00011401851989935037,-0.0005755263303179458,-0.0008594448933215597,-0.000866410778278225,-0.000595935313908722,-0.00012926175994283108,0.0004161321224616392,0.0009286463899856485,0.0013222051756943166,0.0015386748701716212,0.0015509876145969987,0.001375170076858853,0.0010788012354761675,0.0007643452286056176,0.0005209629561849687,0.0003679938299553983,0.0002316657614389447,-1.636123102248012e-05,-0.00047027504536693767,-0.001103020041094951,-0.0017415938685772982,-0.0021320110423780243,-0.002064324890718436,-0.001486367076956745,-0.0005392226119897655,0.0005037262381517877,0.0013540273898684399,0.001814531221660493,0.0018265411803815176,0.001453302310093353,0.0008297908981666257,0.00011331907591681512,-0.0005497038270880807,-0.0010461269793471655,-0.0013171599286150252,-0.0013763272887207401,-0.0013099922054820266,-0.00124737280702152,-0.0013033473112284812,-0.0015173592093623762,-0.001820237989699076,-0.002050025693435011,-0.0020136174589385804,-0.001568430916575872,-0.000690107526329229,0.0005006504856537473,0.0017638869110077338,0.0028131366077570547,0.003411657246860448,0.003455569962079166,0.003007791961615278,0.0022655476565765437,0.0014749843537076434,0.0008330140735258993,0.0004229678698325287,0.00021149277357473354,9.980480870548213e-05,-6.023040843067609e-06,-0.00014650366821446908,-0.00030383200054837187,-0.0004334097405521726,-0.0005039706369684423,-0.0005184033672388879,-0.0005056721363829631,-0.000495916461392791,-0.0004996009330087742,-0.0005036021287526866,-0.0004827243102962981,-0.00041706621025246063,-0.00030712388488267307,-0.00018308353646404128,-0.00010558641264083552,-0.00015278022486791025,-0.00038955745291829186,-0.0008248981158970993,-0.0013784217766867682,-0.0018843590760416304,-0.0021472685258853846,-0.002030914018182015,-0.0015316972753337205,-0.0007880363304648111,-1.4169313383230464e-05,0.000603142875722832,0.0009817885830303683,0.0011525092060365933,0.001204819960084739,0.0012173460105750855,0.0012205979164714865,0.0012062739325234045,0.0011590415066779934,0.0010755647969820823,0.0009566830004146881,0.0007893656878605977,0.0005463964213929659,0.0002141367585016974,-0.0001708513601346097,-0.0005098405371460276,-0.0006735402184545841,-0.0005641704833632979,-0.00017192964062319113,0.00040634518951372634,0.0009941688680952453,0.0013933515204660966,0.0014517872217844788,0.001123361262289679,0.0005012840329016255,-0.00019881836600556648,-0.0007207256520867635,-0.0008935444643442393,-0.0007366057929275804,-0.0004668450586404196,-0.00038075726960390334,-0.0006688332303005987,-0.0012797362272757226,-0.001931053669384134,-0.0022690490802714193,-0.0020771626096069157,-0.0013982491810960286,-0.0004959143606869387,0.00030855041798342336,0.000808057279304504,0.0009838462328806128,0.000957125219714636,0.0008782653994185982,0.0008383323316227122,0.0008467036553840468,0.0008589470404152335,0.0008129709526545016,0.0006501964168667712,0.0003302550354966447,-0.0001451769520802986,-0.000706082714140297,-0.0012136925198746756,-0.001505317960869852,-0.0014677059832470763,-0.0010933058138661422,-0.0004816731294951201,0.00021265005261912042,0.000848146442250451,0.0013382842598995584,0.001652143633159393,0.0017901530390337208,0.001762966037218051,0.0015884028991205819,0.0012992636581589268,0.0009438249079825574,0.0005694593322780519,0.0001994642006740259,-0.0001746390426769235,-0.0005716994606480327,-0.000981759526814562,-0.0013408763661190378,-0.0015474260746203828,-0.0015177113143218653,-0.0012455358468823974,-0.0008213952551979467,-0.0003920557791251757,-8.289713444448676e-05,6.807886139117677e-05,0.0001233003515983015,0.00019852318738126972,0.00038414650423990995,0.0006798565465922102,0.0009782693009627837,0.0011063265376803867,0.0009041224047918765,0.00030431974320007174,-0.0006227878013883113,-0.001677644744692201,-0.0025908976487364743,-0.003111682332726395,-0.0030903876351329428,-0.0025236163350770367,-0.0015464483143750943,-0.0003813286543619789,0.0007303138180513227,0.0015877473041891691,0.002069718004747789,0.0021539734359964143,0.0019214084214801488,0.0015406493431388843,0.0012236254444885322,0.0011523285118975898,0.0013996271009602147,0.00188493801235361,0.0023984130511912703,0.0026917476312411453,0.0025914585301913644,0.0020735103432635528,0.0012617029257228757,0.00035968292437965795,-0.00043783028670452834,-0.0010088740573268211,-0.0013250512135668186,-0.001438524808190328,-0.0014521683617406958,-0.001482761785057336,-0.0016213192061554811,-0.001897738220122752,-0.0022630607280150665,-0.002601899717106459,-0.0027764023041755917,-0.00268645933839529,-0.0023186489913067034,-0.0017578112802848558,-0.0011525588519618645,-0.0006509651160578941,-0.00033936297001654556,-0.00021424924965745065,-0.0001973912782765961,-0.000181334184716089,-7.988886957428299e-05,0.0001402588970562885,0.00045921475862468857,0.0008318238537800586,0.0012262575677778834,0.0016475677731590634,0.002126547780748271,0.0026758727901986484,0.0032414086634746367,0.003687389831717314,0.003837752161723504,0.003559427401403671,0.0028408926575705234,0.0018154606443212644,0.0007103331162038578,-0.00024976225285822627,-0.0009253068588914379,-0.0012835874284620602,-0.0013585208201684074,-0.0011944661411653415,-0.000827617581212154,-0.0003202491300866861,0.00019010800279745132,0.000487398830241926,0.0003511800559847047,-0.0003223755266846019,-0.0014301197216506287,-0.0026717715907151815,-0.003667662982527923,-0.004121004120526163,-0.0039341569396009295,-0.0032225721870255226,-0.002235184164425776,-0.001237960363786509,-0.0004214328055266335,0.00013687871360725705,0.0004587002900873797,0.00062094615594936,0.0007032028895374107,0.0007451318482984393,0.0007306541712425911,0.0006096575045863506,0.00034972404990548907,-1.2810409652246404e-05,-0.00036057907988073287,-0.0005380960275580913,-0.0004277387235067428,-1.1508190002187078e-05,0.0006201160723032107,0.0013155627678997544,0.0019334003452467362,0.00239318864963258,0.002680515193329739,0.002815952524884453,0.002822702980990678,0.0027225785962181255,0.0025586570723732578,0.0024123779505000283,0.002380886241843382,0.0025118474709723603,0.002734450998458729,0.0028430713326969025,0.002565447443679525,0.0016926621239034929,0.00020121406001640603,-0.0017058660415118082,-0.003666327416196295,-0.00529879732669193,-0.006341958344666933,-0.006726655159820313,-0.006556156363253745,-0.006017086591923043,-0.005273804566211155,-0.004402233715580742,-0.0033956104312750784,-0.002233059507384846,-0.0009616765176115125,0.0002701282033005315,0.0012607723308927193,0.0018605022206237948,0.002063850832400439,0.00202378099703589,0.0019735554378087173,0.0021042686071201626,0.002472540908428477,0.0029878237903383092,0.0034753766464517034,0.0037691586373222938,0.0037824667542969564,0.0035278245675232894,0.0030892755693511563,0.0025709589380981286,0.0020496099073052908,0.0015497008773687204,0.0010464275272568813,0.0004906541980463485,-0.0001558320777155283,-0.0008881539132704508,-0.0016421706037605469,-0.0023033427270212513,-0.0027404883140534197,-0.0028523414990676297,-0.002607686958466313,-0.002063225542528432,-0.0013544336575645587,-0.000664473621369611,-0.00017898535157161643,-3.37571058117523e-05,-0.00026535222317597895,-0.0007829534294593755,-0.0013836284905249605,-0.0018208806237897208,-0.0019070022812316687,-0.0016006832237882894,-0.0010277178615984146,-0.0004156760905145063,2.4594845812114102e-05,0.00020339142653076191,0.00018443118312323498,0.0001328710543555163,0.0002167444373943903,0.0005208240462828374,0.0010154238952700565,0.001584844200733477,0.002088351113287234,0.0024179880579955973,0.0025292449656295958,0.002438453228738267,0.002194825173901337,0.001843950967085048,0.001402904700459586,0.0008614493470266865,0.0002087453897745722,-0.0005315610930988611,-0.0012816666489128112,-0.0019210420825488328,-0.002326587320768813,-0.0024217119743517182,-0.0022081540079664256,-0.001763383162441354,-0.0012058038292852096,-0.0006476168929969149,-0.00016002311106669666,0.00023515164319549324,0.0005511622061279125,0.000814458268171126,0.001047200200026037,0.0012548128851625436,0.0014140790495784776,0.0014650979493217066,0.0013211949761878557,0.0009076019967387185,0.00021814728874690383,-0.0006441692008979753,-0.0014784903094566156,-0.0020574886701435584,-0.0022272690218447834,-0.0019805966121266136,-0.0014587420089531445,-0.0008774571617226884,-0.0004182767440509963,-0.00014759214907470483,-7.35981589689667e-06,0.00012498938864566843,0.00035127349082865467,0.000694113926470701,0.0010913256369685458,0.001432674337165745,0.0016092482531610032,0.0015515791241420308,0.0012497660065169617,0.0007587424242080738,0.00018977228998590286,-0.0003146905262927128,-0.0006214998235455204,-0.0006510281939450561,-0.00040682494213909815,2.389755746049719e-05,0.000501541585063105,0.0008858325260225849,0.0010869410418515102,0.001093881968989192,0.0009671602209472103,0.0007988668708471619,0.0006590861158187699,0.000554662650087354,0.0004215284878885052,0.00015665533772940814,-0.000323659753117178,-0.0010271101628161361,-0.001859767503417171,-0.002647175751543817,-0.003195167545064348,-0.0033635145576612836,-0.003118044844452738,-0.0025361298148165777,-0.0017639439254272405,-0.0009504821098822716,-0.000195959908204992,0.00045999652077564554,0.0010145164843621468,0.0014700395069309146,0.0018223730753260175,0.0020719214452253657,0.002237575518000647,0.0023496643852878676,0.0024193035800946674,0.002408188531395365,0.0022310924018317108,0.0018028997456084692,0.0011066254773060367,0.00023661988780160695,-0.0006181252066625176,-0.0012478167992798495,-0.00151280401691013,-0.0014016000084631202,-0.0010276514332362638,-0.0005711921798173397,-0.0001976080006995352,9.598975285551956e-06,7.139080720802715e-05,8.036717351698856e-05,0.00012813854965837077,0.00023275722098526318,0.00031143343357881593,0.00022133141610886304,-0.00014897090937504343,-0.0007888400385963171,-0.001533040897401276,-0.002115713355484234,-0.002290073612684795,-0.0019516607547821801,-0.0011955521984869778,-0.00027216367857421046,0.0005356112921653007,0.0010439799067591647,0.001233920597245266,0.001219428492478392,0.0011491480080974023,0.0011103290572419867,0.0010930517475478488,0.0010248712326869694,0.0008387884661152776,0.0005228577662156186,0.00012255038133988352,-0.00029452519728980636,-0.0006770188595576648,-0.0010010981368129312,-0.0012509427767061706,-0.0013916230295282356,-0.0013636614959999607,-0.0011099428555462181,-0.0006178994902025967,5.387563572130101e-05,0.0007843737964589731,0.001428874081772277,0.0018645960918234296,0.002022246127040621,0.0018968074929462688,0.0015421087970326388,0.0010542544184491678,0.000544780693035915,0.00010537681459827698,-0.00022540837092457433,-0.00047500103813166543,-0.0007144342284850489,-0.0010048321287445504,-0.0013404934293028206,-0.0016266746967464375,-0.0017149235871885974,-0.0014837308859545664,-0.0009198347383479921,-0.0001492882154980977,0.0006057383975883058,0.001124297270318183,0.0012847937250527247,0.0011099151317278447,0.0007367437527370253,0.00033458652351978004,2.044523488325999e-05,-0.00018330580020371485,-0.00033524570256137243,-0.0005241040503891146,-0.0008136762944571871,-0.001208453011088941,-0.0016474144845483956,-0.002020174991068685,-0.0021960505933819874,-0.002059264581885414,-0.0015459064126501613,-0.0006761472074942139,0.0004303462351467769,0.001570255363721509,0.0025100247854349077,0.0030642514335267133,0.003167134752671049,0.0028999781024938165,0.002454209375555988,0.0020408620314792056,0.0017870385132971937,0.0016708143756399157,0.0015312037745927082,0.0011548427477635454,0.00040132055569564893,-0.0006962008178576684,-0.0019133498852865949,-0.0029190709188413816,-0.0034248107213582725,-0.003319545300163793,-0.002715513341106832,-0.0018804871047280935,-0.0010992597017263068,-0.000545660064135399,-0.00023268584330141898,-5.5234298592381215e-05,0.00011461279137259988,0.0003422190366213717,0.0006003974957603157,0.0008014520754608485,0.0008625759750352689,0.0007612598465716193,0.0005477835428581527,0.0003102974042314382,0.00011836214139391362,-1.5702785161721806e-05,-0.00013166221242672687,-0.0002783478651766948,-0.0004661999464821314,-0.0006506006567749388,-0.0007558903812001146,-0.0007183993824209237,-0.0005153257802376209,-0.00016326047848835802,0.00030147054552213167,0.0008352809073244646,0.0013804762664486412,0.001852311544088315,0.0021447989714151747,0.002165391717196742,0.0018806442390143533,0.0013400454046226615,0.000658062152725711,-3.552599949445878e-05,-0.0006446270055029634,-0.001125248841933962,-0.001467292818240978,-0.0016605137895408482,-0.0016757609480742355,-0.0014791678093808774,-0.0010697160020983073,-0.0005101868453302192,7.618452076939657e-05,0.0005475644032272701,0.0008012027147889385,0.0008134929341820606,0.0006405700159249433,0.00038152141055634576,0.00012617828387587518,-8.488440169282258e-05,-0.00026889975290170405,-0.0004748440519781144,-0.0007364229428462672,-0.0010296362120833253,-0.0012617315962521625,-0.001305105446435644,-0.0010649845464520758,-0.0005462016534779886,0.00012210291304558805,0.0007268287608463894,0.0010637134637110058,0.0010367154157173719,0.000708672514064789,0.00027152391292347257,-5.0794681450321575e-05,-0.00011483999611052939,7.484269336591621e-05,0.0003770718208483863,0.0005941523513365134,0.0005756153383995426,0.00029210507348321254,-0.0001543507247108401,-0.0005825706851931619,-0.0008150194678794463,-0.0007487423812185161,-0.00038552700305479956,0.00018188640360910634,0.0008108251661939092,0.0013556867839768986,0.0017063222736822792,0.0018111584477130682,0.0016825320357424555,0.0013836629096372509,0.0009999800070238118,0.0006029010349734337,0.0002195650117591116,-0.0001760574841737435,-0.00064098183463606,-0.0012155240148378826,-0.0018742675281793017,-0.002507604811055897,-0.0029521558343757986,-0.0030587570724044076,-0.00276103809405025,-0.0021050720822467606,-0.0012243176540958963,-0.0002780353635787624,0.0006080191601167931,0.0013660922690712724,0.0019705492088070934,0.0024033734473272537,0.0026314751642649787,0.00261196473543993,0.0023174130084283664,0.0017589939941628856,0.0009913488856926494,0.0001007909264003487,-0.0008097248848354974,-0.0016293027561623621,-0.0022447432616340877,-0.002553669409551512,-0.00248974003952115,-0.0020510126875618964,-0.0013144977956706474,-0.00042532358923816,0.0004374311073530187,0.001106477710366292,0.0014713356001871858,0.0015124945704217494,0.0013127011976878243,0.001032239256573517,0.0008458643563926515,0.000862374164037223,0.0010673499682777635,0.001325384617993449,0.0014464448257562605,0.0012817345258069393,0.0007965286185175834,8.414325913130914e-05,-0.0006780054480480546,-0.0013004507929666382,-0.001647069811413713,-0.0016720582437335192,-0.0014226601582597823,-0.0010127595094927364,-0.0005792468761728722,-0.0002371215902181288,-4.856795086218327e-05,-1.4540069091155926e-05,-8.802845402426651e-05,-0.00020128968646408903,-0.00029659208975036646,-0.0003494289480734732,-0.0003739967437863113,-0.000406305453696679,-0.0004724528407717972,-0.0005618554627124916,-0.0006255148980481408,-0.0006029181647320314,-0.0004590944133803579,-0.00020477751020702459,0.00011394442006280403,0.0004459855371856263,0.0007609406492796976,0.0010520876928836681,0.001318726528564807,0.0015455792365648385,0.0016966405836558538,0.0017274248329393,0.0016058395533156086,0.0013283636922018106,0.0009247247506368959,0.0004524659012245989,-1.4876551022711439e-05,-0.00040522633829226406,-0.0006712240641474969,-0.0008132730625475002,-0.0008877061109891448,-0.0009857234824756115,-0.0011841877682358848,-0.0014916200714377792,-0.0018236524473429325,-0.0020294924836823224,-0.001960680822372624,-0.001546332869090485,-0.0008340364235981654,2.4743620977133243e-05,0.000835466679571578,0.001435689410885923,0.0017489010456768193,0.0017950958875039905,0.0016588934622267482,0.0014366588751661493,0.001192558136537833,0.000944628134680608,0.0006805263400526951,0.00038341307467916713,4.6239234587219335e-05,-0.00033111230308454655,-0.0007483066888478963,-0.0011979391753664489,-0.0016451776531087607,-0.0020122674257004756,-0.00218936670612644,-0.0020758188503536053,-0.0016325731485874431,-0.0009150671852068636,-6.411171835965686e-05,0.0007451841106124102,0.0013721706076888357,0.0017604169860879933,0.001940524256116163,0.001986025844047535,0.0019530849387259267,0.0018456694791224887,0.001628945107985318,0.0012774294808967567,0.000818117675813483,0.00033268463300670757,-8.569761892841202e-05,-0.0003902504684542298,-0.0006100885516100449,-0.0008275697600569067,-0.0011167303259608968,-0.0014844861386457222,-0.0018557732509105569,-0.00211342189196596,-0.0021642822926152233,-0.0019847168333430223,-0.0016163357132555813,-0.001123000865282869,-0.0005497156338359406,8.144223462709828e-05,0.0007387385676654919,0.0013470386117769456,0.001792419610109645,0.001973045569973358,0.001862939257720392,0.0015392379119945497,0.0011468575940250041,0.0008192622484326211,0.0006059937425585091,0.0004537472030737126,0.0002523923480355476,-8.379706445600307e-05,-0.0005496298022182003,-0.001036411931582726,-0.0013804292170473088,-0.0014454894471911208,-0.0011940967830621483,-0.0007084568823995381,-0.00015087123082551876,0.0003129557709249326,0.0005850267923537406,0.0006643005505700534,0.0006237775675820545,0.0005541231133934991,0.0005087396782033418,0.0004809573227095654,0.00042233153156668386,0.00028488218871974857,5.64143782194078e-05,-0.0002336424769030644,-0.00053674662849388,-0.0008143943993917909,-0.0010499943837734794,-0.0012359016817454125,-0.001349417742368889,-0.0013416636232277995,-0.0011543425403762293,-0.0007576380118977902,-0.00018391741727410635,0.00046895752082405347,0.0010721772078826515,0.0015201901801659532,0.0017722153984980134,0.0018565827889217628,0.0018375742670446685,0.0017675621326606419,0.0016544210806090983,0.0014626402493041425,0.0011447489288965574,0.0006810733416836641,0.00010197354373176737,-0.0005201379329706566,-0.0011012574293640307,-0.0015779719937364187,-0.0019228832550246952,-0.002138407665506271,-0.002238202491575487,-0.002230929098604896,-0.002115885004933327,-0.0018896899428808207,-0.0015560003614499196,-0.0011306014036003274,-0.0006397885387834645,-0.00011496846654904897,0.00041250529380053476,0.000914200692561765,0.0013652080866564389,0.0017429762085489394,0.002024719930290251,0.0021851505294384703,0.002198863363802653,0.0020511960616394326,0.0017546809820121858,0.0013595899748862213,0.0009458931377064843,0.0005946177559270581,0.0003519212462697952,0.00020637449405575535,9.307993833011818e-05,-7.66854845821762e-05,-0.000373893903795417,-0.0008157831362586351,-0.001349838210179446,-0.0018650496238226256,-0.0022282124086907685,-0.0023325099545142853,-0.002138717980967991,-0.0016913389809907434,-0.0011027995809329565,-0.000512263316951654,-3.530494277367803e-05,0.00027551405069464177,0.00044200217459900836,0.0005376093782868347,0.0006419167058568272,0.0007972684494514087,0.0009910596534314412,0.0011699202481852368,0.0012716323864684275,0.0012526552006176114,0.001098211223289911,0.0008180521641060964,0.0004396621189459971,6.3198762532152425e-06,-0.00042256875255323014,-0.0007765266829068088,-0.0009885777229300973,-0.0010154563969651629,-0.0008536695595050628,-0.0005422871136808666,-0.00015041550016567536,0.00024423540066963845,0.000575719578218852,0.0008024499617388748,0.0009111918401044899,0.0009144092316764477,0.0008416714627381317,0.0007248137789678025,0.0005794723321796069,0.0003909556617757547,0.00011492040235241486,-0.0003010332212486933,-0.0008794222635890993,-0.0015751057343119973,-0.0022599779029368644,-0.0027463339183762103,-0.0028473679238891565,-0.0024521614052135025,-0.001580717673874126,-0.0003908299353577008,0.0008691496683561593,0.0019414642270322335,0.0026386264593138056,0.0028896835066902467,0.0027400094323990595,0.0023144659426578445,0.001767931459542538,0.0012449383175940783,0.0008544542934649743,0.0006508908628421605,0.0006133463092254355,0.0006321996535709957,0.0005271055256739353,0.00011267298897595828,-0.0007034680473771162,-0.001838697125924031,-0.0030249546887578336,-0.003894605501972609,-0.004133641130448202,-0.0036285028918493813,-0.0025273182081490923,-0.0011779846234053854,2.797351759350965e-05,0.0008250069776736612,0.001169647281053219,0.0012188573822342784,0.0012126642148539396,0.0013342952213312698,0.0016267891157088108,0.002002688402984794,0.0023223854515543032,0.002479330511650416,0.0024397367046236937,0.0022270275546888455,0.0018804625982805482,0.0014253640765240717,0.0008709450020768219,0.00022544067789201502,-0.0004903974799374113,-0.0012396321854984212,-0.0019698072324056265,-0.002611639471723738,-0.0030802649667759996,-0.003290306637861395,-0.0031868195783030925,-0.0027758825599922075,-0.0021308982165502465,-0.0013648326002513012,-0.0005843821191634115,0.0001432743787430018,0.0007905117817110207,0.0013423448383003348,0.001770127349913029,0.002031220568801531,0.0020963002343460844,0.0019812113835135634,0.001755152027841223,0.0015144290665886737,0.0013357195321172261,0.0012365639525057648,0.001166527387376713,0.001034623028655218,0.000757808624658234,0.0003037392464529075,-0.0002938062370746215,-0.0009499869949971113,-0.0015599241778048003,-0.0020267114286762183,-0.002276935081289646,-0.002267548445826421,-0.001993334580318527,-0.001497414583095282,-0.0008751631328842103,-0.0002573692658260323,0.00023102661408200503,0.0005209865744209512,0.0006303713645658136,0.0006546593160677639,0.0007182316565800264,0.0009089239780015243,0.0012265456794083884,0.0015688924923236802,0.0017637895837076022,0.0016389586241614563,0.0011052004680275648,0.00021676211808542258,-0.0008251628341634454,-0.0017377270329996903,-0.002267044287918777,-0.0022921221534190337,-0.0018687185332848103,-0.001189928742341799,-0.0004856706514905312,8.347319524442407e-05,0.00048163596326180886,0.0007773982898434323,0.0010673645946664906,0.0013935669550659635,0.0017042730048516211,0.001878870811350226,0.0017991524000757942,0.0014242443687918962,0.0008268150022740549,0.00017029324218014529,-0.0003628961976304062,-0.0006575049252986227,-0.0007222568553348551,-0.0006846393318265371,-0.0007207249897157575,-0.0009531487202575706,-0.0013727298414394741,-0.001831008184387173,-0.0021125756918734633,-0.002049013694922175,-0.0016102181782203804,-0.0009212262714575049,-0.00019608467451451842,0.00037196328271286473,0.000701306575851129,0.0008447761818084591,0.0009362294631025075,0.0010961770348327027,0.001353459876055702,0.0016284442199821926,0.0017852869988391946,0.0017189319577491744,0.0014225103445503944,0.0009953213955016971,0.0005898162161342447,0.0003314200031222887,0.00025599203900512294,0.000294683013804458,0.0003093734860454751,0.00015923673097496902,-0.00023214640281206292,-0.0008381041885474772,-0.0015350485616020706,-0.002150547024353933,-0.002531055094263776,-0.0025968541355007465,-0.0023582042003703167,-0.001889338808655456,-0.0012823345494461776,-0.000612251158688712,6.89877685146566e-05,0.0007170006240203107,0.0012790841486133454,0.001694840771533354,0.001914386499227413,0.0019223375211309792,0.0017525617958205166,0.0014835111674398758,0.001212404336061334,0.0010157355830769797,0.0009117223165871565,0.000844091298989645,0.0007013399542226927,0.0003697286811842113,-0.0002017401326615463,-0.0009573676426803888,-0.0017376399566446014,-0.002331508019275581,-0.002555203712095359,-0.002322197068275191,-0.0016751034728696003,-0.0007696535961940736,0.0001783544815867705,0.000960043637332107,0.001431432430969105,0.0015478038516037324,0.0013687063011509136,0.0010328459389479774,0.0007062209598486575,0.0005152991642022963,0.0004890059671725721,0.0005392782018000689,0.0004992495979385867,0.00021018323739807176,-0.0003826737893171091,-0.0011777408229010316,-0.0019424004320594424,-0.0024085351295392785,-0.002390849662203414,-0.0018674333326748878,-0.0009839535782646975,1.5094590266195081e-05,0.0008888009873092039,0.0014856712430588645,0.0017776386960322973,0.0018359010280048055,0.0017699901840685112,0.0016662024117243895,0.0015566888573600793,0.0014285963095782373,0.0012567731148387506,0.0010308887588830742,0.0007569827734900387,0.00043696242035506173,4.899448036536181e-05,-0.00044800769103918556,-0.0010816767864646934,-0.0018248358871325713,-0.002575145635572436,-0.003174103120245994,-0.003459482343914085,-0.003325429831106632,-0.0027615664567960142,-0.0018560774509278394,-0.0007666046130939074,0.00032529621250769263,0.0012592332614525898,0.0019288766702825885,0.002296810913401866,0.002390566298413113,0.0022840140467597393,0.0020716597880746394,0.001842897236677512,0.001660417756187515,0.0015458839990766594,0.0014774789689012658,0.0014032942635986488,0.0012675189806812246,0.0010364944020950955,0.0007085228082089976,0.00030081487250325774,-0.00017605656600315028,-0.0007342557585955103,-0.0013971367417490474,-0.002160367755324443,-0.002948771378372864,-0.0036035728333567623,-0.003923490697531737,-0.003750527491937949,-0.00305673872831023,-0.0019781498263761023,-0.0007685780110453038,0.0003059046914568092,0.0010748149527419998,0.0015164493943646098,0.0017336583981909929,0.0018731663352008151,0.0020365893154598506,0.002230360938987696,0.0023770282561485123,0.002375762758700788,0.0021730147352296797,0.0017996900564477957,0.0013524626794807738,0.0009319019106699457,0.0005778002535404354,0.0002450760643078638,-0.00016088224254120996,-0.0007085748276840149,-0.0013717314576903042,-0.0020143211231324247,-0.002444941846923836,-0.0025129430108525876,-0.0021902544236408854,-0.0015890352938267805,-0.0009037165210878874,-0.0003124898590834039,0.00010270999859913978,0.00037250470881350925,0.0005889668203932694,0.0008250941736282268,0.00107832190305661,0.0012721834520855496,0.0013099254229766307,0.001139921225671378,0.0007879316456198672,0.00033796627789578037,-0.00011869755370272567,-0.0005262815977987645,-0.0008703921281235294,-0.0011506662812685719,-0.001349680737140958,-0.0014266874966118025,-0.0013405803688505825,-0.0010815897997051944,-0.0006858424651996641,-0.00022246100472616542,0.00023627014359666967,0.0006413989846933994,0.0009756775599195672,0.0012424615500413172,0.0014456750091413032,0.0015759034098911965,0.0016128807776228373,0.0015427278860075497,0.00137675398367372,0.0011562979140466942,0.0009372209803100605,0.0007613831506229012,0.0006309844679021569,0.00050026215001502,0.0002901302689967472,-7.895387425364375e-05,-0.000647640146863331,-0.0013863871067420824,-0.0021860674806656703,-0.0028795395268900272,-0.0032925517940522227,-0.0033071978191640443,-0.0029096441486330645,-0.002196722133875462,-0.0013359818247240221,-0.0004996020419406063,0.0001940969967126336,0.0007061310884071773,0.001065679587840582,0.001336446896266517,0.0015787358916595573,0.0018200835082734733,0.0020423638733523693,0.0021907795331589947,0.002204149749145657,0.0020538291830931683,0.0017687074786997708,0.0014277109870465734,0.0011204212887735187,0.0008980163418327676,0.0007441690578005528,0.0005828765953574815,0.00031715084713406633,-0.0001239325553641737,-0.0007520655833767778,-0.0015100622156018603,-0.0022833214672950165,-0.0029264103574903706,-0.0033000298749386214,-0.0033115300367203265,-0.0029457075806506388,-0.002270210941031807,-0.0014094783268496195,-0.0004995642674614457,0.0003508536440003712,0.0010733625749397141,0.0016276970980235905,0.001984451899137944,0.0021223580991181394,0.0020424118268791177,0.0017838351251262402,0.001424778449062781,0.0010628839270891894,0.0007846510915993977,0.0006376416830644756,0.0006156577359545652,0.000660312553304419,0.0006778370972364875,0.0005678291500719648,0.00025854006916370387,-0.0002605050893996637,-0.0009217301623797483,-0.0015908418433114905,-0.0021082419801510353,-0.002345595250911636,-0.002250616739415494,-0.0018572600019843768,-0.0012584583646071653,-0.0005611602344460457,0.0001474718731604538,0.0008049405466516366,0.0013553820702998914,0.0017336586812324837,0.001875488935425919,0.0017549396926619528,0.0014223502795233456,0.0010050596750938092,0.0006533740736106988,0.00045487686161344823,0.0003714822643489296,0.00024831641671041677,-9.915313564789639e-05,-0.000765029855974749,-0.0016702708220713803,-0.002569151903323441,-0.0031467942722099565,-0.003158986372528194,-0.002543179931837946,-0.0014464952315466483,-0.00016134588095716,0.000994310451465339,0.0017924305218669856,0.0021571464373570074,0.002158180949349923,0.0019531118771806998,0.0017122075988061209,0.0015561039991107022,0.0015231799657047334,0.0015703004367017268,0.0016015517762942091,0.001513570148027008,0.0012415666156859475,0.000788066663170901,0.00021993992034971955,-0.000368258928781555,-0.0009071863911598602,-0.0013891553203492038,-0.0018595816799840954,-0.002362767069423362,-0.002876695715151089,-0.003286544576876736,-0.003425087444459646,-0.003161913032963944,-0.002485847601398754,-0.001525562809669916,-0.0004930626113313308,0.0004152008419311374,0.0010997938917715212,0.0015775213511833761,0.0019348884249966252,0.002251228565777907,0.002540302099806023,0.0027422667747505495,0.002764572631670912,0.002542698728732472,0.0020853491244906194,0.0014828945628284507,0.0008785433840681608,0.0004157096658470422,0.00017995042277265067,0.00015518836331737099,0.00021448150892519835,0.00016004842392200602,-0.0001913650669915488,-0.0009099700715569966,-0.0018931294780434537,-0.0028861330240024623,-0.0035832958973837682,-0.003759905221498137,-0.003364598433050537,-0.0025253567390071505,-0.0014741672532517023,-0.000440229023804627,0.0004287314740547515,0.0010849783962777353,0.001548512971700324,0.0018593656104541941,0.00204663253270407,0.002123697618862779,0.002097642679344305,0.0019759199637199533,0.0017640902228363814,0.001461096279797886,0.0010607340499219253,0.0005605002318658413,-2.7599009267098053e-05,-0.0006690291140141839,-0.0013026237964414533,-0.001841841195493533,-0.00218619036015921,-0.0022465592405630994,-0.001979139086998667,-0.0014121138992784948,-0.0006477829344549526,0.00016581465778877302,0.000882287976437102,0.001400443633780763,0.0016837620174824798,0.0017504184194521452,0.001645367247960414,0.0014134684776777322,0.0010867561386473969,0.000686467936186275,0.00023191365804309705,-0.0002518267855526895,-0.0007308275105482896,-0.0011639702842897973,-0.0015086802652958897,-0.0017291454247577204,-0.0018030077128751959,-0.001721997556053426,-0.0014868773640519689,-0.001104234752447926,-0.0005933130533477549,-7.554307994059838e-07,0.000592168371779061,0.0010864617045145493,0.0014056183904691097,0.0015348428701484197,0.0015279757574633423,0.0014709835343917218,0.0014241185561009828,0.0013835683988938055,0.0012905846801204938,0.001080297494307869,0.0007317422006898999,0.0002804330391163783,-0.00021363563690795243,-0.0007118767908158755,-0.0012139731739316156,-0.0017276001764567287,-0.0022155014748931013,-0.0025694701354570934,-0.0026450988532034673,-0.0023440279029366827,-0.0016885077130900877,-0.0008313994652335108,1.2882499438098818e-05,0.0006755532520049822,0.0011102007650593316,0.0013903121043396614,0.0016319130940209072,0.001895726769012956,0.0021362173316142753,0.002231676327190581,0.0020731620299093458,0.0016501170434806247,0.0010739599323467772,0.0005233144699977473,0.00014528343237741204,-2.658598137203136e-05,-8.910405094668741e-05,-0.00021211288113459148,-0.000539896795621794,-0.0011049317554164826,-0.0017989482447761027,-0.0024157600149356155,-0.0027439814643469658,-0.0026627660877095883,-0.0021924375914551706,-0.001476072340919842,-0.0007055500325461911,-3.51003669344431e-05,0.0004707908845858202,0.0008321253733678737,0.0011036091814665828,0.0013181474503812468,0.0014610948313355764,0.001489041262580358,0.001375547485760512,0.0011475195342784436,0.0008828594697300938,0.0006685089633325953,0.0005476102140070668,0.0004933374026001262,0.00042863911716962825,0.0002793073461460503,2.5225036790890894e-05,-0.00028340063795890863,-0.0005540175231562647,-0.0007043346100294063,-0.0007055634055128263,-0.0005906822684782804,-0.00042638615371837284,-0.000270618347472147,-0.00014445540622795962,-3.440062580019809e-05,8.101694564672949e-05,0.00020260923594696712,0.0003016696447816214,0.00033620492457128574,0.00027756244533607647,0.00012558997783209303,-9.770812500428596e-05,-0.0003662391529794559,-0.0006604046275033623,-0.0009601564051214456,-0.0012290216992141007,-0.0014081764137453556,-0.0014327131790619922,-0.0012636599498514454,-0.0009144356817532677,-0.00045145582309034926,3.4561844299371746e-05,0.00046950880457542434,0.0008230472058844964,0.001105809871209971,0.0013418383227642864,0.0015386392613863946,0.0016773362394990855,0.0017284674744819468,0.001678443660802918,0.0015439282754933022,0.0013622254751730414,0.0011654355034622262,0.0009581137693661732,0.0007136170826735656,0.0003891792172047619,-5.2018533379482104e-05,-0.0006232477133240028,-0.0013036999012163782,-0.0020311721393285426,-0.0026979545335341026,-0.0031601274098993536,-0.003273125060110808,-0.002951347602485563,-0.002224598188528062,-0.0012518584386355838,-0.000270160343239094,0.0005039550060914684,0.0009681824200679927,0.001168327790897345,0.001251569438226284,0.0013683822418181957,0.0015839828885008665,0.0018513103414311497,0.002055100988801608,0.0020909794323184447,0.0019259067925160955,0.0016061246921349366,0.001217589944865161,0.0008320334727259852,0.00047252073350178387,0.00011260292512675586,-0.0002981771679417774,-0.0007994025201188367,-0.001390516384861353,-0.002015971265715402,-0.002569372452966858,-0.0029186586624395583,-0.0029487668258521738,-0.0026080157764476054,-0.0019363235972504954,-0.001057367073228105,-0.00013488120603235524,0.0006855278879727721,0.0013191073305955068,0.001749966835765145,0.0020071803028781938,0.0021295634684908526,0.0021419425438118336,0.0020531355348450296,0.0018692667595901573,0.001607164712347028,0.0012955750096861102,0.0009623096822412181,0.0006158364130978348,0.00023498519214081915,-0.00022175651389121716,-0.0007856739831078588,-0.001438889145877021,-0.002091406245930398,-0.002596010257547657,-0.002802604323769535,-0.0026266042222207664,-0.0020926365911583082,-0.0013269607905001387,-0.0005022356195746161,0.0002339831523079939,0.0008078398101971256,0.0012215668244288866,0.0015150468564234867,0.0017155207521998925,0.0018089053772574987,0.0017497478835088941,0.0015005087064873927,0.0010714249303051691,0.000531733723824574,-1.81019837711112e-05,-0.0004964506641660046,-0.0008780068661074301,-0.001189156900796933,-0.001461007356947474,-0.0016743643135286304,-0.0017426713756833296,-0.0015544924939874583,-0.001052385500331442,-0.00029416855501769297,0.0005495044076066263,0.001265456796721253,0.0016951579261093631,0.0018013806434732038,0.001668773715700996,0.0014442459582593454,0.001255564142475869,0.0011528689413403401,0.0010996188214287966,0.0010103899481240372,0.0008086037638823434,0.0004693094619424688,2.4397354301929812e-05,-0.000467082868993838,-0.0009583185621396123,-0.0014339545770046323,-0.0018956684469576142,-0.0023267397533062533,-0.0026654194326023225,-0.002812265590946463,-0.0026726399810739774,-0.002209341322418595,-0.0014714733052882583,-0.0005807605894178726,0.0003159926691618949,0.0010995821090070213,0.0017073751999185697,0.002127476896654545,0.0023700383624984285,0.002441030218544013,0.002338323037683775,0.0020691567330416486,0.001668312577486688,0.0011949081725179558,0.0007054127635945963,0.00022455041676006148,-0.00025828203764276204,-0.0007588886204330553,-0.001255237201573665,-0.0016662096727865063,-0.0018741539614593734,-0.0017836048971595284,-0.001382547543343182,-0.0007670243038929711,-0.00010897306139831075,0.00041915940518361203,0.0007214666670711952,0.0008125116811809104,0.0007891755910746813,0.0007601910538134863,0.0007784010366196012,0.0008156662056990902,0.0007901797460268126,0.0006232082208145096,0.000288313680126413,-0.00017371732274884316,-0.0006774314114479387,-0.0011345936830995263,-0.0014885330302393885,-0.001720816804034618,-0.0018287992594268354,-0.0017935324959016353,-0.0015670916696831404,-0.0010972481308434562,-0.0003798845260834439,0.0004963033180940342,0.0013517594410714262,0.0019775326015419223,0.0022285116808073036,0.0020945937779530983,0.001705112368173414,0.0012613033167628586,0.0009345123914668238,0.0007867532571036609,0.000755377096499637,0.0007057342837499822,0.0005170302324238505,0.0001492897999115499,-0.0003457552304634657,-0.0008687889726610935,-0.0013349698426746424,-0.0017085337124262874,-0.0019895308270042626,-0.002171031608896643,-0.0022079877517682156,-0.002028977249448641,-0.0015872033764743956,-0.000913664136052201,-0.0001292364281815497,0.0006001933456091972,0.0011401341674577355,0.0014463692208885046,0.0015693011524351872,0.0016046461527537306,0.0016265556342209778,0.0016473862469534976,0.00162590144916447,0.0015102880390503348,0.0012796056261024234,0.0009530870464774174,0.0005656056436410305,0.0001358948796238488,-0.0003416097893870172,-0.0008728288791142141,-0.0014282549955667086,-0.001926495056046588,-0.002254438296737002,-0.002315483103349859,-0.002078046528053221,-0.0015953357092449644,-0.000983996535810518,-0.0003736956779138577,0.00014353480719649873,0.0005374431271108282,0.0008288633129768124,0.001056353986802195,0.0012419622891047162,0.0013744512275503567,0.0014174445552170524,0.001337258266541375,0.0011343479318687557,0.0008578380303554465,0.0005893959818196702,0.0004004117909871985,0.00030584464631463267,0.0002454764208033746,0.00011064256519166277,-0.00019259337199529656,-0.0006773524336440217,-0.001245955878710151,-0.00171754138875036,-0.0019043477235662657,-0.001700975991383604,-0.0011418067118018995,-0.0003954929526767275,0.00030397953458135966,0.0007578903817919386,0.0008860642809851338,0.0007514335071170561,0.0005142112704750641,0.0003411877341712398,0.0003197465110614901,0.0004222578988801798,0.0005361264583364936,0.0005367226813962323,0.00035830989457044204,2.4264867558199837e-05,-0.00037385371798593237,-0.0007278700900915805,-0.0009602427708405238,-0.0010412633676199971,-0.0009746864152170823,-0.0007718405908676152,-0.00043874309674876775,1.3368981947884696e-05,0.0005445404097698895,0.0010719809221436329,0.0014826500412724623,0.0016723507615799263,0.001593187315789789,0.0012835977060663014,0.0008613817559931037,0.00047686284394518293,0.0002436530104277711,0.0001795616580653051,0.00019056122311714337,0.00011221467475118976,-0.000206980049149046,-0.0008203197435831585,-0.0016393230027828398,-0.0024553476792060543,-0.0030172818632542998,-0.003129196273226321,-0.00272438976134107,-0.001886385080951393,-0.0008133006550575647,0.00025463180429583085,0.0011135026336156575,0.0016517727402447732,0.001867655519690674,0.0018471846738096712,0.0017160972590571327,0.0015866195420651693,0.0015201395008391783,0.0015181322932798164,0.001539288168432668,0.0015278554979235544,0.0014353187069720433,0.001226878599190441,0.0008781977601121668,0.00037528841225522636,-0.0002741732874827899,-0.0010224696506743816,-0.0017717300824008275,-0.0023876626356535073,-0.0027398205027993165,-0.002752268857011115,-0.0024371827463025944,-0.0018899415771833714,-0.0012455060670614841,-0.0006191322061308642,-6.484656398663509e-05,0.0004249015876555797,0.0008806150248002861,0.0013059652324239157,0.0016527044708376305,0.0018397183008831673,0.0018049979615258342,0.0015552473755923732,0.0011772774649808303,0.0007993027175492916,0.0005230136021017244,0.0003672622519346282,0.0002587001601616336,7.753906702041526e-05,-0.00026598587519730574,-0.0007681700484938539,-0.0013192473383290926,-0.0017502558570813695,-0.0019125708809454099,-0.0017449779613476692,-0.0012938757834710592,-0.0006828608796069467,-5.625200984678757e-05,0.0004705487937438583,0.0008338787293074321,0.0010191207950509288,0.0010474485174987592,0.0009650427709383994,0.0008352728866179589,0.0007247734425361151,0.0006783502271151767,0.0006921914770562515,0.000705003641525792,0.0006203751425409374,0.0003544156273815874,-0.00011435228321325912,-0.0007189139009274289,-0.0013162918683034782,-0.0017354406852671282,-0.0018410966718595322,-0.0015865604348724342,-0.0010326850235729192,-0.00032478670668745354,0.0003628618762695141,0.0008915929680422265,0.001204250202509717,0.0013318534350543702,0.0013582086933843643,0.0013617794969017992,0.0013680412396487856,0.0013396102311250989,0.0012066915101410587,0.0009136554814152244,0.00044931222955584796,-0.0001549602338042059,-0.000847761002239358,-0.0015743561656127298,-0.0022707495938885476,-0.00284419495906271,-0.0031678766938341898,-0.0031111839217646394,-0.0025993293139213976,-0.001669164280460802,-0.000483461744741601,0.0007125405667944566,0.001675926519796605,0.0022528872615456136,0.0024270073563709437,0.002307335281842877,0.0020629447964973287,0.001836807897764978,0.0016837069632868852,0.0015650441711242656,0.0013996899279344267,0.0011340597727606157,0.0007825452569851211,0.00041159084888648734,8.1377268615431e-05,-0.00021082621603754756,-0.0005419716957332117,-0.0010148103240780956,-0.0016745390024845072,-0.0024412910700580197,-0.0031065407468715777,-0.0034090323088847574,-0.003158963919303878,-0.002344723054780587,-0.001158504008704155,8.071093473644526e-05,0.001069172408608438,0.001648479107112902,0.0018533521553058168,0.0018555656577981393,0.0018433975330622604,0.0019108811674172302,0.00201915713226232,0.002042980558528238,0.001862622852208555,0.0014390401670702942,0.000829134364993174,0.00014116686804496433,-0.0005317477085966149,-0.0011519756068258881,-0.0017250445267877263,-0.002247058918230195,-0.0026549013465759375,-0.0028230087165355532,-0.002619078948206003,-0.0019884953707068704,-0.0010134455768413563,9.544369742028793e-05,0.001077196885376885,0.0017281894325572884,0.0019809729252018007,0.0019123563559774513,0.001680145379564455,0.0014287754167683518,0.0012195804291521796,0.0010223349932652317,0.0007639892706757978,0.00039555915390264277,-6.810463474995598e-05,-0.0005563479880963243,-0.0009837672183459474,-0.0012898202209819553,-0.0014511818066483212,-0.001467202354961066,-0.0013391819736506558,-0.001064082284331038,-0.0006473984875312172,-0.00012336416531257346,0.00043554083192300346,0.0009318596651266679,0.0012770093650555346,0.0014280531844682227,0.0014034218444525953,0.0012645949964909433,0.0010747272347252789,0.0008637626550949166,0.0006251810644687223,0.0003436190502938822,2.655619343250445e-05,-0.0002901712352525096,-0.0005700443163861482,-0.0008128334666283289,-0.0010650897888986493,-0.0013871280871595535,-0.0017946441457159493,-0.0022165135102838567,-0.0025035075996250305,-0.00249056841585087,-0.0020802597442318963,-0.0013000250703745582,-0.0002999859010278062,0.0007082455259004661,0.0015386905057026897,0.002098052912688596,0.0023994058291224147,0.002520192669638857,0.0025346550677263404,0.0024653246839976732,0.002283613628987325,0.0019537085322839567,0.0014824931898253495,0.0009354258191301811,0.00040604958999292053,-3.75382946514038e-05,-0.00038990072574799533,-0.0007035250021959678,-0.0010472011068096536,-0.001456885913267003,-0.0019101263190901018,-0.002335589410556426,-0.0026449564465151417,-0.0027636037848255495,-0.0026449104525310893,-0.002270593456376231,-0.0016500309778997174,-0.000826944896743271,0.00011184250615640543,0.001039644736483049,0.001814231376727779,0.0023174595083465255,0.002492099043104541,0.002357526545058059,0.0019972212164921987,0.0015251416631989329,0.0010466224422258914,0.0006293268115813155,0.00029302840589989597,1.801701601094172e-05,-0.00023477638769460268,-0.0005008576652269269,-0.0007934464755954967,-0.0010928746128185548,-0.0013462997190276586,-0.0014795738382386624,-0.0014212865363706195,-0.001133279444946659,-0.000635065869181868,-8.699453422624783e-06,0.0006208637970746423,0.0011225628786925186,0.001398733941532002,0.0014137245514256988,0.0012025050715044699,0.0008548507111135319,0.0004776489838513876,0.00014887227220628072,-0.00011409999291965372,-0.00035189781401047003,-0.0006242047389862186,-0.0009555302286233612,-0.0012994276633319368,-0.0015466724802175235,-0.0015771863151740968,-0.0013275070636760075,-0.0008334714061338615,-0.00022075141497422852,0.00035305555370059114,0.0007718136189974576,0.0010080874865977419,0.0011190082573111924,0.001195637310380278,0.0012967962274523428,0.0014065423935018231,0.0014403394689750104,0.001295879797840594,0.0009176477327020255,0.0003369063041996842,-0.0003346622969960982,-0.000951187994804324,-0.001391424321587521,-0.0016005636217830983,-0.0015985652985107748,-0.0014560067205658638,-0.0012519256136631076,-0.001034712265111056,-0.0008055894180868788,-0.0005331756028358415,-0.00018987372620025847,0.00021378536342598438,0.0006210237394092682,0.0009545071839912193,0.0011599504911127127,0.001237863640014444,0.00124028391053985,0.0012328350427760564,0.0012464559971069964,0.0012506368745273332,0.0011662194832801921,0.0009109071379079048,0.0004508650261774176,-0.00017145633822046678,-0.0008487191138833352,-0.001451286623529878,-0.001874916138413404,-0.0020670779275943968,-0.0020229967996601823,-0.001764428603139234,-0.0013235023753938875,-0.0007444294096126946,-9.633661683830562e-05,0.0005227046935287698,0.001005826170111074,0.0012774000162679789,0.0013293491492924086,0.0012273426029492439,0.0010778978348616373,0.0009726973219803213,0.0009412562484510008,0.0009377248314492097,0.0008674561139034243,0.0006380801022936402,0.0002095566216148487,-0.00037926174699117805,-0.0010179301568389164,-0.0015612325753064375,-0.001879115727470277,-0.0018981639743828886,-0.0016182905101367313,-0.0011029852640028505,-0.0004561074667214039,0.00019960216225465405,0.0007393170573493717,0.0010579082441110465,0.0011030848326805361,0.0009074830731787816,0.0005926926586606074,0.00032689835860466343,0.00024758805976030063,0.00038868991211434093,0.000654817932670375,0.0008608832480522079,0.0008199008878680505,0.0004369310716724723,-0.00023532377406405372,-0.0010053255205895123,-0.0016131902214082425,-0.0018334336945301241,-0.001566163694685073,-0.0008773308950001472,2.8387502488597333e-05,0.0008874295253908954,0.0014730216575124526,0.0016677658767013596,0.0014897486113432403,0.0010695808397913659,0.0005916046511223471,0.00022107873621762981,4.247867758864349e-05,3.187480335197006e-05,7.551799912537137e-05,2.7518498737868526e-05,-0.0002194291776803491,-0.0006825200911017527,-0.0012775746922800658,-0.0018487667047337813,-0.002223773707177349,-0.002272892620626971,-0.0019526733051775293,-0.0013205546415185196,-0.0005159638182111175,0.00028559989211197293,0.0009294735595519036,0.0013293122289113073,0.0014868952154456936,0.001475619931476298,0.0013952333051909054,0.001321141374762636,0.0012756796697519941,0.0012355668801277311,0.001166809631904035,0.0010604473448054185,0.0009412493882369394,0.00083915560684651,0.0007418051888077951,0.0005679791469628115,0.00019628180634846844,-0.00045355746373370383,-0.0013349321846512449,-0.0022487859430806783,-0.0029100641967800015,-0.003075991898888457,-0.002661907472132218,-0.0017786036890908212,-0.0006772237986391466,0.00035791791061407776,0.0011088518959947397,0.001476177237705789,0.0014799507165920865,0.0012287970576298807,0.0008780955476716595,0.0005863177381551336,0.0004702083252910057,0.0005633830112783054,0.0007938182186734313,0.000999825840818072,0.0009915606263766782,0.0006395846136742207,-5.006904095246193e-05,-0.0009160874569109375,-0.0016948149955869755,-0.0021262239643817433,-0.002064179167722711,-0.0015379891448027022,-0.0007357956975566713,8.049558591912082e-05,0.0006857012145229627,0.0009748701552310985,0.000985491605282149,0.0008565198823299819,0.0007499205863506389,0.0007714703306514093,0.0009228900939660402,0.0011036380314197198,0.001161896553387142,0.0009731752789270394,0.0005091521156762321,-0.00013976373603692411,-0.0008024370996443093,-0.001306109630364378,-0.0015523116883844603,-0.001546989924573299,-0.0013713811480090066,-0.0011178030072373966,-0.0008344970833840159,-0.0005127624866678787,-0.00011802189322250752,0.00036188314995720325,0.0008850483847382608,0.0013598042971973239,0.001680413475746375,0.001771458891588668,0.0016152465305167545,0.0012493316484356786,0.0007409578140579757,0.0001583105085688254,-0.0004434876735596242,-0.0010176649982575673,-0.0015129191565819485,-0.0018680306679823189,-0.002022932065917826,-0.001941601076002814,-0.0016312804591191582,-0.0011434945706370221,-0.0005554708125694703,5.523535610807862e-05,0.0006273352680388139,0.0011176432944810268,0.0014939725495182513,0.0017294768717445216,0.0018050922646087946,0.0017190014474454274,0.0014950386401412353,0.0011799821352192217,0.0008257483538294758,0.00046444583959426533,9.349007141167876e-05,-0.0003147101533509995,-0.0007797864331050668,-0.0012771814205176067,-0.0017253479728034842,-0.0020102378495476985,-0.0020360635413457025,-0.0017722241126334136,-0.001267881516975601,-0.0006276614429847915,3.2447456456643e-05,0.0006207876324632968,0.0010819485354371253,0.0013904901106318037,0.0015422036509191127,0.0015520271866003455,0.0014543542138216886,0.0012950127487614067,0.0011101575183606726,0.0009009890364008316,0.0006238074752333927,0.0002118104491133162,-0.00037420987203212763,-0.0010935270170954654,-0.0018090051492812655,-0.0023275016692292008,-0.002482110277722368,-0.002210615587096769,-0.0015837326375841496,-0.0007682547976573521,4.900480454985258e-05,0.0007304700468866547,0.0012166779273569026,0.0015124816689750542,0.0016531398108954312,0.0016754908406794188,0.0016041645664570188,0.0014472318753825518,0.0011938432686551658,0.0008166209317355634,0.000289210856933369,-0.00037839994490498273,-0.0011043706615827549,-0.0017305791012580942,-0.002069843592831337,-0.001991716609391039,-0.0015003947175900425,-0.0007525648855218886,5.844432262228907e-06,0.0005547127796708131,0.0008011165941710013,0.0008060753721340042,0.0007215555619111618,0.0006813143564153844,0.0007192907673770532,0.0007670467620377408,0.0007229575400777121,0.0005359424457599794,0.00024298760102063719,-5.952078254950217e-05,-0.0002819516311820283,-0.0003958907535461789,-0.00044320416682218426,-0.0004990241129111119,-0.0006151984563360527,-0.000779157430024571,-0.0009119665916590088,-0.0009066722244101015,-0.0006866348005871671,-0.00025390246242659427,0.0002975618883830416,0.0008136824251485995,0.0011462971284507831,0.0012227778962786073,0.001080432108731865,0.0008411584961104195,0.000636077473443715,0.0005233042686175267,0.00045015541250763286,0.00028611717007735683,-8.99155144652834e-05,-0.0006985236209572825,-0.001419409939917547,-0.0020285693011329385,-0.0022963675724435974,-0.0020959144320792746,-0.0014648690242518101,-0.0005882506439980989,0.00028794755645355336,0.0009654115366757558,0.0013670424000081119,0.0015407518255536653,0.0016004511565064863,0.0016453418638633214,0.001705104622788289,0.001735840125077051,0.0016571766162448598,0.0013990885970268723,0.0009306803684800915,0.00026459275062714455,-0.0005505989213503176,-0.0014356877129205437,-0.002281451572619231,-0.002954200391493158,-0.0033170121219815545,-0.0032672030952929474,-0.002776877051106747,-0.0019159294584769726,-0.000841419154637773,0.00024762665132549476,0.0011730866935996055,0.0018309165294546526,0.002210447722659205,0.002371979361179196,0.002396614991089553,0.0023377045356149997,0.0022019952543651114,0.001969049644666478,0.001630706278306416,0.0012173899038784195,0.0007880290763062333,0.00038955286276656635,1.808229847097406e-05,-0.00038436829895998844,-0.0008892124439014433,-0.0015216183939236799,-0.0022223985572358065,-0.0028576745663178764,-0.0032702832719190664,-0.0033418744279022222,-0.003033277919079331,-0.002389167546894766,-0.0015145506911657565,-0.0005409386051922334,0.00040311387866948464,0.0012116089902053015,0.0018122556509532631,0.002172276812712908,0.0023001554863526083,0.0022418028473978847,0.002068242307321965,0.0018543076530266947,0.0016541943929255336,0.0014852490800283706,0.0013292388214629605,0.0011493445922504224,0.0009098610583104439,0.0005853076735634566,0.00015796783061717981,-0.00038368433323816343,-0.0010326890883719997,-0.001739455052355423,-0.0023957464649883515,-0.002850250440584493,-0.002961130439156197,-0.002662677434659635,-0.0020067443009984293,-0.0011500505076789762,-0.0002901176403449486,0.0004163450053818931,0.0009089438131207984,0.0012256200611969691,0.001454670050766032,0.0016669652258154055,0.0018664883571738624,0.001983790230447342,0.0019123064079242585,0.0015668162546165435,0.0009356621930944214,0.00010297818787118442,-0.0007702613001315004,-0.0014999840440807833,-0.0019434100091905442,-0.00204252153242219,-0.0018267461306401053,-0.0013803348133032984,-0.0007999433541972032,-0.00016752428034556258,0.00045371485662436706,0.0010098463779872101,0.0014475895957905846,0.0017151004971434254,0.0017735738917072147,0.0016158426132277161,0.0012820640161888023,0.0008569793838976277,0.0004377575593617025,8.173360473000954e-05,-0.00023284670994148742,-0.0005968649503936248,-0.0011040677955655351,-0.0017648872427038602,-0.0024592367963748823,-0.0029671197940360616,-0.00306562401740548,-0.0026373148118104903,-0.0017293083174956072,-0.0005353886249096131,0.0006816628059283418,0.0016842162653126383,0.0023298901364842976,0.0025971809672054006,0.0025668230371918748,0.0023723614734896025,0.002140219814722014,0.0019412688818216948,0.0017713124670925033,0.0015664043230579222,0.00124396872298177,0.0007492506005003811,8.521535645173882e-05,-0.0006859707619475193,-0.0014662841440222017,-0.0021550069746784084,-0.002675019532611439,-0.002982196253078751,-0.003058109951410838,-0.002895695780127659,-0.002491965533807395,-0.0018572911832393292,-0.0010375964462680123,-0.00013190148926515343,0.0007156711730390913,0.0013574135101042765,0.00170179548861257,0.0017580490715265562,0.001634388391730493,0.0014840188351661313,0.0014263009296936638,0.001487884663038587,0.001597094986914216,0.0016325250360367024,0.0014958622268284234,0.0011678042587220752,0.0007178149444723803,0.00026413689755090805,-9.323108361065349e-05,-0.00032872753946907565,-0.0005030555955997838,-0.0007215193718970692,-0.0010622815714325716,-0.001517915680386963,-0.0019861082677729135,-0.0023144882293909545,-0.0023716309961042256,-0.002103501753323942,-0.0015485051997825953,-0.0008122822455733304,-2.4735079102550152e-05,0.0006961670784092185,0.0012628114315977057,0.0016227454657124064,0.0017594275875751448,0.001693432633446672,0.0014803669443441592,0.001198241770201093,0.0009215756947836085,0.0006894323653299681,0.00048342002114124433,0.00023264375103539643,-0.00014765817600241108,-0.0006960744392723361,-0.0013542235817150276,-0.001960011789627309,-0.0023011730686613163,-0.0022105575473294233,-0.0016548637258798015,-0.0007652908357445716,0.00021249650212808906,0.001026169893540551,0.0015248248437080547,0.001708814945340358,0.0016973740966488647,0.0016389460948592438,0.0016209881391687306,0.0016311317117980902,0.001585238213962244,0.0013955152339585222,0.0010308249484915408,0.0005328115625075065,-1.5489659194017663e-05,-0.0005411089601238715,-0.001016027003713661,-0.0014542881085246458,-0.0018775036496962005,-0.0022756745159725976,-0.002591703091187061,-0.002740497504352758,-0.0026500779351281054,-0.002298881901092048,-0.0017284556779072772,-0.0010280447823221512,-0.00030327287766562805,0.00035504754558496755,0.0008924517285271537,0.0013003285335532137,0.0016120124936009885,0.001882628071941522,0.0021548092990498614,0.0024248228256738454,0.002631782159780009,0.0026835437455324886,0.0025086190697178124,0.0021027918621611278,0.0015401547956466364,0.000940591088719546,0.00041189832627015256,-2.3149925811837002e-06,-0.000342183748872587,-0.0007075362563170842,-0.0011992242196070667,-0.001852703092316116,-0.0025980659938684906,-0.0032705244729556763,-0.0036701588458309736,-0.0036436753939833727,-0.0031498860476516033,-0.002280073643980286,-0.0012262459062470084,-0.0002116994265947774,0.0005883617695267209,0.0011047099173600197,0.0013858063610096129,0.0015571552719226215,0.0017473778395052952,0.002018020653824953,0.002331694077979636,0.002571832625155924,0.0026016896197049322,0.002333470172439652,0.001774943724601505,0.0010299705423692743,0.00025021481566722204,-0.0004377119757944608,-0.0009868349526153165,-0.00142948030039514,-0.0018192078251859083,-0.0021541742312808343,-0.0023399585461088275,-0.0022274306583953164,-0.0017097852460183762,-0.000818068798303631,0.0002511958652302854,0.0012037811758442464,0.001779237611775373,0.0018725251777953558,0.0015749234009157739,0.0011104356054919577,0.0007063572319661839,0.0004742608818815372,0.00036675717493472713,0.00022627112754444907,-0.0001103739205248074,-0.0007118329012584201,-0.0015051461063699226,-0.00229801121893793,-0.002854564516424932,-0.0029889392603528625,-0.002636553865664921,-0.0018739577942311848,-0.0008811516117052018,0.0001330884018610645,0.0010055269746405175,0.001658196193909815,0.0020913764504709815,0.002345332767222632,0.0024614080445688525,0.002465742758347666,0.0023762314396294833,0.0022144996337398627,0.00200489400293089,0.0017598805222775644,0.001468488470721071,0.0011041430898143453,0.0006497004862720064,0.00011855274821066146,-0.0004491591325530588,-0.0010150039693932358,-0.0015710451974046062,-0.002139553689188325,-0.002735276140617752,-0.0033143464832657617,-0.0037518966452556764,-0.0038769275018712282,-0.0035547461664213876,-0.002770988689729812,-0.0016636466867149978,-0.0004774103050935733,0.000539334817140256,0.0012393419521383872,0.0016253510943165927,0.0018177311748345034,0.001963758248895233,0.002145101917123155,0.002338220552853214,0.0024466891779255967,0.0023786907189710304,0.0021164502605656274,0.0017332424172962558,0.0013502465208472911,0.0010646356885543108,0.0008963025826873644,0.0007846706684168454,0.0006319238271920819,0.00035995521394856494,-5.4994464740245035e-05,-0.0005843770111750024,-0.0011730863854609473,-0.0017636018207623921,-0.0023017710819168867,-0.0027268773973494038,-0.002963412423539675,-0.002932197875080124,-0.002584251088881181,-0.00194099838512032,-0.001112371831677024,-0.000270770703171394,0.0004158670030941354,0.0008588465739654592,0.0010859629900333875,0.001213938978130551,0.0013687936856111125,0.0016023516334002243,0.001857993842778861,0.00200709749737181,0.0019303074957651124,0.001589000258469048,0.0010429626576222298,0.00041065002359734785,-0.0001935986734432388,-0.0007024971253588562,-0.0010983393470301733,-0.0013859055463713965,-0.0015629623497870082,-0.0016095664462851631,-0.0014990100647727493,-0.0012180483292463145,-0.0007811508350069078,-0.00023172390361000564,0.0003659361956258988,0.0009359840741449018,0.001398853074060711,0.0016826520422342864,0.0017434234388829161,0.0015890817189716676,0.0012899784189204714,0.0009592947488730661,0.0007032476123769953,0.0005641947055753816,0.0004913778690785,0.00036255739010610465,4.966519258564617e-05,-0.0005075346450156368,-0.001262507093974034,-0.00207851869453411,-0.0027862978206645594,-0.00324537666412299,-0.003376341526068723,-0.0031573526094285037,-0.002604462806984921,-0.0017617635043057581,-0.0007107674700554234,0.00041652530041249376,0.0014479864102488378,0.0022183550988059096,0.002635191681371828,0.0027227515424843,0.0026086217123598575,0.002452931751864188,0.0023600560274620944,0.0023278102517975,0.002265956298866183,0.002069154778276582,0.0016925706523478997,0.0011782297879251167,0.000616991824460902,7.759393843938755e-05,-0.0004430083807058609,-0.001010467702691982,-0.0016905235076390749,-0.002476383738629303,-0.0032557147520155053,-0.003840411614070655,-0.0040436903391342875,-0.003763259561704974,-0.003028665364779232,-0.0019916390470572517,-0.0008671073251352243,0.00014522048153635495,0.0009227983281139087,0.0014414330564248724,0.0017533928540267398,0.0019403627546235422,0.002067607283520927,0.002160056575857384,0.0022066231349585005,0.002183642498318763,0.0020787347627621655,0.0018977615051707438,0.00165057842428442,0.0013284027510940826,0.0008940988165605375,0.0002992557715854467,-0.00047618721330125913,-0.0013822356460370898,-0.002280525661329832,-0.002966761050816909,-0.003233261560343926,-0.0029500738249519957,-0.0021294592078560477,-0.0009411235930302875,0.00033444716678052394,0.0013983493205721087,0.0020322752590593894,0.002161687333265181,0.0018598090097770314,0.0012994836944434092,0.0006822262712109747,0.00017532755463955984,-0.00012721830559350765,-0.00021985945190306183,-0.00018037894625767413,-0.00014283394260957815,-0.0002461817648960043,-0.0005688440071848165,-0.0010771551624686043,-0.0016202528370550797,-0.001985272332892099,-0.00199305482528684,-0.0015872593857517688,-0.0008678166252208443,-4.706680000081279e-05,0.0006503224797670604,0.0010893078197269414,0.0012720216596156255,0.0013078156465197682,0.0013303305174762817,0.001415813974547293,0.0015494126460820045,0.0016503758962159668,0.0016306140387507323,0.0014471660468377153,0.001121487097090039,0.0007230032907780517,0.00033302537831517295,8.925711397641601e-06,-0.00023863640476991658,-0.00045062749511238446,-0.0007049677292514492,-0.001082122634436959,-0.0016176584390799453,-0.0022607188961532203,-0.0028649833704959015,-0.0032293268929137462,-0.003178169648636285,-0.002642917900427891,-0.0016992956828790068,-0.0005396768190594947,0.0006016934052205654,0.0015282802696599987,0.0021290563284627386,0.0023843828106684135,0.0023442860061687987,0.0021002832785785553,0.0017622517313104944,0.0014383488190711845,0.0012116964490877767,0.0011157956939651138,0.0011221500725503966,0.001154135047396534,0.0011255779918703302,0.0009820058439665978,0.0007164983014102868,0.00034986331492048396,-0.00010572912470982313,-0.0006645145266192625,-0.0013443771099980783,-0.0021156136817077616,-0.0028613540048915095,-0.0033887388939498895,-0.0034985134656008968,-0.0030804281013866643,-0.002180882400266085,-0.001002004420451895,0.00017090315601150577,0.001078266212248476,0.0015793955479659284,0.0016888610029018288,0.0015446090647805494,0.0013285806915127674,0.0011811356990842116,0.0011503482014762042,0.0011957914731722701,0.0012349692393801648,0.0011979936770827205,0.0010568380150789514,0.0008180777794450612,0.0004958336874661643,9.473426945630435e-05,-0.00037837204250944006,-0.0008826766600876453,-0.001322919097754626,-0.0015690132608106792,-0.0015155864655890066,-0.0011468750794520763,-0.0005614653621246991,6.508068803087416e-05,0.0005605387205331908,0.0008318916519108154,0.0008933277460884747,0.0008343467147818955,0.0007528185208741491,0.0006968283109576538,0.0006491814296202716,0.0005569455637697003,0.0003775592435077507,0.00010539250508146122,-0.00023650042484539953,-0.0006232827927157097,-0.0010429719322343038,-0.0014825181902040894,-0.0018993219901858632,-0.002209744544534328,-0.002313823940266883,-0.002143615630836455,-0.001700299080526588,-0.0010529200411896012,-0.00030231315853770447,0.00046010373465489064,0.0011696298858308212,0.0017776849703448655,0.0022351870158011035,0.0024953561916256735,0.0025399614546691715,0.002406185760380614,0.0021840383067340484,0.0019749559006600995,0.0018344395950139949,0.0017378610857216176,0.0015945838397025715,0.0013020663003897896,0.0008046144381273425,0.00012044067792548992,-0.000675411534213642,-0.001494420358559041,-0.002270832276803716,-0.002966315712395526,-0.0035446149923907297,-0.003942150610111092,-0.0040652149296995675,-0.0038252127448070413,-0.003193679014281037,-0.002240656301092657,-0.001127463928806749,-5.2741187383372086e-05,0.0008208599156555453,0.001421295991235124,0.0017770396895804336,0.0019816932769178143,0.002136163611806028,0.0022999041286807806,0.0024730930378642256,0.002611531584292833,0.0026591554850835925,0.00257835591475419,0.0023646372789636735,0.0020424141090728777,0.001647252326349407,0.0012046022291310283,0.0007157667387167736,0.00015855749271625683,-0.0004960314317146561,-0.0012563853232927724,-0.002082495336947752,-0.0028713950479381974,-0.003468917704260175,-0.0037134480954588525,-0.0035013175207536822,-0.0028449742241109244,-0.00188793913769326,-0.0008569479447954804,3.178246727687144e-05,0.0006616682935948605,0.001047052385079469,0.0012891525417587214,0.0014894354537819282,0.0016801675898172738,0.0018153617333549047,0.0018198838791713572,0.0016552707749497957,0.001353606465118552,0.0009960291666225253,0.0006516201429863578,0.0003216359703069187,-6.579163285888806e-05,-0.0005977962266045412,-0.0012890290632336658,-0.0020245219164180244,-0.0025803820146912443,-0.002721887614711079,-0.0023269688361211797,-0.0014620037672595594,-0.0003618926852598821,0.0006770648192997095,0.001430803659425484,0.0018326478701269735,0.0019670731305725816,0.0019857498760548443,0.0020036526218403334,0.002038083714053746,0.0020202467322052615,0.001861776982948754,0.0015266653531050953,0.001059657409052396,0.0005536200461900426,8.081672215688783e-05,-0.00036118663691595476,-0.000847547976349924,-0.0014655194544389563,-0.002233611280819528,-0.003053505816134075,-0.003727516373952735,-0.004035430127115679,-0.0038316366842581604,-0.003113608997478017,-0.002028654810616322,-0.0008171659774315795,0.00027945578521851376,0.0011039729583571761,0.0016259056191096268,0.0019269214725167777,0.002139355358486661,0.0023680101825407176,0.002633103897372742,0.002862666661925632,0.002937464984451482,0.0027630281095215627,0.0023285166536165867,0.0017201661868038896,0.0010829150161042948,0.00055228599793748,0.00019333923156598947,-2.3106002364580705e-05,-0.0001990408984894926,-0.0004577603656143127,-0.0008881727226448942,-0.0015064952847638653,-0.002244882325628223,-0.0029665292272413285,-0.0035025203423965767,-0.0037031388491317544,-0.0034904432458039676,-0.0028918154335798077,-0.0020353042680437074,-0.0011029886474578836,-0.0002613369391454095,0.0003983290354197125,0.0008811934547946745,0.00126429981035722,0.0016402349637501265,0.002056693474347751,0.0024806226215595634,0.0028058238363531597,0.0029037681509352957,0.0026943168496039093,0.0021983422578856025,0.0015405140878268885,0.0008976621526526677,0.00041970632319425857,0.00016538124215762813,8.479126380512856e-05,5.332087898008179e-05,-6.533654803629081e-05,-0.0003598458012128788,-0.0008396128476301798,-0.0014363486241179752,-0.002029412109687837,-0.0024812494769623126,-0.00267302152362569,-0.0025353617422784183,-0.002070323085544842,-0.0013585972589286095,-0.0005455223242507718,0.0001960584325929812,0.0007187222120266593,0.0009518455068906616,0.0009292956987100897,0.0007768610085941716,0.0006594927776960499,0.0007088158369599903,0.0009628231114636892,0.0013442776668693523,0.0016864110441263895,0.0017956853612541585,0.0015291361103751608,0.0008584825969676106,-0.00010498441250920824,-0.001138798911162363,-0.0019838101537124554,-0.0024360879205717395,-0.0024178204671310662,-0.0019967329723215486,-0.0013458766303601568,-0.0006625687979879523,-8.47516434510085e-05,0.00035503046491961344,0.0007164483524995583,0.0010887347640398525,0.0015157348356281,0.0019529330185660788,0.0022821182777312678,0.002375485039426514,0.00217185478678475,0.0017201877762924932,0.0011635062056411522,0.0006692198505725072,0.00034131957204357557,0.0001605318639198586,-1.4140696438103744e-05,-0.0003777846965324919,-0.001072763696792838,-0.0020914339656512913,-0.003239278421301759,-0.004186925305496623,-0.004597511222628182,-0.004273498501644117,-0.0032505177203876745,-0.0017893145537072738,-0.0002688810474251468,0.000966275634170949,0.0017318157766106198,0.0020473249872971617,0.0020867037507994444,0.0020689385249105193,0.0021474827068788194,0.0023498005621102763,0.0025875283258846725,0.0027211189265280693,0.002639570078317503,0.0023144436666362005,0.0018048279493688975,0.0012162547545660812,0.0006396851052925219,0.00010567815624660859,-0.00042098728304873473,-0.0010043917341648872,-0.0016800847998480644,-0.002409874169637463,-0.0030745758496637694,-0.0035108848620831893,-0.003576392296049925,-0.0032125277716209127,-0.0024755612211335583,-0.0015206463110204094,-0.0005457390533080564,0.00027967085843682215,0.0008697441432874841,0.0012376537368586488,0.0014654487148138518,0.0016444298981116991,0.001818177302371633,0.0019611810820324184,0.002006594323075069,0.0019047128777526837,0.0016702309620561793,0.0013810605831811292,0.0011250619232901393,0.0009304987552137306,0.0007319187694479758,0.0004025981155939257,-0.00015919734894438942,-0.0009413374056087029,-0.0017853525869522013,-0.002439521898463519,-0.002675019160247635,-0.002401049786974487,-0.001712468139379799,-0.0008436174255396448,-5.748648799738858e-05,0.0004675251165863831,0.0006972233682043933,0.0007261958930456254,0.0007048930753054389,0.0007513572333359992,0.0008917737317088296,0.0010546773926737062,0.0011138048526809813,0.0009517578644550359,0.0005134833958169861,-0.00016775250629727002,-0.0009732057155179718,-0.0017244461679008895,-0.0022267806027746664,-0.0023247170263690055,-0.0019574408548957045,-0.0011932207959264429,-0.0002202654772820306,0.0007138491359385533,0.0013948105799976632,0.0017236715750673912,0.0017453653228069487,0.001607568562287335,0.00147310300582027,0.0014354451601989874,0.001483080721538154,0.0015270836932408717,0.0014681822815353633,0.0012588712485426888,0.0009241681523855718,0.0005337475937408089,0.0001486908997815233,-0.00022035093020299332,-0.0006163235872239095,-0.0010980797811115954,-0.0016853491712518528,-0.0023218348105525587,-0.002882260901073631,-0.0032219602230658655,-0.0032399492636643614,-0.0029187071962105014,-0.002321829719747216,-0.0015589570647053185,-0.0007436938105483059,3.4019335009868954e-05,0.0007153405827046962,0.0012670736935590805,0.001674261649214999,0.0019375577591795225,0.002074754192453637,0.002120213457139504,0.002115990441176099,0.0020947461837498966,0.0020627585252590225,0.0019947122579763964,0.0018466568206581262,0.0015821711117939509,0.0011974222007102738,0.0007307203487677909,0.0002511206399050329,-0.0001687829715002835,-0.00048497299593574486,-0.0007067364758504867,-0.000901191225031038,-0.001167193492705011,-0.001580351264457849,-0.0021322188562430656,-0.0027020349670308255,-0.003090097583456746,-0.0031068476898176026,-0.002672830248680224,-0.001870469598894234,-0.0009120634008057164,-3.744657039446637e-05,0.000600724767668051,0.0009960538552095818,0.0012576673130200726,0.0015130433489277905,0.0018106636215889376,0.002086913632977206,0.0022158908063942854,0.002103245160382694,0.0017565957689389098,0.0012847938513160962,0.0008301137144747261,0.0004827524864940735,0.00023493015154780195,1.0717299484071154e-06,-0.0003138719594206035,-0.0007439874045283894,-0.0012327960244214737,-0.0016591385666832263,-0.0018990910558953143,-0.001885074525391711,-0.001628995493126098,-0.001201680807638091,-0.0006886581523875915,-0.00015413181173813445,0.00036617675556523707,0.0008472679388412023,0.0012548456178240043,0.0015441846436287491,0.0016795209170469315,0.001655458337031544,0.001499039638599435,0.0012482095491922697,0.0009239005203315067,0.0005192384590448269,1.5186553143572762e-05,-0.0005888890026009106,-0.001250834108723825,-0.0018824745392369629,-0.002369841866961393,-0.002608959978761651,-0.002543015944317757,-0.0021842461981658188,-0.001608500241556188,-0.0009236773811597341,-0.00022832049528724932,0.00041747402908107125,0.0009950058227236498,0.0015066022807737529,0.0019482828616845705,0.0022942417985220643,0.002503016657857582,0.002540702105915775,0.0024048629617489316,0.0021315728738884863,0.0017793132317159264,0.0013997539022022186,0.0010137064669408385,0.000604567202837354,0.0001289238185026788,-0.00046252912790801506,-0.00119819278546824,-0.0020556021820740873,-0.002938145913508688,-0.0036777608842029825,-0.00407888961702876,-0.0039954253756625925,-0.0034038289255483526,-0.0024271045507296227,-0.0012885296115299797,-0.00021727553463509188,0.0006407879132251523,0.0012581617601878801,0.0016939006287732656,0.0020234434366683553,0.0022777959708400633,0.0024280878518538967,0.0024198981776251535,0.00222995131716409,0.0019038243816477413,0.001545668275695043,0.0012631263368516623,0.0011024146352673185,0.0010176593520186024,0.0008969692116113341,0.0006293761293392877,0.00016936003128292863,-0.0004402843727193946,-0.0010948896162691342,-0.0016781813361504928,-0.0021017392974079624,-0.0023166379712459433,-0.0023050187185404336,-0.0020704208173644495,-0.0016386372895856205,-0.0010659914191713349,-0.0004419021466877297,0.00012598971195407842,0.0005441656065784788,0.0007688447419202531,0.0008242694870577499,0.0007901431392183171,0.0007613046163216432,0.0007982770414432868,0.0008926991369241129,0.0009647006294469928,0.0008947941864517124,0.0005785247508978602,-1.6483415696298426e-05,-0.0008133678964917014,-0.001627460406731516,-0.00221494782410847,-0.0023590353400093564,-0.001961777550632145,-0.0010975715556726805,4.511440375339938e-06,0.0010484692448228883,0.0017894923691879798,0.002123666365697463,0.002104754447125865,0.0018847355465805473,0.0016181321162815074,0.001387947766283066,0.0011918377479288352,0.0009847600213987765,0.0007382475198528266,0.00047079780347721555,0.00023038862956748472,4.7174807055814626e-05,-0.00010533709936965925,-0.0003104351651555793,-0.0006658140747102237,-0.0012203872252843555,-0.001924066228908514,-0.002620062366055747,-0.0030915755505329656,-0.003148840327579067,-0.002718129903360361,-0.0018858541120093462,-0.0008689822832239497,7.762923621635449e-05,0.0007690217127762741,0.001155448815239742,0.0013136909165503978,0.0013772727342756183,0.0014518152672749135,0.0015639231036789344,0.0016655202336757421,0.001680890029558894,0.0015626347950171105,0.0013240616186115974,0.0010329759941848332,0.0007731754014365191,0.0005953867591566235,0.00048426350188519537,0.00036105096828653095,0.000124608996524772,-0.0002870878389491882,-0.0008473594171286066,-0.0014342694126318037,-0.00187740251937919,-0.0020363812698589723,-0.0018669378374278796,-0.0014355183980025706,-0.0008758570282038076,-0.00031846399281320627,0.0001610537036864604,0.0005470762125780271,0.0008505708855224142,0.0010705433992521812,0.001180894080690525,0.0011487567026421616,0.0009654286826552996,0.0006632739909645243,0.0003045261240978008,-5.020211322471623e-05,-0.0003709472546025492,-0.000664471231739278,-0.0009535376371986596,-0.0012436513116491639,-0.0014989714386482338,-0.0016431793439128164,-0.001587560411313755,-0.001274670822057022,-0.000716482969281761,-4.880403723538291e-06,0.0007166223643608558,0.001310143455934452,0.0017004572628567642,0.001898991605161057,0.0019795375057437645,0.002019461916048167,0.002042607952757886,0.002000777870058369,0.0018073294574091777,0.0014022555640320748,0.0008056634111953551,0.00012241895033767163,-0.0005078774564086917,-0.0009855720837601452,-0.0013039056989806192,-0.0015468654329042547,-0.0018317759205040912,-0.0022292563408735787,-0.002706647019162574,-0.0031279231431710027,-0.0033111922284812375,-0.0031127210087546118,-0.002492969624231184,-0.0015326059273345848,-0.00039585397485593116,0.0007338297647917519,0.0017105089462452038,0.0024507920083641234,0.0029263523387500563,0.0031422536956573722,0.0031213779917996613,0.00290176515582841,0.002539059940875072,0.0021030279058501726,0.0016645089070744484,0.0012773031732256058,0.0009616695463976489,0.0006943886356447423,0.0004097526628267107,1.6720226259850932e-05,-0.0005652057986091732,-0.0013588975241872045,-0.0022921614050533177,-0.003195738195708495,-0.003849853778010696,-0.004065921017737351,-0.003766297991805452,-0.0030208797029049614,-0.002018926660825491,-0.0009875945433484533,-9.730426033358465e-05,0.0005976635744554261,0.00115318109281663,0.0016699018656980706,0.002208528939322884,0.002736666501055547,0.0031380343378567795,0.003275754938469178,0.0030689029222032687,0.002536442818848186,0.0017864952695469784,0.0009634236930614408,0.00018723201063262332,-0.00048231040860405154,-0.0010442329101197447,-0.0015266464256310432,-0.0019488646589070303,-0.002294109886941857,-0.002503244833756265,-0.0024912244646486635,-0.0021817427116417034,-0.0015504792028804603,-0.0006610932817984725,0.0003268359052027287,0.0011940704358608335,0.00173860354837747,0.001862437591808748,0.0016219387507127193,0.0012071218819342143,0.0008517739165732717,0.0007165501439032429,0.0008052391707238501,0.0009585241152354996,0.0009299783724693127,0.0005088068721986856,-0.0003672694076111006,-0.0015603634383632077,-0.0027665004429534568,-0.0036234120873302692,-0.0038485637545543367,-0.0033500428316002636,-0.0022628899271634226,-0.0008945114004061513,0.00039734433765837337,0.001340213470270686,0.0018368355898983584,0.0019726491841191504,0.0019437283658186092,