-0.004624464465556097,-0.00479867056770561,-0.004148764653417615,-0.002844037339676104,-0.001223152690138546,0.00033728338807573785,0.001551379645274647,0.002296465678682573,0.002609012844557905,0.002620865515638066,0.0024762124049156815,0.002270261748253711,0.002031509626371563,0.0017434407684586734,0.0013827739409286916,0.0009484277349439455,0.0004669181521238494,-2.326127991014661e-05,-0.0004939919966348884,-0.0009410506550537677,-0.0013807537986257883,-0.0018318874270760604,-0.002292073590740833,-0.0027195355569605206,-0.0030295683082685564,-0.0031115092138473046,-0.0028656591809452714,-0.0022494728016534188,-0.0013121013881041584,-0.0001944669792656716,0.0009148727019810845,0.0018529750218745865,0.0025478445663552653,0.0030367664133289355,0.0034220484696736624,0.0037854785338599438,0.004110544617717326,0.00426213136433778,0.0040446281080028295,0.00331504439162444,0.0020911887994371128,0.000588803991286953,-0.0008453793212194882,-0.0018804621886481638,-0.0023562473868755244,-0.0023658087948693713,-0.0022198085361366826,-0.002303201736400713,-0.002886174270459161,-0.003975975384108337,-0.005283181440382042,-0.006325758534048742,-0.006627148891351944,-0.005916516699019769,-0.00423975972244162,-0.0019376269669841427,0.0004886645312359432,0.002558556091401081,0.003964667308193871,0.004644252642820407,0.004756697722203847,0.004590408566066837,0.004440789512942278,0.004500023569292806,0.004788683437566782,0.0051480742904325225,0.005300519707253008,0.004965901967587111,0.003995711380440286,0.002464217047973083,0.0006617630516232699,-0.0010224573015602994,-0.0022787918164218594,-0.003023885923248542,-0.00343058443175993,-0.0038157897448042764,-0.0044412386032876006,-0.005336376588997288,-0.00624758944578045,-0.006752002284432677,-0.006479925601627268,-0.005322127073870883,-0.0035018515062881224,-0.0014705073565007547,0.0003080925837900948,0.0015575549769373492,0.002266459557096734,0.002621250738476911,0.0028573971717908058,0.0031252782861632563,0.0034384530373263718,0.0037105967709107762,0.003836403564300161,0.003758816331451014,0.0034890482914573116,0.003083470797134358,0.0026056692179713455,0.002100803980145977,0.0015908856716540607,0.0010817662153314311,0.0005682969708488424,3.2751483289002336e-05,-0.0005564547064150379,-0.00123368833059285,-0.002007391109865639,-0.002824485025472735,-0.0035535047174655443,-0.00401165433191901,-0.004038115079313818,-0.003581117011667358,-0.0027454853095251514,-0.0017623958639443374,-0.0008895200957486151,-0.000295696832925677,4.617568897803947e-06,0.00013353337391351465,0.0002655255981682353,0.0005287330175665051,0.0009439041883434367,0.0014251646792469007,0.001832231679025968,0.002041886412636032,0.0020040303691856607,0.0017598731531111307,0.00141811011959614,0.0011019231184237028,0.0008903404662261213,0.0007794422458880169,0.000681991308154015,0.0004698981716768039,4.551705514439677e-05,-0.0005890131464621423,-0.0013013888087201535,-0.001862938930218902,-0.0020428567348387537,-0.0017246874050539387,-0.0009854800867355718,-8.619663339894237e-05,0.0006365935250674774,0.0009304918092076601,0.0007528144145511023,0.00028718826071719904,-0.00016203282308276798,-0.0003356081856716907,-0.00014666501107458762,0.0003009518727770589,0.0008002452397153077,0.0011664099002489329,0.0013188946432189372,0.0012816217155893796,0.0011241456693819817,0.0009005626457049855,0.000629051172555867,0.0003112818711418485,-4.3052036222058685e-05,-0.0004184176477295782,-0.0008202938319158646,-0.0012920240583188178,-0.0018869218440161273,-0.0025977582864844103,-0.0032917225237285757,-0.0037138936920826145,-0.003586090414894004,-0.0027602049242948963,-0.0013343900083696652,0.0003510372536268024,0.0018517230274987585,0.0028192133134914785,0.003147975569004063,0.002986989925367298,0.0026186838218162437,0.002287865126490465,0.0020854226493057706,0.0019458250110986793,0.001739671661294484,0.0013861445186755775,0.000908791676200036,0.00040565683811141524,-3.505100333060134e-05,-0.0004090021791740596,-0.0008054712521559166,-0.001342912979648006,-0.002069477853745923,-0.0028922127693934425,-0.003584956883327257,-0.0038799459664018723,-0.0035968330408971735,-0.0027360224564008705,-0.0014803640182566849,-0.00010372197951465708,0.0011566472228809021,0.0021848438935280325,0.002980678443507279,0.0035800832944496786,0.003968613897222467,0.004056172565249103,0.0037333043855871935,0.0029684075039214664,0.0018745064084589882,0.0006938905429082909,-0.0002973941307495725,-0.0009136735503695469,-0.0011459238251825344,-0.0011665005499081251,-0.0012497453847603892,-0.001642752458278354,-0.002440462105391401,-0.003518877128383465,-0.004560167222236477,-0.0051676542301562715,-0.005028059354896483,-0.004050957489249499,-0.0024186597728230565,-0.0005187251885778735,0.0012103066717394344,0.002444809856142428,0.003076628405738503,0.0032126572863812267,0.003091902616839116,0.002969879107470454,0.0030172749200150636,0.0032588736523420435,0.003562758356772484,0.0036852706907473222,0.0033707834521802893,0.0024825597952544782,0.0011079682387392358,-0.0004323218751480385,-0.0017067170673269367,-0.002383603736841854,-0.0024144488432596566,-0.002066950358293727,-0.0017688166940063319,-0.00184607370767039,-0.002317278650246482,-0.0028779993459119766,-0.00309230705032633,-0.002675572042212909,-0.001691157141692743,-0.0005335451288969806,0.00029732742731167477,0.000493641805687804,0.00012495937260507522,-0.0004032622243093394,-0.0005889536805759534,-0.00011860332018152268,0.000973894056510379,0.0023537738741120097,0.003580800377135594,0.004316849121057082,0.004431482478792124,0.003981316620918865,0.0031189825119506305,0.002005859270315326,0.0007673242411033933,-0.0005140677039970897,-0.0017866297362183542,-0.0030061270303983144,-0.0041000105805806515,-0.004933053553528162,-0.005309379383753296,-0.005039201040801482,-0.004052732465206532,-0.0024911238968789457,-0.0006961671586457999,0.0009219576762259025,0.00207181653041705,0.0027053707544405733,0.002994724305513277,0.0031729910714491565,0.003346783456902118,0.0034121653712025743,0.003137817633825193,0.0023619824992496007,0.0011643242733430413,-0.00011665126938067137,-0.0010470992759195206,-0.001342612526099467,-0.001035802416553156,-0.0004592411116225387,-5.808116144257803e-05,-0.00015077752536386303,-0.0007755405348382022,-0.0016943459876659374,-0.002530351196264522,-0.002949736205567999,-0.0027937853643237717,-0.0021104098264665997,-0.0010933400760371453,2.075198955371247e-05,0.001039245626964816,0.0018502951797292764,0.002410851057402936,0.002713277368415314,0.0027605721994913577,0.002563340259291777,0.002150382526256277,0.0015743754423584856,0.000900484476933818,0.00018275365840000231,-0.0005529547251231137,-0.0013017942677592122,-0.0020480176032473202,-0.002729120189652343,-0.0032257159326616455,-0.0033942096787552833,-0.0031316313138816786,-0.002437724871038127,-0.0014362054239478476,-0.0003384808291174743,0.00063425161939222,0.0013312147212549612,0.0017150350866897506,0.0018502739024797872,0.001850704393645794,0.001818262132507343,0.0018047233623159286,0.001807803930805374,0.0017918512423070096,0.0017140374618241534,0.001542607750714862,0.0012649806453212458,0.0008893632414545027,0.00044174523237084496,-4.273498417858021e-05,-0.0005325760750662994,-0.0010091384013114185,-0.0014627713060980296,-0.0018746848564905963,-0.0021976761398017266,-0.002356033539735997,-0.0022748148164689406,-0.0019254544436061547,-0.0013567152075665972,-0.0006847888006610134,-4.342859350220255e-05,0.00047568798968782185,0.0008540252586217047,0.0011303636674017215,0.0013527650084245537,0.0015341675818950676,0.0016418479084378624,0.001624289862427692,0.0014518700577483645,0.0011395383502583651,0.000734690262590576,0.0002800631665765529,-0.00021827343574637158,-0.0007878278029253844,-0.0014448004531673222,-0.002135089632958949,-0.002709648611451009,-0.002968249807080593,-0.0027589199098898252,-0.002073621796332396,-0.0010732271724817138,-1.7344553587889046e-05,0.0008624001178206841,0.0014692354715040365,0.0018643576631473832,0.0021942481940830506,0.002568146569038959,0.002962593505408842,0.003216009986211424,0.0031223760712070186,0.0025684961586885276,0.001625795988633159,0.0005323667458602845,-0.0004277751878433336,-0.0010720096426392958,-0.0013998312513870599,-0.0015607033800096905,-0.0017378652743320695,-0.002027134192999403,-0.0023846193968979097,-0.0026661040214071,-0.002721110081675352,-0.0024753848755022416,-0.0019530896650187895,-0.001238673786644363,-0.00042166244386192064,0.00042652807344257886,0.0012296506654481767,0.0018706924594475908,0.0021953894837322845,0.002079155019802453,0.0015239416038789562,0.0007114279368953095,-4.570351029369924e-05,-0.00044513496909682473,-0.00034815148606352937,0.00015349439902740335,0.0007997449998843922,0.0013081094942830628,0.0015059750183711658,0.0013735142328619608,0.000992747520239745,0.0004609808079936487,-0.00016236098691309634,-0.0008460937127976881,-0.0015390854818114802,-0.0021354307564252417,-0.002490157079789104,-0.002480861148262043,-0.0020748550529961027,-0.0013567313556082233,-0.0004978177385585932,0.0003146287205977223,0.0009488254587006541,0.0013645294893930482,0.0016010888256800066,0.0017317639974342607,0.0018138897352465973,0.001861182553192847,0.0018471877415024934,0.001729861328498622,0.001478457439081522,0.0010887055290876304,0.0005842185534423195,1.072206114150068e-05,-0.0005706710499297822,-0.0010911447479387808,-0.0014868345613922684,-0.0017172807138314686,-0.0017827032684188545,-0.001728014138874042,-0.0016249309734642798,-0.0015357950427678593,-0.0014773650110345093,-0.001408966496991476,-0.001258165585446959,-0.0009721253291081447,-0.0005617967632462433,-0.00010749706343933624,0.00028049537611518117,0.0005221892081655608,0.0006110872982192732,0.0006142621574685941,0.0006311309943972454,0.0007376160545712147,0.0009486505534276597,0.0012176207862530219,0.001467754473123827,0.0016333785096538862,0.0016875515994445316,0.0016449216595658767,0.0015447248758159505,0.0014276552638493164,0.0013176093975781717,0.0012107563703342295,0.0010703340555815273,0.0008300230692115745,0.000414149382593697,-0.00022192791205557854,-0.0010447348309182713,-0.0019188587127919052,-0.0026351355796949485,-0.0029934752074089912,-0.002904206183799502,-0.0024478104017961145,-0.0018468018601919653,-0.0013534302991344872,-0.0011124413819040347,-0.0010803605870174323,-0.0010532462627061692,-0.0007902954069199601,-0.000161809961107696,0.0007657129016331569,0.0017567795665919068,0.002527537577585662,0.0028854185863581234,0.002806104725900705,0.0024104391334704048,0.0018679336109330004,0.001294487008552881,0.0007068008644507525,5.399569953895957e-05,-0.0007020688001746608,-0.001513541802356076,-0.0022293575624329595,-0.002648914164321325,-0.0026198530854060595,-0.0021261860724299283,-0.0013152182988383958,-0.0004426302676080532,0.0002407322660189469,0.000602842569196324,0.0006840263269257445,0.0006600545076281405,0.0007349476456443972,0.0010235996566389167,0.0014899863045048805,0.0019745361833644302,0.0022928659042370176,0.0023464196033942783,0.002176929804189038,0.0019275498789472622,0.0017298005156375256,0.001586588978283073,0.001334395022370005,0.0007265879739175784,-0.00039784895639604007,-0.001962390552641577,-0.0036248711573728058,-0.004909623730537953,-0.0054322739173341275,-0.005085195709910326,-0.004074633633309057,-0.0027944307021927316,-0.0016196071086656892,-0.0007420707488128091,-0.00013279291719870204,0.0003686040118636176,0.000910445462543486,0.0015272232577895706,0.0021350269386420147,0.0026091100217772306,0.0028767015561541945,0.002958222971507531,0.002935592942429871,0.0028801067445715593,0.002796720109558418,0.002623925901996934,0.002285738732080847,0.0017558100194685906,0.0010871874389526818,0.0003866939926389116,-0.00024865535522794783,-0.0007900452962035279,-0.0012894645369391927,-0.0018342862896247886,-0.0024686687947343302,-0.003130716771271968,-0.0036501043729855664,-0.0038178973408376643,-0.0034957261285009835,-0.002702453684059851,-0.0016240664454321308,-0.0005356173180629624,0.0003230783045560981,0.0008481385338692096,0.0010942859820876174,0.001213479626079553,0.0013527040319371237,0.001573432680547788,0.0018353150291030708,0.0020430505868541367,0.0021170744448729155,0.002039108393356052,0.0018464607090444194,0.0015864347413932216,0.0012685007867981922,0.0008510863276962311,0.0002748303274237257,-0.0004778163071646042,-0.0013356852363734014,-0.002138281440326325,-0.0026887848434589195,-0.002836809371381508,-0.0025491830341394664,-0.0019316108987998285,-0.0011875573633591064,-0.000531153644414858,-9.466441520648367e-05,0.00012351957729440533,0.00024254598174049537,0.00042203505131104956,0.0007661338010565102,0.0012624593944623023,0.0017900351726362622,0.0021894582711900544,0.00235106969720818,0.002266486960086203,0.0020129242224249215,0.0016836967052457842,0.0013140771469880446,0.0008556089587599431,0.00022056128498339407,-0.0006292976399901044,-0.0016088921675374884,-0.0025073219793218422,-0.003072691763287165,-0.0031444705829024805,-0.0027553654184057164,-0.00213140746460521,-0.0015744340130816941,-0.0012874310210369952,-0.001250688152493467,-0.001235017913150862,-0.0009513843096271012,-0.00024125891947444043,0.0008182731078815347,0.001959085046767741,0.002874744993023688,0.00337273543324487,0.0034351908680316035,0.0031736595445427205,0.0027327333773854955,0.0022137218816370785,0.0016559318611138979,0.001064945281630018,0.00044912568220277136,-0.00016900607952273906,-0.0007704834746946686,-0.0013614809640719418,-0.0019680599721943913,-0.0025968567868135998,-0.003188315448090422,-0.0036044642484173418,-0.003674904350484774,-0.0032838009484855053,-0.0024470714581967677,-0.0013286988360323001,-0.00018026732868556977,0.000765334508984846,0.0013879906075006405,0.001713065223515665,0.0018704374970690977,0.0020082585710319576,0.0022107760208906267,0.002461312770293642,0.002662542348060347,0.0026954781657157565,0.002482489897377046,0.002023408073496588,0.0013914268749602504,0.0006959600253479419,3.350107786623079e-05,-0.000549206582504832,-0.0010624336762358783,-0.0015483799074472615,-0.0020374819207197004,-0.0025105821469723014,-0.0028895521768797843,-0.0030642795648689854,-0.0029442224211073398,-0.0025087618094566683,-0.0018295253852292704,-0.0010504945916222103,-0.0003327355039155656,0.00021007396642639512,0.000552781851934108,0.000755963170442337,0.0009226078307899698,0.0011391714517419065,0.0014321747691744282,0.0017605212282792648,0.0020432239490817687,0.002203909586127143,0.0022063173132387693,0.002061972316159375,0.0018084282543267436,0.0014746734633530134,0.001058603081610357,0.0005337693148095447,-0.0001170180077860154,-0.000862581381340897,-0.0016057317083797728,-0.0022027127413924,-0.002514022947806791,-0.002462231307877675,-0.002067059695860689,-0.0014390472022928814,-0.0007346045943853441,-9.541366322972318e-05,0.0003972837897636773,0.0007320514986194752,0.0009394096724728663,0.001046948038991454,0.0010479879473281844,0.0009074890965653838,0.0006056657069291446,0.00019121996567024154,-0.00019908492864094494,-0.0003843579724123775,-0.0002370876918649673,0.00021848265865681603,0.0007745713511511399,0.0011123850320171125,0.000955400723557207,0.00022450215168965607,-0.000895350145954041,-0.0020230290088914084,-0.0027542277841352027,-0.002848453810857653,-0.0023296367989571413,-0.0014496453576155399,-0.0005427401245183241,0.00014178084790230337,0.0005371708638671825,0.0007448159342493439,0.0009335612568890645,0.0012226321740426427,0.0016159688165144973,0.0020160848510846485,0.0022967931596353957,0.0023845456827519314,0.0022998839604223545,0.0021373339242425913,0.0019973059802453853,0.0019097800568894019,0.001795069191878223,0.001489067893944966,0.0008266577775539224,-0.0002563807363296724,-0.001656874232523111,-0.00311222505593444,-0.004284906194680251,-0.004887236122672971,-0.004790778799064794,-0.004072093962410125,-0.002975398614282034,-0.0018097782154561453,-0.0008279199163366144,-0.0001411564222351274,0.00029319518264841766,0.000613167434847421,0.0009586683140731237,0.0013942605509643753,0.0018853719079991622,0.0023320001808991835,0.002631669611279342,0.0027309584235347606,0.0026387584761813536,0.0024033563001754155,0.0020777502032629323,0.0016978991381650717,0.001280619009091435,0.0008303308876869417,0.0003421756908623542,-0.00019863519044457234,-0.00081009602841779,-0.0014910683438246898,-0.0021912792123929548,-0.0027968912679498968,-0.0031532868679443804,-0.003124609527323109,-0.0026612942969740034,-0.00183493694797749,-0.0008165515099209908,0.00019051000300896945,0.0010234271666515389,0.0015986657631762726,0.0019040810890010578,0.001965245958858875,0.0018200788186275773,0.0015196203262533349,0.0011428842033841685,0.0007969076147803384,0.0005840766021878267,0.000548253752858976,0.0006348412414878949,0.0006981954293983156,0.0005626760725542256,0.00010943686257912648,-0.0006569670113381206,-0.0015979313785314166,-0.002490732296669957,-0.0031122066981865925,-0.0033162351649451815,-0.00307431493264389,-0.0024702215434205086,-0.0016594888819986267,-0.000812481616523342,-5.7046898721590036e-05,0.0005667562396785617,0.0011237613855702142,0.0017526060693121518,0.002578866879522821,0.003599647500838617,0.004604648133191891,0.005204691247249406,0.004991344923994152,0.0037673165655455546,0.001719588560754747,-0.0005882229398870969,-0.0024364983282845615,-0.003284968536312525,-0.0030399518004498903,-0.0020959418401935875,-0.0011214735547493467,-0.0007089089515377113,-0.0010832909758511306,-0.002022341212505229,-0.0030122556641737764,-0.0035341328751690797,-0.0033174091758225305,-0.002434298563838474,-0.0012109445665261943,-3.183972473459989e-05,0.0008428020480996137,0.0013568006073600629,0.0016176088310586904,0.0017852310545509696,0.00196600037096218,0.002166910564112018,0.0023202878718766376,0.0023465708890119115,0.0022080748774464237,0.0019229891659739524,0.0015408052762517193,0.0011047168352059991,0.000629009059405934,0.00010311501098618172,-0.0004856671748617135,-0.0011274929968987022,-0.0017755412696218408,-0.0023453645698812047,-0.0027276219337292553,-0.002814415423966894,-0.0025373683408816943,-0.0019067236468672576,-0.0010311636851781088,-9.94264937113098e-05,0.0006781188701836449,0.0011462985192887802,0.0012651395723957564,0.0011234168067699253,0.0008971346631903366,0.0007695971818931801,0.0008481616348669073,0.0011166494632685133,0.0014481689150721696,0.0016740862913558008,0.001673622190703566,0.001433585456926243,0.0010424004915755832,0.0006222218577363253,0.00024340663858086315,-0.00012136470331536081,-0.0005710344940391836,-0.0011927377433863984,-0.0019733706275609515,-0.00276383598325397,-0.0033242457225956274,-0.0034318531669246945,-0.0029958416025998597,-0.0021154521854794242,-0.0010460039763047675,-8.698736722431558e-05,0.0005503769902833048,0.0008276709206713899,0.0008752128018882059,0.0009076878022788574,0.001108038650011674,0.001538084335745179,0.0021137825718690203,0.0026491251835976002,0.0029438008182730725,0.0028747868090249545,0.0024517808170302227,0.0018102594433387087,0.0011424276147089072,0.0005976567785135708,0.00020463411503865133,-0.00013808807454903784,-0.0005908499700204364,-0.0012558303544253167,-0.002081626558285987,-0.002852779889374521,-0.003284067452560968,-0.003176874786201365,-0.0025487716152298675,-0.001650196775866804,-0.0008420219632914567,-0.0003952642931929154,-0.0003333967511450086,-0.00042191363362155594,-0.0003199490429633471,0.00019853461625491688,0.0010952261624797505,0.002083790135761666,0.0027960885376416096,0.00298723720193601,0.0026517237667467394,0.0019891451419034485,0.0012569009535400777,0.0006129255799419981,4.7157166587311256e-05,-0.0005639701457309801,-0.001325189726341243,-0.0022030314295016554,-0.002997887144422383,-0.0034270941365906896,-0.0032704132541595226,-0.002492313339601863,-0.001270496371788572,8.34942598578808e-05,0.0012630241803507172,0.0020849985857115446,0.002527588706796516,0.0026805942742229643,0.002654812188231754,0.002513611476481008,0.002263470367173268,0.0018936028252401695,0.0014219580064760884,0.0009065462330517359,0.00041284259572228727,-3.47198510262791e-05,-0.00047423838070766633,-0.0009767283767616237,-0.0015802242984706747,-0.002232417647662955,-0.002785489330164079,-0.003054934296057959,-0.0029130222658824987,-0.002363518731550635,-0.0015522740001801987,-0.0007039279990414141,-1.7860012302041515e-05,0.0004187188483353835,0.0006519907783138746,0.0008077819410912419,0.0009985571956573865,0.001248757817770508,0.0014817269818716578,0.0015722426223445038,0.0014302793814393341,0.0010657952995363014,0.0005971771362800545,0.0001979199616389711,9.477116438007596e-06,6.615743703055742e-05,0.00027170107376610526,0.0004402916207318446,0.00038198797765789895,-8.387612103669725e-06,-0.0006991196269680876,-0.0015271768600458597,-0.00225652866550868,-0.002663313267585395,-0.002612507913785973,-0.0020950801094903465,-0.0012124725745655384,-0.00012138152949923823,0.0010267949691706963,0.002116254331558134,0.003055353151096845,0.003746388171424156,0.0040765162977036825,0.003951972716561538,0.0033575317697656813,0.0023954254139984506,0.0012689606717600996,0.00021663677064211835,-0.0005647121991750425,-0.0009723855848005631,-0.001019724382328694,-0.000840828724668451,-0.0006798924920251351,-0.0008418665368351106,-0.0015818416842616327,-0.0029549037841542273,-0.004706480882693351,-0.006297779188815756,-0.007099164003238572,-0.0066766846150236375,-0.0050202858327779935,-0.002578488659255079,-6.875207698283899e-05,0.0018414078702797272,0.0028175207546114315,0.002964034755704816,0.0027106170675557915,0.002554077524947074,0.0028025461669173805,0.003455439118084808,0.004264970023716838,0.004916984965762072,0.005207122616931752,0.0051079694790376546,0.004705622058675178,0.004072740540012769,0.003182696111992853,0.0019336451845530216,0.00026750614838750024,-0.0017052208868114302,-0.003673975230714507,-0.005225344126053964,-0.006013501740323706,-0.005900743507342542,-0.00499448887690737,-0.003582349907958247,-0.002022758523004557,-0.0006482076147640873,0.0002993362564890287,0.0007095621144861599,0.0006256355445695325,0.00023114875631575224,-0.00021431161877267894,-0.00047808380390532623,-0.0004477756694223436,-0.0001630417755224367,0.0002285058190106882,0.000556491503887434,0.0007008769090693062,0.0006230535851303448,0.00036130337010595174,1.1553216629891193e-05,-0.00029750002782665463,-0.00043984053045591416,-0.0003381615082121089,-2.03549562639682e-06,0.00046881543209165345,0.0009276862239830371,0.0012520402175884473,0.001403189985101402,0.0014389939253978872,0.0014703415255145954,0.001584918240019646,0.001782649827968817,0.0019636963958499665,0.0019807597438425036,0.0017271185878001507,0.0012055318135005145,0.0005314134456662423,-0.00013498180003070287,-0.0006843497577096993,-0.0011178418732056886,-0.0015286056739530279,-0.002016035091658601,-0.002589783906448628,-0.0031293058710229202,-0.0034302267870345415,-0.003314019217903639,-0.0027364658282201613,-0.0018277967632783097,-0.0008354612779832163,1.3979795962362545e-06,0.0005723956640833966,0.0009365894109468904,0.0012558160932918012,0.001662373674245919,0.002148965324302555,0.002557418201798712,0.0026772157776326104,0.0023890264549603045,0.0017559898501113612,0.000999813637022214,0.0003748001185466458,1.8041680660042542e-05,-0.00013236925346962075,-0.0003004162999752213,-0.0007332866921362349,-0.0015339471144090613,-0.002557379651260349,-0.003434818584734,-0.0037269106999110275,-0.0031370425629326255,-0.0016775219933658789,0.0003007105865541184,0.002235594638884396,0.003578444753536905,0.004008317364562168,0.003540087013015063,0.002486920801538823,0.0013065586286993434,0.00040829786920201436,5.82990949404838e-06,7.06433457260949e-05,0.00038903423357468034,0.0006796479285546661,0.0007102700925333068,0.0003676206198464992,-0.0003318597533081566,-0.0012721791613373068,-0.002281374858106866,-0.0031709370293348804,-0.0037684272859620123,-0.003946715720010438,-0.003648414233405249,-0.0028970723865408424,-0.0017874145539985556,-0.0004574438479733739,0.0009418182608935157,0.0022599233455031665,0.003339069577270002,0.004005147017604051,0.004092626293176425,0.0035194119293554364,0.002379182369426314,0.00097761821259916,-0.00024946515557115403,-0.0009246805967827781,-0.0009254264071331498,-0.00046033569896900635,3.759777969661771e-05,0.0001477847763674556,-0.0003091880137020361,-0.0011817332951037222,-0.0020797008652421248,-0.002587053928070382,-0.0024732220279624025,-0.0017933805361965993,-0.0008346640000752535,5.245143939111211e-05,0.0006412253144077374,0.0009318521565881122,0.0011160957397379,0.0014262908043754991,0.0019580742209649735,0.0025735456014313084,0.002947955936351296,0.00274154987883209,0.001804666078574361,0.0003012225069240784,-0.0013225801086981781,-0.0025150320441807055,-0.002856161893910342,-0.0022422938374652103,-0.0009346334054880991,0.0005442090488885513,0.001613502458657309,0.001848178813022494,0.0011212347323403854,-0.00036722472853705033,-0.0021702226735374652,-0.0037468849346909126,-0.00463590415617951,-0.004594423722470686,-0.003658132484218297,-0.0021050935665600404,-0.00034158458187952636,0.0012427269656491748,0.0023941112730231063,0.0030466884983590494,0.0032951639384905342,0.0033100695774989867,0.0032400451142843034,0.0031474809398818375,0.0030031776470414552,0.002733053226895284,0.0022832199948537,0.0016635329983587265,0.0009462164287103267,0.00022462931090704691,-0.00043902274209369006,-0.0010423431664263458,-0.001628095927964401,-0.002234033088800342,-0.0028390316516007574,-0.003342841009098145,-0.0035982807355520435,-0.0034822353129781757,-0.0029659003427818208,-0.00214277040040595,-0.0011962415438643962,-0.000322701977556902,0.00034946572753589267,0.0008027982035976806,0.0011147772556724931,0.0013945806094245268,0.0017096035767270056,0.0020429878856637303,0.0023041976332409558,0.0023837369060606553,0.002218756187302718,0.0018320110433625936,0.0013231914097103074,0.000818320656381607,0.0004051773712080456,8.976218685471661e-05,-0.0002020400487075431,-0.0005764332594273586,-0.0010999995266882832,-0.001740626366698248,-0.0023542125025526463,-0.002730289407859201,-0.002680894379352964,-0.002133636967902335,-0.0011844195275856875,-8.05640785528916e-05,0.0008655917483926354,0.0014004157637379018,0.001435783095097327,0.001085803772913245,0.0006101024505438251,0.0002878414826465497,0.0002858239593451991,0.0005890115161582156,0.0010268390338406743,0.0013745232947062597,0.0014689500348180778,0.0012768362148027064,0.0008861764673871943,0.0004369945134513897,3.758974095577979e-05,-0.0002860292422495607,-0.0005835524623686226,-0.0009261409934355025,-0.0013394479713629795,-0.0017642205964587211,-0.0020689369674433693,-0.0021102524122565075,-0.0018102112820950953,-0.0012083807136758647,-0.00045836226128411406,0.00023406585364888106,0.0007034466512617778,0.0009016744692897801,0.0009171015364192835,0.0009202502895329135,0.0010604626404522933,0.0013691501679821312,0.001726860885823514,0.001918155104744697,0.0017486850330516758,0.0011628002333376485,0.00029759455540310066,-0.0005601004291455251,-0.001099652095538665,-0.001137642733234496,-0.0007168801265605741,-9.631244902205769e-05,0.0003694473423381428,0.0004000755067598374,-8.012717295229435e-05,-0.0009153670252599734,-0.0017990793294389283,-0.0024125235261386597,-0.0025525927860999727,-0.0021972850252823624,-0.0014922440377626361,-0.0006748427767554917,2.7528424620486448e-05,0.00048350427782903305,0.0006958120937768682,0.0007790995268270492,0.0008903341506005709,0.0011450972328755178,0.0015589228347345555,0.002039950925091792,0.0024335346173973574,0.00259421594082577,0.0024486999114687385,0.0020208812558415506,0.0014116793111943235,0.0007495205607787191,0.00013899335818978037,-0.00036926993480841013,-0.000779699529333769,-0.0011313307423647992,-0.0014698274207160071,-0.001823181248525836,-0.0021860121375851358,-0.0025140171016911125,-0.0027304904284906994,-0.0027468068761849675,-0.002494377066338688,-0.001957802442156668,-0.001193702635171412,-0.0003229353498975479,0.0005042291929441467,0.0011567403375100393,0.0015647134699564545,0.0017369905391731765,0.0017472005950915051,0.0016944923808749018,0.0016560580258281204,0.0016530753228514985,0.0016469716455866144,0.0015689263000768239,0.0013672503061079929,0.001044851518121336,0.0006623856637193949,0.0003028229911646093,1.8227421138822864e-05,-0.00020734149377519547,-0.0004528323452223083,-0.0008113466611339671,-0.0013221685594899724,-0.0019227086725701757,-0.002452593493403612,-0.002715388962214794,-0.0025700107864852243,-0.002003855442877919,-0.001147046524555823,-0.00021878828476077034,0.0005662718678248715,0.00108338771845,0.0013333698692629629,0.0014156491856286402,0.0014589938219075889,0.0015499157682703144,0.0016954243894068731,0.0018337379102222294,0.001878883631584846,0.0017695720076222146,0.0014961984493844804,0.0010962104516074518,0.0006256853059608131,0.00012547845840748563,-0.00039855113826461853,-0.000968825981995509,-0.0016037277021059178,-0.0022762691327295067,-0.002890723120907074,-0.0032995498145455505,-0.0033608111254478795,-0.0030083437147789436,-0.0022936528222484358,-0.0013720441491300963,-0.00043825140467889626,0.000353480486277791,0.0009424174956001001,0.0013625286131825273,0.0016967137201632063,0.002013529113844552,0.0023226891309271677,0.0025719326571965336,0.002682158092643918,0.002596133905858583,0.002311920377384315,0.0018856803825386959,0.0014074213900554348,0.0009641429108310535,0.0006050680659568309,0.00032000610947548647,4.000769429247865e-05,-0.00033392871328807145,-0.0008795107207913581,-0.001600633079751616,-0.0024027861863919952,-0.0031145606190341826,-0.0035491583334550042,-0.00357848379777768,-0.003186293871557367,-0.00247655765040962,-0.0016320459856518786,-0.0008394046167222248,-0.00021377066163681463,0.00024024127394481906,0.0006099172798646833,0.0010074761653248662,0.001492672408422378,0.0020300796768725426,0.002505010591403478,0.00278550041199917,0.0027906703823693743,0.002526224631637573,0.0020731162041326867,0.0015448830977995702,0.0010421327966796572,0.0006247424256383,0.0003054460152812586,5.725565643625256e-05,-0.00017323511234057553,-0.0004493314182423703,-0.0008237867033327158,-0.001315399410734283,-0.0018886879347326708,-0.002447376789326685,-0.0028523944411787726,-0.0029665293403968044,-0.0027120013150765216,-0.0021132678845180303,-0.0012977164112758038,-0.0004462274313217729,0.0002849769117155735,0.0008287850319555149,0.001219383546163172,0.001543941566413937,0.0018645958261847928,0.002162323325407542,0.0023407159433920747,0.002288102269199121,0.0019579231232994963,0.0014151977004899139,0.0008177747890760437,0.00034025737634793546,8.212833345575357e-05,1.1458959867129896e-05,-2.239920101488463e-05,-0.00020967679949761764,-0.0006729283135912085,-0.0013872978246514398,-0.0021728042120247124,-0.002767539730498855,-0.002947847624171158,-0.00263423386078371,-0.0019267449986886843,-0.0010509697601125913,-0.0002457952123547928,0.00034378333836046753,0.0007118080773577326,0.0009573990601622927,0.0012010607305497868,0.0015044994442249696,0.0018372884711174277,0.0021010698238431405,0.0021891606923303427,0.002044923338432628,0.0016901531622800245,0.0012149976936934991,0.0007390399345078515,0.00036135401126045273,0.0001176621315156229,-3.946206943132466e-05,-0.00022556804964088918,-0.0005728812718161155,-0.0011577971106898903,-0.0019390125357690875,-0.0027419851199652545,-0.0033095213196288314,-0.0034058059973733155,-0.0029278032301277334,-0.0019654061341016727,-0.0007730949952346835,0.00033724629606128625,0.0011280111788015228,0.0015239399209356005,0.0016149808456164783,0.0015819217513373765,0.0015933177045358384,0.0017295547420131578,0.0019643443834528084,0.0021976248471239,0.0023112297887512593,0.0022185745568383194,0.0018931613882686238,0.0013736787267353613,0.0007487814536743467,0.00012514327192062163,-0.0004150334990070437,-0.0008531787803856938,-0.0012487282016136303,-0.0017103758215940886,-0.002326105309950127,-0.0030837141025216734,-0.003831990519779882,-0.00431984283825448,-0.004306501906358657,-0.0036866060447521415,-0.002555839839040717,-0.0011736420290242655,0.00015838895899873912,0.001232197970692271,0.002006316266006413,0.002580148647757004,0.0030928535528053957,0.00361176012735882,0.004077054541545529,0.004333252121851187,0.004225440275115076,0.0036996415655516385,0.0028452466955478433,0.0018552317498513181,0.0009327422243973165,0.00020405531897752,-0.00031384750069412214,-0.0006856502370156211,-0.0010024368222127204,-0.0013371990403306519,-0.001727637018949112,-0.0021783675726213337,-0.0026675935591034526,-0.003152314637223179,-0.003575677772399582,-0.003878516350841196,-0.004008682563703175,-0.003920241594152059,-0.0035659237051594217,-0.0028993389211345037,-0.001900965951077613,-0.000620101002684126,0.0007986510119352009,0.0021365501657147675,0.003172451142944459,0.003769407913948423,0.003925064858812945,0.0037563382966343483,0.0034302938380301397,0.0030834774720167185,0.0027728440775277555,0.0024770508603008255,0.002136109755398129,0.0016993489941335667,0.0011543795700042323,0.0005271979642471128,-0.00013796056502943038,-0.0008013247003684106,-0.001437497888233157,-0.0020274145050638045,-0.0025399202738475425,-0.0029192833998503568,-0.003093101046299104,-0.003001704264578457,-0.0026337416871679495,-0.002045655723877371,-0.0013508959675136328,-0.000681817818978235,-0.00014161442926142852,0.0002321670374740728,0.0004768941062246797,0.0006829466880639422,0.0009490253626697983,0.0013317948596754201,0.0018099976611621047,0.002280206655015925,0.0025916370869494493,0.0026102448999081674,0.0022831670678044105,0.0016669898502465795,0.000899041247765559,0.00012543137667600266,-0.0005696994777338074,-0.0011869515206276175,-0.0017711128326071376,-0.002336520289763524,-0.0028135894403960872,-0.0030598487082948876,-0.002935661612653528,-0.0023989289409657166,-0.0015559763396180122,-0.0006304123474672896,0.0001376207512996522,0.0006058927575385511,0.0007932206607618566,0.0008556872778199356,0.000989644554715906,0.0013161374679572055,0.0018111815134830911,0.0023193774110072986,0.002640217232770803,0.002635825931604905,0.002299859002607626,0.001753478098573567,0.0011771012898847285,0.0007189757026621831,0.00042726560919161016,0.00023449648955310812,-3.049447854576101e-06,-0.0004301036507501423,-0.0011129462812659355,-0.0019897510876690544,-0.0028755634685947305,-0.0035254264929105257,-0.003731762803013232,-0.0034118881491503493,-0.002642468266324723,-0.0016235948817433404,-0.0005927137383165808,0.0002659115783343974,0.0008736153068556109,0.0012559724555566926,0.0015015653161608387,0.0017081091863275577,0.001938033693215623,0.0021933795705836078,0.002411996138127203,0.002485644661045153,0.002299962015453178,0.0017901152830259288,0.0009938382822608995,7.243098610771259e-05,-0.0007275123485689131,-0.0011740997820311252,-0.0011729730567179675,-0.0008425109479382605,-0.0004806046098464942,-0.00042045668053631896,-0.0008468697828913912,-0.001680430446773819,-0.0026031986670264073,-0.003215115614819149,-0.003232090884573966,-0.002615889435392331,-0.0015721504295543346,-0.0004314580314268118,0.0005115211034059377,0.0011162009418765073,0.0014237643499592648,0.0015995675242055716,0.0018325785215475548,0.0022414806061182638,0.0028211032197263974,0.003439984483902213,0.0038834530800148986,0.003929197833716369,0.0034365975556397512,0.002420528541880839,0.001071480501446424,-0.0003052109448409071,-0.0014181082689699175,-0.002123851263639234,-0.002485382159824306,-0.0027102688317061953,-0.0030008800568157514,-0.003409719255090456,-0.0037942053531524115,-0.003901713459917293,-0.0035303721178546587,-0.002662596050969525,-0.001488956885437469,-0.0003129350393855299,0.0005995770356014368,0.0011360151123626918,0.0013596085594853539,0.001440749976553709,0.001547968185466611,0.001760464963256421,0.0020409701541186163,0.0022711696473826236,0.0023233182150749626,0.00213020876254528,0.0017202463967283424,0.001200973011052955,0.0006991277537271195,0.0002901269775599728,-3.9661766789067434e-05,-0.0003701585210246285,-0.000774309496467817,-0.001241109533496303,-0.0016505220598644664,-0.0018263104131555877,-0.0016410654398884186,-0.0011079444124964706,-0.000395137375528838,0.00025483200926306154,0.0006559990430593213,0.0007780406529684844,0.0007484179580391543,0.0007545244752524101,0.0009085280311001817,0.0011624640062360145,0.0013295135855958507,0.0012010258817542257,0.0006891528572857826,-9.304391577141349e-05,-0.0008680110455747574,-0.0013329163006259867,-0.0013252142449491954,-0.0009186479465788317,-0.0003917857202906374,-8.503237325288636e-05,-0.00022591863407148886,-0.00081711576170948,-0.0016412073731634617,-0.002369878630093862,-0.0027137402022377717,-0.002538016562622619,-0.001897231698190799,-0.0009871729573926065,-4.932481325329078e-05,0.0007237718263551641,0.0012444986712519188,0.0015336750856965976,0.0016815686373374385,0.0017909018148937865,0.0019287164318500215,0.0021054705987626787,0.0022846862617563113,0.0024116653527670555,0.0024424657380012053,0.00235788417856326,0.0021586403338998317,0.001849747086538339,0.0014271711778304436,0.0008763883705366941,0.00018409963643869703,-0.000642891851079052,-0.0015604113327071468,-0.0024789928677357493,-0.0032707445757346257,-0.003793593340425622,-0.003930400975243161,-0.003632310523341952,-0.0029482691774967915,-0.002022724511475491,-0.0010546871521270314,-0.00022990889417845656,0.00034588726893190053,0.0006808396088393736,0.0008786337835220234,0.0010741770040720749,0.0013552895556087326,0.0017129914185331524,0.002048383186389707,0.0022308797496135694,0.0021721184077613444,0.0018728489530597952,0.0014194945971869265,0.0009370528934437986,0.0005259489134567322,0.00021393967221716226,-5.5594835878921374e-05,-0.0003930092179561806,-0.0008998658295347485,-0.001599387818673996,-0.002392133339113159,-0.003063968860757856,-0.0033541792143638454,-0.0030637857024887983,-0.0021598424418953523,-0.0008241685557640749,0.0005877359213826367,0.0016736589005964897,0.0021496996022932037,0.0019779332809015606,0.0013896028430389752,0.0007840921040198766,0.0005478931353810094,0.0008803380888795594,0.0017079488924996848,0.0027221779113935024,0.0035157421949508195,0.0037516984862571044,0.003292199488050273,0.0022376596037755113,0.0008676488220472113,-0.00048468197418298855,-0.0015667955549943683,-0.002290065329967452,-0.002728048928952774,-0.0030383291832054905,-0.003354513489300686,-0.0037061510827611525,-0.004003208317003382,-0.004084092976791266,-0.003796009101107371,-0.003067936357969048,-0.0019474464766374676,-0.000591439269590654,0.0007813357967654816,0.0019548749544955075,0.0027712527800009467,0.0031579047914626775,0.0031266803243263637,0.0027602134131383717,0.002199174182434018,0.0016262198617436768,0.0012293606004183065,0.0011379400999274255,0.001354424922055232,0.0017275060911568444,0.0020002805141922236,0.001922679962279454,0.001371645839533921,0.00041213550652198765,-0.0007337138406346335,-0.001787825332457646,-0.0025296824181984022,-0.002865669768464067,-0.0028307364248214527,-0.0025377976920770073,-0.002112320043876225,-0.0016468296854733563,-0.0011897906803830032,-0.0007601209277558127,-0.00036652801906705086,-1.5590108575231493e-05,0.00029233924667220607,0.0005685989254936096,0.0008333270801320476,0.0011050303612289802,0.0013916028605832336,0.0016892944216695851,0.0019862717071732973,0.0022611835876573147,0.002472084823193233,0.0025439109279005545,0.002372023928927059,0.0018549115209077452,0.0009502385725511001,-0.00027350968041524917,-0.0016251951164962981,-0.002837569185903251,-0.0036574295881898816,-0.003937230098843402,-0.003683574738478882,-0.0030412975371993498,-0.002224689696706264,-0.0014308388172128178,-0.0007739141931922169,-0.00026519672466599284,0.0001591969317517526,0.0005819235031296796,0.0010491645998186863,0.001542883992099541,0.0019910074746088283,0.0023055308836324945,0.002424980753986567,0.0023385651965809285,0.0020830069915448376,0.0017192854352354378,0.0013046865921060883,0.0008728969927221418,0.00042737678720275636,-5.179568482962675e-05,-0.0005889830108713826,-0.0011858689857061765,-0.0017961538485823814,-0.0023174391032058854,-0.0026124991663309806,-0.0025574479993543116,-0.002095932456514853,-0.0012708766251062786,-0.00021667751671664722,0.0008822724487442652,0.0018437155142562714,0.0025274435713658104,0.0028535423442894686,0.0028029378643672958,0.0024087284382283713,0.0017437294517629476,0.0009056496131045586,6.132773944708805e-07,-0.0008724737667500108,-0.0016334487425189099,-0.0022270266083129235,-0.002624524128742209,-0.0028212159874527435,-0.00282684745450313,-0.002649019467681017,-0.0022780627404451912,-0.001689234401327425,-0.0008717500142730865,0.00012687242337615747,0.0011732019733506167,0.0020684525360181194,0.0026206337796765866,0.0027338520532168677,0.0024614102915471135,0.0019856033082180256,0.0015293285303768923,0.0012459350025151386,0.0011479584369251772,0.0011132072746680584,0.0009615527238621673,0.0005562251146294265,-0.00012586474523980563,-0.0009858181254059862,-0.0018489551596899663,-0.0025319789977890288,-0.0028972426343944185,-0.002878665226473713,-0.002483391785019349,-0.0017812019328030137,-0.0008895465229298168,4.568974233420779e-05,0.0008766140569733615,0.001485610884386976,0.0018145414401510823,0.0018778748927616722,0.001751225288942428,0.0015382011337168986,0.0013295244352161733,0.0011719274854881333,0.001058973875701864,0.0009456027316179153,0.0007780798340995597,0.0005248245379606379,0.00019320226169379658,-0.0001764121285201953,-0.0005364196080113567,-0.0008626059830345572,-0.0011692052156251406,-0.001494874937088696,-0.001863663609787975,-0.002244117569421101,-0.002536771841176228,-0.0026068552562904,-0.002350496050612436,-0.001757773436920512,-0.0009334104828821127,-5.918360609057983e-05,0.0006838087256179437,0.0011918224048408782,0.0014739575641879925,0.00162917344323612,0.0017786401623750272,0.001990597250526745,0.0022390122039836597,0.0024194031344385797,0.002413162801202076,0.002162609116334576,0.0017107815478993205,0.0011798740262906767,0.0006996186557567827,0.00032884810723022835,1.9237835268780857e-05,-0.00035431888533649753,-0.0009121034297786003,-0.001682960380125139,-0.00256231361152085,-0.0033391401382042493,-0.0037783911456161757,-0.0037173129577394706,-0.003129894354201672,-0.002132429356478535,-0.0009330771961055205,0.00024607938902646963,0.00123687900389213,0.001956162973632212,0.0023967952175399467,0.002596430540511097,0.0026080071165855115,0.002485081644259401,0.002277562478770135,0.0020242905619944325,0.0017360301853229258,0.0013791047806057909,0.0008800785659019645,0.000163704134814009,-0.0007869569537556725,-0.0018810003283645598,-0.0029159828350568203,-0.003634058994994886,-0.0038189614427147503,-0.003389974167927419,-0.0024467364947253203,-0.0012402617550216176,-8.006364362614805e-05,0.000782087841172188,0.0012395638212855807,0.00135080384856578,0.0012860277511918545,0.001230840711700989,0.001296910418930478,0.0014831037273114133,0.0017004057327482263,0.0018379694715482797,0.0018270882542563275,0.001666642472254488,0.0014021881035414646,0.0010816235174006788,0.0007222765435217376,0.00031034146515396494,-0.00017310484303299193,-0.0007228911096582075,-0.00129782805041862,-0.0018302326208373642,-0.0022468503670259503,-0.00248814430266789,-0.0025190458054695454,-0.0023318418249568544,-0.001945194510852149,-0.0014017870858661894,-0.0007639394999306633,-0.00010530062725663369,0.0005014328864321994,0.0009977873671944803,0.0013495095905194441,0.0015504687148689272,0.0016200246160949791,0.0015947244124529059,0.001515633126324749,0.0014139009233924294,0.0012996206113669699,0.0011602857107990484,0.0009720066374693913,0.0007185744509894266,0.00040555645850887936,5.734931700211298e-05,-0.00030227403249981913,-0.0006698314014610476,-0.0010617215997618078,-0.0014876851196815473,-0.001914814230199556,-0.002251580581884937,-0.0023723157251157594,-0.00217602281736539,-0.0016472922638672408,-0.0008807378449793511,-5.003826852503616e-05,0.0006641569929248495,0.0011489598999450254,0.0013979842203751397,0.0014968182959118079,0.0015654111873350278,0.0016867623079737312,0.0018567476288175594,0.001981605393285597,0.0019285787662688275,0.0016067720462918551,0.0010335974543636455,0.00034426800240607334,-0.0002677892430970955,-0.0006495012912411493,-0.0007696344873099685,-0.000735564739083035,-0.0007347118967968255,-0.000931696888698698,-0.001375114957636668,-0.001962215373514842,-0.0024807696291698662,-0.0027088759381104733,-0.002522973160349096,-0.0019578253294399565,-0.0011858300206036678,-0.00042655111990497294,0.00016298135429983923,0.0005553507523804056,0.000841119978274775,0.001150383839800721,0.0015592560103056177,0.002039111719370011,0.0024757091183270088,0.0027393667697589038,0.0027569584717129906,0.0025404304070047214,0.0021595025327180947,0.001683898395731238,0.0011377622792422117,0.0004967591780584905,-0.0002724799359602691,-0.0011589717631948734,-0.0020763180849226403,-0.0028750451933365327,-0.0033931261708591816,-0.0035188402620054235,-0.003235166259665116,-0.002625095993486937,-0.001836048615600356,-0.001020968672307702,-0.0002849779330047041,0.0003374422537136129,0.0008677173951853676,0.0013444643533442374,0.0017844665949855684,0.0021627724183373833,0.0024191157409445183,0.0024858438382393314,0.0023243144938238152,0.001952663470287468,0.0014493281287419604,0.0009258552392683031,0.00047785789914775987,0.0001374696491419972,-0.00014504922944149528,-0.0004742764448885672,-0.0009447906894857747,-0.0015704303508934534,-0.00224883316246091,-0.0027878631619953445,-0.002987209380277412,-0.0027349751602570114,-0.0020670347669990824,-0.0011558776673272553,-0.00023499533923675912,0.0004998404471322755,0.0009612766456074262,0.0011816742625848902,0.0012681597645364875,0.0013323566504603616,0.0014330138314178132,0.0015569705843090052,0.0016413174677379755,0.0016193156650207447,0.0014630962094282166,0.001200385949334995,0.000897816300790145,0.0006219357356991485,0.00040071425592530914,0.00020664755223622015,-3.0104589732119592e-05,-0.00038484023639775256,-0.0008934124590105254,-0.0015179075049585721,-0.002139476398027095,-0.0025876452319657742,-0.0027015888968343693,-0.002401088357236466,-0.0017328092026846179,-0.0008628873384724144,-1.2564375264765873e-05,0.0006331150463184223,0.000995269643105846,0.0011133372971487143,0.0010987385066354987,0.001064567466527624,0.0010754968305530272,0.0011405812187875162,0.0012375534934471444,0.0013381014077250427,0.001412824090757556,0.0014205143267654314,0.0013040804495887948,0.0010091395498984992,0.0005181823438327671,-0.0001245037146278192,-0.0008179642603396347,-0.0014390121684138542,-0.0018852511137460136,-0.0021031546810604275,-0.002091063297785678,-0.0018831685724035136,-0.0015280216034400241,-0.0010728358866165986,-0.0005585059783333955,-2.4088214956587514e-05,0.0004854492511131031,0.0009168876794824149,0.001218054717082549,0.0013570214880942431,0.0013403340160317288,0.0012164460944365904,0.0010578149730368846,0.000928602094456402,0.0008546566065453083,0.0008113158577032649,0.0007343141321791364,0.0005475998353016156,0.00019572925281142897,-0.0003307047377160738,-0.0009830842805368264,-0.0016577599244681543,-0.002213725992028232,-0.0025045375510426592,-0.002421033230701558,-0.001933744993591236,-0.0011165860106695917,-0.00013506995778361618,0.0008034230320619323,0.0015192901452041156,0.001918461311729452,0.0020100205196376107,0.0018762918371696994,0.0016146312976796323,0.0012864153688842911,0.0009038059000814784,0.0004606777746345662,-1.5307070988781687e-05,-0.0004291952459416341,-0.0006364892667905003,-0.0005158545764718731,-6.329327198733447e-05,0.000550584213145756,0.0010120460854339082,0.0009930275437650808,0.0003240688303148461,-0.0008835410577312222,-0.0022483797993236403,-0.003274270029655764,-0.0035755896805656252,-0.0030518192041889243,-0.0019183765251732854,-0.0005844057233743874,0.0005468158745057045,0.0012447787837627355,0.0015076499896574743,0.0014998589299356445,0.0014270640371391165,0.001424719056118196,0.0015117222081990408,0.0016147888163345952,0.0016324390597758519,0.0014967602132319952,0.0012040760869161727,0.0008081763327488331,0.00038793735654976105,8.974299327338441e-06,-0.0003023166332356746,-0.0005610209396630695,-0.0008019732435952835,-0.0010466782707068954,-0.0012805699291452742,-0.0014588406561923527,-0.0015402106284425222,-0.0015244363740947453,-0.0014610263088610355,-0.0014149497321846762,-0.0014086835434594664,-0.0013819629495242362,-0.0012030801763120976,-0.0007342350004024702,8.057375396985055e-05,0.0011541254838227251,0.00226167431076055,0.0031212709378330592,0.003512782244865076,0.0033727895544444597,0.0028139181575906878,0.0020611911383828633,0.0013433618842597756,0.0007950195684087829,0.00041210667977374985,7.536849627338342e-05,-0.00037163060357288456,-0.0010251002176188719,-0.001851270301165082,-0.002684752204647211,-0.0033042913745059905,-0.003549341286703168,-0.0034083283978575112,-0.003018098375953655,-0.0025669038730459525,-0.0021597180201063113,-0.0017379041675070176,-0.001116349710498613,-0.0001237018747768698,0.0012432700298875385,0.002757291648066526,0.004039398890583433,0.0047351149999634995,0.004681399367148895,0.003968891877185575,0.0028752975845829642,0.0017214244671286574,0.0007328064358806891,-2.9657551829674503e-05,-0.0006504891692577371,-0.0012724384236125295,-0.0019865733349471214,-0.0027526199879406936,-0.0033911109366889357,-0.0036571757157455803,-0.0033635396257494037,-0.002489615193846834,-0.001215552812936704,0.00014225418276877198,0.0012646159234648135,0.001964570960884543,0.0022550680499989367,0.00231451954879636,0.002367303967346881,0.00254133996542307,0.0027807454520207757,0.0028666573591410094,0.002541661075569813,0.0016722031549212253,0.00035539023560913287,-0.001097250042056782,-0.0022972612845447854,-0.00296435177959376,-0.0030561831965785517,-0.0027722371565348076,-0.0024336436733859213,-0.0023079233557816298,-0.0024716868988228545,-0.002778041083723445,-0.002939194968445277,-0.0026790037674921333,-0.0018791432791505302,-0.0006472643339714749,0.000726951138244322,0.0019066064620153482,0.0026637351912739086,0.002972617160667921,0.0029892163102949237,0.002932599820321143,0.002944174895317379,0.0030121341070188526,0.003002417497444585,0.0027662619357306613,0.002247729932162698,0.0015220125316247743,0.000746600766456249,6.438987953836161e-05,-0.00047602414183753414,-0.0009337974608250332,-0.0014176508278856454,-0.001994386287443418,-0.002622091568581372,-0.0031511053883305786,-0.003394824868799873,-0.0032298157168328704,-0.002666902936768221,-0.0018527283380364128,-0.001002282891038436,-0.000300973895818185,0.0001717928901676342,0.0004610006414220116,0.0006919190355399929,0.0009895913885577885,0.0014034717054227036,0.001874309833915335,0.0022591794045691027,0.0024020451046438294,0.0022142533970293185,0.0017231362449366115,0.0010620196009860363,0.00040546240358553315,-0.00011574899433634264,-0.00047231390118583475,-0.0007337148605962126,-0.0010072444021470787,-0.0013558971194758927,-0.0017446318435296617,-0.00204669615382822,-0.0021062187029395555,-0.0018227034448212818,-0.0012136781819994686,-0.00042429500067162323,0.00032324289145602223,0.0008223939877534216,0.0009789031777170374,0.0008643401570693687,0.0006912451394691955,0.0007095611518390039,0.001068572192169436,0.001716005911454088,0.002395074742502417,0.0027521385703234364,0.0025070193465033786,0.0015990509559504085,0.00022945210140227937,-0.0012253174911026812,-0.002382265446353539,-0.0030089920641231793,-0.0030861690295749984,-0.002754535593727147,-0.00219689485798227,-0.0015373601153913742,-0.000814475087578765,-2.6184976783080125e-05,0.0008025166819277763,0.0015840977648992184,0.002187666279267662,0.0024938774803472206,0.002445731258662936,0.0020652106509894837,0.0014336439460228777,0.0006572678814643257,-0.00015693931430488765,-0.0009061435893162296,-0.0014895623020939202,-0.0018201296039352425,-0.0018574412018005316,-0.0016435475434424776,-0.0013069720455097778,-0.001013003333525339,-0.0008768331972479261,-0.0008921810655435369,-0.0009288285296966732,-0.0008107492375869702,-0.0004306771060759876,0.0001714850126280376,0.0008191462664128216,0.0012965154175547278,0.0014768342491166878,0.001403672007101616,0.0012719485413482808,0.0013127475216210692,0.0016445761912248673,0.0021789903598557433,0.0026428098859380433,0.0027138201292521936,0.002198202874245574,0.001147749493042497,-0.00015480602579303997,-0.001337555441787016,-0.00212685652404628,-0.00247152241718826,-0.002534570063774261,-0.002563885088822322,-0.0027234715920356482,-0.0029861145862241927,-0.0031484570583905575,-0.0029563250081908726,-0.002264264541238597,-0.0011350538873542717,0.00017763952890147085,0.0013503685051583594,0.002142216612900851,0.002492437041541745,0.002515750228623339,0.002410091557470615,0.0023385427753180627,0.002352793785047536,0.002392043490092616,0.0023437315100462886,0.0021202618444817675,0.001704772275524244,0.001144698118127423,0.000506256610821691,-0.00017381219168233704,-0.0009029661498169078,-0.0017009933245320452,-0.0025421631659165475,-0.003315093515019428,-0.0038385115440131064,-0.003935886304548967,-0.0035286972903128336,-0.0026892777490071075,-0.0016172855367540162,-0.0005535653142557666,0.00031646850280933093,0.0009183414752131117,0.001284625385826968,0.001509281964762956,0.0016921720962001455,0.0018974642692240738,0.002134225785651226,0.0023581177213944228,0.0024914758769301955,0.002458047228235498,0.002222297811210515,0.0018146624509781152,0.0013239436963287015,0.000853142058608125,0.0004590347453146985,0.00011217965955210066,-0.000291650671550449,-0.0008658731545773167,-0.001646172477776069,-0.0025351711524799992,-0.003320048202229681,-0.0037635772395468283,-0.0037214991254983336,-0.0032164305212439245,-0.002420398454474229,-0.001555258623565267,-0.0007753106265189733,-0.00010852106333406892,0.0005096686683113098,0.001142768288194448,0.0017740062415844682,0.0023011256638184835,0.0026072712581751874,0.002652933381191879,0.002518205878417074,0.0023597024071603146,0.002306614970835252,0.002364310993758006,0.0023920888076364305,0.0021750518260256944,0.0015491421368751916,0.0005039196736324766,-0.0007972048268557314,-0.0020862401295708454,-0.0031028429774556843,-0.003685365265659109,-0.0038016453724632514,-0.0035232198258268663,-0.002974390106811793,-0.0022866785938189483,-0.0015708195151848052,-0.0009029190167474995,-0.00031916904918894464,0.0001809126976395506,0.0006207282167827238,0.0010257590782482425,0.0014052350387178014,0.0017450226605664294,0.002013152844626317,0.0021729828234508574,0.0021979675279515647,0.0020839262709374633,0.0018551273287637034,0.001559542110180908,0.0012505472110277925,0.0009597959598009975,0.000675206322937081,0.00034080231222742834,-0.00011398991513333282,-0.0007258132572395816,-0.0014553164397723849,-0.002178958625309743,-0.002726298641854444,-0.0029485302328981734,-0.00278356614787226,-0.0022823763372083646,-0.0015829854337323247,-0.0008488327115488922,-0.00020650357353821765,0.00028707705786796785,0.0006396954184300246,0.0008945474685840037,0.0010981273024609623,0.0012801179495912263,0.0014474729228622337,0.0015869939019336325,0.0016715019880004698,0.0016693451167237765,0.0015578583796003872,0.0013365826603252795,0.0010315215014339038,0.0006845091906842093,0.0003316663361403434,-1.5923864893965193e-05,-0.00037559034268041776,-0.0007755770992331767,-0.0012243035641540687,-0.001683275327715917,-0.002061655715263911,-0.00224178989875781,-0.0021289400051059328,-0.0017027086491266637,-0.0010419902545249825,-0.00030540368163022074,0.00032871208919156754,0.0007360363008299622,0.0008966668913751604,0.0008943749675002424,0.0008633195676813057,0.0009109500274116672,0.0010610147488942388,0.001249343092432989,0.0013728445577152885,0.0013591356527490365,0.0012115799149091196,0.0010003954757017003,0.0008050486432266999,0.0006452849489449099,0.00044815842502326966,7.942964002196625e-05,-0.0005705468418553094,-0.0014926437483132851,-0.002515134501660902,-0.0033466371127542135,-0.003694247189948449,-0.003398653710594113,-0.0025130991227894786,-0.0012821221898855829,-3.235367541638075e-05,0.0009645722615016025,0.0015870415558519246,0.001876702695249654,0.0019770954624238456,0.002039554799362568,0.002145756260998747,0.0022793083540228807,0.002350909831486169,0.002257417989778226,0.001943383022126492,0.0014353422326888964,0.0008320150620540496,0.00025433771714401565,-0.00021870031051681428,-0.0005912958608430121,-0.0009418924894084649,-0.0013652429691322471,-0.0018974667548163357,-0.002469856113597517,-0.002923748465529155,-0.0030838101834582644,-0.0028503741402588776,-0.0022567405772383753,-0.0014566054391084151,-0.0006494998037733399,1.007123429477624e-05,0.000467292200889722,0.0007605887616840009,0.0009695624527406252,0.001157512213577499,0.0013437790619763709,0.0015145367315500607,0.001653282174749098,0.0017623079762227507,0.0018582641009017723,0.0019478832749606754,0.002006382307634732,0.0019789470336292626,0.001807362737502413,0.0014636326974232581,0.0009657874745888531,0.0003636226193480352,-0.000294550517744241,-0.0009863775831166761,-0.001707953575343403,-0.0024363559164797123,-0.003092105503105279,-0.0035386335233273543,-0.0036327965234583845,-0.0033017380285142806,-0.0025963842936791376,-0.0016818486384425286,-0.0007650130908950468,-1.2096603024106846e-06,0.0005646260380755949,0.000990479497881498,0.0013743654192768418,0.001779253077845949,0.002191135932582851,0.0025298342592106108,0.0026986161946578836,0.002639152624696954,0.0023614684764015456,0.0019374325873047636,0.0014666484334750975,0.0010344179563170752,0.0006801595925671599,0.00038595774623950295,8.634201729818566e-05,-0.00030363289355000815,-0.0008469088678664827,-0.0015402450198087117,-0.002287541392341401,-0.0029136660409323886,-0.003226368333543303,-0.0031034183411906896,-0.0025582048695035717,-0.0017423530881049887,-0.000879531153833861,-0.00016617596325633235,0.0003069312742118412,0.0005738453735745875,0.0007504563100659967,0.0009581386244619699,0.001255003029201771,0.0016065501403114794,0.001905741704978975,0.0020295203506722017,0.0019035430868328356,0.0015440945711409383,0.0010564909452441627,0.0005889549679695014,0.000261930946828312,0.00010606088621389252,4.1375646242901195e-05,-8.580982193058794e-05,-0.0004191049920901642,-0.0009997916252561412,-0.0017169381423146348,-0.002335828575640178,-0.0026005753616101545,-0.0023616785499997956,-0.0016582066877259736,-0.0007053606554295165,0.0002078881102110834,0.0008536506974898866,0.0011582337135785385,0.0012079040095009954,0.0011744639215697007,0.001210463357853001,0.0013729780566799326,0.0016100930750209677,0.0018048964045016447,0.001842838672360545,0.001664397349362318,0.0012827093332776385,0.0007690364096323869,0.00022184932259264643,-0.0002664735928188979,-0.0006395620988805261,-0.0009004773678340122,-0.0011194204879662265,-0.001411399778394145,-0.001878532797982679,-0.0025359014052044404,-0.003262965636444991,-0.0038218514762454526,-0.003950680059656762,-0.003491526579378831,-0.002482185167525384,-0.0011536476402634744,0.00017311455944532257,0.0012381636216106393,0.0019581300545058627,0.002440374944851922,0.0028864090110389466,0.0034400319019922106,0.0040712983162917065,0.004570033858103861,0.004658269649576066,0.004156541242594439,0.0031024654002437,0.001748211042173028,0.0004396444202184532,-0.0005477819848342775,-0.001121691157506241,-0.00138058318046653,-0.0015300063573637696,-0.0017654636485290435,-0.0021823393931762855,-0.0027441143174673074,-0.003307239149377932,-0.003682284437008259,-0.003707077925773281,-0.0033099043691099967,-0.002543507309618856,-0.0015750951153878,-0.0006290410927752112,0.00010109813159325169,0.0005340478798200749,0.0007325779803609,0.0008625066430679191,0.0010961829225456304,0.0015129904175097447,0.002053298953196994,0.0025503645423914155,0.002819175932158152,0.0027517360798811775,0.0023692335750013184,0.001807255955349388,0.001244634583801905,0.0008137530706498064,0.0005385649277038354,0.00033166330292974547,5.0213185616300584e-05,-0.0004203323327285692,-0.0010982167077299534,-0.0018848323171011463,-0.0025974313357241385,-0.0030370279238053875,-0.003062355715269447,-0.0026425629815129375,-0.001870433659928776,-0.0009305876141687483,-3.281701714725875e-05,0.0006633175615190416,0.0010988506986135528,0.0013164680137960033,0.001413535462357791,0.001475647625363404,0.0015300391112881375,0.001544436052476943,0.0014670319448567375,0.0012767289998053904,0.0010072070532881699,0.0007276336278483355,0.000493823465072597,0.00030483110388110536,9.66136923695668e-05,-0.0002203977221959459,-0.0007012545061723845,-0.0013186232124921902,-0.0019538401986445857,-0.0024325363889088304,-0.0025895256982427805,-0.0023360031062979233,-0.0017015491840164472,-0.0008319813466145088,6.0024414208966165e-05,0.0007742806631219066,0.0011983935628973224,0.0013431379661406082,0.0013201732200661099,0.0012743291456405758,0.0013067093277433404,0.001428224130517215,0.0015645276306892955,0.0016047738650688103,0.001464621659301779,0.0011292492863729593,0.0006554050707234513,0.00013492512682112927,-0.0003563260585911316,-0.0007920408088370384,-0.001190562321511778,-0.0015757947964620896,-0.0019325562970922575,-0.0021908966864099483,-0.0022550816682892537,-0.002061289892675138,-0.0016260752407171392,-0.001051462455844492,-0.00047990632123677177,-2.456003492541458e-05,0.00028408405002015977,0.0005044825413029115,0.0007409697862427696,0.0010771833233612499,0.0015233923570310342,0.0020049439994184824,0.002394931987537083,0.002571215051811338,0.0024684838205402556,0.002102673665021673,0.001560613163383892,0.0009626213762225655,0.00041418023721668574,-3.503109573571383e-05,-0.00040833450791546755,-0.0007852255474286756,-0.001252873599465037,-0.0018456749725149534,-0.0025049662071293267,-0.003086035669658857,-0.0034148821672041066,-0.0033668395866665,-0.0029244732634392725,-0.002183831616069756,-0.0013078144078092842,-0.0004535689811832063,0.0002879994439921662,0.0009114987734676626,0.0014684694192086776,0.002009511662026972,0.0025318211542676924,0.002964256469282085,0.0031998769917742287,0.003156388758480186,0.0028271956317516512,0.002291650027674701,0.0016784580551805674,0.001104163905948465,0.0006216268465344719,0.00020485506645913945,-0.00022560019812914347,-0.0007530916185416777,-0.0014157921720873302,-0.002178108803749638,-0.002931733719143957,-0.0035245448138750187,-0.003807138853736081,-0.0036815379883686043,-0.003135686142887981,-0.0022516446904974224,-0.0011838752199728535,-0.00011407577798044396,0.0008021167660840929,0.0014768181824668877,0.0019035877918047008,0.0021384936915705708,0.0022592136763787255,0.0023230564839053823,0.002343834754094884,0.002296302026760935,0.00214216144587924,0.0018612820339055668,0.0014704499857644308,0.0010196872839776164,0.0005685739673967807,0.00015590342975237105,-0.0002198245486428155,-0.0005964373214930022,-0.0010203562080489778,-0.001508787274499015,-0.0020230811525920205,-0.002470276649702518,-0.0027353955299247125,-0.002730186328962505,-0.00243393550707998,-0.0019045376385087745,-0.0012529760207016702,-0.0005944000030978911,-2.38588110163104e-06,0.0005091818679409334,0.0009690150489546248,0.0014093322509804488,0.0018296876195225604,0.002184821675694187,0.00240228775614677,0.0024188667842803078,0.0022155453974170764,0.0018323594327092723,0.0013546663435236596,0.0008763477527822599,0.0004570584548310439,9.489870791325498e-05,-0.00026961213691672396,-0.0007163504593166611,-0.0012903390432332917,-0.0019555021069869445,-0.0025840327512982376,-0.002993376016118716,-0.003019617235593304,-0.0025952131384390587,-0.0017922619314229896,-0.000806008307667148,0.00011781221676571369,0.0007790876400345441,0.0010978692253161304,0.0011338212909048693,0.001044766495393291,0.0010064404587732116,0.0011308139707536997,0.0014187512162289915,0.0017668081218750547,0.0020234648902658237,0.002066322875715598,0.0018606845925233462,0.0014694665066408272,0.0010109437510039687,0.0005894653296890796,0.0002385048047629791,-9.216676584878151e-05,-0.0004977783213441294,-0.0010490855302432078,-0.0017306662716369554,-0.0024234124162044093,-0.002945256573771979,-0.0031320602712524726,-0.0029164230670277887,-0.0023611054973867417,-0.0016282057949536573,-0.0009015510362963841,-0.0003058638891695023,0.00013393670589334386,0.00047564353530584976,0.0008016866854868308,0.0011589411349695353,0.0015324515224541503,0.0018643525588172823,0.0020988268483700867,0.0022179122942748066,0.002242460489851229,0.0022008318121625316,0.0020936022385786065,0.0018853331107692977,0.0015319243340135773,0.0010225265994123712,0.0004023312700016349,-0.00024348378217754773,-0.0008351477213113317,-0.0013409375883703877,-0.0017848587415052208,-0.0022099670533874713,-0.0026198608115502045,-0.0029410885104874515,-0.0030410452504878466,-0.0027999117120293716,-0.0021941961187869857,-0.0013349099656329508,-0.00042949172659607784,0.00031391926019391396,0.0007838193975532048,0.0010080786814881792,0.0011203295646954705,0.0012728594457103457,0.0015467638805397661,0.0019079035427318192,0.002229228139363275,0.002363350282297018,0.002223773588351415,0.001831359158645446,0.0013034656172253652,0.0007939129701463955,0.00041600711142015764,0.00018733494510373469,2.3042027567714686e-05,-0.00021868759114928438,-0.0006588553457106876,-0.0013229536082653502,-0.0021061971064797805,-0.002800528453397323,-0.003177048450669789,-0.0030876384577815377,-0.0025349290966860715,-0.0016725270882332523,-0.0007338375620102175,7.246883735414789e-05,0.0006440199476943313,0.0010022759727748422,0.001244327106761576,0.0014653764895842095,0.00170085537096765,0.001917622318631735,0.002048407759386212,0.00203861660287542,0.0018748807898362543,0.0015842812550690818,0.0012135239217600602,0.0008049952768898462,0.0003816702454117276,-5.576255174800103e-05,-0.0005212165395458698,-0.0010277045044138513,-0.0015675471995358933,-0.0020948031457624643,-0.002520357878105244,-0.0027302053113943308,-0.0026285685146755482,-0.002190426293005591,-0.0014934323882669581,-0.0007019346581332462,-8.055478046530831e-07,0.0004896025559905919,0.0007683831049131848,0.0009436472446153959,0.001159688461663852,0.0015028945531075078,0.0019416746621802971,0.0023368343983237215,0.002517689472898298,0.002379889800116951,0.0019474589911110257,0.001362587303763555,0.0008092690762384523,0.000414922635011487,0.00018544474870445281,8.545470343390314e-06,-0.00027840362874374043,-0.000793277545303169,-0.0015353873291517994,-0.002368437461254628,-0.0030684792568656883,-0.0034163967592364215,-0.0032941291651645147,-0.0027392140745637807,-0.0019282633285318607,-0.0010938062729559904,-0.0004152939323224666,5.790714136082791e-05,0.00040931927587230265,0.000783274067992782,0.0012807389046085623,0.001884964842398052,0.002461148651772977,0.002829339381132027,0.0028652237868004703,0.0025679591987347716,0.0020573999459799377,0.0015076879745901113,0.0010596994169263288,0.0007604139281490089,0.0005549618564431613,0.00032606860644581956,-4.46214897895698e-05,-0.0006210701356094619,-0.001380861854329857,-0.0022124857968058883,-0.0029404460900824296,-0.0033733216711371904,-0.0033653943607697846,-0.00287461908406443,-0.0019929005885914184,-0.0009276915081255391,6.787743751708489e-05,0.0007915996630858043,0.0011703650168316398,0.0012779667847466751,0.0012805571112597125,0.0013385636339276342,0.0015197190177977877,0.0017709626632432857,0.0019609671423263097,0.0019630699665961647,0.001727100238160171,0.0012999649206391125,0.0007892617265809896,0.00029838123079712996,-0.00012531148094598494,-0.0005010844621849824,-0.0008842908202313573,-0.001318034183152642,-0.0017956226977530912,-0.002250761977338074,-0.0025760014279836503,-0.0026595445069518098,-0.002427468446492388,-0.00187772614050439,-0.0010921239838933457,-0.00021680850184693107,0.0005860205459530586,0.0011967166284623932,0.0015797488933955595,0.0017867052446459007,0.0019182147752230692,0.0020637479313059,0.0022498074146284587,0.0024226488171468583,0.0024746073505509765,0.00230208811480259,0.001866948871683026,0.001227755159045034,0.0005177932626162438,-0.00012672269200764467,-0.0006515509214633535,-0.0011263744874215088,-0.0017026214012490143,-0.0024959327827385187,-0.0034594798900923355,-0.004337388925683763,-0.0047508847998713605,-0.0043880677115117625,-0.0031925916860719803,-0.0014325080440617767,0.0004034705558645862,0.0018284260717892757,0.002570689568722583,0.0026610302625585665,0.0023602552901775143,0.0019892881608399534,0.0017680494365924452,0.001743702368337637,0.0018228022897415655,0.0018637233294619398,0.0017662511360913762,0.0015138640305551298,0.0011599178066170166,0.0007792270474593,0.0004188820005381568,7.549600860981789e-05,-0.00029231420746563295,-0.0007268242195079797,-0.0012315868321976773,-0.0017513378383819818,-0.002183387746615189,-0.002417203602808791,-0.0023844657217963914,-0.0020945090586678094,-0.0016345631833662095,-0.001130934791509039,-0.0006892804511774624,-0.0003466374967966404,-6.369117221295142e-05,0.00023752683418926124,0.0006138876420110326,0.0010569178176511706,0.0014910576227901672,0.0018137699025256983,0.0019512173908758385,0.001895454040710077,0.0017020504255298124,0.0014516378924589164,0.0012003824057829292,0.0009502167869110394,0.0006561602469829834,0.0002641293772449375,-0.00024554120372984484,-0.0008345519257743281,-0.0014139578410426114,-0.0018749689344554044,-0.00212612763058962,-0.002121610624146566,-0.0018731180992712041,-0.0014444545162988624,-0.0009315339492582354,-0.0004334665428933419,-2.378387938981387e-05,0.00026784373974169767,0.00045674407302541983,0.0005879328414421192,0.0007114669085666696,0.0008581772103531873,0.0010249143029345156,0.0011755937770110496,0.0012586306007043623,0.0012335029104909004,0.0010933330217287813,0.0008710127996958716,0.0006239892638412787,0.0004036587993898212,0.00022446299058617096,5.092042424996099e-05,-0.00018512544009877043,-0.0005398727589760234,-0.001006923950313168,-0.00149263738365153,-0.0018412617844743243,-0.0019061000126370854,-0.0016308529813870505,-0.001091550736537271,-0.00046803261484059267,4.383434627189243e-05,0.0003298502279564052,0.00040832673174340543,0.0004059009890997916,0.00047520281362633014,0.0007037272874605915,0.0010646992118227639,0.0014335230980753368,0.0016561909138954846,0.0016301501806497724,0.001355432600296599,0.0009320751742874121,0.0005071956640908538,0.00019857306692104614,3.261114567433402e-05,-7.084139478974656e-05,-0.0002555602197592137,-0.0006461359543485822,-0.001266776013667005,-0.0020059264737827655,-0.002649172765540136,-0.0029673043785291985,-0.0028166112884160524,-0.002201530148674873,-0.0012700718169738818,-0.0002483316044044297,0.0006495429575759404,0.0012923807173733676,0.001657208247363757,0.0018081512730493486,0.0018476962093196307,0.0018645285336635607,0.0018977715507440397,0.001928726445374924,0.001900555835421018,0.001755299791087123,0.0014700150733790785,0.0010739804654746946,0.0006374930700816144,0.00023623112779588764,-9.185776334255126e-05,-0.0003732870004347547,-0.0006899010632497884,-0.0011315324711321329,-0.0017312892747973797,-0.0024196390816543854,-0.003028584665430944,-0.00335188587422518,-0.0032354196566875236,-0.002652698620762455,-0.0017260942899389256,-0.0006815703478358275,0.00024142189009954135,0.0008813685312077703,0.0012056472979699575,0.0013020970014007624,0.001321464492600392,0.0014003599961148693,0.0015978247122286123,0.0018703495841601958,0.0020957357276340325,0.002137486576459694,0.001921434453238688,0.0014845699127464178,0.0009644313129489255,0.0005279246079141608,0.00027591030262123545,0.00017957728815159264,9.05090270532003e-05,-0.00017539773316030622,-0.0007242682807360221,-0.0015046267970887247,-0.002308864020618373,-0.0028593636187924246,-0.0029369166995915777,-0.0024855914277127807,-0.001639976840195264,-0.0006617060674892619,0.000179939399842772,0.0007205525776605405,0.0009507331215602131,0.0009854039062849671,0.0009783548759879595,0.0010342641699799054,0.0011648368012737488,0.00130462742164253,0.0013667448841078206,0.0013001310713463133,0.0011162978105427738,0.0008762175879140826,0.000651333531584934,0.00048336464427337436,0.0003630271941588001,0.0002346889763370373,2.1550263848855587e-05,-0.00034051498401673006,-0.0008728041541385516,-0.0015365644388617057,-0.0022334155680454014,-0.0028237005817827263,-0.0031596986666206756,-0.0031277596032494356,-0.002689352391977315,-0.0019062134337874703,-0.0009337339194592341,2.501384089620938e-05,0.0007940970049156745,0.00129790599055588,0.0015938422508186094,0.0018389027129449313,0.0021974184097325947,0.0027337025762209366,0.0033506906315754386,0.0038178938048242916,0.003883344113827257,0.003411512643661539,0.0024674299926049272,0.0012949550036424396,0.00019981401075233433,-0.0005949767874075533,-0.0010405300734176166,-0.001256769797146113,-0.0014452412399891556,-0.0017752518239785159,-0.0023015162390693164,-0.0029455601712410676,-0.003539097363701541,-0.0039015213034652094,-0.003912924650553803,-0.003550824364974769,-0.002880085577076628,-0.0020106928718410704,-0.001052062299283333,-8.743281618907349e-05,0.0008263832621221919,0.0016453077678726885,0.0023263230201321723,0.002826693172977899,0.003112673931729984,0.003170775468119502,0.003015457027964826,0.0026904789062676534,0.002263291921882187,0.001812552894137464,0.0014098610998920424,0.0010989942385535956,0.0008785293040086759,0.0006953427401384812,0.0004558108928813346,5.7409489583117826e-05,-0.000564811980288029,-0.0013929244170901279,-0.0023050504157981684,-0.0030977202564570153,-0.003553118208349273,-0.003527558657214949,-0.0030194209635119314,-0.00217786000962772,-0.0012412947641214415,-0.00043385390205121367,0.00012567811567122005,0.0004538198062425589,0.000659564168744493,0.0008610064731655583,0.0011148235087033735,0.0013972133844587155,0.0016373266644456957,0.0017718606007885835,0.0017829687891138578,0.001700188603851619,0.0015730645518942802,0.001436413977684955,0.0012888848328688393,0.0010937994018180284,0.0007987138747852945,0.00036267904611592805,-0.0002203155250448743,-0.0009085342812107239,-0.0016121325938922093,-0.0022059829766011676,-0.002557561433668883,-0.00256844535819712,-0.0022175666348140835,-0.001584165360821056,-0.0008302676978797809,-0.00014108806229873338,0.00035200946572109875,0.0006251615325031033,0.0007591991347902024,0.000878206054693442,0.0010639141504822833,0.0012986796222887067,0.001474924637386463,0.0014673760495632568,0.0012221391146389827,0.000802917074292326,0.00036112040535864046,4.680794121247954e-05,-8.281978286432397e-05,-9.883560100351716e-05,-0.00015804449603617327,-0.0004093029979093189,-0.0009036202717316664,-0.0015560118495670876,-0.0021754166343624435,-0.0025444241027697307,-0.002509751350102975,-0.0020431174674229043,-0.001247779516020469,-0.0003106395942007814,0.000576763251275697,0.0012918834937467112,0.0018152186331073837,0.0022087387361784602,0.002550718273363019,0.002864148143091147,0.003082907950852063,0.003080388120001978,0.0027467786918564945,0.002067258681264053,0.0011494046927248106,0.00018074379971340918,-0.0006558748668894207,-0.0012558147113525913,-0.001615354494940492,-0.0018022614978072291,-0.0019047165635543394,-0.0019931975691968055,-0.002109988339192034,-0.00227668065275817,-0.0024992739043695335,-0.002758219739828337,-0.0029891562627782082,-0.0030750516422499855,-0.002870196704407355,-0.0022586394645087346,-0.0012238933757450425,0.0001099229855325407,0.0014985697110571445,0.002661509612751061,0.0033917372279569993,0.003634114216609442,0.0034902800845175138,0.0031510441108888827,0.002798254495882165,0.00253036966825829,0.0023442971497422437,0.0021689738878683906,0.001919341574084953,0.001537004971217577,0.001001830334379207,0.00032158801000172274,-0.00048062064670604415,-0.0013654720786433127,-0.002263536116195396,-0.003064633583836276,-0.003629712688635001,-0.003831303022619473,-0.003607441876466517,-0.0029996547292460707,-0.002149234094789473,-0.0012472554926646275,-0.00046025124143832404,0.00013106194133555673,0.0005480723629751522,0.0008777214570797867,0.0012048575485744252,0.001553435705126734,0.0018714748183301588,0.0020677345418041583,0.002075169121798429,0.0018988978726073042,0.0016166830903719181,0.0013309861966784731,0.0011028711029694629,0.0009093561680911146,0.0006513785616783204,0.00021013571473848914,-0.0004765654927158531,-0.0013564943942836693,-0.0022547335078798485,-0.0029256105409094773,-0.003148586586252675,-0.0028274400587196694,-0.0020433247094532917,-0.0010295160545069732,-7.452212976346651e-05,0.0006004160623423034,0.0009279555489195347,0.001002527890410808,0.0010087169670887823,0.0011113520319175913,0.0013671995972861868,0.0017036280577555113,0.0019708105061811256,0.0020333554143458134,0.0018472829297521854,0.0014790692343867357,0.0010581444871397012,0.0006932335633542796,0.00040427082429069427,0.00011250511996679799,-0.00030369297719115546,-0.0009201269683827912,-0.0016983611067018158,-0.0024786985095617475,-0.003040100360791236,-0.0031963795247924556,-0.002880620637437991,-0.002176987619110834,-0.0012847961932237252,-0.0004321419185945193,0.00021872279960809433,0.0006276824522017964,0.0008686041580182114,0.0010657982158743169,0.0013136966791368688,0.0016247728598642957,0.0019310447661909842,0.002131704608931273,0.002153707687221081,0.0019883389089839615,0.0016853120292389607,0.0013133773745413724,0.00091511203835055,0.0004838090199914437,-2.4694894687972625e-05,-0.00065187019001628,-0.0013888495881890068,-0.002147037388695554,-0.0027674651587535513,-0.0030736115948326844,-0.0029492517826045467,-0.002403187354165951,-0.001581457934309874,-0.0007118130630075876,-3.8376179965710425e-06,0.00044318965495161153,0.0006740582981157576,0.0008344805077748116,0.0010758802300972986,0.0014617805432683762,0.0019276147287307197,0.0023151636286731637,0.0024609949317567683,0.002288483072382422,0.0018515411923727468,0.0013056076012608565,0.0008221176258903372,0.0004939580974192726,0.00028448976381464605,4.9662670278608265e-05,-0.0003760025091757945,-0.001073636133696224,-0.0019715890079940995,-0.0028545831962237837,-0.0034505433968877756,-0.0035525510531310782,-0.003112715084187056,-0.002259482727872247,-0.0012323298013512014,-0.00027259442084977335,0.0004703905057769535,0.0009733740935099092,0.0013067172087179604,0.0015646336855969186,0.0018016825867663438,0.002007683654380068,0.0021269993485163933,0.0021033015214946224,0.0019200274103016997,0.0016131942403200428,0.0012512376193630588,0.0008952801137619013,0.0005632934935658163,0.00021921597078414126,-0.00020452809650279593,-0.0007596216949060876,-0.0014324801793886186,-0.0021210195983945657,-0.002656828216660447,-0.002869805498673222,-0.002666504398943961,-0.002080080081494115,-0.0012610507122097722,-0.0004108687067952951,0.0003052108656365058,0.0008170481366472831,0.0011505482734827516,0.0013783869272306804,0.0015580356248216666,0.0016971285059736345,0.0017626137850059206,0.0017189152608507252,0.0015630431317361507,0.0013314166987765863,0.0010768366146861016,0.0008356443694136094,0.0006087916046648182,0.00036621952001702975,6.623039688425483e-05,-0.0003245110335473447,-0.0008173355143329271,-0.0013919922246702651,-0.0019890385175407744,-0.002510482461055229,-0.0028390779143053118,-0.0028771667890508863,-0.00258849810397419,-0.0020176664844555265,-0.001272610178159541,-0.0004792928694658284,0.00026443444989760194,0.0009104548071911312,0.0014507896623744397,0.0018906440227017883,0.0022259889440308235,0.0024396238570484822,0.0025138130165615557,0.0024460722458765913,0.002254803679691765,0.001971090894649492,0.0016232430799814528,0.0012240576100792113,0.0007671312000401371,0.0002334373771822296,-0.0003932860250269706,-0.001105595585573566,-0.0018530487408183922,-0.0025362440961421116,-0.0030248058981370216,-0.0031994585471566343,-0.003002732250886479,-0.002472614056827507,-0.001737411382102345,-0.00096836218328426,-0.00030987161871075383,0.00017779466639925067,0.0005321324337077956,0.0008496453227205894,0.0012161279881959927,0.0016469300395383914,0.002073091200334485,0.002380445188785743,0.002474232150760712,0.002325754741038629,0.001972459295696968,0.0014777270041480162,0.0008853707649885283,0.00020540421789952336,-0.000557906162231314,-0.0013580675548328233,-0.002078493255771304,-0.002554626509503239,-0.0026437822353643846,-0.0023058133465653123,-0.0016432347590714619,-0.0008678112625125406,-0.00020431669171075986,0.0002158919343175947,0.00040860087009257233,0.0005059813800251124,0.0006620128580945904,0.0009531901703200545,0.0013333631571013369,0.0016651430754645587,0.0018032811536009244,0.001677322810854875,0.0013262889472818572,0.0008700062505560887,0.0004386128026387219,0.00010266018411037871,-0.00015794141114875348,-0.0004315158904677996,-0.0008127133124118349,-0.0013344365360642924,-0.0019296676183214335,-0.002445275383428645,-0.002704515663209401,-0.0025885528210034957,-0.002094190843433506,-0.0013357105422621208,-0.0004898656304514608,0.00028389488504289284,0.0009024973434693988,0.0013671099623452294,0.0017227312918040732,0.002002216394756227,0.0021939528814184698,0.0022521489513608623,0.0021373990146569383,0.001855644500770213,0.0014679198186540706,0.0010648800379051701,0.0007220689361601812,0.00046122316590285675,0.00023800411951795672,-3.650147259128748e-05,-0.0004479829924915282,-0.0010248802207105856,-0.0017045393080611286,-0.0023408526748470416,-0.0027563927760979635,-0.0028177116898479883,-0.002496362723266473,-0.0018822350221620078,-0.0011403122905392607,-0.00043394867727801386,0.00014233878921823362,0.0005836427248382173,0.0009416990420312275,0.0012647687441339215,0.0015521293538122921,0.0017518542736961935,0.0017996743042239173,0.001669484275911048,0.0013995113551633093,0.0010751605418876792,0.0007787567555811182,0.0005392172190596966,0.00031596966044740134,2.9731970034394244e-05,-0.0003775934655341768,-0.0008907019051685597,-0.001409446692188357,-0.0017879540580645194,-0.0019044868058090076,-0.0017228027445344825,-0.0013088397918881614,-0.0007928104758415982,-0.0003009516980127726,0.00010009489824757962,0.00041388935397923066,0.0006797079092284691,0.0009232287722897901,0.0011294714396028489,0.0012547390123225897,0.001263313892401017,0.001157029046859807,0.0009745420150497409,0.0007635575672411961,0.000550423048367526,0.00033034348224472303,8.178542178191887e-05,-0.00020990065878655407,-0.0005369038577560068,-0.0008675321881183422,-0.0011544109071665268,-0.0013463927105141276,-0.001402473179172783,-0.0013068152926596125,-0.0010789633375371285,-0.0007697744767209837,-0.0004397449437526914,-0.00013033340117448453,0.00015186325256172676,0.00042481192310563586,0.0007013722957364496,0.0009643476915458912,0.0011687150680250794,0.0012718836110848682,0.0012682378094205043,0.0011976966132538345,0.0011164852590712499,0.0010483263145689026,0.0009526029446035266,0.0007377281298252064,0.0003174892052822438,-0.0003234495155370049,-0.001098541804405826,-0.0018461692354653143,-0.0024000210701660024,-0.0026601083305270645,-0.002621856513139876,-0.0023492901763806752,-0.0019148331866341351,-0.0013489811446746054,-0.0006359191326987682,0.0002396727760357764,0.0012263085141704527,0.0021712557986334436,0.002855136047158113,0.0030884736167016156,0.0028163207690595615,0.0021626193400073094,0.0013790828820287385,0.0007244695496147948,0.00034605825677022894,0.00023179755594109172,0.00025198877509686774,0.0002516701036156194,0.00013053894875557457,-0.00013139796072519612,-0.0004994915152478903,-0.0009256846145586405,-0.0013697177327468282,-0.001791449922295474,-0.002133707177774208,-0.0023222461583086553,-0.0022920207793701002,-0.002023284863859378,-0.0015591478168131927,-0.0009881025838327086,-0.00040117901262351236,0.0001474303798001612,0.0006504042031763596,0.0011242922500147967,0.001573380772892631,0.0019679490075308116,0.0022520676620513998,0.002373967736706205,0.0023157939525438325,0.002099981088913319,0.0017665091496139292,0.001337997585016193,0.0008017638127086429,0.00012848690742114764,-0.00068006593856889,-0.0015476593590517441,-0.002321602754847483,-0.0028245922908477572,-0.002935254623151946,-0.0026487287413674765,-0.0020782485523011887,-0.001396803372895477,-0.0007570945195185677,-0.00023865023484128398,0.00015366660618240159,0.0004537613150021238,0.0006963005479615224,0.0009026121279636407,0.0010891644955190983,0.0012771092014899402,0.0014843862282700928,0.0017029550199846736,0.0018827897324332505,0.0019439657411602917,0.0018175768823183239,0.0014913740720170219,0.0010272883803657997,0.0005339123357691233,0.00010702299952891994,-0.0002258915208470399,-0.0005209160731024536,-0.0008790187147574952,-0.0013715832679373013,-0.0019724296639561196,-0.0025405419852770365,-0.002872952329406299,-0.0028057706551937673,-0.0023070375763227335,-0.0015032724654139179,-0.0006192971138368415,0.00013412041745738772,0.0006564299127492423,0.0009809140471470717,0.0012183435406063745,0.001464314362523369,0.0017329311213013818,0.0019561236970757384,0.002040499291998666,0.0019357028120780783,0.0016650677949072569,0.0013005077912391478,0.000904691531994208,0.0004854176895658903,-3.345144952714629e-06,-0.0006125270194421416,-0.0013331326013349548,-0.0020601324675637526,-0.0026143712337856704,-0.002817285085164891,-0.0025794835026370904,-0.001952243478091334,-0.0011100733001076575,-0.00027254318668079895,0.00039075738266216827,0.0008203610005561203,0.0010643569851552038,0.0012236515671806085,0.0013831097365589197,0.0015679860572814452,0.0017431713636004592,0.0018449675836569473,0.0018200170464622366,0.0016501805978785134,0.0013567575269140986,0.0009885371981549398,0.0006003050672212498,0.00022752312357485855,-0.00013393531956734683,-0.000529354752152669,-0.0010179200858666903,-0.0016228551813314068,-0.0022853965076087062,-0.0028563630370889302,-0.003143168750510082,-0.002997117572909252,-0.0023963685055313827,-0.0014756492492261713,-0.0004805041211132034,0.00033438895251259915,0.0008126624787058534,0.0009567403184887245,0.0009128060196402428,0.0008885226885189108,0.0010440500862370782,0.0014102674791874365,0.0018751948572488671,0.0022448164031076247,0.002345017753854916,0.0021095724554522793,0.0016086724544079768,0.001007421044957588,0.00048156637942796876,0.0001361462192507796,-3.525716927577907e-05,-0.00013727987507850458,-0.00031679207430746793,-0.000689748343876758,-0.0012794702323647297,-0.0019905593799751514,-0.0026325289412780506,-0.0029896511336033288,-0.002910615730092943,-0.0023757327869000566,-0.0015059227456577667,-0.0005083057922266303,0.00041073954190376614,0.0011177673972508715,0.0015762922611058093,0.0018216280839753163,0.001913241400600193,0.0018976663743010883,0.00179963706483873,0.0016353047817922956,0.0014262839445410352,0.0011968409253341496,0.0009549891772624138,0.0006759551833736686,0.0003081278449901764,-0.00019457461278829416,-0.0008307729683342326,-0.0015262309436009664,-0.002143108690971062,-0.0025237373307002535,-0.002551508814762615,-0.0022024402700942677,-0.00156270487360624,-0.0008002328073259747,-9.945995740698853e-05,0.0004115693672845146,0.0007056224801900266,0.0008492106882094843,0.0009487624349139019,0.001081522111776908,0.0012517435181955182,0.0013970520504061892,0.0014379662400306507,0.0013359555200247969,0.0011207972746697051,0.00086943212760388,0.0006510614066176199,0.0004754618421927072,0.00028028592529021903,-2.9991825574850444e-05,-0.0005129222927897461,-0.001127609597402338,-0.0017272726743559248,-0.0021185665788908533,-0.002158873152733473,-0.0018341949326312317,-0.001268075715109345,-0.0006539582247353604,-0.0001519689014894989,0.00018682574552314344,0.0004246414234194138,0.000672141913642438,0.0009998732640799741,0.0013830602420381627,0.001711893128237457,0.0018566473936745941,0.0017450617970536564,0.0014061880217626297,0.0009576838208718937,0.0005454446678643731,0.0002681044450855766,0.0001250994863733305,1.5595616692529158e-05,-0.0002078380085865345,-0.000653685007890229,-0.00131585113980146,-0.00204987860584838,-0.002620522181949655,-0.002803884992860296,-0.002495690246306921,-0.001769033795829561,-0.0008477287336651114,-5.324622691377863e-06,0.0005588571464557521,0.0008014884701575539,0.0008327966463178029,0.0008354117593614321,0.0009537319474984139,0.0012168103739956483,0.0015340109943592845,0.0017576731430530394,0.001769821732502258,0.0015422980244434643,0.0011418986362623294,0.0006859185342635125,0.0002779829445703089,-4.045845959515067e-05,-0.0002987708227134269,-0.0005626791237248773,-0.0008766245157088143,-0.0012178037681371686,-0.0014928076098295743,-0.0015832924627486142,-0.0014154981078957753,-0.0010105420769272403,-0.0004815632462791373,2.4052951116488187e-05,0.00040323489779954384,0.0006461237209023503,0.0008212368809369298,0.0010045675338051533,0.0012010664609162132,0.0013173749902747893,0.001213906688949289,0.0008099983416193694,0.00017326223798031155,-0.0004759836436501485,-0.0008662052824692163,-0.0008319459086638756,-0.00042905036179048347,7.535531851489028e-05,0.000344729998782587,0.00016399738793481462,-0.0004401132414088259,-0.0012229491722897106,-0.0018678113636986843,-0.002155495683372954,-0.0020544476753830377,-0.001690902276650058,-0.0012375934152411435,-0.0008020398405354737,-0.000381367881960977,0.00010044961188208836,0.0007084190881221226,0.0014240929305425044,0.002130821680550843,0.002665118402335542,0.00290194920926743,0.0028204627161615603,0.0025076401563904707,0.002095999279819697,0.0016751754287504452,0.0012367896906494004,0.0006917959835787452,-4.880180949130516e-05,-0.000982516112092234,-0.001974647962832291,-0.0027981334351131733,-0.00323334499797,-0.0031703945858729795,-0.0026560096100898003,-0.0018619780469890702,-0.0009989643268531242,-0.00022814508131737028,0.00038250044410118316,0.0008429699019359043,0.0011892863471070943,0.0014352250261494047,0.0015594216092027482,0.001531728892812365,0.001354295756904286,0.0010824040069515642,0.0008046896022991619,0.0005922365133369314,0.00045011224012751023,0.0003055625728060388,4.380645878566741e-05,-0.00042752643074559253,-0.0011200538255486314,-0.0019408956048689544,-0.0027120611429172553,-0.00322231152662448,-0.0032915615729633965,-0.002828336976310744,-0.0018652352937180304,-0.0005613909571987245,0.0008339805073854997,0.002052116567964513,0.0028880015368532653,0.003262479947844484,0.0032335617717304884,0.0029512820945660338,0.0025800173555992427,0.002227091716181832,0.0019084634438210303,0.0015601208194867444,0.0010830671865480683,0.0004000617578298004,-0.0004962651120759778,-0.0015175557322614243,-0.0024839996874629197,-0.003162970912049541,-0.003339482425063732,-0.002901606694186734,-0.0019079135528331098,-0.0006002603181495085,0.0006568709758027324,0.0014959513668220603,0.0016793717382914733,0.0011890765856776278,0.00023203547062152418,-0.0008424092029436848,-0.0016767525859050214,-0.002031252398849661,-0.0018486559984826258,-0.0012382585090038867,-0.00040079526739611286,0.00045874823795138226,0.001186416062820046,0.0016865811110507913,0.001899349620514096,0.0017838811523925393,0.0013322081753128828,0.0006056543476168352,-0.0002425641132340923,-0.0009942967653818104,-0.0014449051855096053,-0.0014920509803784297,-0.0011764496105422344,-0.0006428562438843453,-4.409251341026008e-05,0.0005467612115045682,0.001154351963364349,0.0018364938919342043,0.0025838964969207793,0.0032586118718764597,0.003622146334909211,0.0034455593119957118,0.002638285684803143,0.0013158062950534015,-0.0002388381763880204,-0.0016983657599824484,-0.0028239915341418476,-0.003529661301446364,-0.0038519664801063367,-0.0038667961567498137,-0.0036238843253056084,-0.0031438585508049765,-0.00246565486317633,-0.0016919442650268671,-0.00098402830872191,-0.0004970357916433885,-0.00029094893231670563,-0.00027506983881989567,-0.00023073678625487788,8.512677153259978e-05,0.0008035025928976046,0.001850409183886249,0.002958392785741763,0.0037853315009353156,0.004077495348640124,0.003784548935501791,0.0030636642771958112,0.002177887289007886,0.001354039530664358,0.000681626430349341,0.00010326816921048623,-0.0005070499177378768,-0.001228674248823682,-0.0020109283213396137,-0.00267234900306313,-0.002986297570045225,-0.002805414274319093,-0.0021522111111526476,-0.0012216624443397639,-0.0002937286313313256,0.0003936118542424371,0.0007401358854044155,0.0008004856325642751,0.00072406851235141,0.0006613388510372067,0.0006908990458299601,0.0008001296495520865,0.0009166810120998283,0.0009619160282582071,0.0008922106887263634,0.0007077454440663686,0.00043064454804518214,7.309940819031527e-05,-0.0003781150573522828,-0.0009453011213251787,-0.0016183901381255081,-0.0023149273578563687,-0.002872572869341974,-0.0030905190484027305,-0.0028093135815496955,-0.0019935579753730423,-0.0007735666296345069,0.000582377034467971,0.0017601046485924638,0.0025170134371484444,0.0027702493811818385,0.002613053252343314,0.0022518369818517094,0.0018975248121243947,0.0016688326396437942,0.0015568640169314543,0.0014630735593788632,0.001279243806423064,0.0009564934966203272,0.0005236756197567107,5.305507458364209e-05,-0.00039406444585309485,-0.0008006687510001367,-0.0011861974498241054,-0.0015692795447380668,-0.0019317699188254266,-0.0022104662644768587,-0.002322347246821663,-0.002207720552974067,-0.0018656053972269753,-0.0013612368537875956,-0.0008022786371318054,-0.0002972930217000335,8.30478825531858e-05,0.00032636334784635776,0.0004747956982267398,0.0005996815746244601,0.0007638515664127104,0.000987049235062969,0.001232674618513777,0.0014267045492748426,0.0015014623282682562,0.001438276309777941,0.0012795546858642213,0.0010990528090149211,0.0009479386340034443,0.0008122615539123824,0.0006112895013747357,0.00024127961635720118,-0.00035710410201877013,-0.0011427896971566895,-0.001960775774538675,-0.0025841084692857282,-0.002798658358481353,-0.002494601547890181,-0.0017205754360668734,-0.0006721224256788258,0.0003812902782209752,0.0011960793600528771,0.0016365018128612586,0.0017072608057241657,0.0015302343308039254,0.0012808937763579696,0.0011114631274187258,0.0010891649234276597,0.0011722259237987782,0.0012346807605552463,0.0011327644487530088,0.0007843762447937903,0.00022040275370112297,-0.00042398652401538426,-0.0009776509539329782,-0.001323891309852962,-0.0014593667849969337,-0.0014854689341438662,-0.0015367537160184495,-0.0016893375099675538,-0.0019048209422756566,-0.0020445609671566434,-0.001946974164516652,-0.0015225241183528596,-0.0008109376390056787,3.092069170309165e-05,0.0008005922342987596,0.001338920098770651,0.0015896693112576897,0.0016048952694246083,0.001502461506585031,0.0014044851338653244,0.0013886187969286902,0.0014699973504708076,0.0016117267879757402,0.0017488211912982043,0.001810624737405172,0.0017362239026328346,0.001486410217915557,0.001056373066877198,0.0004853465862602601,-0.0001486296306793213,-0.0007578342902206411,-0.0012898264021103064,-0.0017599716442193644,-0.002239562065174686,-0.0027917841097068177,-0.003388335760190696,-0.003865666214319041,-0.003965834756854516,-0.003456317994539434,-0.0022688993526940133,-0.000577666231492209,0.0012355350265485553,0.0027199521684264974,0.003534343917912555,0.003578525395533012,0.0030157007855355668,0.0021792169979481767,0.0014151940889637307,0.000941516545459027,0.0007884161050414985,0.0008361621005782276,0.0009122756151466164,0.0008860903182872483,0.0007130525149950353,0.0004195947981813753,5.48596354064926e-05,-0.00035169205821267553,-0.0008003796829375848,-0.0012983947422071833,-0.0018244313010522682,-0.0023069949207728266,-0.002632863725547139,-0.0026852644033511053,-0.0023955627767008403,-0.0017836953484312791,-0.0009652847966910565,-0.0001176631767262665,0.0005832925510799443,0.0010287352722098673,0.0012156400768849939,0.0012406105598228483,0.001249974251949647,0.0013672700943271334,0.0016307182191827232,0.00197060683518309,0.0022396825445073283,0.0022846619143593633,0.0020246608841825646,0.0014950334054094501,0.0008303242692299773,0.00019292498800267948,-0.0003133812099462408,-0.0006943604645019734,-0.001048980488301543,-0.0014933553433532263,-0.002069378723305865,-0.002693978150909878,-0.0031824675197069155,-0.0033354499239034103,-0.003040648367664826,-0.0023329660454963026,-0.0013815132518446797,-0.00041353224206796597,0.00038271223579898977,0.0009271713235207096,0.0012593789775140717,0.001493608619003119,0.0017461298812857058,0.002071973617332833,0.0024388039264090712,0.0027451205583466885,0.0028701392397349587,0.002730926327141874,0.0023213254982495496,0.0017158677476676197,0.001036741724627473,0.0003979603255652689,-0.00014771983587214782,-0.0006321063238547028,-0.0011491874065039413,-0.001792235135948121,-0.0025783203680201914,-0.003400842625027641,-0.004043462485569103,-0.004260673190927111,-0.003892998871055439,-0.0029591380674871765,-0.001671150162846876,-0.00035496734754325967,0.0006897046907682453,0.0013184353204085497,0.001590329530314707,0.001709839754611682,0.0018975946023150987,0.0022656314809080457,0.002765508842261317,0.003229753217962071,0.0034713408495998044,0.0033786571161851372,0.0029575693988396555,0.0023111655167455183,0.0015815668989733794,0.000888059592003699,0.000284797822589748,-0.00025382322308939204,-0.0008193748669864666,-0.0015279411278172224,-0.0024567988226328425,-0.0035777011753685573,-0.004718562094616468,-0.0055857501641177545,-0.005857361076137199,-0.005319021142227598,-0.003979546412067943,-0.002100115725284031,-0.0001083395549498442,0.001569097466165089,0.0026723310358422936,0.003187420035477684,0.0033019956937373864,0.003270783831293154,0.003272118689409549,0.00333397718569367,0.003359550855494292,0.003220882232823086,0.0028536694913282703,0.002296073308392943,0.001657262648374561,0.0010460655426032723,0.0005089883992484698,1.326011805666868e-05,-0.0005213910210330871,-0.0011663025837008792,-0.0019351152678689643,-0.002764119626487093,-0.0035255014120244665,-0.004064937872389731,-0.004250550571904249,-0.004018961667972457,-0.0034030343105391275,-0.0025276591501774944,-0.0015691582971948995,-0.0006897969275895068,2.603129824887561e-05,0.0006027047121981064,0.001150920354590041,0.001795267325688916,0.0025828683348787045,0.0034218702422876375,0.004092480959969767,0.0043388170264639985,0.0040012755436016675,0.0031165500987151403,0.0019223168115144042,0.0007560630025314556,-9.939771021696476e-05,-0.0005396741994106415,-0.0006676358955337777,-0.0007181628424328468,-0.0009238030794469373,-0.0013912370831061296,-0.0020470676838248844,-0.002674712004913687,-0.003020832169833859,-0.002918373676745554,-0.002366959170121882,-0.0015330191678119658,-0.0006717618636490449,-1.1595500472920254e-05,0.00034048925456457225,0.0004262857536332049,0.0003868648239287499,0.00036884029365966,0.00044342861259043893,0.0005859545727394397,0.0007231910612499413,0.0008091012971796604,0.0008695334592288661,0.0009807792207948984,0.0011991859125934608,0.0014978258789081185,0.0017597070262811325,0.0018320942510717017,0.0016026082577233727,0.0010495046942117455,0.0002455931716268886,-0.0006716843768484822,-0.0015393612963135346,-0.00220303138331498,-0.0025462039302740465,-0.0025174036688412945,-0.0021482158577549836,-0.0015484981598828265,-0.0008715307697845622,-0.00025966520859178107,0.00020399175214353294,0.0005136608955236147,0.0007225952341841653,0.0009032879311890988,0.0011095372531999374,0.0013560354996510035,0.0016170713042846585,0.0018376462810268557,0.0019510660059603557,0.0019002745553157343,0.0016586561960897906,0.0012410736438841058,0.0006962120358232081,8.205838830045796e-05,-0.0005590838682978702,-0.0012056201914698059,-0.0018356946674354796,-0.0023977636400252748,-0.0028021072305961328,-0.00294937529561115,-0.0027824317119905127,-0.002325986977489823,-0.0016836770655625115,-0.0009911481382346786,-0.0003542310759389728,0.00018931062388439742,0.0006635695296234063,0.001113119656665986,0.0015564325481342335,0.0019628061035354485,0.002263422677781698,0.0023869276158144086,0.0022988420070599747,0.002024390304632983,0.0016429160141689008,0.0012553098702189783,0.0009393664213951829,0.0007153274331580066,0.0005394539519873149,0.0003282635535956974,-4.265984347187569e-07,-0.0004900372758826095,-0.0011252892555845097,-0.001831949057056389,-0.002491500443309879,-0.0029668148533987626,-0.003137286997496287,-0.0029385404428151243,-0.002393289659571738,-0.0016151390826609853,-0.0007745411608657887,-3.52490915357677e-05,0.000510466674079917,0.000873081262605283,0.001143443108489511,0.0014266507073818827,0.0017696550423612978,0.002126268356972421,0.0023816498004415715,0.002421413102922431,0.0022023905079746357,0.0017816785347568131,0.001287736674011306,0.0008532086885889167,0.0005503150687476455,0.0003641478172781732,0.0002132340486094668,-1.1024790465854307e-06,-0.00034708452285981404,-0.000838133826930557,-0.0014336433206195464,-0.002052729645703192,-0.0025903394438281293,-0.0029363227954232753,-0.0030036812736405124,-0.0027631585526041204,-0.0022658262059928004,-0.0016316377355853025,-0.0009995568200709087,-0.0004629304040389896,-2.934698607385034e-05,0.00036750691597220756,0.0008093304017261071,0.0013250765836763066,0.001858787159641142,0.00229716213622198,0.0025409094571907315,0.0025718853172828253,0.002467035485770556,0.0023443454683007344,0.002274339401722502,0.0022190413454533427,0.0020455743333496357,0.001610547325144373,0.0008596071825919028,-0.00012615360041586703,-0.0011668672875436068,-0.002073193856537404,-0.002723662824089398,-0.0030834901010823425,-0.003169595394094723,-0.0030060765449946257,-0.0026117867885916165,-0.002024701358430446,-0.0013310124426683487,-0.0006607494414123925,-0.0001394363042097591,0.00017649330297555112,0.0003343203217938233,0.0004594230538354034,0.0006789630315219711,0.001040472143644914,0.0014775244588384339,0.0018458604620669914,0.0020077819164756967,0.0019114530747385034,0.0016164584253712585,0.0012533802396621045,0.0009465852570581053,0.0007478278509749671,0.0006153344302988082,0.000442915379057272,0.0001181192598440345,-0.00041994648241040094,-0.001145637773903415,-0.001944665302830581,-0.0026441176570872835,-0.0030655767172851076,-0.003084772342985837,-0.002676450294386094,-0.0019260230255496481,-0.0010016063808184108,-9.604310524185018e-05,0.0006391916469634374,0.0011423930955903696,0.001452022928344328,0.0016730468517177606,0.0019130697510553255,0.002219290022702803,0.0025499745944975874,0.0027964834604446995,0.002842408690529035,0.00262469627587205,0.002162985345724615,0.0015457790625046479,0.0008879525460639948,0.00028551515383656373,-0.00021364021406594818,-0.0006189853706283039,-0.0009907836059910137,-0.0014199591002991103,-0.001993074969616205,-0.002745534668831256,-0.0036184676408305,-0.004444258041473906,-0.004980681507875888,-0.004992267354595325,-0.004350116966006233,-0.0031039190230000456,-0.0014847943941360253,0.00017278136655058516,0.0015589305497033731,0.0025030300827851137,0.003014523624672781,0.0032312428411101,0.003312881892036493,0.0033487927230085703,0.003333416074540928,0.003211996722421401,0.002951421711044834,0.0025797889952785405,0.002168837327895339,0.0017798871881879684,0.001420461679179254,0.0010465822079575918,0.0006066381074677028,8.865469070909492e-05,-0.0004690332756712335,-0.0010118936579937468,-0.001517129347004017,-0.0020111263154669323,-0.0025366438876351207,-0.003092454889902327,-0.0035937040581017635,-0.0038893985710440706,-0.0038334920814176044,-0.0033676542298531863,-0.0025638513024084,-0.0015991484898521667,-0.0006764979822839292,6.352304235971178e-05,0.0005926242521220489,0.0009838138568603032,0.0013512262549404549,0.001776111448731436,0.0022572201540056527,0.0027083553023967725,0.0030019266138418743,0.003035703338547847,0.0027886894553923653,0.00233622431095353,0.0018146843279388135,0.0013544815719438116,0.0010195453976885017,0.0007870911624417584,0.0005744637562639864,0.00028991328988729883,-0.00012603306881695854,-0.000686649413630323,-0.0013658163405045126,-0.0021069069007437925,-0.0028239750001491913,-0.003402989386927907,-0.0037183146905678836,-0.0036694936623931198,-0.003224646626025325,-0.002445601115958318,-0.0014757938767450414,-0.0004916965808087798,0.00036063814114214695,0.0010132706721854255,0.0014856682392952476,0.001853013303611762,0.0021917066771251427,0.002530850342701821,0.002833808840928374,0.003016825416308603,0.002991990333075799,0.002711119576879922,0.002190353033221107,0.0015076006421693854,0.0007770113308723835,0.00011131205295381204,-0.00041478479427918525,-0.0007870272962397278,-0.0010506488397642624,-0.0012855949130590966,-0.001568368715265351,-0.0019366515194859735,-0.0023696312400025114,-0.002788619464935064,-0.003076417727618229,-0.0031120459690450577,-0.002814719518550603,-0.0021837023789023392,-0.0013144988422924568,-0.0003766310790481906,0.0004443913936491484,0.0010185528883560144,0.0013242706917818222,0.001456305022494888,0.0015799258731910252,0.0018462498434119639,0.002304735095354528,0.002857027006559162,0.003283401710169679,0.0033397475292554655,0.002883075095395765,0.0019597790649098722,0.0008028956776455672,-0.00026766414920562944,-0.0009912734165139951,-0.0012807114783548305,-0.0012457426444763757,-0.0011199924257895922,-0.001135046263725846,-0.0014067688454096087,-0.0018858699751860743,-0.00238959979842587,-0.0026925744512261776,-0.0026297610479583114,-0.002164222402277188,-0.0013943445698650732,-0.0005059504288759185,0.000302862472204818,0.0008909382407471837,0.0012132224429518262,0.001320766941324087,0.0013261187691172608,0.0013480626119214828,0.0014551043768220573,0.0016287740808482443,0.0017642886567644372,0.001714936407430566,0.001368043065234015,0.0007208799163944701,-8.439980058914552e-05,-0.0007967430997038836,-0.001160804613115626,-0.0010471106035369443,-0.0005390532253590871,8.09747176312405e-05,0.00045430084442573516,0.00032241267662804125,-0.00033539781535803486,-0.0012808480543437287,-0.0021280674921069155,-0.002530369308082859,-0.0023429017240611904,-0.0016757886261334863,-0.0008150022380652368,-6.233204155707968e-05,0.0004124562469754773,0.000628261790828481,0.0007378476701520671,0.0009072570863213742,0.001208259480759242,0.001585357943127451,0.0019059840203995248,0.002050649912527878,0.0019820060300279507,0.0017547696767159218,0.0014709602242274243,0.0012163196921798436,0.0010172974131632852,0.0008380612977117884,0.0006107579560365752,0.000275677594685941,-0.00019188817383958086,-0.0007775221067158747,-0.0014387672184547227,-0.0021159480317147032,-0.00273390215260304,-0.0032007768665742145,-0.0034190228494918847,-0.0033162069740566803,-0.002883299809464896,-0.002193223814871595,-0.0013791365273424024,-0.00057880150847946,0.00012234090272574656,0.0007135734110930926,0.0012343573382633008,0.0017225194693449057,0.0021720624752322756,0.0025287029074465887,0.0027239566076476835,0.0027222265904700825,0.0025476710951454293,0.002272902629552395,0.0019782921220569006,0.0017100581063239598,0.001464086953081466,0.0012019361714706795,0.0008818006171818324,0.0004793595676662976,-1.303615942539315e-05,-0.0005986132932148394,-0.001279429465821801,-0.002039980592190294,-0.002820957268260149,-0.0035065735773105325,-0.0039446912731973816,-0.003999173241399676,-0.003610943748430455,-0.002833372859514129,-0.001818370927164782,-0.0007577670374970499,0.00018822585544055285,0.0009373311676939717,0.0014871750551428732,0.0018825719588272632,0.0021748639823630676,0.002395909234956211,0.002552275977634748,0.002631440596892646,0.0026106575071920468,0.0024665771005919213,0.002188395179997849,0.0017930492471719196,0.0013323976423636984,0.0008801351052429449,0.0004967555901218155,0.00018898770527556424,-0.00010847642955719275,-0.0005083367829748952,-0.001106856591219763,-0.0019114431298426263,-0.0028021202338334413,-0.00355688081767094,-0.003937912282547405,-0.0037989286814293028,-0.003156221903775765,-0.0021825634195499558,-0.0011268823082812196,-0.0002057345686264393,0.00047427075765120723,0.0009280872325499593,0.001244816056928948,0.0015185579378136633,0.0017972802580829568,0.0020693139469824184,0.0022822971884030865,0.0023754013624205234,0.00230684380186902,0.002068750750114504,0.0016902636934014747,0.0012315884172099693,0.0007688895496989429,0.0003695751122266984,6.34818924299985e-05,-0.000176145842133972,-0.0004259674260522873,-0.000774276882778692,-0.0012641878987375626,-0.001847865107983231,-0.0023830617346991103,-0.0026843076620311993,-0.0026087471918767547,-0.002130366915164722,-0.0013571096554705997,-0.0004781001803516718,0.0003269151505342257,0.0009593079525295907,0.0014130166685015267,0.0017280623821607198,0.0019279052180994107,0.0019886974679143134,0.0018595866297298684,0.0015134912537941127,0.0009869183993984451,0.0003778755542586818,-0.00019804019846190286,-0.00066431875432582,-0.0010153079813474948,-0.001301504568601142,-0.0015772139247485892,-0.0018451727596334405,-0.0020366680812245247,-0.002043520409898685,-0.001783391178351244,-0.0012561685942780038,-0.000554341698875355,0.0001786712394300934,0.0008139038794330367,0.0012850055713984326,0.0015949985618501454,0.0017877610460465083,0.0019098601928999692,0.001985566725637064,0.0020116649842821005,0.00196563238202376,0.0018187215556793395,0.0015499420544145446,0.0011597609245560343,0.0006803197741818903,0.00017525666074164818,-0.00027745468766590935,-0.0006185350522596061,-0.0008426993524682407,-0.0010138268703464794,-0.0012417811962563534,-0.0016221530398028482,-0.002165977673548056,-0.0027617242995287396,-0.003202379591852624,-0.003275923754159339,-0.0028758751296528505,-0.0020679187739851583,-0.0010679913161356711,-0.00013912960496388675,0.0005343957111888014,0.0009227458099991042,0.0011359997997505333,0.0013361626152558767,0.0016340783723452303,0.0020312699693134802,0.0024321813963576505,0.0027076933451118668,0.002764845389443725,0.002583495164586845,0.002209113134600104,0.0017193295517699027,0.0011912239112927383,0.0006846412831712979,0.00023806544001079416,-0.00013505811134404896,-0.00045389354979110015,-0.0007713009357710405,-0.001153368630891213,-0.0016363992668126251,-0.002183592807560595,-0.002674808333205331,-0.002947950510037553,-0.002876962032836468,-0.002442904269419521,-0.0017531373994065641,-0.0009927705263167697,-0.00033459542982522536,0.00013910583074177248,0.00045652311736318885,0.0007095767668050075,0.0009752988391067646,0.0012589906186964376,0.0014949041752849385,0.0015994296969359854,0.0015368399634251933,0.0013514134199824749,0.0011446396053241348,0.0010139088504633553,0.000993689136253757,0.0010360929450570612,0.0010399373054078738,0.0009065463662942836,0.0005873103737742799,9.904154378341566e-05,-0.0004922744611853178,-0.0010999154278005692,-0.0016373198074749505,-0.0020263767359156638,-0.0022022081321344724,-0.0021245439073742795,-0.0017947124526099933,-0.0012662624595434796,-0.0006371467881186112,-2.227123426000712e-05,0.00048218625927964046,0.0008262800070682576,0.001014175518932944,0.0010913808589774598,0.0011195654110705917,0.0011508166308857046,0.001210544253621099,0.0012918855265072323,0.0013583754668146566,0.0013497300246030283,0.0011897190095515714,0.0008020881176016355,0.0001417866634626377,-0.0007623579804047106,-0.0017757655173467857,-0.00266777988293455,-0.003177812488021239,-0.0031176055893690087,-0.00245918449633953,-0.0013580949003219598,-9.510369333951408e-05,0.0010350294915099393,0.001831307071666486,0.0022400544916480365,0.002336587085053014,0.00225613564233618,0.002116945965483028,0.0019726110446818077,0.0018055498004481488,0.0015495480829362661,0.0011224136915418115,0.00045893742511565007,-0.00045583410673854944,-0.0015558590956908807,-0.0026813105389845706,-0.0036043512553901765,-0.004098503404326527,-0.004026736544809203,-0.0034027663244980506,-0.002388773129455999,-0.001228123218527073,-0.0001490696763324737,0.0007111786357624504,0.0013296868633915074,0.0017680945418522716,0.0021150380994343367,0.0024322939011996495,0.0027263678034058604,0.002951010500977705,0.0030329967201169843,0.0029076995816023597,0.0025510662960174773,0.001996879133458022,0.0013315517529070408,0.0006653008994759667,8.899254690446597e-05,-0.00036439462888374194,-0.0007332590247484472,-0.0011054854108830964,-0.0015683996591706645,-0.0021535033216411696,-0.0028039311408900383,-0.003383358147935201,-0.003725308975046267,-0.0037009624876255583,-0.0032728760845013786,-0.0025088164699963774,-0.0015515284623443335,-0.0005637896007869827,0.00032178009076392223,0.0010275660269745766,0.0015292173189492874,0.0018406132072937857,0.001999289452247338,0.0020560895161881457,0.002064286398412035,0.00206446943868967,0.0020692126088422205,0.002056985002794846,0.0019826137046531963,0.0018031333830101455,0.001507496583204613,0.0011319810551816203,0.0007465058091849205,0.00041299401333149435,0.0001381896371814873,-0.0001453815618952631,-0.0005476007708388735,-0.0011464367236155072,-0.0019122210939168287,-0.0026822183320874718,-0.0032133820561299257,-0.003294137291292006,-0.0028555827405400127,-0.0020170766270998985,-0.001036864867678153,-0.000193530775435493,0.0003366044786056585,0.0005418950395126282,0.0005516883041291416,0.0005497145576892639,0.0006770577311782425,0.000973044244163735,0.0013736303642548368,0.0017549422701524698,0.001992418966499984,0.0020081132695628913,0.001792358829463925,0.0013994259927880802,0.0009232191052251605,0.000460515892576514,7.198670168153884e-05,-0.00024326811413247776,-0.0005429053840860155,-0.0009013136057042216,-0.0013514884615073624,-0.001842742985695559,-0.0022441576133474484,-0.0023980819748360845,-0.0021972310281849518,-0.0016437798314186335,-0.000858781195367943,-3.7453327597989055e-05,0.0006270649017712614,0.0010161659548052389,0.0011238878320824857,0.0010467436030292569,0.0009316778525722454,0.0009058201064872279,0.0010199144402386444,0.0012317224677346871,0.001436330637124999,0.0015255801011689204,0.0014433085116015252,0.0012074276985706946,0.0008911819379292558,0.000579035776942395,0.0003226709790879476,0.00011683502735104594,-9.782005980714284e-05,-0.00040754567842732944,-0.0008819011941321765,-0.0015271810580501986,-0.002257280746703873,-0.00290346550531845,-0.0032703634459250105,-0.0032185280130080035,-0.0027316753743647703,-0.0019288025098022118,-0.0010111384972448202,-0.00017274988145590104,0.00047542258644055175,0.000929603723292774,0.0012609818769520604,0.0015553318041366215,0.001862601403606594,0.0021798332168994827,0.002465442827067183,0.002665520625412585,0.0027332449335455713,0.0026363496725209726,0.002360900014512296,0.0019200074457895971,0.0013637082781473035,0.0007747878153748203,0.00023956285949889978,-0.00019736392982081416,-0.0005658798964081792,-0.0009615581920512291,-0.0014889958373428404,-0.0021839562536663795,-0.0029614539949093946,-0.0036283057203144635,-0.003962933690470144,-0.0038235351687891644,-0.0032249102847447973,-0.002338531716862694,-0.0014123809307112537,-0.0006523876654309968,-0.00012939646861299573,0.0002386798291164069,0.0006219312033411638,0.0011682257678227548,0.0019080792578215692,0.002724994084450347,0.0034061425665060934,0.0037462752001560054,0.0036498430371820116,0.0031765965775143105,0.0025059039643400595,0.0018405518331702964,0.0013061100433363804,0.0009039066072317032,0.0005408643597618777,0.00011003350418546968,-0.00043454398659282796,-0.0010554390500301855,-0.001667968403439436,-0.0021997265130040563,-0.0026260825538471635,-0.002957658058733682,-0.003195660084683717,-0.003296526854456923,-0.0031794835760579343,-0.002776150180154877,-0.002087463476351455,-0.0012055265803622454,-0.00028139070306163437,0.0005432744463657018,0.0011977812183575401,0.001698341631011289,0.00210952544852348,0.0024786508964767936,0.0027879843535474377,0.0029567898980591076,0.0028915415884244264,0.0025510284936515605,0.00198409006842385,0.001316104209172963,0.0006929278082365195,0.00021581311826483236,-9.741573791986478e-05,-0.000308770864087107,-0.0005217909574255376,-0.000829640657358635,-0.0012708616481533403,-0.0018074229343218486,-0.002332312588788619,-0.002705913722718537,-0.0028099453345366175,-0.0025971437704053408,-0.0021120651617984,-0.001470212945102369,-0.0008053799201552417,-0.0002139089128318557,0.000274371473621143,0.0006862531573109255,0.0010674313169354624,0.0014422031138221826,0.0017934175392955883,0.0020704635904152443,0.002216003878198084,0.0021933813664063388,0.002000312279883692,0.0016664150559369485,0.0012427623355266136,0.0007929196823510195,0.00038657879324647843,8.767350867111448e-05,-6.995837207797695e-05,-0.00011222722063563764,-0.00013707038277441512,-0.0002865159511317134,-0.0006776153172606361,-0.0013234370858430716,-0.0020935878048971212,-0.0027496819329753106,-0.0030483363907184407,-0.002859278242733267,-0.002231128388959042,-0.0013657430152502104,-0.0005166278021795054,0.0001285598038696386,0.0005164359896501708,0.0007178140259336838,0.0008590401144062616,0.0010443082362496241,0.001312149164447057,0.001637287707862983,0.001958446847605753,0.002205291895551766,0.0023132381416326253,0.0022332937712890286,0.0019463911087920635,0.0014782058324437487,0.000898877393074735,0.000297605532094335,-0.00025786994435443654,-0.000750450625551854,-0.0012088241065461545,-0.0016693705751083462,-0.00213068255849128,-0.0025328819139573116,-0.0027768255570707347,-0.0027715232980028443,-0.0024808061925502586,-0.0019425604859109255,-0.0012521954335187433,-0.0005235686958055191,0.00014886906644640848,0.0007094296549291117,0.0011409031449204315,0.001454933247784805,0.0016821412344099826,0.0018621857218078398,0.002028765341458224,0.0021895375858315734,0.0023115255432994185,0.0023270380148800703,0.002165213522420953,0.0017947953960614515,0.0012505719828737117,0.0006224441581784133,1.0105361351585968e-05,-0.0005292947351537617,-0.0010066029530262852,-0.0014817103222804833,-0.0020107979516273645,-0.002591759351555373,-0.0031411982861916533,-0.003517724662093777,-0.0035796376373956307,-0.0032468029469377145,-0.0025365004521208513,-0.0015587805342190289,-0.00047700744808895916,0.0005470228298620138,0.0014004316963725655,0.0020410121454088326,0.002486523437052741,0.002779722577477711,0.0029500789854621347,0.002994809419201534,0.002889071519197904,0.0026153903879386617,0.002189642502886816,0.0016644658072014526,0.0011077540396776486,0.0005711402737047461,6.902476558288907e-05,-0.0004196084823437293,-0.0009290966558259965,-0.0014780769900593711,-0.0020482339955698575,-0.0025794329955928217,-0.0029825945272559376,-0.0031667980665919357,-0.003072941230974008,-0.002701060120264478,-0.002116223480851312,-0.0014254759206568468,-0.0007349898760160322,-0.00011092903167515544,0.0004332328367051143,0.0009174221298493558,0.0013596638188516238,0.001750576433854107,0.002054723583066278,0.0022355239271565183,0.002283577134204783,0.002226611430671236,0.00211313996664422,0.0019811721992145552,0.0018344429780501226,0.0016433550438357519,0.001369428554514628,0.0009943130278740166,0.0005314546863290345,1.2702950702547843e-05,-0.0005377677543852244,-0.0011190784831258945,-0.0017423986161504783,-0.0023969073482212953,-0.0030173146718373515,-0.003481419733590995,-0.0036486598022814993,-0.003422731075572719,-0.0028033774622060617,-0.001897435385431441,-0.0008831407540887817,5.2708043726414576e-05,0.0007743738194128151,0.0012307661277204615,0.0014562685355209788,0.001544760213730542,0.0016079667308224704,0.0017307273422786005,0.0019370659348832706,0.0021801474787873894,0.002362191685019033,0.0023779330623715338,0.0021639474154248614,0.0017326276554332858,0.0011748941807764647,0.0006269956136952619,0.00021109653910277612,-2.6342801652815852e-05,-0.00014660682908605716,-0.00029688394174018796,-0.0006356733143075518,-0.0012388619858690723,-0.0020380207093465526,-0.002830538142693899,-0.0033624327200564358,-0.003442001092363512,-0.003023974523826152,-0.002222201041144481,-0.0012508645644598857,-0.0003312546086759988,0.00038824400252610345,0.0008670693730898874,0.0011571589858987885,0.0013540063056257919,0.0015403987155974794,0.001747076617221074,0.001944075542184566,0.0020621392567962762,0.0020310649415738323,0.0018164055749157865,0.001439053229515678,0.000970606228683257,0.0005064775660915714,0.00012630278806973763,-0.00014271536145809248,-0.00034116421773190534,-0.0005585212762469902,-0.0008829893572892602,-0.0013429831471113924,-0.0018732059151885354,-0.002328473091122881,-0.002542713136253719,-0.0024046462817390573,-0.001911631673034598,-0.0011745990591156582,-0.00037224870074207514,0.0003224576403583948,0.0008081206098534457,0.0010827539949900405,0.001223303883514458,0.0013314506352307364,0.0014765330263205555,0.0016643537010437187,0.001842863294138508,0.0019352064080328684,0.0018795959620309514,0.0016571699086718069,0.001298580119964944,0.0008704223432954592,0.0004487800523350909,8.880467951725816e-05,-0.00020025253275267324,-0.0004638520146935867,-0.0007852861084404025,-0.0012423115377893487,-0.0018522863169781942,-0.0025345667032578493,-0.003118425585098182,-0.003404500893661712,-0.0032559833233826475,-0.002671952038990802,-0.0017979562117342723,-0.0008611850365741729,-6.214767108808648e-05,0.0005162898753994511,0.0009291122842617172,0.0013074918365484729,0.0017556554786932088,0.0022729156787243705,0.0027494786402697154,