0.004541680150195609,0.004579184412587737,0.004434976446982713,0.004178654100426369,0.0038117938615994185,0.0033098567481216583,0.0026673776918774467,0.001915000258574223,0.0010997939425359839,0.0002478986603365817,-0.0006567264409318134,-0.0016523251957151518,-0.002741837887567281,-0.0038335064553898404,-0.004727269007696764,-0.005172690925646456,-0.004977511920373462,-0.004106382863413289,-0.0027092647202854835,-0.001062343852082814,0.0005400252681336014,0.0018778121050154301,0.0028387106381627153,0.0033964483636888688,0.0035728260066183234,0.0034196214806549315,0.0030244847181236196,0.0025148468748906567,0.002031810605352696,0.0016722073880950413,0.0014288859628653087,0.0011716466247804448,0.0006944642345812526,-0.00018140249174919838,-0.0014934734689476849,-0.0030722131160590242,-0.004565987699717717,-0.005558057824698681,-0.005728947972135027,-0.004988873257834762,-0.003514666573173764,-0.0016725386886648512,0.00013312617014957836,0.0016086426519869316,0.002648489376716202,0.003315429112299252,0.003748779989179034,0.004058287137649671,0.004260550884730313,0.0042862593356215156,0.004045497402130638,0.003505693714257333,0.002729714249163011,0.0018459036078041875,0.0009659654965469009,0.0001049229579512239,-0.0008362318251618249,-0.001999580262231034,-0.003443875269591314,-0.005039867936091758,-0.006461700824572128,-0.007295486209711417,-0.0072146511730576315,-0.006128810924175731,-0.004227858639806815,-0.001904913035642467,0.0003923660055673069,0.0023051598871433755,0.003645251881833319,0.00440200412682803,0.004694112138976752,0.00469548157184221,0.004561259520966898,0.004376042916849565,0.004141266041874634,0.00380505924706979,0.003316163156190626,0.0026677790625336422,0.0019024364194194419,0.0010751645593021048,0.00020261082581071472,-0.0007609817636476849,-0.001894338639951379,-0.0032344158705004916,-0.004698681567555186,-0.006057425763719196,-0.0069862321971153035,-0.007183432347357478,-0.006496974462619423,-0.0049960267466484945,-0.00295148604344163,-0.0007379258396928056,0.001292733075316795,0.002908549399835776,0.004031001700286356,0.004704399375671371,0.005029239532240099,0.005097571012411237,0.0049591327285158715,0.004625721451599988,0.004100004802834733,0.003404598695396473,0.0025917148258610637,0.001728576503739621,0.0008692357335419196,3.065889607549259e-05,-0.0008124788646952596,-0.0017101479354885668,-0.0027032415158106766,-0.0037871121786953784,-0.004886360689485171,-0.005851569574921051,-0.006483861806252005,-0.006586125666807031,-0.006028390624192248,-0.004802713804373736,-0.0030406691055416173,-0.0009814448228777073,0.0010961725009777444,0.0029463430854786907,0.004402957017326151,0.005388900003622188,0.00589780981606631,0.005969047047473598,0.005671311844726346,0.005095779396560042,0.004348767705202794,0.003535547364706246,0.002737684008488668,0.001994244308653828,0.001294438944311082,0.0005809154992073495,-0.0002393399416741146,-0.0012723333942561215,-0.0025929870973661643,-0.004180685454545623,-0.005861480052739705,-0.007303520219898796,-0.008099333040245127,-0.00791985315527947,-0.0066704797698385766,-0.004561751827680721,-0.0020462978526641206,0.0003526951535689685,0.0022361890770415034,0.003452583681627811,0.004098069895461358,0.004408309767732797,0.004606935740512075,0.004789834167047443,0.004898397994532993,0.004785786568912308,0.004331805385431651,0.0035371267955352486,0.0025391800373950964,0.0015367499238176752,0.0006667437551984549,-8.769309833378387e-05,-0.0008898193321685074,-0.0019331414312920491,-0.0032794056879487552,-0.004752590379257361,-0.005966138072223478,-0.006483342930147905,-0.006028057390932982,-0.004628640867143501,-0.00261581585073482,-0.0004799476249681927,0.0013303421889808396,0.002563941947330769,0.00321061795946419,0.0034320463207604744,0.003435995532966185,0.003366634099136815,0.0032609004580748746,0.0030755422306339504,0.0027495637482707154,0.0022542862928563246,0.0016018855831229995,0.0008179550620070909,-8.933380489921762e-05,-0.0011291206701968576,-0.002287124102447134,-0.003469567753846572,-0.004477594628849696,-0.0050466300314712595,-0.004945368850743789,-0.0040864721890203825,-0.0025866234483906208,-0.0007393508704112209,0.0010872665947997669,0.002576415242368347,0.003552513067892514,0.004000299952914637,0.004017851134191868,0.0037411525050264384,0.003285573607054092,0.0027280391546414874,0.002118797144497749,0.0014913047349667426,0.0008504350754780124,0.00015207872216061664,-0.0006907805491521205,-0.00175352976787254,-0.0030160923115444232,-0.004304515729152743,-0.005310628356484967,-0.005698811894531092,-0.005252052576674566,-0.0039793329157037614,-0.002125308761697342,-7.835324637113766e-05,0.0017728739705951768,0.0031637485669588714,0.0040076626074608285,0.004369500697588345,0.004386673257088999,0.004184714010154462,0.0038291639929901077,0.003330012905188061,0.0026817111318047926,0.0019001510091086523,0.001024674244302521,8.624081775417884e-05,-0.0009225576070836874,-0.002034877137596228,-0.003247478682176996,-0.004450206806145235,-0.005409009366487709,-0.005835309958430174,-0.005514033277295931,-0.004416814157651344,-0.002731579230689947,-0.0007911711637212056,0.0010559499480451329,0.0025612752044036364,0.0036237210266836265,0.004260791261294299,0.004538758183261786,0.004513105268802064,0.0042126645734093015,0.0036639732224760177,0.002922707105930414,0.002077222338500384,0.0012148910891205122,0.00037434819014713885,-0.0004783492945707636,-0.0014244210902048333,-0.00252400226720561,-0.003740524534372594,-0.004903670632647346,-0.005740496151410672,-0.005969430585946929,-0.00541662129187079,-0.0040988361194769975,-0.0022323017239552698,-0.00016416456788688203,0.0017400868224465085,0.003204599394592316,0.004107769304288538,0.004487715368002729,0.004494653071266842,0.004311112000261444,0.004070111630781552,0.003804455958675904,0.0034515334898010484,0.0029131375146639027,0.0021369815746169105,0.0011676121361790816,0.00012916009255334492,-0.000852263090892806,-0.0017327882517576957,-0.002577120359337541,-0.003498635816865948,-0.004544828748761616,-0.005602298097495911,-0.006391032178094994,-0.006567049145492509,-0.005885951619991002,-0.0043392763889626455,-0.0021869842629032837,0.00013373926414230646,0.002176104714571683,0.003642662932418936,0.0044613722309153146,0.004754085997863024,0.004729771969027945,0.004567163648931819,0.004345111676577973,0.004043539551027519,0.0035978047270337358,0.0029660649677885143,0.0021706895112029168,0.0012944948650772514,0.00043787751147790195,-0.00033747393198465766,-0.0010454824345667918,-0.00176861051130328,-0.002603737522667778,-0.0035840515021884154,-0.00461761087661252,-0.005481237384794392,-0.005884739086351339,-0.005584928799858046,-0.004499697858305986,-0.0027665279091903185,-0.0007126856053352972,0.0012543537149640673,0.002788904766649108,0.0037180727261295243,0.004073560991283653,0.00403508538731983,0.003819225018745045,0.003572521526495146,0.003321384830164775,0.0029970069328188616,0.002510001894554603,0.0018224917197167292,0.0009721734804696326,3.971205002702686e-05,-0.0009076145100888997,-0.0018469296914612606,-0.0027780481968215486,-0.003665240972603909,-0.004391068800346588,-0.0047669896542771595,-0.0046072535322484185,-0.0038274025415584454,-0.0025085175730442124,-0.0008867555083996812,0.0007287508102261563,0.002066978624128401,0.0029801925624981292,0.00346677979549693,0.0036298302926467234,0.003600252131983611,0.003466207718324228,0.003242029247512678,0.002885171261030264,0.002342373492272113,0.0015917656957002303,0.0006555659744539356,-0.0004167834769679236,-0.0015714709149580645,-0.0027524749578545235,-0.0038772370193674455,-0.0048084579558180865,-0.005356665178660873,-0.005331537999798723,-0.004624574693963822,-0.0032776852382317267,-0.0014942968940420656,0.0004180749589794859,0.0021450877752965743,0.0034545537085083605,0.004240685284505207,0.004517465359354372,0.004380933180283257,0.003966285781531432,0.0034136735576475396,0.0028407905953309713,0.0023151545752322076,0.0018280635708558454,0.0012866060045371515,0.0005443075522488716,-0.0005251819277021422,-0.0019375117757205738,-0.0035393329475386557,-0.005025135470756689,-0.006034444852775842,-0.00628797193850302,-0.0056964379733914165,-0.00438935189003857,-0.0026543178945070555,-0.000823317680826903,0.000836145680811959,0.0021794912662370606,0.003180996375725003,0.003886459260788575,0.004354851442410905,0.004615933081054147,0.0046574896131407265,0.004442850955490405,0.003948014932616698,0.0031977877804599,0.002276598462249542,0.00129952304937707,0.00035311442678518106,-0.0005588221413729873,-0.0015220891630979084,-0.0026514659333918937,-0.003985442611884437,-0.005396418673832915,-0.0065802986173611085,-0.007150801400804097,-0.006802356353087735,-0.005459855550390801,-0.0033351102671707452,-0.0008588452764738658,0.0014776056194489328,0.003293873923010739,0.004428667527750929,0.004945137630528892,0.005045450884123448,0.004946016128434483,0.004776182858042963,0.004544073997645179,0.004174894606993166,0.0035894823035913705,0.0027728766601049226,0.0017924307777507959,0.0007565499823987865,-0.00025775885070032124,-0.0012578204902907266,-0.0023256896668555948,-0.0035411859101795416,-0.004880351667941787,-0.006156716569808539,-0.007053728048617917,-0.007243077137917563,-0.0065301165003153385,-0.004950180936693132,-0.002768727013387898,-0.00039103205367834446,0.0017719856568651259,0.0034257087489823566,0.004460336878691655,0.004947795413550052,0.005072408576910271,0.0050247851575605205,0.004907065357218633,0.004697001689864665,0.0042902983849709645,0.003596150297654899,0.002626282818155636,0.0015173573524617677,0.00046529287636613495,-0.00039275128450913115,-0.0010731663989000215,-0.001748230601865788,-0.002640108178934074,-0.0038601782522837257,-0.00528885221362309,-0.006575453563221766,-0.007271243897266804,-0.007030649664999262,-0.0057747101046610495,-0.003732399471717336,-0.0013448045797998347,0.0009105298850027049,0.0026850708352487724,0.003844172878369981,0.004451990551739916,0.004685252945028875,0.004727219584268837,0.004688190176671138,0.0045781437214567,0.004332821314293057,0.0038741855572157428,0.0031735138705138483,0.002283959628358362,0.0013224323891488305,0.0004066542699572629,-0.0004181054400727736,-0.0012140226286914844,-0.0021132731670952987,-0.0032156067723949694,-0.004475826197930252,-0.005656822982903396,-0.006395783044984893,-0.006363743710058319,-0.005433964828307476,-0.0037600875868260856,-0.0017160771500545626,0.0002661137018958463,0.0018662058329081564,0.002962583901636795,0.0036069520926640323,0.003926561491872573,0.004026921263397511,0.0039503638282056405,0.00369808971138971,0.0032799698938630007,0.002743509469925774,0.0021555840729544765,0.0015505996122719824,0.00088863439787397,6.577500178151066e-05,-0.0010143479650000765,-0.002343115940574651,-0.0037448519771163527,-0.004899694822429645,-0.005455357740195639,-0.005178203436478588,-0.0040658648043651185,-0.002360242336742561,-0.0004530228712257855,0.0012662239392231243,0.002542022381828821,0.003305646324272857,0.003637955725329681,0.003680197423560356,0.0035502756525223654,0.003305105331101053,0.002951646386756931,0.00247813052241322,0.0018734738248610554,0.001125178979961493,0.0002125114674099164,-0.0008809771148839449,-0.00212962849590246,-0.003424711551192886,-0.0045661099162350475,-0.005307840684307867,-0.005444067250280243,-0.004892743851056099,-0.003731650501173627,-0.002168411430790499,-0.0004632719349811021,0.0011533957561817045,0.0025301527402523667,0.00359575158720181,0.004326759743909432,0.004711614984974461,0.004736890393002213,0.00440170772229355,0.003743945800790827,0.0028512304056723067,0.0018384161675134457,0.0007980161824305651,-0.0002442509114839199,-0.0013301266801604582,-0.0025108560042259235,-0.003758951352627797,-0.004909882825897147,-0.005685814861248462,-0.005804216207533953,-0.005115634643278071,-0.0036901147559196823,-0.0018004975402540091,0.00018664616558807564,0.0019487869398881266,0.0033003361378393867,0.004201945336235534,0.004700717983022082,0.004853022981807911,0.004681923618544696,0.004189038742516928,0.003399999678141146,0.002399921953327006,0.001323451364789363,0.0002971948203348774,-0.0006299230700187235,-0.001515779726252226,-0.002479897624687479,-0.003598039107627121,-0.00479779016165649,-0.005827987046731068,-0.006336704885161493,-0.006026192655877549,-0.004803056564912697,-0.0028423601144379443,-0.0005331556611956038,0.0016639238326698479,0.003376867715981574,0.004430149489318821,0.0048612210058385655,0.004850056557221783,0.004604111266092122,0.004258847474783608,0.003842104729635502,0.0033119968839786214,0.0026329160985261893,0.0018314221820904433,0.0009906022454539488,0.00018812952851460576,-0.0005727806076979884,-0.0013810517669782699,-0.0023587493413706993,-0.003553776762163429,-0.004851132674134064,-0.005966716229780329,-0.006542846862858304,-0.006303879440956134,-0.005191070807740279,-0.0034035979607325894,-0.0013232865281655596,0.0006369385357555971,0.0021835365196480306,0.003221118759697034,0.0038314906960963966,0.004177523351454607,0.004391379852309889,0.004507812802035371,0.004471859442989652,0.004204549618564376,0.003677312782133847,0.0029457176435101996,0.0021242981823131803,0.0013232272865032974,0.0005881202490778661,-0.00012268997714059743,-0.0009122814545686295,-0.0018824056708127257,-0.0030598723872421792,-0.004343934173948636,-0.0055040177742420576,-0.0062418976963874145,-0.006302872848544461,-0.005588220690243716,-0.004209449898457548,-0.002449994057676613,-0.0006514635286369685,0.0009148603792968888,0.002125366434056467,0.0029990330581798658,0.003627267178706646,0.004087570447664498,0.004389756641606119,0.004477977468756819,0.004279212151227119,0.003765970491337525,0.002996069393082069,0.002105359453789193,0.0012540953663888145,0.000553293218158558,1.059411707488188e-05,-0.0004727100362950104,-0.001047485128245877,-0.0018287979618656362,-0.002815394693939095,-0.003856448241851148,-0.004686593251911955,-0.005021140697765346,-0.004674145118280619,-0.003645920979660001,-0.0021356519725032885,-0.00046946004621579166,0.001022194064433888,0.0021176172405707634,0.0027551008034279786,0.003006716954402648,0.0030017876858231206,0.0028497759371931683,0.0026033793538947875,0.0022707159652038665,0.0018529479771753287,0.001371366617584512,0.0008619888484311438,0.00034450306639499943,-0.0002047291507249674,-0.0008451493969645846,-0.0016225876863603375,-0.002503359408011768,-0.0033372531895694653,-0.0038851211308498185,-0.003909552795210907,-0.00328555446901196,-0.0020715620720637936,-0.0005018029061098698,0.0010957918991430378,0.0024150545913085783,0.003268557278340606,0.003628863001869151,0.0036036347790549643,0.0033611376149705477,0.0030427087414570527,0.0027046078592122057,0.0023161536934233075,0.0018076980535025856,0.0011306911746045492,0.00028708442813054567,-0.0006867282915530904,-0.0017561617280310703,-0.0029012295146804536,-0.004083250772655284,-0.005187469497896334,-0.005994308532573508,-0.006221501286749621,-0.005633442635150115,-0.004165899091322037,-0.0019970901436295275,0.0004798429617914736,0.00277860038077891,0.004483964447930618,0.005384967357200263,0.005518205355999032,0.005107612355481756,0.004439130233474851,0.0037380160168503976,0.0031055829605342007,0.002529645697604421,0.001938659565616173,0.0012531648951547777,0.0004076506787819014,-0.0006478969023438438,-0.0019362757924224132,-0.003413200369364524,-0.004917579901038569,-0.0061585694373862306,-0.006778190821325598,-0.006483400534657849,-0.005189085134864719,-0.0030924947621587557,-0.0006285075366486897,0.001682153182997032,0.003421336457295955,0.004408581645006409,0.004722367359397206,0.004607530256526672,0.0043266701335862605,0.0040366266891699535,0.003748278432590381,0.003374547864469303,0.0028209267066851493,0.0020551258448494635,0.00111572629832601,6.602147926864545e-05,-0.0010627746318604089,-0.002289282796236629,-0.003640108628389733,-0.005071715018644545,-0.006409628668047102,-0.007355334297182638,-0.007574689282759642,-0.006833169427171618,-0.005112650491956455,-0.0026504630544302446,0.0001208479049252711,0.0027081372649875902,0.004710069378601482,0.005926122328835645,0.0063825960321302316,0.006273184203299509,0.005847824404272002,0.005302781453829652,0.004719398237481558,0.00407221637198544,0.003291937765739601,0.002341618329202919,0.0012595029216576146,0.00014308533123827004,-0.0009138241923659273,-0.0018872279123376826,-0.002842459662958438,-0.003883882429211124,-0.005056842136743361,-0.006260293234119787,-0.007231126900154011,-0.007624841189799865,-0.007161425668939472,-0.0057638199823871385,-0.00361553331041171,-0.0011057320858382101,0.0013105529168502238,0.0032677335884358167,0.004589401887159672,0.005296404934468908,0.005535604350922946,0.00547692273734782,0.005233037899012293,0.00483564532101795,0.004268285371540526,0.0035258061511249587,0.002658384637497805,0.0017691260394602584,0.0009633274934089355,0.0002794463656108153,-0.00035183420133720085,-0.001084921723118159,-0.0020722197332117315,-0.003352246983737613,-0.004775168442224169,-0.006016913662980625,-0.006690104866100263,-0.00650584830135865,-0.005406374058003095,-0.0035985918314530535,-0.0014709929292707146,0.000560149610288665,0.0021948023749219976,0.0033171066753482324,0.003970165736856064,0.004271311511741427,0.004324834120775308,0.004177589056061903,0.003829760729747864,0.003280143917905825,0.0025687912048789853,0.0017846929880710066,0.0010286470108304053,0.00035181562406269096,-0.00028739273636552897,-0.0010084389332214107,-0.0019287152031042133,-0.0030570814099909207,-0.004227363211651866,-0.005125254518289212,-0.005410597391686296,-0.004877189962975828,-0.0035631647862200185,-0.0017481291570612752,0.00016325773987426826,0.0018067449868036218,0.002983169191968508,0.0036824922446156874,0.004011932744086116,0.004088720142228015,0.003969023304615502,0.003647891605150417,0.0031109493977557346,0.0023859544756630433,0.0015503098133879346,0.000688859473529493,-0.00016360277170686724,-0.0010457050333631513,-0.002030151407408808,-0.003137955479555335,-0.004262000179500878,-0.0051596843191374555,-0.0055353680862525656,-0.005175215723782017,-0.0040596052625450334,-0.002387825801289077,-0.0005005029862442124,0.0012558444913922536,0.002647786857451374,0.0035995107522110896,0.004154207724488768,0.004392272536811032,0.004363886555901163,0.004073223201082985,0.003511755907805742,0.0027068563151324667,0.00174619270873316,0.0007570913947788115,-0.00015020995552969633,-0.0009413291159665353,-0.0016771189092975086,-0.002469735853893386,-0.0033887879492065466,-0.004368627196040283,-0.005179845437170443,-0.005499450914267694,-0.00505666783898462,-0.003780337380630968,-0.0018650852900824605,0.00028504014826934723,0.0022104598541158476,0.0035711819466212272,0.004258140999585487,0.004391808220600456,0.0042188908565613924,0.003968986270735563,0.0037482327413589462,0.003519488633066059,0.003165940273630532,0.0025885626902317715,0.001774005185588944,0.0007948320020138657,-0.00024850407855869214,-0.0012959026915217945,-0.0023531710619280103,-0.003453485633212867,-0.004579734845083996,-0.00560319927786664,-0.006288300037526142,-0.006373979070504218,-0.005693942401036264,-0.004271169522146617,-0.0023337734108276565,-0.00024156305744748408,0.0016408809592323786,0.0030642908525417446,0.003955362599412109,0.004397558986316609,0.004550382501792088,0.004552535317649013,0.00445836325726578,0.0042366196825672905,0.0038251140529514107,0.0032015711349492266,0.002420006229248031,0.0015842364241508487,0.0007752377940143752,-1.3883344677527963e-05,-0.0008816144708523104,-0.0019466904395359257,-0.003240435709927011,-0.004630253793413714,-0.005827463317931133,-0.006485233518637445,-0.006341354798925694,-0.005335380687931581,-0.0036428077614940844,-0.0016113359351401233,0.0003678841364357344,0.0019927701806087207,0.003129380547546852,0.0038111810232382463,0.0041711889970862896,0.004347712879983206,0.004411094845242404,0.004343983301865673,0.00407848113091459,0.00356296610830402,0.002814967139384724,0.001924878574763124,0.0010060252419478639,0.00012250403899539147,-0.0007553554716952155,-0.0017307093777902643,-0.002896536040528414,-0.004233005488696679,-0.0055508214830204275,-0.006527093622716414,-0.0068291819066574905,-0.006267041847436199,-0.004891360016365888,-0.0029811863466679776,-0.0009269030365381591,0.0009260264321790981,0.0023874433695111994,0.0034344407036744863,0.004136170810906861,0.004556740684803491,0.004709152156241382,0.004588433751585639,0.004245541279661586,0.00382438677643214,0.0035055233203447034,0.0033724363864452876,0.003290707876148366,0.002908198069563551,0.001820493975032476,-0.00016750629533611146,-0.0028394299979863933,-0.005569429420479204,-0.007557718643061966,-0.008181598613443667,-0.0072684353509130046,-0.005147277038992066,-0.0024718752990770957,6.776810172811243e-05,0.0019912724574127176,0.0031314394911776816,0.0035880633837797847,0.0035950048914395547,0.0033831427525345343,0.0030965382802664713,0.0027748230656699795,0.0023796585766559034,0.0018338309126029926,0.001055700058429112,-8.792531463390311e-06,-0.0013487890983562617,-0.0028512083945829826,-0.004287009639636956,-0.005347282222988598,-0.005733205268877632,-0.005268523707187429,-0.003980375194201811,-0.0021037165057173892,-3.074681991386207e-06,0.001951337703633674,0.0034948189664629143,0.004520003811995339,0.00505727272911597,0.005207758700744986,0.005071446588247167,0.004706965556576056,0.004135386685591161,0.003371481253154179,0.002449075179802591,0.0014149014302859907,0.00029538297052590656,-0.0009288211696445145,-0.0023024942555662673,-0.003824365076930151,-0.005365762519156321,-0.006644539302937579,-0.007296557578886649,-0.007026969958882244,-0.005764876103740611,-0.003730083045298067,-0.0013649990473599616,0.000837535270519183,0.0025193498152527127,0.00356066225166136,0.004061409566348732,0.004230399180435839,0.0042557091502267936,0.00422423276356583,0.004117255187800435,0.003863428909777449,0.0034055320535700995,0.002740134476696774,0.001912162630225675,0.0009753379181548665,-4.987198393580506e-05,-0.001187072785683078,-0.0024679426504081313,-0.0038638472555377395,-0.005226250633894056,-0.0062836272107365055,-0.006718395672111265,-0.006299593747565379,-0.005003918917677468,-0.0030529671766111703,-0.0008384574751591777,0.0012269057764618249,0.002853225351231692,0.003941683519069573,0.004557213757830032,0.004839201786536642,0.004908744091688363,0.00481906109063617,0.00456170720319882,0.004108501078938935,0.0034546861936229703,0.002636014923527481,0.0017125272734097806,0.0007322626617208564,-0.0003000356376868042,-0.001424928526095274,-0.002690326260809219,-0.0040856264256165006,-0.005482279512882086,-0.006623060115463626,-0.007185372037380674,-0.006904973454501744,-0.005705642687138407,-0.003765059147490189,-0.0014729295749148239,0.0007070919659316736,0.002407543892582251,0.0034773276251499085,0.003996708495754619,0.00418740953831746,0.00427139445953589,0.0043547288142752865,0.004393689142391687,0.00425105189074712,0.0038003189100453178,0.0030130365848105986,0.0019800392537028012,0.0008596633630160045,-0.00021041123913255157,-0.0011802177202317775,-0.002089368976685248,-0.0030004502881166408,-0.0039061234285976314,-0.0046739945338444226,-0.00507447743563429,-0.004885710816728806,-0.004018331279866299,-0.0025865529075434425,-0.000882081720916501,0.0007366472389998797,0.0019816663889298124,0.002730828224956629,0.0030398284288322636,0.0030745745923274467,0.003006609503221651,0.002928240811007276,0.002826973761743062,0.002621437164537204,0.002226088325321161,0.00160101895744126,0.0007614906926742676,-0.0002451835887714141,-0.0013642819923187495,-0.0025317611207609342,-0.003645303091421111,-0.00453870643356013,-0.004997722290929673,-0.00482975401449748,-0.0039579947275255045,-0.0024850162624339,-0.0006821836922317857,0.001097841636290504,0.0025450139798831525,0.0034920380837223305,0.003944155551219139,0.0040302916031140935,0.003908894544254635,0.0036832813035456344,0.0033700722676830676,0.002927723542490413,0.0023142917095366777,0.0015294366105139134,0.0006137361002215288,-0.00038572083056535693,-0.0014475819526343424,-0.0025722371224111227,-0.003736723085684527,-0.004839249131051748,-0.005679878566464349,-0.006006887749665511,-0.005617648369443782,-0.0044641328707815545,-0.0027022551010256173,-0.0006510632067327277,0.0013218110897928674,0.0029292669311934555,0.0040421957796709105,0.0046825352036218675,0.004950348521497701,0.004938409207083439,0.004686071208367566,0.004191218695940697,0.003459078320707734,0.0025447153403653964,0.0015536474743701927,0.0005957747242910161,-0.00027791932524794957,-0.001110393923484194,-0.002012992666401773,-0.0030828795343583347,-0.004305117680739476,-0.005498298405066533,-0.00634647603720806,-0.00651630598564722,-0.005809350364639075,-0.004273472489916088,-0.0022110800793199536,-7.096826236252258e-05,0.0017297308880319467,0.00296759299077068,0.0036764575654339047,0.0040786896459064645,0.004422379133245622,0.004818353571711268,0.005173231467384516,0.005256777781123128,0.004857889383610535,0.003928977473854267,0.0026292708318632592,0.0012437946908719518,3.080218478742453e-05,-0.0009104104373518386,-0.0016754495777116071,-0.0024752330021762074,-0.003485556525125325,-0.004709342223156444,-0.00592978465439342,-0.006785069901664119,-0.006929347105645375,-0.006196365963541535,-0.0046802774763663475,-0.0026944541163554064,-0.0006360273224124892,0.0011687633772561703,0.0025613474033743017,0.003552739018067211,0.004248180264588836,0.004748978029894296,0.005087503287046005,0.005222313654766563,0.005082487507515174,0.004626555884710195,0.00388143342682194,0.002943416094112649,0.0019431315158228973,0.00099094905597364,0.00012720305658736,-0.0006977537842903298,-0.001597247553208413,-0.0026780314305825414,-0.003952555203974386,-0.005278185364417022,-0.006365311260248877,-0.006867166632709464,-0.006519907639550819,-0.005267869676439561,-0.003309182327662907,-0.0010342605128678649,0.0011157833836116088,0.0028026223321523246,0.0038835077019952944,0.004406075086295234,0.004522740766060237,0.004384064285922078,0.004073954994028186,0.003614159778278969,0.0030160974431645143,0.002328497694157541,0.0016383401257265586,0.0010215633760535417,0.00048034194829683614,-8.196089856478688e-05,-0.0008177062929952904,-0.0018363038887092404,-0.0031021683352006296,-0.00439303956013359,-0.005355810467246421,-0.005644509752650728,-0.005075682146256514,-0.0037201329721334277,-0.001880005574779449,3.7889195793551256e-05,0.0016841471475079746,0.002879139429598029,0.003624744927813164,0.0040265919624079514,0.004188137155330684,0.004145818989742895,0.0038774929791459637,0.0033612745939355605,0.002628238014020464,0.0017636146879171236,0.0008562381122577718,-6.0915521713757355e-05,-0.0010271499334939616,-0.002106028519461686,-0.003299537187173942,-0.0044828561157640905,-0.0054107008696034735,-0.005802954387152271,-0.005466741158543993,-0.0043880015431262236,-0.0027434827699843334,-0.0008309513626159222,0.0010397709743532344,0.0026370382844824103,0.003841126593229118,0.004622273826394439,0.0049945070986381615,0.004982235227798681,0.004617460994325472,0.003957461939436685,0.003095797125581194,0.0021450503888386678,0.0011934959246289658,0.0002624635366187224,-0.000701852162808012,-0.001785550423338062,-0.003028026678320705,-0.004348253679198395,-0.005522892428483105,-0.006241331115209967,-0.006223306816863009,-0.00534688001098837,-0.003720885979019618,-0.0016591787245993916,0.0004351135103469549,0.00221762302517092,0.003508454168938131,0.004307815189132676,0.004727116490650361,0.0048867847053926,0.0048429959363734745,0.004579049388839691,0.004053709403672225,0.0032656277847315906,0.0022868213582435074,0.0012398820387308114,0.0002306995975741707,-0.0007191273995762705,-0.001688637537067572,-0.002797927814563851,-0.00409727343209957,-0.005470821814501976,-0.006623511974465906,-0.00717680288656846,-0.006833867494149621,-0.005528966015981773,-0.0034791267453602144,-0.001108197963219259,0.0011177655316222542,0.002860036241255833,0.004001403723359091,0.0046303985051081055,0.004939597644140493,0.005101326814648245,0.005185852778937491,0.005154669011734791,0.004915909644207718,0.00439782511557448,0.0035962693218625726,0.0025771581367189647,0.0014427779382943076,0.0002845826780800384,-0.0008549550840664794,-0.0019936753158564754,-0.003183407364634661,-0.004449559999230875,-0.005722641775394121,-0.006804911470237745,-0.007408221843558792,-0.0072623735798719915,-0.006246506417851622,-0.004472368275913686,-0.0022680022545673935,-6.308908062747711e-05,0.0017702169555139455,0.003045016478661739,0.003797403144042374,0.004220600519964408,0.004532387949646561,0.004845727015787379,0.0051109270463462735,0.0051591519481819954,0.004819799832944829,0.004040665162210834,0.0029373288676892736,0.0017402713983240324,0.0006699136646826998,-0.00018606893703105361,-0.0009179915260029326,-0.0017293497327199008,-0.0027921065736523005,-0.0041017968746506804,-0.005420187032204631,-0.0063504365487575785,-0.0065149597578341815,-0.005742023425296032,-0.004156417962701947,-0.0021239895153316005,-8.611791160097846e-05,0.0016186715114161392,0.002851433733605176,0.0036523927068641314,0.004139573646929887,0.0044014081747912265,0.0044466290370435676,0.004228710749270951,0.003714186853714386,0.002941183522216648,0.002025016125790131,0.0011031289354623503,0.0002529307106554588,-0.000560000597873396,-0.0014572086275024365,-0.0025461758426930043,-0.0037985101640890255,-0.0049903031986802075,-0.005760191069166833,-0.005769631291448562,-0.004879975029792007,-0.0032417555559755996,-0.0012403780670641037,0.0006717091054770393,0.002160738402634375,0.0031162694289226626,0.003631686654775465,0.0038914027740510684,0.004041135788326084,0.004113545280377917,0.0040389431889327355,0.0037191233754685585,0.003109958986870706,0.0022598173958160777,0.001282354136257185,0.00028484711004119276,-0.0006977983171335626,-0.0017150492329813301,-0.002842972826344112,-0.0040864813422569,-0.005302992192814968,-0.006204696188089316,-0.006454757876853678,-0.005816519149895618,-0.004279555405571537,-0.002095047321347291,0.0003005818166742161,0.002438782650309443,0.003978128983401011,0.004799341343211767,0.004999454124754475,0.004798747706073841,0.004415775667026462,0.0039766459788157385,0.003498320042059043,0.0029381074128252346,0.0022628315504837505,0.0014857623411604487,0.0006492592141236299,-0.0002255097224325595,-0.0011735719100477364,-0.0022664182617859866,-0.0035379076787394248,-0.004900723802789886,-0.006115470678731594,-0.006849032482621233,-0.006804793197273831,-0.005859652647392806,-0.004133524824205197,-0.001953160063261423,0.0002695018061510537,0.002180841899808899,0.003583704999962725,0.004455756527097768,0.0048979546334776995,0.005052539400261292,0.005032989624770521,0.00489073851748079,0.004620170863431567,0.004187802040370268,0.003567718183650227,0.0027689149485569517,0.0018448180773331345,0.0008794182094687083,-4.8533432692558884e-05,-0.0009098619069512659,-0.0017525200932722786,-0.0026858490340280466,-0.0038126889089223842,-0.0051333751491830955,-0.0064754638834392236,-0.007505247430778933,-0.007839732746581549,-0.0072167027049993785,-0.005634942654247492,-0.003382187686326115,-0.0009274207791203499,0.0012689646269748891,0.002927968961097615,0.0040214470372660835,0.004712521384527401,0.005212066701510537,0.005637758471254525,0.005953072409774798,0.006011386502406098,0.0056671755196194655,0.004880905091600098,0.003756447720286181,0.0024970617161411144,0.001314031089079523,0.0003413671550554756,-0.00040483712944970097,-0.0010147327359460879,-0.0016365716493312375,-0.0024135800674155985,-0.0034219426357281254,-0.004622601062933152,-0.005842730140866861,-0.006804003838860118,-0.007202207622263697,-0.006816233596250336,-0.005600885264229168,-0.0037181503043987596,-0.001490180528782766,0.0007039682345994531,0.002541799569062431,0.0038372722182568914,0.004564542123153002,0.004827752612335047,0.0047963335289667505,0.004632031273098278,0.004432345568415055,0.004207830299723924,0.0038989071128633893,0.0034228799345436796,0.0027281274028463295,0.0018270182215515212,0.0007881415430419929,-0.000308022008590602,-0.001418886279749079,-0.002553290600201247,-0.0037274044209931493,-0.004885588589387315,-0.0058457453963717725,-0.00632574623114333,-0.006058287228252318,-0.004937073942472952,-0.003105667403646366,-0.0009285124082901199,0.001145938925782891,0.0027562100832377806,0.0037435847766394154,0.004161842571994438,0.0041929734964210735,0.00402841478940877,0.0037829667820886547,0.003477559206800149,0.0030799729969344415,0.002559416114731104,0.0019114734768476802,0.0011414177384142816,0.0002317990672466016,-0.0008638166023569922,-0.0021775129960721067,-0.003651642643441655,-0.005083873357757616,-0.006146177882644852,-0.006491389877545174,-0.005903199705376009,-0.00441008370530477,-0.002297807775040175,-1.0413336615703868e-05,0.002011024166419631,0.003474806732698371,0.00430748125319603,0.004624599549602865,0.0046292857222653095,0.004495065607743638,0.004291599482235122,0.003984482125974627,0.003496332745973236,0.002780891629384294,0.0018580104078265202,0.0007895047221889945,-0.00037743352871424387,-0.0016450426907671002,-0.003037763229501971,-0.004521429500341626,-0.005926992262539666,-0.006948444341939966,-0.007242917724976686,-0.006590358052299261,-0.005021037599260107,-0.0028301698094576333,-0.00046531753499302154,0.0016515420511428193,0.003270456513521997,0.004356942412597403,0.0050251952334803285,0.0054150984195125585,0.005590976645397917,0.005517505834009462,0.005116467633787955,0.004358169440452023,0.003321043318391592,0.002173462234245706,0.001082566082728492,0.00010678055668675583,-0.0008518418968771248,-0.001989348331192244,-0.003454943211166112,-0.005199713615249011,-0.0069155293364352305,-0.008117323738398047,-0.008341457874193716,-0.007362108113541542,-0.005310452831051,-0.0026311702505063808,0.00010038320502195524,0.002402268798208128,0.004037396707364457,0.00502789381169212,0.005549058486486811,0.005781867237574685,0.0058121542362855085,0.005621463609464886,0.0051519828682756496,0.004387117645975436,0.0033917201689162416,0.0022917020882547226,0.0012125917106984,0.00021633256988040978,-0.0007292419028716386,-0.0017321266479839632,-0.0029125856851169416,-0.00431522999261667,-0.005833118193773284,-0.0071876855240074365,-0.007994570034025423,-0.007905228165919683,-0.006765164631251902,-0.0047061977394953075,-0.0021164302925378337,0.0005030597193003398,0.0027221179239570346,0.004312755101652878,0.005269654257371073,0.005728626105368999,0.005846660094256119,0.005717496058187039,0.005360987039984994,0.004771495864185145,0.0039764195826353915,0.0030593877946564455,0.002134690713801896,0.0012937766028252797,0.0005589061575299863,-0.00013033810888679666,-0.0008920217533998814,-0.001848316926949629,-0.0030603511449218434,-0.004471816372831571,-0.005885308127924333,-0.00699293164848336,-0.007465000739603591,-0.007070004725882258,-0.005774077715936021,-0.0037701910647634936,-0.0014199381548557221,0.0008654303148143904,0.00275065293517661,0.004057795361796912,0.0047789838090253785,0.005028565034593932,0.004965406243698571,0.004722360268604942,0.004370316982794741,0.003924176318134753,0.003376584588411888,0.0027324061327587677,0.0020193675814493754,0.0012677789416888502,0.0004759842690751796,-0.0004063933890324227,-0.0014512752636255287,-0.0026833963248615133,-0.004007796735302284,-0.005187829257488454,-0.005907593466954422,-0.0059020167049230795,-0.005088659805505988,-0.003624093827439808,-0.001846788191542843,-0.00013429849117967162,0.0012479379323281346,0.0022267438130261124,0.002894799841224439,0.003403295531898128,0.0038415695058670717,0.004173309253937094,0.004261753835914844,0.0039632203078185475,0.0032293658719983846,0.002155081301683503,0.0009419947761184658,-0.00020163095135281093,-0.0011641672719528073,-0.0019718388698320164,-0.002738083650790475,-0.0035485488394849125,-0.004354055222970324,-0.0049453194082869,-0.0050359032604342276,-0.004411848531664926,-0.0030625260487219244,-0.001216707126768513,0.000736917091585587,0.002401645286115235,0.0035192783819357394,0.004042850035388467,0.0041097395964509375,0.003939720514180775,0.0037153447329680016,0.0035032027804321447,0.003247120196081756,0.002825296816107317,0.0021330021114061085,0.0011445306313441887,-7.451307857693051e-05,-0.0014010900942909767,-0.0027039928731014537,-0.0038737874956504877,-0.004819679296964664,-0.0054482913021310485,-0.00565369572353378,-0.0053381631418888305,-0.00445808512442431,-0.003068702138635984,-0.0013384786874298326,0.0004811617044223041,0.0021229593513213208,0.0033819574708248605,0.004171963701423016,0.004535010638329015,0.004598437686023523,0.0044993162146867265,0.004314143891232715,0.004031160070594194,0.00357941521658037,0.002893645980946562,0.001969765587791281,0.0008718572553676559,-0.0003128919722696448,-0.0015339029351304685,-0.002798764559353991,-0.00412880782903734,-0.005471942310898401,-0.00663731876840323,-0.007314469665952711,-0.007189513280737272,-0.0061041116125037905,-0.004165972989822641,-0.0017402929699155453,0.000682265818835427,0.0026752041531083277,0.00402584781734496,0.004772011018085089,0.005117447517248793,0.005283713452050635,0.005384638545648662,0.0053872352077926145,0.005167388363037246,0.004615134490688138,0.003721910260437469,0.0025987922896691077,0.0014172873237742255,0.00030899753568763394,-0.0007147510571040044,-0.0017700293035713987,-0.0030193105900080813,-0.00453887464682789,-0.006207824379678909,-0.00769031392201386,-0.008538362281338314,-0.008376663532822275,-0.007079836391108249,-0.0048487280305045816,-0.0021422683957227576,0.0005018003927885755,0.002665676610745565,0.0041726612771438975,0.005081952901224237,0.005579222846870771,0.005837046707616074,0.005924651983261788,0.005806392026483129,0.005410728481899987,0.0047128218448051476,0.003775294449167326,0.0027263927019762005,0.00169566344316969,0.0007487387787895401,-0.0001428647643495203,-0.001083356475091088,-0.0021946089332008285,-0.003540627899574574,-0.005061858677730513,-0.0065473109261664445,-0.007666641325921375,-0.008065867726773628,-0.007500218685554314,-0.005950084203119225,-0.0036612446821155525,-0.001078590128118762,0.00130684093021113,0.0031311702410034108,0.004270195188593525,0.0048382482238927115,0.005078912593678531,0.0052100180702044,0.005308195142175554,0.005292883162786205,0.005009836704765254,0.004355107806705968,0.0033585980580968697,0.002175400441986183,0.0009940197328263294,-7.636674421741932e-05,-0.0010649050734350728,-0.0021033737391580737,-0.0033131368584444305,-0.004680574373524174,-0.005998031080136128,-0.006914461032268621,-0.007079969084907609,-0.006313404258614213,-0.004703379408448062,-0.0025846296033700915,-0.0003993126903002755,0.0014820954423089097,0.0028842094436555884,0.0038349226394513193,0.00446978920013197,0.0049034940164549975,0.005150415769103734,0.00513518255042786,0.0047713970616976515,0.004045116418562101,0.003043935960444052,0.0019142936639101101,0.0007780038843974653,-0.00033534597487761984,-0.001492267400465215,-0.0027841091518583843,-0.0042153391486607576,-0.005618329155646211,-0.006658721217718431,-0.006950907811035603,-0.006236734755437793,-0.004533131247901964,-0.0021616395260161494,0.000363994381891896,0.002535374936815603,0.004029266233461186,0.0047833217837358,0.004946307979403992,0.004750987006757377,0.004390317680275778,0.00395857660218045,0.0034668874781714834,0.0028948289503110732,0.002227346561710975,0.0014527613025654713,0.0005384421288006099,-0.0005766769773505397,-0.001944795385148925,-0.0035353873193430018,-0.005169584177411487,-0.006518790900870885,-0.007195952999686927,-0.00691177586967103,-0.005617829908500121,-0.003552578673604791,-0.0011567919219417917,0.001098987973879168,0.002882612198358915,0.004081116904554087,0.00476819447237206,0.005096578578194152,0.005187163459834277,0.0050758821948937785,0.004735823524370154,0.0041433160335038145,0.003331927201418999,0.0023921380972162193,0.0014168094505927888,0.0004341725653132603,-0.0006176996604431977,-0.0018463914965248032,-0.0033082695693430926,-0.004914574148435689,-0.006401720210916018,-0.007396416998266317,-0.007554719460104067,-0.006710303453846108,-0.0049575229024954115,-0.0026269048526028744,-0.00016655817640767826,0.002010985572785287,0.003646700584127874,0.004674663100964411,0.005182973113690136,0.005329336816143759,0.005255857518488229,0.005037777491326273,0.004679570371509363,0.004149093479308043,0.0034245132842905023,0.002524999485008897,0.0015067866013921964,0.00042758433152600663,-0.0006954591129899046,-0.001899449502389384,-0.003239025868104723,-0.004709467547579359,-0.006173841207938468,-0.007349426978276461,-0.007882791569201974,-0.007490828124864653,-0.0060993243855940954,-0.0039036214808392984,-0.001315079025861909,0.0011821571262696357,0.0031951664239478917,0.004533873777606962,0.005229400092361622,0.005464566677719541,0.005458588545131057,0.005361561453118027,0.005203249252652343,0.004911893041978262,0.0043849551538207385,0.003569715181904676,0.002508779282545159,0.0013257723649055348,0.00016007650870711725,-0.0009108815579026566,-0.001913716371804545,-0.002954184146363658,-0.004130183730409878,-0.005426378030642629,-0.006654326839482623,-0.007486781970109625,-0.007584601763231703,-0.0067556430389602105,-0.005057625425566602,-0.0027858963524821654,-0.00035594992644031784,0.0018488999871578043,0.003583783132096065,0.00476262423980404,0.005409607588239794,0.005591662628525101,0.005376588467732786,0.004831699805210921,0.004047380258832754,0.003155299583067292,0.00231636713878915,0.001673140331193202,0.0012850256722519659,0.0010809402837399578,0.0008638004361050538,0.0003806658007914866,-0.0005615586544031256,-0.0019847532239354935,-0.0036890067952636257,-0.005295470282686631,-0.006371939892686994,-0.006590119492064884,-0.005847184509830872,-0.004300490468042357,-0.002304630901230524,-0.00028322947195032894,0.0014081831612072775,0.0025760856887313385,0.0032121224315171813,0.0034477810494057586,0.0034671808261463348,0.0034181435177695774,0.0033599607479905553,0.003266282322930246,0.0030702815550713823,0.0027154881607156104,0.002177577237000082,0.0014502584758135186,0.0005208841480273843,-0.000628286982021313,-0.0019788059234158114,-0.003418059185918334,-0.004712608894154091,-0.005551541841120329,-0.005657403259241607,-0.004914511078012003,-0.003443008296617362,-0.0015702649128640556,0.0002923569112742266,0.001805344997944895,0.002810379487268539,0.0033434216283919826,0.0035575254067112608,0.003609198028181765,0.003575133483636984,0.0034392852007422954,0.0031422638868235865,0.0026468942192777933,0.0019695217567118825,0.0011580527393318164,0.00024224354529531634,-0.0007933202660271917,-0.00197843531915683,-0.0032809005993935944,-0.004541427610805603,-0.005481346787793648,-0.0057995536316208934,-0.005310655107727972,-0.004041800859036738,-0.002229406378838154,-0.00022125972298694084,0.0016540254166037731,0.003178203979842113,0.004260079342661363,0.004894077795766406,0.005107146990240975,0.004933599744322208,0.00442511793889847,0.0036709896473457676,0.00279440557950269,0.0019100472154692976,0.00106223703280274,0.0001871567754065692,-0.0008618337905602579,-0.002220918532290994,-0.003895082493012965,-0.00567868159012355,-0.007175782505764622,-0.007929913519872094,-0.007610688245331388,-0.006166378611738278,-0.003862950008763905,-0.0011876964216183154,0.001333961477084812,0.0033185701217736956,0.0046212560730356095,0.005318240002624153,0.005602721459487375,0.0056575831909317096,0.005568547918853831,0.005311528025686801,0.004806634571200608,0.003999421602777287,0.0029204399009993996,0.0016888120336163446,0.0004569106329044976,-0.0006724155703636365,-0.001704422777828435,-0.0027431212777543432,-0.003907145427394086,-0.005212175526168028,-0.0064911119839119475,-0.007411491744630721,-0.007597717381864561,-0.006802869474054893,-0.0050409563861595836,-0.0026082668363925183,1.851457708004859e-05,0.002355904620959263,0.004075219681630306,0.00508182403911514,0.005487764613539463,0.005505655128442091,0.00532495831635561,0.0050327124424272215,0.004610937069224956,0.0039986658887257165,0.0031715155145472223,0.0021849541344164,0.001152626529479769,0.00017383763658888058,-0.0007403479768188032,-0.0016866882050535815,-0.0028082661628212715,-0.0041754356056144665,-0.005676252942723174,-0.006991432607059961,-0.007689492960328772,-0.007408714284042814,-0.006035421501681074,-0.0037818988490196086,-0.001119036434463341,0.0014028472083374096,0.003354455493466246,0.004554505620600705,0.0050747294013506385,0.00514004690801377,0.004988760186770314,0.004765110345768475,0.004486951747897232,0.004086867092329712,0.0034905879473997453,0.0026851325362197294,0.0017399223685843433,0.000770265435407482,-0.00013504268025639162,-0.00097540148733718,-0.0018424508382884062,-0.0028509998028398162,-0.0040297237424056775,-0.005238559014776637,-0.006173845917919485,-0.006475843615067916,-0.005892361094151334,-0.004414143215969549,-0.0023075928996761645,-2.427868676232244e-05,0.001967975423831768,0.003349796510792588,0.004037008215131353,0.004160775571478507,0.003965497349200652,0.003682664520702127,0.0034404937746305994,0.003241760202275656,0.003002603227279208,0.0026157520637949414,0.001998795273280192,0.0011105345893857633,-5.2396354111535035e-05,-0.0014529150599496723,-0.0029909747263471924,-0.004475023018794737,-0.005622797375517706,-0.006121681804033011,-0.005743600737916823,-0.004464150026193326,-0.0025145758501018915,-0.0003217009064410587,0.0016456758055046496,0.003047222815825712,0.003770910573386438,0.003919450470245578,0.0037086960523906565,0.0033482760651094984,0.0029692686052970913,0.002618255246162087,0.0022892943734056847,0.0019503273143743195,0.001544368390263482,0.000983027803131572,0.00016583734636940164,-0.0009614313966728764,-0.0023359448965294665,-0.003745652264932731,-0.0048730851750265715,-0.005406660161584408,-0.0051655706845924534,-0.004172212457219918,-0.0026362824261414127,-0.0008658666468757069,0.0008418793287753174,0.002276519375332765,0.003332460813254391,0.003982230580257706,0.004238184592739414,0.004131231134276805,0.0037132721596528314,0.0030677517207396477,0.002304956137132489,0.001530564391275785,0.0007992879688663286,8.34612938222704e-05,-0.0007151499587090501,-0.0017044964447507705,-0.0029167845641032216,-0.004242564930716825,-0.005425299497196377,-0.006130928046991994,-0.006069240006400491,-0.0051142524256396205,-0.003367218896762325,-0.0011327390265557596,0.001179402214244785,0.003181542567512242,0.0046126676153156795,0.0053850815599592065,0.005565947343104151,0.005312519939093818,0.004795286660533608,0.004142532702463183,0.0034235519513584767,0.002664184571262768,0.0018711314576213695,0.0010417523849774824,0.0001542927741989648,-0.0008432534451334561,-0.0020181979100410705,-0.003400258938624007,-0.004911405400731593,-0.00632540747581488,-0.007301038770167172,-0.007495529239033929,-0.006713116360372296,-0.005011838285255485,-0.0027054974487415316,-0.0002527446678376673,0.001912247363353738,0.003522656342218995,0.004529760062432726,0.005050146406379248,0.005253359791471516,0.005259190779895497,0.005097392233993298,0.0047380010578141,0.00415701715237613,0.003386206441669277,0.0025137116395608106,0.0016382625696946397,0.0008093272395855455,-7.716180582747925e-06,-0.0009177781221675649,-0.002035549174378031,-0.0034031720102595917,-0.004923980921312543,-0.006349145410584201,-0.007336198939625004,-0.007566167903535299,-0.006872326409982414,-0.005319294376995441,-0.0031905412300403443,-0.0008880640217290685,0.0012074159919656835,0.0028512058147332994,0.003978531093042253,0.004670054136022218,0.005067291915316331,0.0052841315618749555,0.00535578106238911,0.005243262368356991,0.004882023597297521,0.004242385486622316,0.0033669165320322153,0.0023642493221841896,0.001361362271994433,0.00043743755574941214,-0.0004250727317767977,-0.001338744026119947,-0.0024462339707158943,-0.0038143608468956024,-0.00534141641059783,-0.006738259744372517,-0.007612304670811426,-0.0076262176028378805,-0.006653698799536327,-0.004847895413709713,-0.0025831292149679267,-0.0003012983571578979,0.0016541825010358128,0.003132853378903052,0.004162745304258742,0.004853173356069113,0.005283585968661653,0.005446774691723683,0.00527488515883529,0.004722425210263902,0.0038437192347566215,0.002805234956063979,0.0018156137981518675,0.0010126918052207811,0.0003803772869019231,-0.00024498873693515875,-0.001072434345902799,-0.002211804958474524,-0.003569478752876828,-0.004848174451183721,-0.005659313497381087,-0.0056952621025393654,-0.004874596846324254,-0.0033851240531762397,-0.0016021635536606414,7.411577912689248e-05,0.0013762136066947147,0.002242170845170415,0.002775545966225708,0.003128954190445594,0.0033875187421229577,0.0035214106858150757,0.003428491653037666,0.0030292187976457908,0.0023433298881880274,0.0014925003209161464,0.0006260123460878617,-0.00017756851069574732,-0.0009591290426374125,-0.0018350195408220718,-0.0028802057268020416,-0.004012917473629263,-0.004963769966227677,-0.005365869690221355,-0.004927553622875277,-0.0035935518323514416,-0.0016010231200816961,0.0006044190627230686,0.002547643095273678,0.0039019969168222397,0.004578446650757299,0.004695212710272134,0.004464628317007361,0.004070908251012693,0.0036021703569492146,0.0030556117209689523,0.002388070353266346,0.001564977776876245,0.0005774806150860162,-0.0005671591014744171,-0.001852409512906425,-0.0032327313204922213,-0.004593668309027596,-0.005727551248805484,-0.00636290940194093,-0.006254536385290704,-0.005296490881329786,-0.0035950007457729366,-0.0014536647799279693,0.0007279490924641723,0.0025913887256900398,0.0039233460305046495,0.004681959324551101,0.004948276949452124,0.004845553445797212,0.0044779318254279405,0.003915674538976754,0.0032150901093027993,0.0024362200431112856,0.0016295444181684995,0.0007982709149810802,-0.00012444980986088148,-0.001243856556794622,-0.0026154115421741808,-0.00414760211589329,-0.005566322515748378,-0.006484950337160896,-0.006559522255792522,-0.005648368853611235,-0.0038855332277913743,-0.0016282892097638827,0.0006847970144377253,0.0026824751791234697,0.004145338211546574,0.005007878802229129,0.0053088807890611656,0.005136068325998256,0.004593159308209447,0.0037899092971359913,0.0028398498672423133,0.0018515079044454622,0.000909130031954842,4.932182569979224e-05,-0.0007530955424197893,-0.0015748006595352152,-0.002500848481028417,-0.003558055767370545,-0.004655670156973703,-0.005572709839381013,-0.006014494484138497,-0.005723652378575942,-0.004596088784638953,-0.002744377703559797,-0.0004764946210796439,0.0017996637271987309,0.003702133167214237,0.004979401893242127,0.005557858878156073,0.005523725534369802,0.005057222004963953,0.004353059659896741,0.003561564951933503,0.0027676980920262797,0.0020002856022453544,0.001248423720148007,0.0004683672953588042,-0.0004136995847547868,-0.0014812430807091105,-0.002775404181689923,-0.004227409217139584,-0.005619505421021812,-0.0066182417432059165,-0.006887303147069611,-0.006234513567441655,-0.0047155302291201195,-0.0026318192403483515,-0.00041757214098787687,0.0015269119138650983,0.0029702210165698027,0.003890881066701801,0.004416774540651961,0.004707556153619003,0.004848770605990054,0.004814050846123754,0.004510596517501441,0.003873381956719959,0.002942941850588629,0.001870984250635629,0.0008448056985884045,-2.3069440361949046e-05,-0.0007661106018279954,-0.0015419283672459877,-0.0025198829088462858,-0.0037395750818966914,-0.00502683661222135,-0.006027773883970006,-0.006355600881787113,-0.00577653952032524,-0.004333292185548965,-0.002338009704893237,-0.00024123654613858887,0.0015491820619298407,0.002805982940889306,0.0035187916561208584,0.0038309082938771354,0.003926482940489253,0.003931336429535349,0.0038711814400197906,0.003694841781578768,0.0033363897994022765,0.0027740060044663195,0.0020509610209167627,0.0012497840414018378,0.0004397468246898433,-0.00036576726949773676,-0.0012110136492964013,-0.00215287417587725,-0.0031935180009618324,-0.004232009510926839,-0.005068413152117082,-0.005465755408590643,-0.005243052408780083,-0.004354948366805865,-0.0029199202694820824,-0.0011850202297305258,0.0005545939509361495,0.0020448032285427815,0.0031347650134381415,0.0037928011061230654,0.004078082955532523,0.004088177047777165,0.003910065565693021,0.0035956672480816415,0.003164686659170718,0.0026193416217885008,0.001951804139856488,0.001140386708550543,0.00015097007815099858,-0.001035999955020213,-0.00237430938958999,-0.003708932355320442,-0.0047841343197416175,-0.005319871148151342,-0.005126497502707218,-0.004195599034030246,-0.00271422243973907,-0.0009949033331186682,0.0006384361567789004,0.001950414291415107,0.0028395029781074967,0.0033236413294832024,0.003489389520617707,0.003436605392389441,0.0032419780709092164,0.0029478442308398557,0.0025670507789739986,0.0020884739300778454,0.001475662470522404,0.0006679310444090663,-0.0003964052332780713,-0.0017259059233241275,-0.00321228142259205,-0.004603953384058546,-0.005556984775754928,-0.0057587766880646445,-0.005066043714941116,-0.003578957186863006,-0.0016081104447123735,0.00044421971576141215,0.0022210849993880384,0.0035018662541866884,0.004223297797502146,0.004447160882021874,0.004306046295417713,0.003949701523979734,0.003500649400606205,0.0030221976655086563,0.002503564158033899,0.0018678089752193192,0.0010045308367131298,-0.00017744061501367612,-0.0016893386316290946,-0.0034129804129550577,-0.005087167782041801,-0.006351300464116828,-0.006848326618330248,-0.0063572465025157066,-0.004898511769613594,-0.0027556657182403,-0.0003910463170367532,0.0017138508360349824,0.003222342992591193,0.004036294262302112,0.004281112432768871,0.004199398339152517,0.004015472781892006,0.003841730271938637,0.0036658368737347404,0.00340562439127456,0.002980246944293316,0.0023467854606734314,0.0014883821527938502,0.00038407225643308793,-0.0009926430141991996,-0.00262425999066362,-0.004376044650856779,-0.005961873401721828,-0.007000382512603993,-0.007155051579716476,-0.0062880394060263415,-0.004537690448636033,-0.0022720224434213294,5.505894259040903e-05,0.002065074943157683,0.0035552108692164645,0.004504386897715218,0.005005644306985442,0.005175511024962916,0.00508903359578129,0.004765193916211771,0.004197432508663137,0.0034009329439314354,0.002440796874774627,0.0014175206755190017,0.0004145892706636723,-0.0005571613785518886,-0.0015727342944637642,-0.0027380680886331097,-0.004085486770859887,-0.005480311358741362,-0.006609135324546089,-0.007082093309557378,-0.006611683855322397,-0.0051730682027860886,-0.0030487253499263504,-0.0007226515348245345,0.0013219659145892796,0.0027916450616828335,0.0036609015017257927,0.0041118691378218795,0.004384896518468873,0.0046299115632508474,0.004834884127691999,0.0048572712219615045,0.004528792209714666,0.003770479209812867,0.0026555281332507914,0.001387727393732584,0.0002073798791208235,-0.0007258738366879671,-0.0014105370566466254,-0.0019958643384022185,-0.0026860436385981136,-0.0036000056650505453,-0.004661534662429565,-0.005588098104187509,-0.005998946703974685,-0.005594955309796293,-0.004315870093846067,-0.002388577505787333,-0.00024012293664683448,0.0016767189367080976,0.0030542227243043627,0.003814744044789913,0.004079269863596922,0.004051900781296542,0.003893507067791685,0.0036549322896259357,0.003296497939377683,0.002763726065929108,0.002055966299705021,0.0012369552074792817,0.00038489891515423684,-0.00047122323467405476,-0.0013698580358865024,-0.0023650190565586066,-0.0034366349171540103,-0.004430833618687733,-0.005083576576164482,-0.005126346371269521,-0.0044171076990533135,-0.0030219732204998617,-0.0012023726924870427,0.000683264847597441,0.002309794469370254,0.0034831344369984354,0.004165494740243643,0.004430405840434311,0.004385488843868159,0.004111037289485093,0.0036438483462776796,0.003001761778899976,0.0022174256599041607,0.0013474413307535899,0.00044625105264138343,-0.00047375687004954454,-0.001457099176383995,-0.0025684014863134605,-0.003813985390083167,-0.005068968528827418,-0.006066578859949104,-0.006476586836744005,-0.006046051242144253,-0.0047322922326540565,-0.002754583374754085,-0.000531015208023731,0.0014736573291661865,0.0029185697302433534,0.0036975482219728188,0.003942837301891072,0.00392635392793445,0.003910631508263072,0.004022630121076749,0.004208661487853708,0.004285864453182254,0.004056646907307802,0.003421683529331465,0.0024301376895883822,0.0012423721540324175,3.2006900609435123e-05,-0.001108934191953244,-0.0021996943718214025,-0.0033143689470148258,-0.004474908736709115,-0.005565538059852928,-0.006332666166494749,-0.006483921950638025,-0.005836351757341337,-0.004427939400888267,-0.002524264472004807,-0.0005140094890014836,0.001247384797576544,0.0025603385837054946,0.0034116961904830014,0.003913361664368222,0.0041993583992322335,0.004344958703425223,0.004346232298961281,0.004156415755176043,0.0037443594972055216,0.0031346856659173715,0.002406084997718095,0.0016503426721340981,0.0009169583203009112,0.00017743553289607399,-0.000664621147215841,-0.0017141896066819578,-0.003000946868776293,-0.004414693076250439,-0.005701477158886813,-0.006534607717568235,-0.006635016458994912,-0.005885957240307521,-0.0043866966655524255,-0.002420169064956533,-0.0003525145299341748,0.0014873763928351866,0.0028975793848788622,0.0038320898549278988,0.004367591368010149,0.004630621533803059,0.004721572605889367,0.004671603906358129,0.0044509050035886275,0.004017463633370218,0.00337118201606046,0.0025755527835706303,0.001731071453983451,0.0009171341682474748,0.00014106058779204673,-0.0006699966581662038,-0.0016237062239750845,-0.002784365200528721,-0.004101542079700378,-0.005384095844491194,-0.006339560936451681,-0.006670823496807575,-0.006193918467469808,-0.004924686753516419,-0.0030898167571646465,-0.0010511514960793462,0.0008243948148067763,0.0022885176091921727,0.0032718511878951024,0.0038580095623684933,0.004193562415950392,0.004387930156470767,0.004458130643109331,0.004342986860879344,0.003968182792044623,0.003314231226521059,0.0024416100698114542,0.0014580678633562133,0.00045216956795541934,-0.0005592856298173139,-0.0016284837136391118,-0.002810669449251935,-0.004070506033441802,-0.005222638198932475,-0.005958057937112628,-0.005961253899693459,-0.005065375136202387,-0.0033607356316328247,-0.0011899974951316652,0.0009762941274370453,0.0027230710629605236,0.0038386502102910926,0.0043530883912875325,0.00445611648403851,0.004353031679032505,0.004149114982871101,0.0038268866236588223,0.0033136012937932113,0.0025757600809545663,0.0016655403722025347,0.0006872971147392264,-0.00028332585578771653,-0.0012577269255150863,-0.002316300930073723,-0.0035171167968803567,-0.004791318509846261,-0.005902348697803005,-0.006510734067251422,-0.0063203691154758036,-0.00522835266367979,-0.0033937337184436053,-0.0011856377967313927,0.0009608425085938768,0.0027040203075167383,0.0038911689345210608,0.004552991590071102,0.00481836306451551,0.004811531866553105,0.004594059965419858,0.004175347900201047,0.0035657832008949607,0.002819887725977238,0.0020305085705327433,0.0012764253295481556,0.0005630832243308143,-0.00019624999487454766,-0.0011363568404183621,-0.0023495079134198222,-0.003794992777473929,-0.005260553529522352,-0.00640532783141513,-0.006874100868789418,-0.006434780796308704,-0.005076236232738307,-0.0030219052352458394,-0.0006558106659100331,0.0016025058530803463,0.0034201457394017463,0.004625548627708585,0.005216984478562452,0.005313983027614233,0.0050807113315233035,0.0046569215045247645,0.004123476977608466,0.0035085353372296254,0.0028170654375465893,0.002054510904609029,0.0012246862371941953,0.0003081208512069882,-0.0007494110693659523,-0.0020091619381771074,-0.003472857851640156,-0.005015545292742512,-0.0063714816794152316,-0.00720267929775135,-0.007228301835310755,-0.006349145486011686,-0.004697789183221127,-0.002586868108424766,-0.00038704455591786547,0.0015977559786877283,0.0031985621840526033,0.004374604267647132,0.005156026990601146,0.005580735755694095,0.005662165409771467,0.005398990582891809,0.004810195975608521,0.003963831087258751,0.002972722750302816,0.0019525700692356847,0.0009646624273710078,-1.892212641950108e-05,-0.001096214513888697,-0.0023592578628723855,-0.0037951559979354497,-0.005222821180082547,-0.006316270933940655,-0.00672226415806447,-0.006221853364416123,-0.004848787710848595,-0.002892964948553293,-0.0007817679462123277,0.0010946094579613072,0.002516724017657042,0.003463197097207888,0.00403644624093031,0.004349780759808204,0.004449935669733487,0.00431331674268271,0.003901033371846342,0.0032221120892098353,0.0023550594901881783,0.0014108645482691711,0.0004637574998039355,-0.0004973517548106483,-0.0015520261962993632,-0.0027628036062861882,-0.004069038295229685,-0.005234546245863298,-0.0059017770370654405,-0.005742455632337251,-0.00462903255706127,-0.002728241497613501,-0.0004571312709984181,0.0016795718338643855,0.0032842509866402693,0.0041926746399014465,0.004476827532348323,0.0043428065292659395,0.0039965525497681976,0.0035546544214637692,0.003035347058065422,0.002408276952596353,0.0016494655993210248,0.0007597018821571394,-0.0002530529313828332,-0.001390312484328377,-0.00264275902999966,-0.003935211991675418,-0.005081887933473587,-0.0058050789085933585,-0.005831579853941891,-0.005022595140415519,-0.0034604910041649327,-0.0014369985218918788,0.0006525112757866145,0.0024497919227976523,0.0037383700953122615,0.004471515660793616,0.00472892819680747,0.004639792653984056,0.004315799764046103,0.003821423710432571,0.0031829242318558728,0.0024161248571065597,0.0015463130661368947,0.0006048276033979975,-0.0003907286185938221,-0.0014479322832989083,-0.0025800902496618417,-0.003757211299810406,-0.004857987096623832,-0.005664448282834645,-0.0059212611449834755,-0.0054411614115426,-0.004204052119448239,-0.0023943454574065523,-0.00035204675189543633,0.0015421222582004896,0.002994930049318803,0.0038850799215302137,0.004269584257783399,0.004315670598974116,0.004197287368525505,0.004010896614296908,0.003751364523139966,0.0033514732119345144,0.0027501782754662737,0.0019407456665440157,0.0009698313583865867,-0.00010257834608884718,-0.0012432302396183505,-0.0024477708318674284,-0.0036973593200753593,-0.00489964954048284,-0.005862285857245608,-0.006331796556867381,-0.006090136690064403,-0.005061260077280478,-0.0033680947794646646,-0.0013051125970512914,0.0007622818297363774,0.002521612285223758,0.0038011355769758323,0.004585268642565109,0.004961577057400815,0.005037736850818533,0.004877398139966669,0.004486800767295724,0.0038511759316583083,0.002990334320667346,0.0019916462960980685,0.0009916449971818708,0.00010959226458840375,-0.0006283756350045791,-0.0013196141986278592,-0.002133773952487026,-0.0031936326743778045,-0.004453433549219807,-0.005656485659598705,-0.006415348321406554,-0.006383912573005388,-0.005429549840204653,-0.0037083997591417592,-0.0016028265615628133,0.000440246915518433,0.0020800404380431304,0.003177864563764385,0.003787002995733908,0.004064836591545627,0.004166900636590615,0.004176131552804342,0.004090622583776286,0.0038607232841088674,0.0034452558323845987,0.002852118420709676,0.0021402558890005956,0.0013829943803754323,0.000616855304520245,-0.00018792437023054247,-0.0011081998834536466,-0.0022020871632716372,-0.0034320108498392407,-0.004627606964068923,-0.005522020477745153,-0.005851770068068017,-0.005469105725923841,-0.004406191904631145,-0.002859785864912956,-0.0011119119172599303,0.0005663165608719227,0.001982067052991224,0.003040272282059219,0.0037250640588184884,0.004066717908629761,0.004114046026189748,0.003920133315674115,0.0035387013069960046,0.0030234578516697814,0.0024228317048961257,0.001766425796690371,0.0010478058503109763,0.00021862071655905606,-0.0007877137404281388,-0.00199868198957823,-0.0033359982692941605,-0.004585209205641253,-0.00543814252046116,-0.005603933344252506,-0.004937849213291413,-0.0035190776173390113,-0.0016336391714555094,0.00032958496443841217,0.0020167340328344522,0.003215621024659684,0.0038891577582678945,0.0041340794826943555,0.00409806447018167,0.0039013020740788565,0.0035970211927283356,0.0031783704220672095,0.0026125929136680626,0.0018731338396754584,0.0009513824732144174,-0.00014735071062942022,-0.0014031348802819648,-0.002760962655242623,-0.004099234349656864,-0.005217484896493283,-0.005871425783162184,-0.0058540906984926476,-0.00508608816832714,-0.0036642122597019466,-0.0018383411053019226,7.278559712533227e-05,0.0017841268131375428,0.003117790448185217,0.004020925637253713,0.004532402684676901,0.00472614508376125,0.00466451176775469,0.004381549204764782,0.0038928606664897147,0.0032121681551094483,0.0023556958311717296,0.0013321006818719295,0.00013371622562937486,-0.0012507311222167878,-0.0027959285299088447,-0.004390337556793565,-0.005812351588466633,-0.006763241302991947,-0.006959488955922403,-0.00624882107054413,-0.00469129308160811,-0.0025581694450610122,-0.00024353438383952668,0.0018692679888303782,0.0035218508457719277,0.004626036137340641,0.005231124039937243,0.005444899086045989,0.005358397613213271,0.005012819538456434,0.004415151925622826,0.0035776977977045013,0.0025451099960496614,0.0013869871541167882,0.00016385473772762243,-0.0011016871732729286,-0.002416846109366314,-0.0037681676378732015,-0.005059347639415271,-0.006086840115380539,-0.006586457129067278,-0.006339079268182223,-0.0052801724416109376,-0.0035491470506422507,-0.0014491501602153431,0.0006588963829247944,0.002469904107757939,0.003803131770980383,0.0046083216347613705,0.004929214767717684,0.004858542019524496,0.00450642708886481,0.003981380305141321,0.003370500070293739,0.002712398503787197,0.001974647940787027,0.0010595332684179403,-0.0001456134242639934,-0.0016831228664793967,-0.0034434660181430882,-0.00513827454002448,-0.006361036186500304,-0.006725725946909162,-0.0060274446095165465,-0.0043477740506886065,-0.002047722810402327,0.0003547929199852868,0.002367614658613159,0.003682853356295887,0.004243633327065399,0.004202572652656141,0.0038098917833062594,0.003295469288410942,0.0027961343218007883,0.002341963250622712,0.001882495194764665,0.001325950302598215,0.0005784106117499241,-0.0004152195206662541,-0.0016280276375199541,-0.0029206830755828593,-0.004049785705828141,-0.004730414396130474,-0.004737474609177644,-0.0040003924724344945,-0.0026413493243252037,-0.0009356865757409296,0.0007842598804071293,0.0022332220087264098,0.003240190641949625,0.0037613824662076794,0.0038508697464541093,0.00361421682175816,0.003165308969535925,0.002593312794804463,0.0019392403516828615,0.0011855032630502132,0.0002696633887467949,-0.0008685272499702909,-0.0022163063347398777,-0.0036280921312531957,-0.004821842008663911,-0.005455843529932957,-0.005263968953156881,-0.004184869697340992,-0.002413750538971811,-0.0003432717315613451,0.0015799994207594556,0.0030130993108527337,0.0038147773528661847,0.00404699270716997,0.0038937706169195063,0.0035489639786460583,0.003130559136286128,0.002654431539599462,0.002063037814647587,0.0012790987550610178,0.0002546375315477011,-0.0009962523374364084,-0.002378378929816578,-0.003710471238893851,-0.0047457216711831104,-0.00522859491832498,-0.004978093380322011,-0.003963114821346139,-0.0023311965166571617,-0.0003743914094536004,0.001552434494396316,0.0031273903429370952,0.004139391401390116,0.004527832850085499,0.004376463269538024,0.003865437555200803,0.0031975553139441336,0.0025241903286016567,0.0018973354622850136,0.0012643318873318248,0.0005060886370859061,-0.0004946469896061581,-0.0017775954731628824,-0.0032493421350717673,-0.004675061254278323,-0.005733470905869417,-0.0061244974282352385,-0.0056869653627964565,-0.004468473664522056,-0.0027092671970742497,-0.0007487520887969781,0.0010941350973990302,0.0026067564709557527,0.0037029053225307177,0.004386962277154179,0.004698956911585089,0.004677216271667341,0.004354101116759503,0.003775102416634397,0.0030175786216033113,0.002188190992883225,0.0013930484688641203,0.0006925350095959543,6.543941115492552e-05,-0.0005914954698981343,-0.0014152358827340759,-0.002490927133142627,-0.003767665344635692,-0.005025943296961422,-0.005929989487940593,-0.006154364407390138,-0.005527327981297274,-0.004115865378655821,-0.0022051049580196535,-0.00018316620525751575,0.0016059212130316327,0.002966183298120107,0.0038675004753222536,0.004386754389428238,0.004620895850869505,0.004625316478192643,0.0044048776711221455,0.003948639377339039,0.003274898583561026,0.0024519909303605597,0.0015793626086426874,0.0007397407664958629,-4.757126194624979e-05,-0.000839585698355822,-0.0017320122621805277,-0.0027831735928802908,-0.003938982443874425,-0.005007051033705164,-0.0057071801874331585,-0.005782832666365732,-0.005118676107049427,-0.003800127653017986,-0.002081454247067228,-0.0002815032918076243,0.001333699823707863,0.002620250357214988,0.0035512531321643627,0.004157613688601544,0.004463599371620083,0.004460984326153754,0.0041328055948976605,0.003499986061673465,0.002647369884879924,0.0017021723638890019,0.0007756627840760614,-9.042676930405891e-05,-0.0009313921876705084,-0.0018105195594126954,-0.002742052667772251,-0.0036349813962366084,-0.004296323382405056,-0.004499476571373295,-0.0040861479300027545,-0.0030496471169871946,-0.0015554193704917256,0.0001117673385367694,0.0016453597229691475,0.002810108549908342,0.003491141500775741,0.0036900242760384027,0.00348824011799642,0.00300777077690535,0.0023845094899945236,0.0017479958246351015,0.0011920560018904252,0.0007353595998035316,0.00029619770721603725,-0.000284285304214427,-0.001158308859132165,-0.002358934990363701,-0.003724062555915191,-0.004915334381724125,-0.005540311365826887,-0.005322527811404471,-0.004229544651245387,-0.0024894614616180945,-0.0004899104446378405,0.0013810422657866866,0.002866615147454046,0.0038860621094693334,0.004489265957820895,0.00476756013724738,0.004781605802158454,0.004542800703393713,0.004042166708478073,0.0032899810403673986,0.00232965979963138,0.0012166400865175312,-1.4989939083374893e-05,-0.0013623928023679599,-0.0028202546092591513,-0.004317360830788363,-0.005667227687795859,-0.006579944059122364,-0.006751659651239635,-0.0059981414839480295,-0.004362108523373586,-0.0021298430373721733,0.00025860812231942907,0.0023618864595851916,0.0038782087174126694,0.0047143722502529534,0.004965098273148765,0.004827691034991271,0.00449957604471858,0.004103357936375487,0.0036622190274350503,0.003121206768481038,0.002391602531521895,0.0013942084289619004,9.011187471040608e-05,-0.0014977191651388618,-0.0032646057374598747,-0.005009049761703113,-0.006440288771137982,-0.007229201561531969,-0.007104083224992841,-0.005960346443282891,-0.003931080927857523,-0.0013741573312189836,0.0012294939409695262,0.0034257373147632986,0.0049197016740197,0.005635653874779678,0.00568709151950352,0.0052840295619746725,0.004631103943598688,0.003864985336793531,0.0030470528729500705,0.002190524293493086,0.0012867281640842896,0.0003112054261440755,-0.0007797069372700461,-0.002034221536185613,-0.003456852278109496,-0.00494483365740561,-0.006256351672624177,-0.007054075221886339,-0.007025373978366875,-0.006025772119352868,-0.0041660431405294625,-0.0017895530216802662,0.0006509622614301983,0.0027524396967265126,0.004278537333864606,0.005188680707038562,0.005583761255713648,0.0056118256506893505,0.0053871933768297724,0.004958941713563094,0.004332065651500125,0.003514135261552486,0.0025479874130594077,0.001504230132435193,0.00043873302228510135,-0.0006502358022524074,-0.001823985927179531,-0.003147029093568773,-0.004596326682660319,-0.005992872945952962,-0.007012095926430354,-0.007290427060855252,-0.006586904921370271,-0.004917133059489963,-0.0025824599361472227,-7.099734896423083e-05,0.00212274482411276,0.003669739184457101,0.004489074403340894,0.004713443464811231,0.004572595257868756,0.00426639897905465,0.0038909453315630425,0.0034382730698111364,0.002844558194994122,0.002043743783379218,0.001000288111686351,-0.00027546307522014466,-0.001712065260638192,-0.0031579817367030708,-0.0043790343024439505,-0.005099901179381281,-0.005093866279025,-0.004285136857136535,-0.0028050209540966264,-0.0009612615196389548,0.0008698578621866217,0.002372901512654099,0.003379599812527435,0.0038788826514957672,0.0039633506921813964,0.003754451418254986,0.0033469928150565674,0.002788922424458134,0.0020869098331571163,0.0012209519025684682,0.0001622000201030103,-0.0010994393140499844,-0.002514467949013218,-0.003934820935506209,-0.005108372124294802,-0.005732882885105602,-0.005563067301484911,-0.004524452326052362,-0.002771051358773691,-0.0006486127845234536,0.0014219974301862115,0.0030826752147303147,0.004133302323310063,0.0045526297492531126,0.004455259777452401,0.004019200560977138,0.0034165840278282634,0.002764170840053417,0.002097278072107416,0.0013689090515125004,0.00047942108114098564,-0.0006617115329287996,-0.0020575117105564086,-0.0035645843586658166,-0.0048946443619752285,-0.005694341616390404,-0.0056782156175002865,-0.004753160903461371,-0.003070076280352642,-0.0009754399958393997,0.0011106107165211618,0.0028282788853420623,0.00396704480063757,0.004486064069792255,0.004478297258281321,0.004107542312669125,0.0035439340530552398,0.0029117580624870502,0.0022563367316351555,0.001537282239181521,0.0006563279203513323,-0.00048010317451280927,-0.0018817097617396562,-0.003414681345862143,-0.00480016194670581,-0.0056875657893918595,-0.005780919310535239,-0.004962771409338197,-0.003354788528185008,-0.0012840385201602668,0.0008279612700683416,0.0026002095923424676,0.003794117500107012,0.004350303175876429,0.004361720622978729,0.004007356184549449,0.003476958873170543,0.0029114111080757055,0.0023718001005521936,0.0018380773125707308,0.0012301842031925553,0.00044371793057857025,-0.0006042140653796126,-0.0019235093298695112,-0.0034075787848884577,-0.0048227980645349664,-0.005853882405606827,-0.006203595829940572,-0.005708980844924671,-0.004415688022792689,-0.002567978606322245,-0.0005180841670862173,0.0013966220605900984,0.002947384968257783,0.004041950738958317,0.004690897401404216,0.004947888009144444,0.004865311135560027,0.004487563947907427,0.003872213689378562,0.0031056095506087882,0.002283419364279746,0.0014586609933468836,0.0005963941415614273,-0.00041654708537952666,-0.0016901741420073655,-0.0032157977913054776,-0.004790673185342646,-0.006045814088792061,-0.0065821778616074605,-0.006151476266435165,-0.004783330784832946,-0.002785843478278538,-0.0006183474194199438,0.0012926664263469283,0.0026971082947390567,0.0035600804712251047,0.00399732941851603,0.004163019502785781,0.004158619950219817,0.00400426184384113,0.003669796517342979,0.0031299264139209543,0.002401690848165633,0.001541450755864161,0.0006085025126564478,-0.0003737571062596802,-0.0014242854703460483,-0.002563860624674793,-0.0037476940763126517,-0.004818608275583216,-0.005525665863269972,-0.0056159065731352315,-0.004956371506137971,-0.0036158215506219347,-0.001854043847631413,-2.187423745346397e-05,0.0015709891371367322,0.0027485758172677253,0.003482340175266638,0.003839310855146394,0.003912250402568909,0.003775638818124924,0.003480205594235201,0.0030675472790699385,0.0025767828836473585,0.0020301807092194513,0.0014099486749531267,0.0006538100153893449,-0.0003100854732613213,-0.0014953163382466937,-0.002792897020324939,-0.003958508935579042,-0.004678709837384825,-0.004697690894062235,-0.00394248842789037,-0.002575326610456765,-0.0009384526344962004,0.000582232480796962,0.0017033810493456915,0.00232797033374196,0.0025346481510161566,0.0024937605668444176,0.00236504174998882,0.0022302659164333623,0.002083219443814617,0.0018620988004295223,0.0014906741661290782,0.0009044476999110801,6.426177550707949e-05,-0.001023683322280838,-0.0022733775803744022,-0.003491677834318303,-0.0043972460221112265,-0.004705514143721541,-0.004250733467584119,-0.0030767507349526166,-0.0014353420608625438,0.00031428066894207264,0.0018482165825230898,0.002982573401772554,0.003691031329607208,0.004045453554892338,0.0041327824991499555,0.004002134004228931,0.0036617459599393057,0.003106298523001465,0.0023398425345582327,0.0013757341351667719,0.0002249561612663615,-0.001099870448010736,-0.0025505779664492627,-0.003997224175669445,-0.005210396978817132,-0.005905247083316228,-0.005842518684224534,-0.004938977149581325,-0.0033242572713752484,-0.0013076201744716743,0.0007300919349700935,0.0024623292379153216,0.003699259908245301,0.004398165430912888,0.004617458438600032,0.004455458794130467,0.004008552447136568,0.0033564668522688725,0.002559891065003193,0.0016544343134125392,0.0006416328880912229,-0.0005058772372383861,-0.0018091305045665395,-0.0032234220238713984,-0.004588264001870021,-0.005630390611218759,-0.006041065615941657,-0.005602581985771485,-0.004299699562792841,-0.0023512631618894204,-0.00014001390139158963,0.0019235169938974883,0.0035330157579224015,0.004553946050511175,0.005009251778329144,0.005011849026313015,0.004693230963329168,0.004163741223943786,0.003506793756942632,0.002783419498391301,0.0020234742023887615,0.0012030648930996131,0.00023406779968088316,-0.0010023484301980533,-0.0025710106773365006,-0.004382720858692698,-0.00614485302647811,-0.007416303735276429,-0.007764467626793068,-0.0069551760723154995,-0.005075690227252405,-0.00252063805936344,0.00015559819547140334,0.0024453519605137503,0.004052000240335866,0.004941195690048781,0.005272237437079286,0.005263363350921746,0.005070492485179021,0.004739306703836872,0.004239188394965625,0.0035361095276723008,0.002642856463622745,0.0016110278461912903,0.00048059155390498096,-0.0007594363179423351,-0.0021512330029487725,-0.0036880721780548835,-0.005226758020872914,-0.006465898307133035,-0.007030717023564229,-0.006636619138181187,-0.005244161878688056,-0.0031111320166856086,-0.00070329708384106,0.0014906165312281229,0.0031385817524694636,0.004147556376207252,0.00462049369345627,0.00473411087185077,0.0046208260677143434,0.0043206646540348975,0.003813264035088626,0.003085394601709602,0.002172086557088459,0.0011397195843928483,3.327731600682364e-05,-0.0011550836496628455,-0.002452657779780564,-0.0038193946500357564,-0.0050732627178932,-0.005900883671610608,-0.005974531994622648,-0.005119341061954257,-0.003429883885724375,-0.00125934854692972,0.0009177151788109432,0.0026912710274669457,0.003848564375361875,0.004393099893647977,0.004462760011156577,0.004215831761412508,0.003757972881432788,0.003138849881357735,0.0023903993630266813,0.001553083555886997,0.0006606350417508407,-0.0002952192211798355,-0.0013677914279743933,-0.002594886523759594,-0.0039025883463456442,-0.005048983130814651,-0.005673978835575841,-0.005453368874927896,-0.004276520692287962,-0.0023384748961455286,-8.373595334141927e-05,0.001971126400006592,0.0034383217510758034,0.0041789156393901876,0.004293563564621508,0.004012174059546968,0.0035601886288633075,0.003074873126207561,0.002596999590127106,0.002109495399779838,0.0015737891326271193,0.0009373714906500257,0.00012754018045924812,-0.0009324104011834849,-0.0022665904472852273,-0.00377387772665192,-0.005193669016534119,-0.006154710591117548,-0.006304459720171358,-0.0054625413431020325,-0.003719016971301594,-0.0014234194607518637,0.0009323494620702928,0.0028815922380117515,0.004126851811175305,0.0046066817284843,0.004472012866262139,0.003995732532845215,0.0034575809038758618,0.0030459819104044685,0.0028055973843074088,0.002640897253185302,0.002367175019097902,0.0017869347645634872,0.0007662033084748413,-0.0007085040518516688,-0.0025029736673185185,-0.0043437976611548435,-0.005867824253684036,-0.006711872237912193,-0.0066244681237060815,-0.00555991331009853,-0.0037091316908178604,-0.001444630578394506,0.0008006656350671407,0.002666299830877958,0.003951079869733974,0.004624876121195826,0.004777453596683373,0.0045444159097849275,0.004051636991143672,0.003397168323695302,0.002659933535290582,0.0019076792053318204,0.0011840644294855663,0.0004805180171541354,-0.000277936252102115,-0.0012029108570474965,-0.002365793950345054,-0.003709051418104465,-0.00500364952745054,-0.005896890109892203,-0.006046441574067477,-0.005279968908567231,-0.0036935115700918756,-0.0016284568907730171,0.0004655015961250494,0.002208010815271592,0.0034120469432297818,0.004097456147513662,0.004406188443334664,0.00448499851409168,0.00440716627690178,0.004166088273338245,0.003722878779138357,0.0030615577369118617,0.0022116915224515573,0.0012285127823669349,0.00015287705211528932,-0.0010113339494667861,-0.002275746612617106,-0.0036074183703369324,-0.004869409666442417,-0.005812456828361285,-0.006143997683990739,-0.005652629936114482,-0.004325117856665472,-0.0023885664870618327,-0.00024751821792477237,0.0016581814696375657,0.003007539231908773,0.0036932577282874158,0.003818839882415651,0.0036097742059155785,0.0032911701173006223,0.0029941430498287127,0.0027285291650731734,0.002416968858658936,0.001953932583008137,0.0012531900563321659,0.00027312010302682423,-0.0009659837352900863,-0.0023590235736285006,-0.0036980766979711694,-0.004690362146651843,-0.0050342249261072,-0.004536684946963222,-0.0032171825104047747,-0.0013358283250405937,0.0006803580948413799,0.002385086649643651,0.003466721040010147,0.003838965809802851,0.003632731461696194,0.003103050222898937,0.002503545146321068,0.00198920737889652,0.0015838144408918092,0.001208869718332769,0.0007428305156090395,7.801473288884925e-05,-0.000839015051497523,-0.0019807739191202863,-0.003222749255657223,-0.004347234596529233,-0.005083547152694927,-0.005188004987465366,-0.004538258943302393,-0.003195157833137607,-0.00139400176425869,0.0005345419839552699,0.0022725022461427507,0.0035978156442048144,0.004412544170299876,0.004724030490005393,0.0046090544255219645,0.004184209312966556,0.003582733517815876,0.0029240002511807814,0.0022710483872132705,0.001594635100411899,0.0007754768931333546,-0.00033655098297164963,-0.0018209573514349664,-0.0035901439422941824,-0.00535521070477531,-0.006689308616531636,-0.007175905383114329,-0.0065788202372828,-0.004949877270006545,-0.002618132567728218,-6.814913660121785e-05,0.002227978089970595,0.003945865619580602,0.0049634662441864095,0.005335049939451597,0.005217647017341807,0.004789831124336505,0.004191324477447026,0.0034957986314606507,0.0027156707359217622,0.0018277035289919479,0.0008030449987136924,-0.00037146877763680815,-0.0016823478577456105,-0.0030791231827724374,-0.00445611492660547,-0.005634095390277232,-0.006367446970778888,-0.006400668715190341,-0.005569010854995669,-0.003899211147746716,-0.001649402569412589,0.0007490046881062833,0.002831868849221167,0.004261566222062692,0.004928619366176164,0.004949980469231444,0.004573667149268434,0.0040473057511010435,0.0035206817169209283,0.0030231827375061075,0.0025063333116924135,0.0019045174605863127,0.0011688590928524794,0.00026542198829635215,-0.0008334444373102908,-0.0021305294951048347,-0.0035553290631293727,-0.004922061434894115,-0.005941232102441817,-0.006303268700213387,-0.005804719350354598,-0.004453615666280112,-0.002494307339061823,-0.00033230170289103966,0.0016077183051022453,0.0030237732099889347,0.0038150948322987007,0.004070235445225988,0.003983569384008194,0.0037488480436397645,0.0034793859895628234,0.0031814397786474515,0.0027775880283989578,0.0021578249457592843,0.001234832111475874,-9.729622401318406e-06,-0.0014926539161506797,-0.0030172920795997066,-0.0042966909619573685,-0.005023302115310695,-0.004974297321566743,-0.004110252941089873,-0.002612091651362115,-0.000826109544721954,0.0008614204654963345,0.0021569607120238282,0.002935920413626535,0.003236931190443516,0.003195855804345868,0.002965491706708781,0.002658830879436241,0.0023274585121489015,0.001964667845830873,0.001518354456181061,0.0009088735379893563,5.8142017992328615e-05,-0.001064893147412513,-0.002393081845857955,-0.003733140948726968,-0.004791860280530871,-0.005263383341247966,-0.00494615331750772,-0.0038327888877403406,-0.002125542792576103,-0.0001698228100082865,0.001659563952411358,0.003067717437011294,0.003905653714691003,0.00418059915107332,0.004019327129548283,0.0036025213781512404,0.00309016257990544,0.0025592368644058888,0.0019761290865293025,0.0012209333998945396,0.0001637318407488646,-0.0012337663938246713,-0.002840176534703259,-0.004349075081678392,-0.005365288698752396,-0.00555343207599341,-0.00478076991900353,-0.0031836307873179402,-0.0011237786350451527,0.0009431087173525129,0.002623137941258481,0.003695133861149989,0.0041379805215798204,0.0040803721582342665,0.0037123275172730005,0.003203415025633957,0.0026536415960730555,0.0020787564273983218,0.0014212549143992545,0.0005831517733110334,-0.0005188846994511665,-0.001885077951484742,-0.0033789990303362324,-0.004725974565460472,-0.0055831896114309915,-0.005662777762902291,-0.004853741640033314,-0.003281568512189304,-0.0012731992627607576,0.000756985631594974,0.002445856119489306,0.0035827755649441182,0.004136240697101685,0.004209595577514445,0.0039617742334957275,0.00353611819958309,0.0030230960234860324,0.0024567780831397205,0.0018281349064457456,0.0010992900359748522,0.00021692309410891052,-0.0008642877784721881,-0.002139766837167572,-0.003505781917688936,-0.004735967375509263,-0.0055190558848829015,-0.0055642345102524795,-0.004733744766011267,-0.0031312608017811825,-0.0010877759276355767,0.0009578116190866028,0.0026237757194857102,0.0037101604691113137,0.004223939357285775,0.004306954029824555,0.004122987463900385,0.0037739811893014114,0.003283967222946533,0.0026383011324987112,0.0018321329646976618,0.0008875201220010584,-0.00016514841630476247,-0.0013098578869220562,-0.0025348573224751136,-0.0037834714326429406,-0.0049018583001186845,-0.005637416857846389,-0.005715628439023001,-0.004968469438481911,-0.0034435128971286926,-0.0014238193587309848,0.0006630396356729762,0.0024047750237309725,0.003552709970681185,0.0040868550307454395,0.004172770389980738,0.004042408013896909,0.0038676045086964935,0.003691506960998568,0.003442996718147004,0.003007979674975909,0.002302829561198905,0.0013068650713340814,5.055081704715444e-05,-0.0014082054694896516,-0.002983611900826928,-0.0045316899301782645,-0.005822942130162389,-0.006563776420791941,-0.006485032042536206,-0.005465426695317762,-0.0036216286211781584,-0.0013042738126060184,0.001011081156579602,0.002889231627349275,0.004076611180738534,0.0045540641238253,0.004487278631926319,0.004114344492037743,0.0036343435802122202,0.0031455919807950074,0.00264336109221754,0.0020552532816088195,0.0012877696590406767,0.0002728466483530478,-0.0009860130701591298,-0.002376223570783785,-0.003670779162615823,-0.004577724720998344,-0.004839932603245877,-0.004343967536901788,-0.003180368184593021,-0.0016185473923514726,-6.3864256504878275e-06,0.0013540148719031987,0.0022941675168479205,0.0027970231010822156,0.002952556296578125,0.0028878667355848467,0.002710592331762334,0.0024837065075693446,0.0022241103743257874,0.0019061653814761192,0.0014617361159460036,0.0007888426742063011,-0.00021057295891086859,-0.0015603903257260798,-0.003137468959701434,-0.004648374646876522,-0.005694837118816402,-0.005918451574357235,-0.0051593688449434304,-0.0035415567853943723,-0.0014309836967501244,0.0007145616477914022,0.0025220105301269283,0.003812433367053666,0.00459635046543377,0.00497937731810863,0.005051892145716469,0.0048339183946776165,0.004297916564729328,0.0034339061839414736,0.002295298731926408,0.00098743723865612,-0.00038658067983942486,-0.0017695895070024847,-0.003137547762876403,-0.00443323893087055,-0.005501895815932212,-0.006095286062284985,-0.005966020109665992,-0.005004249406531756,-0.0033289342926824737,-0.0012686914760929864,0.0007628912725846634,0.0024266442698267663,0.00356401687358684,0.004201128074297862,0.004466227311786751,0.004483311109507402,0.004307194789753319,0.003926632994985574,0.0033118657997712212,0.0024570442616217983,0.0013836541959312972,0.0001139508580255513,-0.0013432104749618258,-0.0029588505078816645,-0.004613092109992516,-0.006045184502894622,-0.006887904703090621,-0.006799686636722103,-0.0056341908406134684,-0.0035465561433221356,-0.0009640124563659888,0.0015706710950209434,0.003598598886070066,0.004883764121463129,0.005433628351853426,0.005415816655185687,0.0050371268708831775,0.0044547589606169875,0.0037518577649553447,0.0029610375121652648,0.0020944071411664335,0.0011508491415440597,0.00010583565099930303,-0.001085757178431721,-0.002450029876116028,-0.003927862970641975,-0.005326317399372961,-0.0063362126797313085,-0.006630264222746855,-0.006003333671759503,-0.004481688337584041,-0.0023385532264439276,-4.159126666471039e-06,0.0020835714291122373,0.003613969040099653,0.004467512773211195,0.004697442912039505,0.00445999648031443,0.0039388367918423775,0.0032938651499190316,0.0026365203265574805,0.002016412091446716,0.0014101359783991834,0.0007236104163598667,-0.00016960832403598524,-0.0013479814669473504,-0.0027507272138859295,-0.00413445736293095,-0.005125064780426755,-0.005359909812112823,-0.00465490791366838,-0.0031065428885750784,-0.0010704135647616338,0.0009743413803999517,0.002605457700497115,0.0035960510104579967,0.003953774173637216,0.0038569554602736625,0.003531712707498045,0.00313388757012147,0.0026872571248659142,0.00209683685312879,0.001222465434629059,-2.2583482666675356e-05,-0.0015881588436588991,-0.003253648920408274,-0.004665602550236183,-0.005444371030252116,-0.005325623920016991,-0.004276673406113565,-0.0025284869172342806,-0.0005003157482021904,0.0013518498895822785,0.002692414223407728,0.00339861623853074,0.0035556525419678745,0.0033711202810601205,0.0030580699591372554,0.002739838110923095,0.0024111670790275394,0.0019629440535186117,0.0012536756976363635,0.00019605206343395394,-0.0011753603444984368,-0.002680174806931869,-0.004021805753950274,-0.004865070956883245,-0.004942011998135516,-0.004153187555580555,-0.0026245904716389037,-0.0006883948482253194,0.0012165420854290594,0.002690603819695249,0.00350512721410907,0.0036622250862879797,0.0033588257448351755,0.002876432954356803,0.002449111839278525,0.0021650602297096726,0.0019376175562755304,0.0015544502224438112,0.0007880409956577653,-0.00047183177374821906,-0.0021185111507813366,-0.0038146601935544686,-0.005088008326478478,-0.005509393943549795,-0.0048773832239439666,-0.003319169965882155,-0.0012523879230262485,0.0007785342294980036,0.0023139762266499615,0.003138984457921231,0.003321411755178906,0.0031212555126532548,0.0028266468471258945,0.0026031324457307953,0.002428154845280146,0.002132186475509807,0.0015125159924360269,0.00045669331348336425,-0.0009794291082364068,-0.0025641050277581774,-0.003948628633820032,-0.004771827253674492,-0.004779322388032185,-0.0039185972325067875,-0.0023706372647495683,-0.000497757557585039,0.001276904840151563,0.002609924579611666,0.003340811270784269,0.0035186843530594833,0.0033455960079204197,0.0030617698351926466,0.002820861431241051,0.0026107035554250083,0.002260619319900707,0.0015397386841152758,0.00030448590601005686,-0.0013786187307401956,-0.00320460889668969,-0.004721671260695845,-0.005504551842030834,-0.005325246992454492,-0.004237092833485601,-0.002537080584952034,-0.0006371870064532884,0.0010831290162311442,0.0023768439056652624,0.003156039967008955,0.0034618145228911285,0.0034109193192779436,0.0031432166185934637,0.0027764958114201255,0.002368007077901334,0.0018895268493131713,0.0012339600621392999,0.0002697670843060944,-0.0010637257122664606,-0.0026617486337614914,-0.004221472058909539,-0.005313162183179029,-0.005540621307500689,-0.004717280445295803,-0.0029654450240063955,-0.0006845068336302153,0.0015953511114264471,0.003400594788085423,0.0044582538608364045,0.004744054578051866,0.00443287345634733,0.003789836390266906,0.003055003880166953,0.0023639835964099493,0.0017229618803754777,0.001034660620622758,0.0001602364545262261,-0.0010012820778913202,-0.002437780418271757,-0.00398058568423494,-0.0053202171025013454,-0.00609180443420824,-0.006006892912942024,-0.004976359363272523,-0.003163877392937586,-0.0009400969124484736,0.0012428320634134593,0.0029992718564642606,0.004118027936594686,0.004591936635041333,0.00456841818579245,0.004253142934358789,0.0038144663641912473,0.003328964623310538,0.0027823765774878995,0.0021102475572869184,0.0012469018339576388,0.00015879923404859848,-0.0011401035137587963,-0.0025780932484664367,-0.004012952930133923,-0.005228916971450039,-0.005967212747014822,-0.006000018538135119,-0.0052243163720302604,-0.0037267579698878704,-0.00177724189069898,0.0002539513746354404,0.00201838676092165,0.003294361935948966,0.004030118357316988,0.00431444050014603,0.004298878237786507,0.0041159933675194455,0.0038336174601384387,0.0034582075426447152,0.0029678427606196402,0.0023405779725237477,0.001557963726143332,0.000594075633353448,-0.0005798299288919525,-0.0019554307956252195,-0.00342811891121075,-0.004766256882104953,-0.005654106219139201,-0.005809695712538308,-0.005121638832437251,-0.003722865619815877,-0.0019497363064123405,-0.00020436431425834034,0.0012030598600904856,0.0021479269104762106,0.002682395647185077,0.0029481365191647126,0.0030728141298448264,0.0031081516403451597,0.0030311863374397133,0.002788848371494618,0.0023445234687427758,0.0016945225326242537,0.0008534061467070452,-0.0001638503869636535,-0.0013313167082644765,-0.002568886971697947,-0.003700023462137604,-0.004460046922181399,-0.004578933826891943,-0.00390825732068355,-0.0025189025934035463,-0.000701890250000325,0.0011386286620862147,0.0026423152947973438,0.003611560625634246,0.0040346066207016945,0.0040207784859321236,0.0037072157565495164,0.0031989743655666614,0.0025631896304122463,0.0018510403024135742,0.0011067159419497793,0.00034824475392210166,-0.0004561007524545495,-0.0013769407460445821,-0.0024631810616332264,-0.0036603976552093825,-0.004765802831541625,-0.005466264033826434,-0.0054586429867988576,-0.00459775535088966,-0.002991700622173824,-0.0009858542791257637,0.0009646692610342211,0.0024725171060323804,0.0033558955588910725,0.003669750254567532,0.003623920346497976,0.003444082053721947,0.003257316804732933,0.0030584957210676882,0.0027558498620754227,0.0022464771333903515,0.0014683518760618965,0.0004117322385223722,-0.0008863432824114999,-0.0023326299976299597,-0.003751266670920372,-0.004875257677411587,-0.0053961973541628554,-0.005075585059966048,-0.0038688498049781433,-0.001988125456271284,0.0001456232296825886,0.002050328003569257,0.003362061161730475,0.003958099535091864,0.0039660156975397575,0.003661841553854292,0.0033165305025643866,0.00307019554211515,0.0028895063856909774,0.0026137257970702656,0.0020511439778999035,0.0010735560954858452,-0.0003273722073898257,-0.002029698636263638,-0.0038049775547069785,-0.005362204042691381,-0.006405947979631077,-0.00670580312364588,-0.00616416540548953,-0.0048551955407460925,-0.0030090114897509093,-0.0009397568066017919,0.0010512039990080613,0.0027509368584296657,0.00405831322889174,0.004956589592543293,0.005463615537576888,0.00559393608942569,0.005352467881819213,0.004755882665290952,0.0038588425902567522,0.0027582880578790603,0.0015639942610705352,0.00035055720322490374,-0.0008731826274201225,-0.002145236331070269,-0.0034820662404472466,-0.0048010370163508115,-0.005891564784718278,-0.006469034101183137,-0.006292555050243264,-0.0052824638554328,-0.003570521395671297,-0.0014579978663128343,0.0006879182549927475,0.00254092835375732,0.003881343676634283,0.004613481067136589,0.004754863555535411,0.0044173034315340915,0.0037811643743331826,0.0030504739785829835,0.002385050573742989,0.0018314912471725452,0.0012947379118444051,0.0005839636562045163,-0.0004717234451791818,-0.0018895961135267643,-0.003458027572507387,-0.004776178893562237,-0.005406013276061101,-0.005067824760929073,-0.0037790231988541474,-0.0018619905288427341,0.00018362015735076773,0.0018781751036635807,0.0029325883643027983,0.0033186593026708336,0.0032225971571643725,0.002920893849347161,0.0026444566726449297,0.002487503480312247,0.0023860745482492617,0.0021596392831367754,0.0015928715465080053,0.0005322713325023433,-0.0010267029115496086,-0.0028890766068334498,-0.004674982934091974,-0.005915172933829527,-0.006209185187980917,-0.005386550912037515,-0.0035927250068201505,-0.001248535695177574,0.0011038345655125783,0.0029939024103808297,0.004163359493884784,0.004599186858644718,0.004466998717179468,0.003998072418741888,0.0033894134141770997,0.0027500635073659484,0.002094902211193063,0.0013703397122021522,0.0004967902888179233,-0.0005811320174131541,-0.0018456107704846686,-0.003173342551884341,-0.004339535672457186,-0.0050690687463389944,-0.005124036841441773,-0.004394758275076737,-0.0029546255751347608,-0.0010539211251481258,0.0009454080894147076,0.0026694760292432632,0.003833787018994635,0.004316543233213387,0.00418195699420224,0.0036424391089076684,0.0029666041066072,0.0023637653781532855,0.001892789765942011,0.0014397105052255342,0.0007812675542758474,-0.00028772814717715215,-0.0018177812129028864,-0.0036237336800217872,-0.0053063087598072285,-0.006380861267395381,-0.006466277527973932,-0.005449734744999827,-0.003544958567668853,-0.0012103926054894752,0.001033318200596421,0.0027939096602743263,0.003914524402984804,0.004458731510818467,0.004604145256150782,0.004517741451857441,0.004281294864359415,0.0038931776731835166,0.0033224798858020733,0.0025637221262381524,0.0016503810268121372,0.000623979092632572,-0.0005054698624956876,-0.0017614493577624542,-0.003147015523270481,-0.004564563967379862,-0.0057718991802046425,-0.006427301293568994,-0.006223715206165962,-0.005048943769275872,-0.003079025894235431,-0.000740792098525486,0.0014475747224453133,0.0030778547035568643,0.003990544204226784,0.004284316681020698,0.004204954118404833,0.003988342411957413,0.00374832227562835,0.00346050562338227,0.0030281291092873032,0.0023699563366401653,0.0014704109935973423,0.0003721938423714374,-0.0008613547888643538,-0.0021682494823933125,-0.0034701109605470466,-0.004633058278246725,-0.005453095559156683,-0.0057006238709448025,-0.005215328765951215,-0.003999377115190306,-0.002247900007825657,-0.0002908799256590537,0.001524408810980033,0.0029463308898963958,0.003871785303192472,0.004325502518742037,0.004395162038013727,0.00416913607293438,0.0037102349721321822,0.0030680606160754477,0.002304891115233864,0.00150226024476894,0.0007329251941571555,1.4941286890465355e-05,-0.0007120282384664794,-0.0015539432608277415,-0.0025756294214114733,-0.0037074093371592966,-0.004712213857965436,-0.0052542684195941314,-0.0050490640217759584,-0.00401631371813869,-0.0023451388751576426,-0.00042753290458022713,0.0013058884632224216,0.002556309266338548,0.0032427859609652455,0.0034704962799270043,0.0034201889982403023,0.003236975405364145,0.002980127815082689,0.002642113520671864,0.0021975170066159113,0.0016340251449968248,0.0009479462177862606,0.00012584551107979413,-0.0008515492242905246,-0.001967981516271775,-0.003116427820867881,-0.004078421337435197,-0.004574883037557278,-0.004380975065251844,-0.003448499084074542,-0.001961244907401672,-0.0002793357283600422,0.0012070922880866575,0.0022378107929400754,0.0027689714536147164,0.00294362633438024,0.002972933667634159,0.00300293142868642,0.0030405383324179,0.002968216900264868,0.0026230795715530084,0.0018877779314611376,0.000749085343399786,-0.000689840682808072,-0.0022322149506185983,-0.0036283115700805274,-0.004625102484479964,-0.005021941152473256,-0.004724345058199641,-0.003777614013570284,-0.0023604688154622733,-0.0007339316740398733,0.0008353672055814465,0.0021434164639424465,0.0030811263424320857,0.0036262737222793563,0.0038123859273984013,0.0036974721003551563,0.003344530593810637,0.002810513040931781,0.0021348550077281933,0.001327004040088016,0.00036566250403504325,-0.0007745576286004689,-0.0020694715211047442,-0.0033922843232374825,-0.004504574108625565,-0.0051187431762905414,-0.0050143717514516874,-0.004146971124286665,-0.002681718560059069,-0.000928023607259242,0.0007859309723903618,0.0022239774764767455,0.0032814524131921877,0.003951369576394498,0.0042628108680547155,0.004243452397951381,0.00392380919341818,0.0033580164068824658,0.002622042299512713,0.001776525516198494,0.0008235675009788314,-0.00029465797714571046,-0.001633053822279249,-0.0031464033538485792,-0.004625413057906062,-0.005724137356250794,-0.006083078634443502,-0.005490085047131801,-0.003993008465741563,-0.0019021709481242483,0.0003197728554677492,0.0022252624938357414,0.003527040842372646,0.0041599808872723925,0.004245140278090722,0.003990066467827056,0.0035839300461542197,0.003135904751474734,0.002670281254890671,0.0021564756175210106,0.0015395713958836444,0.0007537249442855942,-0.00026960642257454825,-0.0015723638132577706,-0.0031112339714545,-0.004699500813591837,-0.0060031285058657555,-0.006626500505769972,-0.006267894610582403,-0.004870221963409494,-0.0026808642749276634,-0.0001784934118120075,0.002102456580381686,0.0037638758899555627,0.004661650609203145,0.004901763880572007,0.004732319810311221,0.004398607640563554,0.00403789173484602,0.003657774901523509,0.0031886940429277618,0.0025608320936966935,0.0017517758754085958,0.0007821172218899304,-0.0003215332516606356,-0.0015521290714240786,-0.002902576403111192,-0.004306148944202573,-0.005582859177238453,-0.0064477723891981295,-0.006602912701482231,-0.0058752509272996245,-0.004322039410484943,-0.0022354514094219606,-3.7248333539236045e-05,0.001879768865935355,0.0032789882807886927,0.0041173097180713875,0.004491383780555337,0.004541036933537829,0.004370901815622083,0.004025306266138521,0.003509414045373171,0.0028219190854475765,0.001968469225949026,0.0009530032034019756,-0.00022891968484976534,-0.001568321938014549,-0.0029919816372610797,-0.004316797803177641,-0.005257461071495585,-0.005510990319624574,-0.004890131515215475,-0.003435091815952711,-0.0014339682137170825,0.0006692938449730908,0.0024360268323655623,0.0035822476109634432,0.004047394247744448,0.003962370815833201,0.0035497357841105205,0.003015440249014803,0.0024811442056726874,0.0019712853463818097,0.0014363665722847644,0.0007856935393107146,-8.033834863656266e-05,-0.001228662462574442,-0.0026358039417347955,-0.004134642946620171,-0.005410834445724629,-0.0060826166228796115,-0.005847313231443758,-0.004624481625768767,-0.0026147671946670685,-0.0002381240188125296,0.002016491521959404,0.0037534195308122223,0.004772549124510259,0.005081358726561465,0.004834497250392231,0.004245628547891823,0.003513066890301512,0.0027770090072065778,0.002102346181647002,0.0014741115514315258,0.0008037284684579069,-4.167328169466959e-05,-0.0011758478134868398,-0.0026071858825414663,-0.004170452232199251,-0.0055287171959867275,-0.006272464040018208,-0.006087388977469757,-0.0049100038492433775,-0.0029810269893671736,-0.0007565738991643165,0.0012802787393854647,0.002804591271569302,0.003732999102083491,0.004174345025386744,0.0042993045300185355,0.004222929141934082,0.003969726936712903,0.0035226576467382144,0.0028971979257778778,0.002171204946164169,0.0014431676860374599,0.0007514039012076942,2.1488393200676508e-05,-0.000904921525660579,-0.0021607282063295786,-0.0037234955502106143,-0.0053493911262367,-0.006625355420537075,-0.00712529973208688,-0.006592473225577279,-0.00505332910191119,-0.0028082434214683934,-0.000312778235363203,0.0019842242547770863,0.003769973501735309,0.004918667234121047,0.005463206773558378,0.005522063982021564,0.005227369722474069,0.004687222679683942,0.0039866273806591175,0.0032043665109738914,0.002415061004790978,0.0016632144826983681,0.0009270127264680548,0.00010913618011949421,-0.0009189165357781211,-0.0022291101473688557,-0.003752212186798546,-0.005250991231239068,-0.006378578609729138,-0.006802833323963402,-0.006340333778207456,-0.00503660021679155,-0.0031551726101320164,-0.0010823013644053615,0.000807534898338215,0.002266387636977721,0.003223795942634201,0.0037619074788948484,0.004035550407726586,0.004178842188277568,0.004241825774582857,0.004182971363450545,0.003913470007099341,0.003361964282527329,0.002519577813514547,0.00144123039251178,0.00021077651744145104,-0.0010967243391631343,-0.0024213829611447546,-0.0036858220058202393,-0.004751963334065259,-0.0054138004151546215,-0.005454736255186325,-0.004751965234713059,-0.003368311657974193,-0.0015678797119967512,0.0002665179667359463,0.001776255966643549,0.00275563711198149,0.0032023350546949375,0.0032723947165199992,0.0031738876084946603,0.0030591533989919413,0.00296636873368916,0.002827897635604158,0.002526538223036245,0.0019609518101876408,0.0010874007374217474,-7.034789584218018e-05,-0.0014274990465589024,-0.002842134264252921,-0.004115412683435808,-0.005007141879759403,-0.0052859516750741325,-0.00480874199546286,-0.0035937249725431705,-0.0018421749129732853,0.00011274308443049865,0.0019107933267593225,0.003274146620860379,0.004073399014515186,0.0043298026525808095,0.0041670779815262396,0.0037446296246573156,0.0032001766868685463,0.0026134950177151475,0.001990721532440466,0.0012688018819549457,0.0003453648525318728,-0.0008630849709377604,-0.002347747047086763,-0.0039519231641740845,-0.005372383243239281,-0.006237388426422932,-0.006241353604192039,-0.0052781778565175776,-0.0035051091731812933,-0.001298511006214202,0.0008816449012038021,0.002653385408162556,0.003824042664716373,0.0044063417855867235,0.004547272531934071,0.004420342199296746,0.004141542093811192,0.003744212700376925,0.003206637194253967,0.002496686728638073,0.0015985770339157531,0.000513036970633789,-0.0007495576865736881,-0.002156713620890662,-0.00361604043892741,-0.004938036690918597,-0.005842246654645979,-0.006033095641569387,-0.005326558787069347,-0.003764319878652639,-0.0016433827180431784,0.0005708687786421761,0.0024140655875255837,0.00359137811536456,0.004061460014444216,0.004000258123124812,0.003675457506686096,0.0033067177291304217,0.0029842924401412264,0.002674449304323481,0.002285675112685849,0.0017402556893201125,0.0010068301367214488,8.803832782541067e-05,-0.0010063450839973564,-0.002261946949756454,-0.0036235636432025648,-0.004944659358016371,-0.005970811323191391,-0.006393134210289929,-0.005964190755627794,-0.004622640195669648,-0.0025567159433246057,-0.00016366669532748556,0.0020832077424309723,0.0037989831662794994,0.004805754815148873,0.005152985414738746,0.005039109932862782,0.004685353949771945,0.004234343683095821,0.003724047023441947,0.003134784129056852,0.002458513431463895,0.001729715376363647,0.0009934774202154282,0.00024170453233515754,-0.000619646194614975,-0.0017265582317230735,-0.0031465723684880775,-0.0047684119938954835,-0.00627270544376636,-0.007223891672557154,-0.007250068899547749,-0.006218653107149785,-0.0043107636111157045,-0.0019518293409628018,0.0003633320362919622,0.002256548895902549,0.0035710309372475203,0.004356633418288056,0.004765946367202025,0.0049330977046191824,0.004903338801376416,0.004641774384211782,0.004100311620180472,0.0032902364854037664,0.002309161821658247,0.001302734457753679,0.00038471963116830463,-0.00043138317725092734,-0.0012388634367040598,-0.002167923874572455,-0.0032737551669199338,-0.0044491487756004155,-0.005422049432084774,-0.005853684599164856,-0.005493171667036901,-0.004306174867279902,-0.0025056349094944134,-0.00046857523685870744,0.0014116020955254258,0.0028566787824201917,0.00375898312741682,0.004153397872117269,0.004145850748189846,0.003850800807505891,0.003366611664840779,0.0027800129816162138,0.00216880880126288,0.0015815418408043269,0.0010041782486350937,0.00034891838810565485,-0.0005049609526389417,-0.0016236908459929921,-0.0029311347916267765,-0.004181209204016918,-0.005024994594593204,-0.005152234873980062,-0.004437461763706476,-0.0030102886682265287,-0.0012081028942386846,0.0005643419719108774,0.001991783922338817,0.0029407060769261273,0.003450634606761935,0.003649858910781168,0.0036583009034984845,0.0035328618079416272,0.0032710439178619674,0.002848724404077731,0.00225353711281289,0.0014904745308219611,0.0005651205948654114,-0.0005295861813826942,-0.0017985884032984004,-0.003199489914149088,-0.004592676189446745,-0.0057275720616845275,-0.006294237405427734,-0.006033796460257663,-0.0048609275680716515,-0.0029331582065481674,-0.0006212295596588763,0.0016147129545217454,0.003385925130490446,0.004494641194281152,0.004958812060388487,0.004942899428920632,0.004645066703190986,0.00420597553592696,0.0036797403590904353,0.0030635494756592442,0.0023484765218723404,0.0015494410005581234,0.0006958735927854005,-0.00020206078489585556,-0.0011763150932551762,-0.002282791919833068,-0.003540267849877911,-0.004859040174862766,-0.006010405890306137,-0.006674358404279181,-0.006559286918227755,-0.005538810383469512,-0.0037311719352646723,-0.001473346284763653,0.0008001484907252816,0.0027123091247554317,0.004057283025643814,0.004825500555832236,0.005143065376710937,0.005170174148042397,0.005016152739198984,0.004709504301261457,0.004225141652792846,0.0035394272169498794,0.0026724579181873756,0.001689728698670346,0.0006638187337742426,-0.000374905519805192,-0.0014587908782135134,-0.0026506214649397682,-0.003969686795100687,-0.005320135911420141,-0.006473114074041936,-0.007127762701254776,-0.007029415475404669,-0.006085714078657668,-0.00441869131502558,-0.002325856818159314,-0.00017279895270851022,0.0017277803528343793,0.003196984661594857,0.004204533620717537,0.0048246174561233195,0.005162545743454152,0.00528889226659936,0.005210574984258045,0.004889694161136418,0.004296322934636206,0.0034609812420619674,0.0024887639088355504,0.0015171551785740048,0.0006366121244156974,-0.00017498329394289788,-0.0010509391487572143,-0.0021505950382407933,-0.0035287497912603978,-0.005036345807269643,-0.006322599188682655,-0.006956980867410508,-0.006620422331440671,-0.0052692130829888,-0.003181455556958687,-0.0008547189071373003,0.0011964920343671072,0.002639757314517291,0.0034199575701801717,0.0037111098927692624,0.0037666497967656504,0.0037628107051386195,0.003723054460228628,0.003551894286964946,0.003134581145455186,0.00242389637440935,0.0014592882739181954,0.0003246596782272862,-0.0009011907068555541,-0.0021506877054715597,-0.003327268099867421,-0.004265247782321608,-0.004744025108354492,-0.004570077692154381,-0.003683774102075335,-0.0022211580230830285,-0.0004846564511055654,0.001166805182867841,0.002448933050028796,0.0032357444151485935,0.0035601621332405978,0.0035468645128614107,0.003327885062813619,0.002989999608438094,0.0025702634238565815,0.0020791128439501794,0.0015171867188369997,0.0008699218010703693,9.486586304684153e-05,-0.0008677700198137106,-0.0020458667250994366,-0.0033677724243222074,-0.00462481852330931,-0.0055072289428836855,-0.005714885318495391,-0.005091877826466999,-0.0037091882899177985,-0.0018452525424966922,0.0001252888948725735,0.0018710472073275278,0.003198364471837651,0.004063947972116183,0.0045209126046501765,0.0046460449819898594,0.004493561488929479,0.004092004497987111,0.003468229845421996,0.002666470479163711,0.0017405013908429385,0.0007251025997713793,-0.0003828885556652944,-0.0016051044493007869,-0.0029242399348896465,-0.0042250779430032855,-0.005283401327144447,-0.005828170238759848,-0.005654387925408126,-0.004725539369924056,-0.0032046884351105793,-0.0013943669641506907,0.000380737100941778,0.0018842024052336736,0.003018307466468861,0.003801203268609941,0.004298184056282354,0.004553453853449445,0.004560394494440774,0.004281046681140809,0.0036951717096828517,0.00284209269921729,0.0018239633601217753,0.000764275502427159,-0.0002542314527767852,-0.00123082483607292,-0.0022335611432367035,-0.0033294501821526335,-0.00449461259766999,-0.00556212000300745,-0.00625059235287252,-0.006270860777316685,-0.005459094670314687,-0.0038656464381236883,-0.001752765383756104,0.0004951245770317102,0.0025008116385737177,0.004003028272122195,0.004904466095033051,0.00525382352037527,0.005184823785976544,0.004845902679227771,0.004349093205371154,0.0037527250274882636,0.00307612578295981,0.002330083036681081,0.0015399146132598497,0.0007437739275643859,-3.368179363713044e-05,-0.0008124937514999854,-0.0016648598364644254,-0.002679852217293924,-0.0038917275346534285,-0.005206577387875822,-0.006375974341989476,-0.007051802381673994,-0.006914714045832768,-0.005821250896252739,-0.003893231916502804,-0.0014961215974451123,0.0008898905437716116,0.002845165131884427,0.004147732659397187,0.004810397684454673,0.00501055449622454,0.00496092547050481,0.004795544168407192,0.004528733000709764,0.004097015684849918,0.003444693217215447,0.002592435175967573,0.0016447172754401767,0.0007330375932726918,-6.754647860540781e-05,-0.0007927558258693573,-0.00157211249834255,-0.002538494899245656,-0.0037091777980665435,-0.004910585193166625,-0.00580544670052547,-0.006027112645132676,-0.005359237118153541,-0.0038623109279862875,-0.0018706607048034787,0.00014412496469834609,0.0017697449102749016,0.0028038791551578107,0.00328603540089878,0.0034108807356550254,0.003388407250279806,0.0033350486210879902,0.0032477162916880764,0.0030555901235901585,0.0026991991749612905,0.002178572932889708,0.0015427817737165127,0.0008384890240847763,6.370038069040322e-05,-0.0008328427717499151,-0.0018992427402395968,-0.0031048093242072713,-0.004290186303873005,-0.005183325223895364,-0.005488157464456496,-0.0050108631363143,-0.0037610629455886203,-0.001971234409143845,-1.7848002859926864e-05,0.0017197984388482956,0.002993466886591469,0.003748018767583201,0.004087351695250395,0.004172609055584184,0.004116279841094845,0.003933002519774919,0.0035682418155304615,0.0029743418744013015,0.0021737435123506,0.00126134901536222,0.00034368826005100426,-0.0005394422198144355,-0.001447806281177689,-0.002491809620664294,-0.003721718025039022,-0.005024245552364406,-0.006103055770516437,-0.006574878482949975,-0.006141441489164439,-0.004745761821216875,-0.002624889400779114,-0.00022829937144351598,0.001955130716351645,0.0035730236998859576,0.0045055074368388435,0.004847088301461664,0.0048012589782441,0.004555173546816829,0.004202153402797228,0.003743184269607371,0.003147962391573122,0.0024218695725140016,0.0016276780521342702,0.0008468576444908665,0.00011050997466128314,-0.0006455895467823679,-0.0015590585623843386,-0.0027499441428321877,-0.004204726895167557,-0.005704575728025289,-0.006854576316198948,-0.007221432164354096,-0.006524065681356332,-0.004781433684765868,-0.0023342737316418383,0.0002786168386600396,0.0025297942213728334,0.004092756639828946,0.004921506807620084,0.005194501905591646,0.005170108616942532,0.005039619699409976,0.004851979395625601,0.004535078260632951,0.003983174220354109,0.003148823775669124,0.0020844434876017993,0.0009150338296880827,-0.00023411823644996308,-0.001306728215222107,-0.0023380283371828847,-0.0034140328989456766,-0.004586829655489999,-0.005792449783753106,-0.006822108789949304,-0.007373252040485149,-0.007164089875289268,-0.006058329922979375,-0.004139210896457142,-0.0016987159446978164,0.0008493993762517642,0.003092214801230425,0.004728633906456081,0.005634989333447167,0.005871378253924784,0.005632358215063929,0.005160433062164628,0.004653559996038714,0.004203183321897052,0.0037880624134643314,0.0033209126003871624,0.002715094849933299,0.001929369414373949,0.0009687750090220092,-0.00014561082994329097,-0.001402525428096341,-0.002792531265665571,-0.004266189030508174,-0.005689110600363924,-0.006834193568910305,-0.007432129115878981,-0.007265019770946131,-0.006258505493484629,-0.004525329968925266,-0.002339346286743151,-5.4941449108559154e-05,0.0019908942400413067,0.0035578523317986183,0.004542836871208205,0.0049776114567254524,0.004989694706649615,0.004740727427183836,0.00436451606427474,0.003929058951756708,0.003436138315902396,0.002851257074748595,0.0021395471020655625,0.0012837581638719992,0.00027982302632258366,-0.0008713064100688967,-0.0021509479403818412,-0.003484760268769762,-0.004707297294005752,-0.005571512968572926,-0.005823785499420696,-0.005316913951752306,-0.004095881806802897,-0.0023982014690693554,-0.0005626396741243909,0.0011008566446513695,0.0024063045829158247,0.0033087072158069766,0.0038538627161940945,0.004108118184721268,0.004113483138200672,0.0038847014676973227,0.0034342317293506773,0.0027971215307514355,0.002033812963812335,0.0012069676817401127,0.0003471241948292793,-0.0005675092936637778,-0.0015947650212553661,-0.0027713624429018253,-0.004038650920383061,-0.005198062632957514,-0.005940537253104416,-0.005957086829477663,-0.005083885433835033,-0.003402760995585043,-0.0012353278857503438,0.0009712488204057894,0.00280705870423161,0.004028557910613493,0.004599543606458367,0.004643558517849353,0.0043507011242194665,0.0038921345744140396,0.0033754823194858644,0.0028431916741638004,0.0022939665466958532,0.0017040716623562204,0.0010374548068675948,0.0002498108198868925,-0.000700004315329541,-0.0018229097699816806,-0.003063444963433858,-0.004275512615596996,-0.005234024452729081,-0.005692459327787558,-0.005470226420890667,-0.004531162877002861,-0.0030127787981733397,-0.001189130663755968,0.0006161736553388817,0.00212778971477258,0.003187673546908329,0.003772951588625399,0.003964106176173299,0.003885348870761618,0.003648157266864443,0.003322248496926637,0.002938687323508803,0.002509353972224392,0.0020397083463748384,0.0015226727867866346,0.0009217966960967496,0.0001660522073613337,-0.0008242096823693691,-0.0020799867595550667,-0.0035202058409296816,-0.004922873949636595,-0.005963717414830171,-0.006322303016743046,-0.005813719605173467,-0.004480191571850654,-0.002590749050542054,-0.0005434398476958286,0.0012835804088645293,0.0026592580678010576,0.0035461692675856655,0.004052835038101505,0.0043289648138275195,0.004467731881504292,0.004467776350460066,0.004266423381824718,0.003811119330394015,0.003115977665159106,0.0022657110022103587,0.001367747802017655,0.0004880211352164934,-0.0003854781937149165,-0.0013269055965209023,-0.00241147030690589,-0.003640160811731186,-0.004889382025345739,-0.005916351366374477,-0.006428833554277941,-0.006196711342374217,-0.005156270961950053,-0.0034538442613226404,-0.0014021768631679054,0.0006314076248801171,0.0023489769789854544,0.0035977829853961283,0.0043687386734084675,0.004734428888158395,0.004774945208625156,0.004538166500983421,0.004050132358137894,0.003353397368098,0.002532187141230452,0.0016948549691333682,0.0009183623787086769,0.00019318822768165744,-0.0005837350828263475,-0.0015452861692508862,-0.002743457179136461,-0.0040555642810045905,-0.005176046233007958,-0.005721416202964746,-0.005407449694455935,-0.004204102586187145,-0.002375106240804539,-0.00037202925947004664,0.0013611094461956112,0.0025642251416413153,0.003226037930617691,0.003516055764253964,0.0036402452871282798,0.0037132857169495594,0.0037169518035938673,0.0035515086843891704,0.0031280381701572733,0.002431638478085389,0.0015166773424211933,0.00045095069676698014,-0.0007349500312262855,-0.002042444745759972,-0.0034403437981802773,-0.004790327699763591,-0.0058300262608637025,-0.006247829970469531,-0.0058205021780376055,-0.0045362619529415475,-0.0026276113597707208,-0.0004901401460512773,0.001469338611933701,0.002974137772546905,0.0039404050148306655,0.004443479784639078,0.004623425315245866,0.004590955146864977,0.0043834287507241755,0.003983452976916127,0.0033732422243323533,0.002578896500890766,0.0016705790046527892,0.0007189606878632978,-0.0002575342691335269,-0.001309285843798003,-0.002511373975350373,-0.0038753704682824124,-0.005269423497302763,-0.006405548673654762,-0.006921952860307785,-0.006533783639101636,-0.005179067468910484,-0.003078712779128478,-0.0006701880603098282,0.0015574949113714926,0.0032454057641384025,0.004273095778422744,0.004746650098278912,0.004885907623194423,0.004881762648000447,0.004802394387370824,0.004590835835325625,0.0041407118621263235,0.003395143770209684,0.0024059599144570227,0.001316855448431421,0.0002801382793462901,-0.0006410737100960269,-0.0015187446989481472,-0.002513125552607614,-0.0037486178369600196,-0.0051821582395528525,-0.00654984465487975,-0.0074387607276042555,-0.007458124879268721,-0.006422965517482669,-0.004453740767299904,-0.0019415788558255008,0.0005995853543838259,0.0027185256470340555,0.004164498939878084,0.0049244906275880285,0.005159674975278418,0.0050864220990421965,0.004866749498616112,0.004559756387210936,0.004146520360110506,0.003597295068197715,0.002927589142648602,0.0022026732352614397,0.00148900543695845,0.0007900093155834771,1.7866115113318083e-05,-0.0009663791474929437,-0.002254703169090871,-0.003788332193828387,-0.005316000125536824,-0.0064560473919574035,-0.006846043577417201,-0.0063062411482388645,-0.0049261395605561765,-0.0030241379340639083,-0.0010056651376437547,0.0007956325434284684,0.002207027988947473,0.003203517179312697,0.0038283339173811604,0.004118299345776432,0.0040862361925261825,0.0037589977121978376,0.0032233093065641635,0.0026263649591643946,0.0021153966330413362,0.0017503629275696932,0.0014498099854082767,0.0010149447757518166,0.00023202323548181052,-0.0009941597932766307,-0.0025460378996947346,-0.004094734643587858,-0.0052082352736487585,-0.005522132075951227,-0.0048929457285326015,-0.0034592291867575117,-0.001582002817596777,0.00030180222392972377,0.0018378675487132272,0.0028524753359095876,0.0033578648913411852,0.003482866856072831,0.0033777942106977786,