0.003081129743707627,0.002839119803284361,0.0025348084929821516,0.002310988224426507,0.0021921467834960934,0.0020787202318803795,0.001813658135468685,0.0012795233221336367,0.0004656385954408147,-0.0005296823188065743,-0.001549576704780203,-0.002439279698744203,-0.003081277507451013,-0.0033997061020070176,-0.003352937981478474,-0.0029336056996519685,-0.0021789239330400893,-0.001180306271927765,-8.015218676101464e-05,0.0009493104057942335,0.0017431090747853997,0.00218846742051876,0.0022624604062692582,0.0020424718830251406,0.0016753617641833945,0.0013108130490622938,0.0010283147753221904,0.0007985685123777852,0.0005070318366505723,3.366772033832168e-05,-0.0006523363771995035,-0.0014384766178088186,-0.0020931912583532653,-0.002364122222569092,-0.002102814247724343,-0.0013492450261207752,-0.00032794945006168,0.0006452622299135177,0.0012984267336961083,0.0015120356789243817,0.0013504200927940693,0.0010076542024023843,0.0007010884674514444,0.0005657819344362124,0.0005972399051014988,0.0006652259621549514,0.0005891848159252364,0.00023760857953884903,-0.0003980623657147365,-0.001190944365831848,-0.001929767795496788,-0.002402204863151099,-0.0024679922934427415,-0.002094530436372713,-0.0013532642407596874,-0.0003916679795173437,0.0006039792117699299,0.0014484105945581005,0.0019987033314398514,0.0021922027057757745,0.0020671137293072697,0.0017493479939069815,0.0014017722545335053,0.0011545330184038307,0.0010503259921068272,0.0010321338439415696,0.0009766141834976036,0.0007525653705151539,0.00027658324604069124,-0.0004530224432932132,-0.0013496604092948696,-0.0022566893631983773,-0.0029848964129534747,-0.0033612331521012374,-0.003277317805248169,-0.002723945730542684,-0.0017994494956725309,-0.0006862072519283798,0.00039978762163175304,0.0012700688356022955,0.00181357848632463,0.002017698496996728,0.0019551998866993263,0.001745096905774237,0.001503845994414688,0.0013054231915862822,0.0011646067373741614,0.0010477958469138054,0.0009028231623700231,0.0006898577149388161,0.0003964750939108964,3.244064122159677e-05,-0.00038459219743872033,-0.0008353613966935929,-0.0012898388824856587,-0.001692328839231203,-0.001959506886734476,-0.002002484636421719,-0.0017659669767297772,-0.00126352322770089,-0.0005875481794624668,0.00011556330051078678,0.0006976520302983593,0.0010665764151996087,0.0012214866908246745,0.00124470025695099,0.0012499258100486402,0.0013113127209292577,0.001411458984853286,0.0014392552011533164,0.0012433226391391139,0.000717327515670048,-0.00012488139831340805,-0.001124012950238209,-0.0020173022821746802,-0.0025332840736078796,-0.002499272930222829,-0.0019145453679725137,-0.0009569223719518712,8.130255652369573e-05,0.0009031307416130134,0.0013179694538925139,0.0013068026807064761,0.0010117315822891718,0.0006549015571432668,0.00042765789743633555,0.00040581825816413656,0.0005303622143627441,0.0006552111008590619,0.0006296362259357791,0.00037191166077145486,-9.570953302936449e-05,-0.0006577561233966087,-0.0011521982195893171,-0.0014348640305002342,-0.0014377206213869345,-0.0011940907133202335,-0.0008136037447257887,-0.0004167973094816507,-6.877107101232246e-05,0.0002428863023505619,0.0005699555325807217,0.0009349751030734625,0.0012874952334410601,0.00152269795230919,0.0015507612108459677,0.0013643878972260128,0.0010523445257956004,0.0007471775247002144,0.0005425585214999519,0.00043512357232492474,0.00032695767535007427,8.514086324732306e-05,-0.0003782864089466097,-0.0010503544499505413,-0.001812089791859264,-0.0024828188535463754,-0.002889594342936955,-0.0029292659883287005,-0.0025970643374454206,-0.0019723482158909493,-0.0011732753717841114,-0.0003080854656028467,0.0005491562263446706,0.0013487912085268909,0.002037577156487481,0.0025420516523245174,0.002783969854948315,0.0027226072328828503,0.002394104758257589,0.0019136751544446687,0.001428541272002654,0.0010445120831836644,0.0007714009657969279,0.0005238233296003692,0.0001792985660821068,-0.00034069393410724575,-0.0010148406973086816,-0.0017231333737230147,-0.002302009886118296,-0.0026191194057130643,-0.0026245240778125364,-0.002353344281512543,-0.0018869385093029955,-0.0013040482269030859,-0.0006547289127715007,3.063964463893235e-05,0.0007119451341365368,0.001318736177011687,0.001759969505495711,0.001961781522199328,0.0019082962218083892,0.0016555461516263637,0.0013050266729261897,0.0009498974552440072,0.0006257261055262777,0.0002968758635178055,-0.00011044023953249308,-0.0006452210586387584,-0.0012753658822790529,-0.001874083473109603,-0.002262507755475349,-0.0022885677532141916,-0.0018988932382929358,-0.0011643470267116134,-0.0002487633735110163,0.0006563165853134248,0.0013938774239571675,0.0018748734851012712,0.002080299407489921,0.0020449625436349443,0.001836283110720824,0.0015330512892756318,0.0012030042978620325,0.0008798170974007426,0.0005476581381757004,0.00014719807914376692,-0.00038842647049699844,-0.0010780642981330513,-0.0018484183623241892,-0.002535021091220566,-0.002937912929758579,-0.0029056001662599255,-0.002401143592268862,-0.0015166066764587247,-0.00043527999001483964,0.0006316473373331604,0.001503249420654229,0.0020653167864273982,0.002283750018725171,0.0021993607749420958,0.00190810212657467,0.001530996728497547,0.001179960142721633,0.0009264535790164701,0.0007793349876753623,0.0006785300166420494,0.0005112684893413995,0.0001533795363868439,-0.0004724447394654095,-0.0013423042458804808,-0.00230832118690313,-0.0031284389487077078,-0.0035480710141369094,-0.0034039596138265723,-0.0027010988810421974,-0.001619825724485973,-0.0004439468602532807,0.0005565618294462909,0.0012299441032589192,0.0015836621211848252,0.0017459784379171368,0.0018732887009938882,0.0020552116814623734,0.0022686453963711188,0.0024033747661877697,0.002340194293248432,0.0020321012784457015,0.001538818333364807,0.0009945224742857442,0.0005291715536941389,0.0001911229491827887,-8.184482541617136e-05,-0.0004233433216963378,-0.0009502929486675289,-0.0016746182942805692,-0.0024663876348375562,-0.003093922179189041,-0.003324721473276495,-0.0030366798097573025,-0.0022814410931899266,-0.0012659912404413942,-0.0002619512020136756,0.0005099307752972409,0.0009616600720893773,0.0011491472233587452,0.0012147332148495721,0.001297118159148365,0.0014566159189556792,0.001650868116368858,0.0017676369774284814,0.0016915418002783015,0.0013654753244878026,0.0008141017368724991,0.00012301697677379205,-0.0006038310277172269,-0.0012746356088321822,-0.0018101020514091418,-0.002126569435575462,-0.002134185825357374,-0.0017707773532782993,-0.001056444403047321,-0.00012541967303203206,0.000801555891073807,0.0015009103650586567,0.0018405804910780457,0.0018294497346123353,0.0015947965267498324,0.0013050942335252878,0.0010849894118895988,0.0009674715904267222,0.0009007351268745889,0.0007941850693867394,0.0005701632025674342,0.00019373758252101074,-0.000325742613858043,-0.0009479793168934748,-0.0016120815431435343,-0.0022372448067699236,-0.002722499172167772,-0.0029599556841305645,-0.0028662876372583176,-0.00241976930407583,-0.0016801370094693016,-0.0007755268042738842,0.00013967243421586108,0.0009348090818493969,0.0015366565474467212,0.0019345561072598007,0.0021613024252375565,0.0022641159956726265,0.0022799335604511287,0.0022229436157152407,0.0020854241133156813,0.0018481886041190328,0.001494699990576877,0.0010232101683244526,0.00045349463203980204,-0.00017292012181383616,-0.0007989008501532956,-0.0013630051479033532,-0.0018124065982480526,-0.0021117318161654706,-0.0022437084786854178,-0.002203828573889513,-0.0019967010324184256,-0.0016394296489187926,-0.001168210422550493,-0.0006381914744598484,-0.0001111048464318924,0.0003634496855655332,0.0007600174667973998,0.0010737093347291226,0.0013044470837598181,0.0014425528802696516,0.001468324467634164,0.0013665799862858739,0.0011440686801721595,0.0008341486388335233,0.00048289962730768416,0.00012676976516734213,-0.0002192855591148143,-0.0005515446666833763,-0.000852770940057142,-0.0010753620722387736,-0.0011508322473201497,-0.0010239089152343272,-0.0006902527798120076,-0.0002132850848535837,0.0002917668886551328,0.0007002712864880296,0.00092735477705963,0.0009603997351089238,0.0008579753686307729,0.0007135803626212214,0.0006011433055430817,0.0005310562610251854,0.0004417798066885262,0.0002333685310812093,-0.00017316301016477098,-0.0007796897699966425,-0.0014852915138091716,-0.0021054181909160473,-0.0024326449055476983,-0.0023178988914108662,-0.0017382422755280427,-0.0008175768832315077,0.00021480375775358423,0.0011121469803135045,0.001703324525263647,0.0019461099439551475,0.0019177758303090605,0.0017547567399941206,0.0015785775470708073,0.0014460021549223979,0.0013396845915353713,0.0011902248748791957,0.0009105823314080487,0.00043143111221181983,-0.000264218162230202,-0.0011118422071113847,-0.0019585654397398016,-0.0025977175790386792,-0.0028436131664063193,-0.0026143685778824755,-0.0019759164493227768,-0.0011181364448530576,-0.00027317818318760116,0.0003809715316087578,0.0007824177065681936,0.0009848033207688987,0.001100638375995161,0.0012238757910258086,0.0013761212335529802,0.001504692877964826,0.001528285681400573,0.001397436356911321,0.001130447335303392,0.0008034775367689452,0.0005025090556090614,0.00026695265599353184,5.953380467897608e-05,-0.0002156908810724944,-0.0006506865702842137,-0.0012577599777667515,-0.0019276302904184016,-0.0024556580857900507,-0.002631675716631746,-0.002346262851892656,-0.001650980951516578,-0.000736014111709061,0.0001603199876211367,0.0008549879158453349,0.0012787715540823429,0.0014670158268893184,0.0015044743107259686,0.0014683327481521146,0.0014012048736541825,0.001315114948609756,0.0012057599181872001,0.0010586112590241618,0.0008468791288982569,0.0005358141149345736,0.00010427045065540172,-0.0004238163038424637,-0.0009614968390007051,-0.0013758560218834182,-0.001540053517725873,-0.0013947989013174604,-0.000983502552335618,-0.00043855798219189597,7.595143055091251e-05,0.00043501090556549715,0.0005994339130024201,0.0006152057636180481,0.0005695447380545031,0.0005326673148760537,0.0005204467928414915,0.0004961682016753592,0.00040188683853411775,0.00019290208618854567,-0.00014522910904318721,-0.0005971795733048595,-0.0011212971050011651,-0.0016457478878986386,-0.002063939435968538,-0.0022467832686551346,-0.0020815170584976713,-0.0015246620291926476,-0.0006388762776632811,0.0004132164386293761,0.0014207995677207564,0.0021970066817591774,0.0026351483668114947,0.0027250285413715665,0.0025304412068448395,0.002149026813893932,0.0016786533786435356,0.0012011486274526504,0.0007769920319566912,0.000438246585632632,0.00017625949169834627,-6.449863463640188e-05,-0.00037029087494587693,-0.0008156730860538646,-0.00141196082914011,-0.0020775468329406687,-0.0026546720641518794,-0.002971781096545739,-0.0029212307479249814,-0.0025091068802852853,-0.001848222187955783,-0.0010992224601623418,-0.00039551268407500085,0.00020522987449059704,0.0007197254347496632,0.0011956272936810306,0.0016564450393132134,0.0020693640194521168,0.002355849923860031,0.0024391708426616974,0.002298443370162685,0.001990696997314265,0.0016204363613823193,0.001272645153935359,0.0009546560572620909,0.0005901574739752542,7.381172119950329e-05,-0.0006469811250678203,-0.0015149805956017183,-0.002365784404232535,-0.002988015487389954,-0.0032070216835896888,-0.0029504231979446864,-0.002269667337726976,-0.0013161799685401888,-0.0002885048015198546,0.0006273216252769285,0.0013045215368280487,0.001696601093244895,0.0018297208567837745,0.001774864085228929,0.0016150207476173834,0.001419435769260431,0.001227507705379028,0.0010396329339882136,0.0008162759505904241,0.0004927090571632591,1.3739242896164308e-05,-0.00062171059829903,-0.0013306346477413634,-0.001954674994505654,-0.0023126769276192614,-0.002275746617743518,-0.0018272929267741417,-0.0010760036407890974,-0.0002140512632868301,0.0005585469616675959,0.0011060604734368772,0.0013926845572654225,0.001470323314148115,0.001432651682429132,0.0013638121387734735,0.0013059510596738963,0.0012529603253059382,0.001161979630196994,0.0009703732131083875,0.000613873506748251,5.0650900907941196e-05,-0.0007059962614648727,-0.0015584387399205204,-0.0023246415542576672,-0.0027865022265066318,-0.0027765664010242744,-0.0022608689704140656,-0.0013679847181502331,-0.000341652934900644,0.0005603863950966149,0.001167050516604727,0.0014430925179906022,0.00146943335614943,0.001376581458210681,0.0012736812555124504,0.0012091293129844445,0.0011737850183152982,0.0011318535267235842,0.0010521746005287382,0.0009189721142199099,0.000720255854010839,0.000430882078410563,1.2620008357879138e-05,-0.0005593160174546627,-0.0012565729694169827,-0.0019736329038979126,-0.002543422733298136,-0.002793180602455993,-0.0026152159347971864,-0.0020161711290664743,-0.0011191527356644703,-0.00011817412270318396,0.0007916828313193547,0.0014751741882967312,0.0018837361872571885,0.0020429338432412228,0.0020150350141394362,0.0018606236021960361,0.0016184841358546451,0.0013087521699088455,0.0009496824985556433,0.0005716455307277783,0.00021599515495722248,-8.249721530358427e-05,-0.00031969308866953126,-0.0005360932854679307,-0.0008048210462222297,-0.0011881674158225129,-0.0016785037367078599,-0.002160851281943251,-0.002435310217525482,-0.00230582008899158,-0.0016934436908157065,-0.0007046556471394266,0.00039556177823474396,0.0012990130052530561,0.0017954832415530276,0.001860834730310397,0.001645133936286951,0.0013723398238114832,0.0012115214299195053,0.0011910134094203291,0.0011978884446043857,0.0010554605303521227,0.0006309555793354332,-8.475570234847446e-05,-0.0009622112143926572,-0.0017837413547645805,-0.0023293643878056214,-0.002457054708423121,-0.0021451312909800038,-0.0014857655012791113,-0.0006407157463718528,0.00021642302471788321,0.0009469850539536523,0.0014689368917226333,0.0017539433611729347,0.0018116792609105437,0.001676090444566184,0.0014006176527904762,0.0010560994520494912,0.0007176648689686275,0.0004350269257926344,0.00020044536659679366,-5.76465477439052e-05,-0.00043683694651977826,-0.000991202345246544,-0.0016719622058029154,-0.0023221427042046383,-0.0027376170730388366,-0.002762980031018924,-0.002365752166739325,-0.0016446386339799923,-0.0007694018220780643,0.00010670288745250078,0.0009055011399691441,0.0016198281859843239,0.0022580292479723527,0.00278409864432177,0.003102739800288638,0.003105411970210941,0.0027471037174749274,0.0020966728624722884,0.0013174379357020552,0.0005828261657941306,-1.8976321682453762e-05,-0.0005247094495629021,-0.0010491164641874726,-0.0016802268069625705,-0.0023870367134888157,-0.0030038222905720197,-0.003306133070515595,-0.0031341748227198462,-0.002488795710122142,-0.0015423797272608375,-0.0005588173313960065,0.00023034844886697236,0.0007240999125148085,0.000973728942605458,0.0011233319258168967,0.0013090126995768175,0.0015761762340406834,0.0018595526579351675,0.0020316153428023365,0.001984482628457991,0.001692369665564442,0.0012177206531166454,0.0006637549675447788,0.00011192109071965625,-0.00041020157835747174,-0.0009106139060482637,-0.001383100731147945,-0.0017686904271201204,-0.0019631248745677655,-0.0018709085156059964,-0.0014707220764625583,-0.0008461052108197013,-0.00015791787078811982,0.0004257095393365818,0.0007996543192125476,0.0009539740675339127,0.0009575366502561824,0.0009113457418605218,0.0008997841240099167,0.0009582257778210732,0.0010604809813820816,0.0011234998552603404,0.0010303525945949995,0.0006744238785065234,1.799641972786135e-05,-0.0008595752154841455,-0.0017583780957626189,-0.0024184066132035102,-0.002625830012128409,-0.002311568169436355,-0.0015847872144185457,-0.0006793950156204925,0.0001564932331566309,0.0007657049173811494,0.001126989377956834,0.0013245368701673469,0.0014703532754190664,0.0016291608775528287,0.001785644238168199,0.0018634702378139776,0.0017752290566687321,0.0014695397592939423,0.0009507565266178668,0.0002690819485890708,-0.000501629433886564,-0.0012777227798267204,-0.001965100859803676,-0.0024578867439321818,-0.002656336775796359,-0.0025069688177594184,-0.002040775276297607,-0.0013750849864936306,-0.000666019952309943,-3.684162774714986e-05,0.00047035930281160245,0.000887156315024251,0.0012641363304242282,0.0016122001946506429,0.0018841503446299327,0.0020091392423124584,0.001952085747097802,0.0017502833526594698,0.0014944443489301653,0.0012618401988225506,0.0010474716597712811,0.0007472804158708382,0.00021661615627677444,-0.0006237538654505313,-0.0016985677185154897,-0.002766992386233619,-0.0035072866665985065,-0.0036579882856573754,-0.003140964821819107,-0.0020994901664035293,-0.0008312356734925585,0.0003454476102965631,0.0012177945571898408,0.001732325373201978,0.001959398392137333,0.0020076028194421875,0.0019512241170549145,0.0018118882780416643,0.0015876296637402196,0.0012883377966748572,0.0009412334015578378,0.0005652943735047665,0.00014645515283972935,-0.0003526791289391001,-0.0009452051805150253,-0.001568064407660587,-0.0020723510549521427,-0.002277943675030782,-0.0020688467473929505,-0.0014710357001115055,-0.0006582950540214302,0.00012528103365932246,0.0006829453397970307,0.0009527116034941121,0.0010140356577081166,0.0010156603081060138,0.0010742239339110885,0.0012054694113305033,0.0013232141853049297,0.001297718958744436,0.00103354870708211,0.0005236462589455208,-0.00014308478645593502,-0.0008164667717584055,-0.0013404996998672937,-0.0016051533422058108,-0.0015771148782359034,-0.001302581738386809,-0.0008844605558118322,-0.00044279220389006,-7.168186463409596e-05,0.00019142750369052208,0.0003705808123140551,0.0005266643158649785,0.0007145673869203297,0.0009442881385959604,0.0011667896173026154,0.0012916288953670352,0.0012258977440603052,0.0009143684804753713,0.0003641018070628124,-0.0003520479204703528,-0.0011094270804611534,-0.0017572423282015389,-0.002151720334665529,-0.002192459744771803,-0.0018538413548088895,-0.0011994424739118338,-0.00036902205103958065,0.00046255804243616706,0.00114074787043151,0.0015773744799057682,0.0017665230741694537,0.0017652491093477726,0.0016529782688384806,0.0014925199127833013,0.0013099109717336587,0.001096094501811993,0.0008219745597728791,0.00045642981350514904,-1.7722750688621254e-05,-0.0005897864443223013,-0.0012103835853623274,-0.0017903708168252996,-0.0022176549811437456,-0.0023919006915756216,-0.002263292528876427,-0.0018543463847330113,-0.00125183862292269,-0.0005741642017673839,6.707557962593502e-05,0.0005936771308457699,0.000969643416890893,0.0011963582414273378,0.0013010674151642668,0.0013239283616515302,0.0013066280510308746,0.001283027089289155,0.0012699043246918232,0.0012567784201038324,0.0011994591393795352,0.0010275596151913921,0.0006732337503813147,0.00011419964202699596,-0.0005919340950408151,-0.0013074695708040628,-0.0018566168906742307,-0.0020919017377042993,-0.0019523182438912787,-0.0014865488401002466,-0.000834295011446092,-0.0001770994007799791,0.00032199241145205613,0.000570952771541538,0.0005771551086820201,0.0004394457604380052,0.00030218473648344285,0.0002873063068134429,0.0004356659087496952,0.0006876033190330686,0.0009118333008092194,0.0009654879069791626,0.0007552982512746018,0.0002764473063848457,-0.00037938271499155006,-0.0010454262161197594,-0.0015264287384298644,-0.0016618655350221318,-0.0013874347045249643,-0.000768487978679315,1.5665722741013406e-05,0.0007366619218402615,0.0012054468536977275,0.001343825879846613,0.0012054175559769124,0.000937450924824013,0.0007054517103364179,0.0006208434278004035,0.0007050766961422847,0.0008979301981364181,0.0010919315010246497,0.001167932615786184,0.0010198096283596946,0.0005734566228160658,-0.00018983975022687945,-0.0012064334659229916,-0.0023164156900081,-0.0032845858001843723,-0.003864064088900892,-0.0038833260473378367,-0.0033160254432826304,-0.0022950147189339095,-0.001059823225148508,0.0001365527425727139,0.0011146330540891078,0.0018096643878908662,0.002256090545768076,0.0025343016385589354,0.002713008025804431,0.002815016522095656,0.002816600924172918,0.002672940528518226,0.0023521527717650253,0.0018598280379924178,0.0012425817686262848,0.000569979311539515,-9.461966226392523e-05,-0.0007174324393118274,-0.0012977772761298798,-0.0018490299748541526,-0.0023679158459086486,-0.002810851505267363,-0.003093327906123323,-0.003116287794849243,-0.0028084934698804874,-0.002164393211932479,-0.0012586700190281234,-0.00023057287331559807,0.0007541532898710784,0.001547324231906967,0.0020532479277245684,0.0022468523322704227,0.0021738008759518077,0.0019332685505955524,0.0016441422964995082,0.0013994436861068374,0.0012232511445496865,0.0010525062666218376,0.0007622636723688012,0.00023323971311836004,-0.0005661739166367204,-0.0015275265645431002,-0.002415540605293302,-0.0029510731007841686,-0.0029292414863565314,-0.0023157789066554297,-0.0012725693523583815,-9.750328580690285e-05,0.0008941620709909717,0.0014917703940054462,0.0016593561775608899,0.0015255227499471964,0.0013035631020353877,0.0011829359742949424,0.001242103080064559,0.0014188049779190223,0.0015462921305201302,0.001435700447514478,0.0009668860771088172,0.00014898059360851168,-0.0008729518331496251,-0.0018651685866818881,-0.0025853131765994223,-0.0028637268638083413,-0.0026563139251805402,-0.0020506455150462967,-0.0012244381474628462,-0.000374705390468094,0.000351087031860198,0.0008920530014962921,0.0012663965817136533,0.0015299190035894328,0.001727086297654718,0.0018620183598284665,0.0019026849809522883,0.0018100025641033257,0.0015668422594623164,0.0011829651271898756,0.0006733647924626555,3.4511467183965e-05,-0.0007490309065560185,-0.0016585472652194183,-0.0025860322491977113,-0.0033219186062565407,-0.003617803441119991,-0.0033043773561404356,-0.00239793544394568,-0.001123778485134739,0.0001702766417581037,0.00116925259516961,0.001728479134940892,0.0019150505746235366,0.0019338627822647622,0.001988435495568406,0.002161550408459054,0.0023813059027377936,0.002481980495860865,0.0023138504109860335,0.0018333223409986545,0.0011231363875993012,0.00033752008341847103,-0.00038792768270023645,-0.0010025135063829417,-0.0015413266047888702,-0.002063609619473119,-0.002574492112464207,-0.0029874777553939107,-0.003156135591716879,-0.002954872121396122,-0.002355811119602998,-0.0014540266864439986,-0.0004295882992919999,0.0005263047267985978,0.0012780254711936066,0.0017743122773364224,0.0020351478312083567,0.0021153036487811536,0.0020700091278182844,0.0019388353088431302,0.001746775343157082,0.0015090582934004862,0.0012276161814096277,0.0008813526617073662,0.0004267733048290874,-0.00017565129064223378,-0.0009147582067888938,-0.001691740427332527,-0.0023278981495284835,-0.002627014521440805,-0.0024639510177026833,-0.0018494629647563903,-0.0009337409682992971,5.2036099768437314e-05,0.0008828727773627599,0.0014127398902918748,0.0016052051346197233,0.0015195311910531006,0.0012684641114399451,0.0009686381131877859,0.0006994243080887289,0.00047985347231852026,0.00027019243599632925,8.80260853975876e-07,-0.0003790411037603045,-0.0008564815583271491,-0.0013402516573585124,-0.001693004254495939,-0.0017946819580300728,-0.0015993916770268507,-0.001150523849770381,-0.0005489388554454258,9.797531048731859e-05,0.0007106434196565126,0.0012407903196763733,0.0016574411750364102,0.001936872248362029,0.0020641105012439293,0.0020370001253512777,0.0018619156930649778,0.001542087270876086,0.0010710426082133236,0.0004426901987437358,-0.00032396995356787333,-0.0011622096938527276,-0.001956404450155326,-0.0025691614030153255,-0.0028853197848332716,-0.002850884158926938,-0.0024883307240664426,-0.0018831121435192858,-0.0011506386666891664,-0.00040069442204205066,0.00028586674137047853,0.0008625629315533616,0.0013093693444927062,0.0016209633047783753,0.0017989786112577596,0.0018510450350405568,0.001794919930574424,0.0016627394226454524,0.001497890933053805,0.0013387282529170538,0.0011930710823753238,0.0010199225542558488,0.000737370070048508,0.00026192576192021327,-0.00043694725531137277,-0.0012970142931299328,-0.002163754880994915,-0.0028362022640854123,-0.003138129756012241,-0.0029803872147500664,-0.002386307583459815,-0.001474470604334158,-0.00041577989258448106,0.0006109454223332979,0.0014509703307273177,0.0019943982336457808,0.0021922157767747088,0.002067667985680983,0.0017144072318221537,0.0012723892477748437,0.0008822728486315997,0.0006332357827665111,0.000528082903837321,0.0004854578598337063,0.00038153447305543185,0.00011220606694200392,-0.0003545612759754312,-0.000959992766339237,-0.0015738726195825758,-0.0020386963769182774,-0.002219559570127312,-0.0020452852778403948,-0.0015319069192970185,-0.0007819740846681483,4.319494042742461e-05,0.0007717434700383464,0.0012726441205032615,0.0014901322646920108,0.0014495341308160396,0.0012359091750998908,0.0009563126800225443,0.0006993595356738669,0.000504679221421972,0.0003524922004049325,0.00017930839907208613,-8.276332351466473e-05,-0.0004579100708991291,-0.000894085305438197,-0.0012678608842093186,-0.001430617473514087,-0.0012761462341076724,-0.0007960086984398663,-9.480599802513611e-05,0.0006423058521455162,0.001216190409874322,0.001487714106981624,0.0014295413953244079,0.0011325566660631043,0.0007599270684310374,0.0004656868083123681,0.0003161234621871407,0.00025625990525124137,0.00014290631130589853,-0.00017048691552248212,-0.0007417473059099234,-0.0014899012705282355,-0.002213710613936107,-0.0026700554609047807,-0.0026747569242079,-0.0021792568283755813,-0.001289176918933842,-0.00021882376807136523,0.0007940045645300879,0.0015717155023156214,0.0020431995962898555,0.0022389589423992694,0.0022462717904644072,0.0021513227303257493,0.001997548850232258,0.0017789873900753727,0.0014675292622671932,0.0010522184043947973,0.000560440719179142,4.3880572730591516e-05,-0.0004598987686367607,-0.0009569395361054483,-0.0014867243077083406,-0.0020710891773243886,-0.0026568353104815074,-0.003099896223261145,-0.0032151949102653516,-0.002870368176650447,-0.002067224732086578,-0.0009583604044034225,0.00021387804393099212,0.0012203492726335183,0.0019299724914091992,0.0023321047429092465,0.0024951132459912085,0.0024986876307767757,0.002385788972593321,0.002157059250820964,0.0017982984908430637,0.0013139925119988313,0.0007433930192411469,0.00015092950979967711,-0.00040154942005158636,-0.0008825991340327894,-0.0012990106608299422,-0.0016742878545949588,-0.0020092717268864134,-0.00225344291998629,-0.0023126624364081362,-0.0020952212632489205,-0.001570122385612176,-0.0008006614659707056,6.933771391228068e-05,0.0008699349727164147,0.0014690390039096802,0.0018111477220807103,0.0019139530026200395,0.0018318139202826442,0.0016124137547470357,0.0012731028260549431,0.0008087793178640861,0.00022300837715876626,-0.000440058642460901,-0.0010854927033478983,-0.0015883795500208288,-0.0018369182142118402,-0.001776491826863593,-0.001431859507801623,-0.0008952038181085691,-0.0002861258118149854,0.0002941208838820649,0.0007887734500307243,0.0011801758156283107,0.0014627040017104263,0.0016185774620831443,0.0016173764716542476,0.0014395492618680841,0.0011025423898492338,0.000663882271468881,0.00019385930819631287,-0.0002627838805516016,-0.0007043757453621969,-0.0011512375736498057,-0.0015989380774699506,-0.0019823238836325684,-0.0021834141380344925,-0.002086450371640694,-0.0016482468479844935,-0.0009377885155085829,-0.00011707503257248522,0.0006270215016602108,0.0011594618488304852,0.0014393615671725456,0.0015104725859436485,0.0014557075937572457,0.001349093414879835,0.001230923593209251,0.0011092144107511697,0.0009722631568683186,0.0007962957206171573,0.000546182318710212,0.00018090844207226163,-0.0003250407652734032,-0.0009487333893096297,-0.001595954339223507,-0.0021127389835264724,-0.0023372540141522683,-0.00217007909784473,-0.0016246557354539378,-0.000828562867163286,2.584853554361993e-05,0.0007559513929975283,0.001253111365001619,0.001510269634649663,0.0016046141120100062,0.001644978124296643,0.0017067081383140446,0.001783054563764619,0.0017781633824191165,0.0015502035456434098,0.0009888339366714441,9.100520625696335e-05,-0.0010049784064824537,-0.002050514845594418,-0.002774877851519248,-0.002991862950269252,-0.002674030450069611,-0.0019585994275653747,-0.0010836044857500896,-0.0002873607182822374,0.00028042018580849823,0.0005978507849320418,0.0007498247150710757,0.0008642876941510971,0.0010390947738660396,0.001291947880200886,0.0015524363617152868,0.0016959256008229778,0.0016015865017938518,0.0012084906034065465,0.0005478368819845252,-0.0002579081726533049,-0.0010258216557568487,-0.0015639819886022273,-0.0017317901840301258,-0.0014928054229914316,-0.0009381582005691502,-0.00026160402792331375,0.00031387195664904646,0.0006298436337269311,0.0006600015101981256,0.0005127574385328324,0.00036441833292758744,0.0003589623467610265,0.0005302869942810948,0.0007881485419076739,0.0009700839328948539,0.0009249389864110264,0.0005819610716191761,-2.4108577843858815e-05,-0.0007726089249230923,-0.0015008074266139372,-0.002048682810705481,-0.0022923051157467027,-0.0021659059910130968,-0.0016762097692252472,-0.0009066880595645726,-3.2868746192645133e-06,0.0008632197510016102,0.0015491592129381515,0.0019812382713408723,0.0021676062141224523,0.002170137483894177,0.0020558499557069695,0.00185839152766945,0.0015705496208172323,0.0011643910423480865,0.000618586261491886,-6.450107453526447e-05,-0.0008540366889653271,-0.0016900414381573496,-0.0024819252568874495,-0.003111704338358691,-0.0034517974552275045,-0.003399464825892,-0.002916163034947362,-0.0020526438949589245,-0.000945497809530346,0.00021680397275060089,0.0012483980678388126,0.0020222585495623543,0.002504025463425101,0.0027432923514909644,0.0028226478701883595,0.0027944506219643632,0.00264991782778687,0.002345215796829751,0.0018647675074358323,0.0012684023210229973,0.0006766341683490577,0.00019509017128611455,-0.00016965292180777568,-0.0005352777284640475,-0.0010777956900831637,-0.0019052157409193732,-0.0029481982392654243,-0.0039427122721189456,-0.004528315797734105,-0.0044163270118219074,-0.0035373144977051086,-0.0020855942432111813,-0.0004362124804729887,0.0010182228636429918,0.0020223649525637414,0.0025291272899610005,0.0026653119127888264,0.0026276854152887004,0.0025726319762651943,0.0025511116694647185,0.002506703690062035,0.002322556647568314,0.0018881916906079202,0.001158652070374197,0.00018722785644145623,-0.0008776812428803816,-0.001831160805660075,-0.00247392252177899,-0.0026760977441353676,-0.0024185127832721167,-0.0017958662873230524,-0.0009821661598468836,-0.0001737490108010409,0.00046825533210194403,0.000857586552317789,0.000995105791518887,0.000952887571145464,0.0008362946702769993,0.0007362067626789828,0.0006881244020193994,0.0006547195223841004,0.0005414257664330263,0.00024245980945132283,-0.0002986356927042531,-0.001039379445203869,-0.001825794937909732,-0.0024311091722888775,-0.00263707689734699,-0.0023254011494315582,-0.0015360973155465066,-0.00046158437983704606,0.0006242663803809999,0.0014703682647665603,0.0019379482507560501,0.002036041190341599,0.0018915883045544707,0.001674550772610972,0.0015175249832099487,0.0014667689238283042,0.0014806030187765886,0.0014655411859323488,0.001325518847625243,0.001001270749844445,0.0004887806379737277,-0.00016324734292969928,-0.0008715772700641559,-0.001544390145281818,-0.0021044376818520174,-0.002498785050552339,-0.002691654649648392,-0.0026499637863082025,-0.002340353573169679,-0.001750397227078459,-0.000924988650459038,1.1852846862932774e-05,0.0008782068247454094,0.0014990814641147486,0.0017810820737063874,0.0017507095283483783,0.001531149064660746,0.0012717726747806183,0.0010732445530948148,0.0009498358437232491,0.0008434952164871324,0.0006726753793405107,0.0003832431567826029,-2.4813424457912822e-05,-0.0005014319053926396,-0.0009699753015636723,-0.0013534978710668575,-0.0015932156138068296,-0.0016571605465196559,-0.0015408145462238944,-0.0012612682135210746,-0.0008471913553197481,-0.0003304723462931893,0.00025315733691236146,0.0008538643875961017,0.0013989582212047633,0.001801128093693915,0.0019876396547138203,0.0019347775994154972,0.0016820224057757787,0.0013112993537497497,0.0009013345925117106,0.00048685075880098335,5.113881786150882e-05,-0.0004417616701495085,-0.0009964782934835997,-0.0015516904603582217,-0.0019866691301908468,-0.0021697612420026554,-0.002024892289952751,-0.0015800743575029256,-0.000968348589937302,-0.0003744685583827314,4.972705648438277e-05,0.0002572889055643189,0.00032377943837590866,0.0003973293397705152,0.0006073656945148167,0.00098337267599335,0.0014291727048285124,0.001765651647546532,0.0018166069251636273,0.001491142254943009,0.0008224457959838696,-4.9429065891466034e-05,-0.00093258051735849,-0.0016434371937471496,-0.0020475746138269523,-0.0020768343075061816,-0.0017328897371905881,-0.0010865858222038447,-0.00027142996161679835,0.0005386022011234638,0.0011729521055079603,0.0015207119274844485,0.00157348962527158,0.001426534097565237,0.001228520738275834,0.0011017620298260917,0.001076679277014853,0.001078967212623092,0.0009764281872507256,0.0006563332165335923,8.82713578946395e-05,-0.0006592346147955897,-0.0014497830298527351,-0.002133533510554551,-0.0025941329555837036,-0.002769690184986265,-0.0026493020335655757,-0.0022598422626496756,-0.001656743205125169,-0.0009209037947651385,-0.0001528192089324254,0.0005454268860447568,0.0010986942029527305,0.0014831833501318548,0.001728976365161388,0.001894594180766551,0.002026487246001915,0.0021285216984753726,0.0021614964741297447,0.002073057110588888,0.0018375202778151598,0.0014772903028160052,0.0010486911798475128,0.0005995169255990842,0.0001281095990869059,-0.0004222973329339768,-0.0011205995887286233,-0.001976278352374648,-0.0028840661424807644,-0.0036273073200999576,-0.0039512622474542425,-0.0036751299989913407,-0.0027851005195539263,-0.001458204573086089,-3.34031864248816e-06,0.0012517985772991915,0.0020753403522216166,0.0023990078544298063,0.0023158290508567933,0.00201628678761599,0.001696204631971228,0.0014782753801015481,0.0013782186248582427,0.0013216505738683495,0.0011933287073484663,0.0008913592408239604,0.0003677154572081608,-0.00034956561029788583,-0.0011520260076690824,-0.0018681136581941767,-0.0023076873227946748,-0.0023284754134710256,-0.0019005480958942762,-0.0011339584427398255,-0.00024565958230190067,0.0005264502233089891,0.0010208767504639674,0.0012086920098560066,0.0011782607792041255,0.0010614968303642562,0.0009499841660840014,0.000851972853747412,0.0007094742564628935,0.00045281250845424,5.0144582847790444e-05,-0.0004754377947762126,-0.0010564677771324254,-0.001597077699410134,-0.001983220839673299,-0.002097969843868386,-0.0018566364922334622,-0.0012548229479209573,-0.0003979983709151858,0.0005183368428681872,0.001279630889816314,0.0017408327158892523,0.001884118269070219,0.0018128380941877236,0.001684321348794291,0.0016187642664221673,0.0016345835554984003,0.0016440670277396204,0.00150739398716929,0.0011111968691373548,0.000428701386729123,-0.0004657943106895115,-0.0014277843509232992,-0.0022960677779830284,-0.002940011331270813,-0.003282239365197071,-0.0032967867896694526,-0.0029960784770799646,-0.0024206341047759237,-0.0016358375593155828,-0.0007299395621546682,0.00019565444733006545,0.0010471728757727391,0.001762654627210716,0.002322958311150823,0.002736617521610168,0.0030047298045448867,0.003093324215867768,0.0029417778741076725,0.002509364673224341,0.0018275413452854181,0.0010137795515254228,0.00022662012931158268,-0.00041543016605724537,-0.0008984609709283078,-0.0013141143067565508,-0.0017893040515196497,-0.0023848251250140036,-0.003026621773981592,-0.0035160006200439606,-0.0036173562815446764,-0.003175404373626753,-0.0021981073936804406,-0.0008638868420384185,0.0005453112782849785,0.0017472677759206331,0.0025496802478708214,0.0028920688140397165,0.002832198305933494,0.0024957612078740795,0.002019816436978732,0.0015147163519287836,0.0010521051167054062,0.0006697884428365473,0.0003781881374679493,0.00015991554028180609,-3.321120054084706e-05,-0.0002729394807196683,-0.0006271576311493499,-0.0011164255826631585,-0.0016764591091849566,-0.0021562575907252035,-0.002367790680918203,-0.002171741352467782,-0.0015555941141054182,-0.0006577035207446201,0.0002813322158173766,0.0010175941150330208,0.0014022207033295281,0.0014298990502526732,0.0012174896523937293,0.0009310689266597877,0.0007041754000446068,0.0005883546355391579,0.0005529926015014246,0.0005216408642795553,0.00041595406840885894,0.0001846312501433459,-0.00018577905607843894,-0.0006676078557352597,-0.0011888003093033863,-0.0016355345717863684,-0.0018737932535742457,-0.0017936901346578724,-0.0013606214113333769,-0.0006444305041588255,0.00019508710892811526,0.0009641020254582133,0.0015060877508722946,0.0017547822114289775,0.0017460935306212032,0.0015872162874073644,0.0014000639135226534,0.0012652839929752496,0.0011906663949977237,0.0011156032206630251,0.000946385712579357,0.0006034163132084202,5.8462284930337635e-05,-0.0006510513083309546,-0.0014306040186320707,-0.0021521021892513858,-0.002684425217754121,-0.0029252692053768547,-0.002827765021491513,-0.0024131778340690862,-0.001763089668418785,-0.000992617461818638,-0.00021556394670294666,0.0004837667571441625,0.0010615800989418236,0.001507371239095318,0.0018265688166447785,0.0020248713699446367,0.002102485923961633,0.0020584680728595174,0.0018989754540721516,0.0016425534918691979,0.0013193048168018936,0.0009642972774544477,0.0006064975169800622,0.0002556487696715214,-0.00010613398405121858,-0.0005174122186744482,-0.0010095366657238,-0.0015679704634796708,-0.0021077586090682172,-0.002486376843592808,-0.002556284404630044,-0.002233912515498193,-0.0015497187214514926,-0.0006518888089119454,0.00024211652602989576,0.0009275639336519699,0.0012919794909901309,0.0013539060412224835,0.0012395677414704237,0.0011071884152333454,0.0010580736257127506,0.0010829697490383735,0.001073714101151484,0.0008932162254116213,0.0004634196113550836,-0.00017819271124122626,-0.0008827520706857126,-0.0014490564473132088,-0.001704874796584867,-0.0015726194642531727,-0.0010948072719162115,-0.0004143378451403196,0.0002791470899993643,0.0008157108045739012,0.001099871917907241,0.001133302044147816,0.0009977390032571947,0.0008078852523311895,0.000657445852000265,0.000582572543890159,0.0005558238120619498,0.0005081863568320696,0.00036531772532686117,8.096305402432156e-05,-0.0003447912301592637,-0.0008650840859971685,-0.0013974149748880362,-0.0018384292784625667,-0.002080807462065457,-0.0020369094887109965,-0.0016702113192332414,-0.0010230542822519824,-0.00022046517679526634,0.0005632350216707663,0.0011668269651452024,0.0015040568434344453,0.00159116547653346,0.001524310331341917,0.001419775048546128,0.0013499091998764733,0.0013078380379862005,0.001217042318921329,0.0009789588551488088,0.0005337246837940721,-9.657161865628716e-05,-0.0008039226498639408,-0.0014321406367095388,-0.0018381943016934298,-0.0019473469169610524,-0.0017751681119169407,-0.0014062674136302562,-0.0009431967131790452,-0.00045683280214226077,3.117941338743406e-05,0.0005253205820990668,0.0010131044803588325,0.0014372010824200158,0.0017060893904462648,0.0017376161166065924,0.0015061910864388288,0.0010625765722717365,0.0005141567699898627,-2.184646113169127e-05,-0.0004653262625012992,-0.0007959368431673672,-0.0010423881608572381,-0.001247865499131198,-0.001432615675207988,-0.0015742962022508111,-0.0016159110495014648,-0.0014962036977069742,-0.0011854489001944203,-0.00070668218214655,-0.00013084267475777235,0.0004501995507479189,0.0009561409978932621,0.0013386096231687286,0.0015823295075283257,0.001693565364421614,0.0016885497913059168,0.0015896706596491565,0.001426327537952302,0.001230585884836384,0.001021997294181387,0.0007887459181471578,0.00048237738043143427,3.9596288192095464e-05,-0.000573180453930607,-0.0013157408346116798,-0.002058668657218497,-0.0026119390628274505,-0.002790864100914115,-0.00249359261877384,-0.0017557839063961573,-0.000753648598511191,0.0002532681293382365,0.0010193943667201302,0.0014072039171153625,0.0014326449114608316,0.0012398794207067964,0.0010196976746640093,0.0009137624886899484,0.0009504327025406519,0.0010384264212121256,0.001016560533339199,0.0007358752562901031,0.00014008463713535964,-0.0006893754117392071,-0.0015463478965692414,-0.002171173018347086,-0.002352527915256781,-0.0020141464655761263,-0.001245704575365507,-0.00026459801597816064,0.0006709342055715095,0.001356140719586849,0.001701917892428675,0.0017448143021928022,0.0016096824178213503,0.001446477252233027,0.0013655928584976756,0.0013900577928082588,0.0014374136624643907,0.0013420375081283676,0.0009220035929777532,7.510591002036484e-05,-0.001137066689612593,-0.0024686379068672415,-0.003561397235113686,-0.00408722463347856,-0.003890963886917466,-0.003054727191040932,-0.001847155362654572,-0.000589682916376236,0.0004806237892374791,0.0012774951386500715,0.001838015263068268,0.0022370621473969624,0.002508157005361695,0.0026203522025104713,0.0025172662874345967,0.0021824209328181483,0.00168040842021777,0.001142759608598541,0.0007055035023287899,0.0004363348616752543,0.00029453197519232793,0.00014682659595652585,-0.00016746514163227654,-0.0007522439441865683,-0.0015897716545922498,-0.0025250061212042704,-0.0033077622052205746,-0.0036768648681844056,-0.0034541721305445406,-0.0026145230092988335,-0.0013074175152682967,0.0001792591582928489,0.0015065300402778337,0.002396490607288808,0.0027268042636916616,0.0025643647475882547,0.002118661068271383,0.0016349532121312166,0.0012797876276878257,0.0010757772824037887,0.0009156733429181535,0.0006433274190150762,0.00015498501294237765,-0.0005333955638731117,-0.0012854042675761988,-0.0019051668655669922,-0.0022240623648628523,-0.0021686220468347082,-0.0017802246066832945,-0.0011842101015002461,-0.0005295897458242637,6.951723203099083e-05,0.0005649287978524442,0.0009677282289422716,0.0013118739434251308,0.001609798203131067,0.0018253904291870172,0.001880672841575917,0.0016935860267455333,0.0012257594536781344,0.0005132093478317766,-0.00033606020303741946,-0.0011740112717894618,-0.0018563642111983666,-0.0022789137376141404,-0.002394770399481389,-0.002210983567297962,-0.0017714346164347697,-0.0011380866817908373,-0.0003818740291044011,0.0004144025952968743,0.001151307782189671,0.0017213619906659297,0.0020370140363181522,0.002066747547401662,0.0018569345847563369,0.0015207770684164178,0.0011920152396191878,0.0009614328555312642,0.0008282541248197539,0.0006965386435447927,0.00042513990482436674,-9.157854672954958e-05,-0.0008559500540732123,-0.0017499270261016834,-0.002576368370518456,-0.0031331452328179493,-0.003281097401896742,-0.0029788215659064584,-0.0022806515329599794,-0.001310741629869965,-0.00022868240153902015,0.000804084998243788,0.0016535521156191594,0.0022352797700256177,0.0025242707269324425,0.002548357594890025,0.002367956735911587,0.002053053730649682,0.0016683026561999416,0.0012677402359000775,0.0008914555823615127,0.0005575231378083064,0.00025217544322309217,-7.087261705851787e-05,-0.0004727802965826399,-0.0009952220805544431,-0.0016238126094862896,-0.0022701294436559974,-0.00278695472098111,-0.0030145364639571175,-0.0028385737675041705,-0.002234678904328383,-0.0012822059174508434,-0.00014515836334101027,0.0009706444294119838,0.0018706479421762771,0.0024209620563695727,0.002580231060582975,0.0024025877958973496,0.002009007212569661,0.001537700805375492,0.0010938911490060439,0.0007184655223376551,0.00038553749585196846,2.839794671428866e-05,-0.0004146975547823105,-0.0009513366934104971,-0.0015061159210900872,-0.001934243422213251,-0.002081145966585796,-0.001862443077409548,-0.0013190913699112285,-0.0006109011106249971,5.328501496460001e-05,0.0005112510494337547,0.0007153121116795255,0.0007367903627521046,0.0007099283017214502,0.0007508442041806922,0.000895017790658712,0.001080356390671992,0.0011774308376276007,0.0010493581641985346,0.0006164599344966798,-9.788275188422419e-05,-0.0009578457347864285,-0.001749640605382588,-0.002251588876297932,-0.0023141330828957015,-0.0019148516732237775,-0.001161877678061995,-0.0002444576057124403,0.0006422861909390221,0.001358951042766261,0.001842952477118247,0.0020905933392446215,0.0021247115955572962,0.001974359704320372,0.0016748614149804742,0.0012753433516431488,0.0008342496079807154,0.00039623009103311813,-3.4746241498582846e-05,-0.0004992904531939714,-0.0010469810502181168,-0.0016741271747049218,-0.002276460838793473,-0.002660990211764432,-0.0026281161039156727,-0.0020851998293679014,-0.0011230922059181408,-2.5908994001392315e-06,0.0009502596567233582,0.0014871723385441763,0.0015436147290881688,0.0012529130588803433,0.0008632443441915184,0.000603145878577553,0.0005663597786072711,0.0006743753460389002,0.0007329642501169703,0.0005499285561286619,5.05033139700903e-05,-0.0006700602080846555,-0.001382519119658198,-0.0018270869278354629,-0.0018295394918384535,-0.0013723629612986351,-0.0005907475464590945,0.0002961140410935189,0.001077217554523749,0.0016191235112962069,0.0018862067996655242,0.0019152881725161119,0.0017693444950842882,0.0014982960740175905,0.0011236318067868638,0.0006476718044302703,7.617036275564646e-05,-0.0005611272189458088,-0.001203521864218523,-0.001769182558679471,-0.0021767543526119816,-0.0023686817213083374,-0.0023251479008807342,-0.00206177316473524,-0.0016139712970663416,-0.0010206345273419749,-0.0003201980145487169,0.0004394336498918369,0.0011891197121243154,0.0018393844105911558,0.002298343625785406,0.002498770808779801,0.002421722313533129,0.002106446555778219,0.00164030323610106,0.0011277486767508876,0.0006473514863145224,0.00021756042223886063,-0.00020542548299526224,-0.0006892041919266429,-0.0012638897311164755,-0.0018747815239799344,-0.002381943840528176,-0.00261361853598213,-0.0024483722763181093,-0.0018827314927233497,-0.0010473562493960977,-0.00016123193064129142,0.0005552140657065928,0.0009670432327962364,0.001071252170887126,0.0009822429601274816,0.0008649585766733365,0.0008481025127258002,0.0009579251940736942,0.0011036783400410566,0.001123720720097085,0.0008739400995885173,0.00031772286610987234,-0.0004292505580488007,-0.0011288292191313223,-0.0015186960993970162,-0.0014354966868973685,-0.0009000771597863035,-0.00011563203386327943,0.0006264411599833819,0.0010857499706517385,0.001181280267670599,0.0010092585106940759,0.0007646000768022703,0.0006175367005699785,0.0006204163012281463,0.000694519280014793,0.0006928144445281797,0.0004906047177363985,4.9679770862531966e-05,-0.0005702998840023733,-0.0012439416941571206,-0.0018286887082294538,-0.0022068080492687776,-0.0023108198458276323,-0.0021312909227880045,-0.0017088157941379468,-0.0011144974903752915,-0.0004276519224477005,0.0002789140525480665,0.0009414920987560271,0.001501411750823694,0.0019051900370507242,0.0021150056855249164,0.0021243850722685457,0.001965833733039289,0.0016994752819166632,0.0013840366902070384,0.0010455842823574172,0.0006648824736360274,0.00019553781956062506,-0.0003938709432909596,-0.001077685754275478,-0.0017583799259142641,-0.0022922127782800347,-0.002544805056426171,-0.002447643881572302,-0.002025357472695605,-0.001381031810908486,-0.0006515284655786646,4.010784462603464e-05,0.0006123126753544463,0.0010281524478370535,0.0012854714941898501,0.0014070608279197934,0.0014332906332973992,0.0014107257362455648,0.00137332449263722,0.001324206936624656,0.0012321132758764395,0.0010487760250241646,0.0007375269083608647,0.00029486858828808036,-0.0002460049404861874,-0.0008253176299489041,-0.0013681927875850933,-0.0017918414873317934,-0.0020145317529348334,-0.0019747415925479494,-0.0016582500526141492,-0.001117979213633754,-0.0004692467483747688,0.00014504481519295436,0.0006066738407105865,0.0008667196974107188,0.0009587655748414655,0.0009720476302533922,0.0009965814945519956,0.0010674470034844933,0.0011377473271359745,0.0010978077166819435,0.0008356222919902122,0.0003097893001220856,-0.0004050585941928961,-0.001129092658679243,-0.0016433181080162543,-0.001779061566554262,-0.0014869225745114528,-0.0008538377927060954,-6.485429988627547e-05,0.0006678747405873598,0.0011757404655717493,0.001377762540291074,0.001288542056217052,0.000995866061284425,0.0006212346885800464,0.0002771114227516616,3.265918379234678e-05,-0.00010302529211629629,-0.00017583716269166998,-0.0002619785503793614,-0.0004317773473071768,-0.0007134909958238565,-0.0010697963135678254,-0.0013984110776881068,-0.0015620753005391227,-0.0014410304603769575,-0.000987967517496585,-0.00025984627302396324,0.0005912946174329186,0.0013678962697500291,0.0018963839222980474,0.0020859591249255505,0.0019512544572656016,0.0015915868127064242,0.0011403576798334123,0.0007096436424095674,0.0003521410111042999,5.089572168835059e-05,-0.00026333618227860917,-0.0006725204756591993,-0.0012195052429854615,-0.001862336304617628,-0.0024606115118611595,-0.0028136716312343927,-0.0027450883322147858,-0.002195533681343958,-0.0012709180154561886,-0.00021101733486997366,0.0007117549427032811,0.0013112081496127678,0.0015593836491108156,0.001573959729949812,0.0015324166176988565,0.0015655617400150913,0.0016918138824284052,0.0018257189260487145,0.0018476356907743178,0.0016858415640090497,0.0013592882012524725,0.0009583474588385733,0.0005808302621850136,0.00026595661144749564,-3.277459871884217e-05,-0.0004188830198895041,-0.0009826033278660014,-0.001726200515200181,-0.0025272524002628548,-0.0031664924492517984,-0.003414609150574385,-0.003137875269097919,-0.002366520862486546,-0.0012866817520987837,-0.00015957146786235526,0.0007869003788616519,0.0014359430654258209,0.0017937416112269098,0.001941276813222106,0.0019648640854517075,0.0019096471336724216,0.001778075048246662,0.0015621477267977082,0.0012765279586084107,0.0009634215993485806,0.0006651046433307541,0.00038683224397432527,8.21093720447454e-05,-0.0003217371158689207,-0.000866880622154551,-0.0015094762585277114,-0.0021028601040618284,-0.0024401427274027367,-0.002344688410317596,-0.0017661772990847327,-0.0008295947501843629,0.0001961032555752451,0.001002238220572921,0.0013707876578804182,0.001268481413796236,0.0008584957214339332,0.0004221514423089321,0.0002245555572476437,0.00038497066650916204,0.0008138776009368081,0.0012513050868849472,0.0013935673713270727,0.0010495612076145452,0.00024872260770208987,-0.000756315079117653,-0.0015976319085066054,-0.0019597395822312843,-0.0017247256744573301,-0.0010220921536746104,-0.00015826315234456216,0.0005368138825972992,0.0008647056154236625,0.0008341232544768419,0.0006217807733737259,0.0004483693355590693,0.0004453981828517609,0.0005877843435219718,0.0007225801213325603,0.0006671802857667235,0.0003163915120073979,-0.000297749258002287,-0.001017110543021857,-0.0016257439131181428,-0.00193759432094839,-0.0018631563073988559,-0.0014300759017016151,-0.0007570016297227164,-1.0846962022444465e-06,0.0006928088213114417,0.0012218117175379394,0.0015317801426564933,0.0016120800885264005,0.0014899478346005722,0.0012266777500546066,0.0009082400874567194,0.000621492659786704,0.0004171640790156645,0.00027706990569231977,0.00011216800166682742,-0.00019291747723330314,-0.0007032400999569053,-0.0013681618430684422,-0.0020138380943568093,-0.0024092752307961485,-0.0023754182808911123,-0.0018770970650435542,-0.0010455353494488394,-0.00011906466997790681,0.0006646520493389402,0.0011676599030764289,0.0013936927749138492,0.0014578486868508447,0.0015063586031955727,0.0016319324757242705,0.0018282570403649976,0.00200278403560251,0.002034286056979564,0.0018392244512653066,0.0014104285120226218,0.0008110569716169597,0.00013330523636119755,-0.0005501303686263818,-0.0012118717603532706,-0.0018577551638923183,-0.002485878818478911,-0.003046402488170702,-0.003433825040644744,-0.0035225287183833485,-0.003225750867149441,-0.002541230566874957,-0.001557107606579187,-0.0004201551195447562,0.0007088953578909227,0.0016884683427919706,0.002411635974197003,0.0028142593352191445,0.002885492043605045,0.002676499007783684,0.002292691198668908,0.0018606933438737182,0.001480568833873794,0.0011892899790233026,0.0009577183374743047,0.0007218814980560711,0.000427048435646674,5.7055262330236176e-05,-0.00036533702183406307,-0.000800094509846631,-0.0012132286328279825,-0.0015840567957850263,-0.0018938104277560288,-0.0021091036719719887,-0.0021790621823896427,-0.0020549599151652768,-0.001722642847954078,-0.001224891416351101,-0.0006544493125512558,-0.000117384469996408,0.0003130710543668479,0.0006249272066470369,0.0008612273108717174,0.001082625510004879,0.0013202211170936875,0.0015466378134945944,0.0016845393988976646,0.0016508477582733113,0.0014122223317429591,0.0010166567479861055,0.0005766650022140182,0.00020865192955598375,-3.5974271303829694e-05,-0.00020171525635917276,-0.0003966459989187927,-0.0007130001756982823,-0.0011506966954703266,-0.001595333697163587,-0.0018687111481933496,-0.0018234860415944657,-0.0014252142176806992,-0.0007732444709202158,-5.0395567581669253e-05,0.0005656986781200906,0.0009766087981852765,0.0011834169458581631,0.0012507644640415237,0.001246329979628297,0.0011978421060775577,0.0010916798340801527,0.0009046829435755128,0.0006370791742285522,0.0003165763956999236,-2.9409565491582803e-05,-0.0004054807957017863,-0.0008476520882392325,-0.0013788232307172209,-0.001949185481028739,-0.0024128010143615896,-0.0025732258266009736,-0.0022817438670575205,-0.0015287683037666193,-0.00046700099833143994,0.0006527017701162562,0.0015954879230723705,0.002238404095742553,0.0025937681087729405,0.002753792521019616,0.002799881144148312,0.0027391500884956285,0.0025081889107221584,0.002036493896166762,0.0013215284640758051,0.0004599958112455379,-0.0003901118989949625,-0.0010940507297200323,-0.0016142912932544532,-0.0020206065000584975,-0.0024252942419676453,-0.002885441668604177,-0.0033394519516780673,-0.0036229417869242508,-0.003554977745423744,-0.003039273080182016,-0.002119053702177547,-0.0009589287713067539,0.0002269054428087132,0.0012551680053875212,0.0020232529789215043,0.0025138287040373285,0.0027651976920276917,0.002831238270032314,0.002753192829069563,0.002554472561553168,0.0022552881627837117,0.0018918588162775108,0.0015209739463295901,0.0011992196896027504,0.0009450233429324074,0.0007094762328881425,0.00038427781302219615,-0.0001440760231342154,-0.0009163063293353498,-0.0018439824634168,-0.002715913125742554,-0.0032754065208919197,-0.0033336725486259964,-0.002859425051122467,-0.0019947210275013767,-0.000988140505975562,-8.410866791667818e-05,0.0005692281647157356,0.0009478841565539057,0.001114840646765627,0.00115645669296219,0.0011372469107471888,0.001090995992478493,0.0010331331283667125,0.0009677523192450667,0.000878545623330439,0.0007180647422199106,0.0004192523629690612,-6.304258994557581e-05,-0.0007015686143055287,-0.0013740722655774795,-0.0018929713668093492,-0.0020784453331595567,-0.0018365737688600258,-0.0011998079597587475,-0.0003101383342401262,0.0006412912529257148,0.0014829506727562468,0.002106862327416967,0.0024744967974280113,0.0025938538673642084,0.0024882829967253607,0.0021747861739178998,0.0016592625324098318,0.000946816307748918,6.037137952379838e-05,-0.0009408061038111972,-0.0019512266444587337,-0.0028250991886104174,-0.0034014517070932093,-0.0035454820548296616,-0.003194919213534727,-0.0023927391381458165,-0.0012869368939217713,-8.992045078349588e-05,0.0009883751641466786,0.0018022506733417999,0.002296997127793797,0.0024923836508173505,0.002441614225302421,0.0021970425921787103,0.0018023337012999542,0.0013043131196615412,0.0007596085286638626,0.0002187933897124373,-0.00030226900254169,-0.0008338561414155358,-0.0014240290333953514,-0.0020794354041637868,-0.002714467611523892,-0.0031511510064261552,-0.0031827798099459278,-0.0026724013736040345,-0.001632836173110296,-0.00024408230097552343,0.0012020638355228223,0.002404131260291417,0.0031537304931230723,0.0033952103398761464,0.0032199989205356134,0.002804214503828943,0.002323718627197542,0.0018875680975589974,0.0015152568701118346,0.0011561865002137721,0.0007299300873243062,0.0001646614322148507,-0.0005757334711244868,-0.0014732054279738022,-0.002443499888019301,-0.0033380431565502,-0.0039720849096756,-0.004180643261491959,-0.003882452893378876,-0.003118274726211866,-0.002038859429040519,-0.000846888134000122,0.000274160183446193,0.0012051513400256455,0.0018930426474137148,0.0023242800165519176,0.0025018254832974924,0.0024458854232433614,0.002209804900640048,0.0018841378747556162,0.0015702851570928386,0.0013323355460021233,0.0011581458659564534,0.0009601390940254025,0.0006233561637430918,7.868912342243791e-05,-0.0006385518755000113,-0.0013798458518301476,-0.0019343274454761928,-0.002117231506935426,-0.0018533140290357586,-0.0012150624827676712,-0.000398195391472885,0.00035381265339436314,0.000842943990886468,0.0009881484399232262,0.0008456390179865608,0.0005704993266307478,0.0003378203818382847,0.0002597258373824309,0.0003360731790261963,0.00045999843750427444,0.0004735141350360986,0.0002466855709202329,-0.00025424692578509926,-0.0009385112109874779,-0.001615478860691589,-0.002065437840361249,-0.0021294051205366284,-0.001778346000515783,-0.0011262748514127498,-0.00037638127956775053,0.000274691119442932,0.0007234775489411475,0.0009901303997661647,0.0011790013788845154,0.0013969572056284712,0.001679475304510391,0.00196618110340328,0.0021360414212917107,0.0020775265841943814,0.001750381055730594,0.001203196253671795,0.0005398439706428937,-0.00013975779541204386,-0.000783732941079902,-0.001388372204915975,-0.0019570751483003693,-0.002450878336363251,-0.0027712655495633503,-0.002795628418596597,-0.0024493171700102523,-0.0017693466496234349,-0.0009141717206903875,-0.00010441014916189506,0.00047773352467794897,0.0007749505888788265,0.0008767908902352303,0.0009614068176506329,0.0011865716083207273,0.0015901850219074338,0.00205835715258015,0.002382841256134755,0.002377919093358243,0.0019899940842805957,0.0013345631597171314,0.0006359045147124487,0.00010171569697553355,-0.00019493216714634655,-0.00035450540550825476,-0.000582338250496399,-0.0010481568087515776,-0.0017572048183221456,-0.0025148518813262423,-0.003012135332870634,-0.0029854368096379506,-0.002358316373429782,-0.001286062743171542,-8.237818974520439e-05,0.0009264793603352831,0.0015398576561679385,0.0017444170617288883,0.001677511838036399,0.0015243394539508023,0.0014118884312317955,0.0013552900204001454,0.001274824198122656,0.0010606152229855506,0.0006421643214301973,2.851235416250885e-05,-0.0006909357154283654,-0.0013747523085512903,-0.001871087952507382,-0.002060958967118872,-0.001895194257964196,-0.0014149197183243884,-0.0007436999924203276,-4.710549254430659e-05,0.0005273584828503727,0.0009020702201514904,0.0010859166832705958,0.0011482758303309657,0.0011684254759969492,0.0011913079259603997,0.0012116526075094415,0.0011866897997774768,0.0010616306000750758,0.0007921482348450376,0.00035860510027852486,-0.00022486449420959764,-0.0009034369492582235,-0.0015796300758187207,-0.002123819950466972,-0.002403006549319723,-0.0023236904509219567,-0.0018718413273749865,-0.0011277386883443432,-0.00024335722890599174,0.0006095692462193605,0.0012957563225194629,0.0017502218203352354,0.0019771510713210132,0.002020829736472016,0.0019294018208776572,0.0017331716890527842,0.0014473612199578036,0.001091046080896207,0.0007009179225533988,0.0003215447822813751,-2.610943562434461e-05,-0.0003726978815129188,-0.0007933279646743322,-0.0013544595959851494,-0.002041607460114059,-0.002720392478622858,-0.0031720801840640126,-0.003196838909793839,-0.002726095578024792,-0.0018709771630238128,-0.0008718755085640245,2.179486105779462e-05,0.0006690917327426662,0.001085359403402587,0.0013993916573013484,0.001752108460169599,0.002198366871188862,0.0026671154927737878,0.0029998578586796923,0.003042830849023087,0.002737993452055403,0.0021589360383599773,0.0014703895755687037,0.0008353957114664804,0.0003255155874399857,-0.00011165593061193343,-0.0006065036626929855,-0.0012684117596659765,-0.0020924906067256365,-0.0029296858550521302,-0.0035416338012620088,-0.0037116117942590744,-0.003350409924217127,-0.0025405181505326387,-0.0014985825229845658,-0.00048033666880736576,0.0003213233392253688,0.0008371919933457084,0.0011194900750502047,0.0012869569814634527,0.0014505162506391672,0.0016567155051608932,0.0018719693134286958,0.0020074560696220966,0.0019657389876075355,0.0016852121475854158,0.001166265857747351,0.0004746353929771857,-0.0002749536767792228,-0.0009485280370609853,-0.001427319223102849,-0.0016359880222492668,-0.0015553012675944113,-0.0012177519351785026,-0.0006939183777290663,-7.96027086849534e-05,0.0005139869595750146,0.0009747436220842627,0.0012164842603595053,0.0012119224039634972,0.0010102435147489085,0.0007188811836465565,0.00045134801090648716,0.00026929604846970506,0.00015396697972623477,2.338325725140364e-05,-0.00021704179205049665,-0.000619843933829859,-0.0011632753764965376,-0.0017525351866250747,-0.002249655781876453,-0.002517904969940122,-0.0024642451432625384,-0.002066288111244459,-0.0013767369095708895,-0.0005064809474070553,0.00040584874293961553,0.0012274939423670536,0.0018594262596495596,0.0022529093254563004,0.002412763689798567,0.002388298729563687,0.002254863737419583,0.0020898026414985843,0.0019472702480596944,0.0018383843273580246,0.0017254520671989124,0.0015366847391719322,0.0011977494989020814,0.0006644824078502374,-6.091301619536114e-05,-0.0009352334229644345,-0.0018896764751794698,-0.002839069182870505,-0.003680210643577114,-0.004290753653819014,-0.0045449557920946805,-0.00435045870384183,-0.0036904669717136808,-0.0026453089890738427,-0.0013761389011162138,-7.550473265314139e-05,0.0010912528417879337,0.0020257668386788365,0.0027017615048856355,0.0031396662676158446,0.00337098292428502,0.0034156674982784804,0.0032836845986461962,0.0029928995672096137,0.0025836968270127715,0.002114978015297483,0.0016422040301402132,0.0011923607140211041,0.0007524602378346293,0.0002782538116381099,-0.00028211994178852607,-0.0009603745373985514,-0.001745533267279585,-0.002572265577053921,-0.003323850721165282,-0.003852671645514466,-0.004017637496033538,-0.0037300294704397585,-0.002990931054804465,-0.0019021760528131946,-0.0006425935083184532,0.0005823326742654438,0.0015965882175758856,0.002293377618977621,0.002646304653162168,0.0026944783701905984,0.002514821039618513,0.0021959281589845965,0.0018197627830303274,0.0014476377607127115,0.0011049260814226917,0.0007679318349926836,0.00036759131904761733,-0.00017665228509172346,-0.0008988858458041797,-0.0017353473393570292,-0.0025177318984326053,-0.00302803486353999,-0.003093083642450422,-0.002667589708279487,-0.0018569841575334708,-0.0008661483656024339,9.505595551961149e-05,0.0008938027915459099,0.001499782253608134,0.001949146502019058,0.002281115195773499,0.0024943745490290633,0.002550312646682996,0.0024136903884306817,0.002095268663093585,0.0016621327169290933,0.001206407007300896,0.0007927387801548765,0.0004193194248226747,1.8016970808759592e-05,-0.0005056664196542719,-0.0012146021268263246,-0.0020921338042975816,-0.0030238318738263006,-0.0038163007479598324,-0.004250823679174453,-0.004158938513487054,-0.0034933201330341283,-0.0023598169351123654,-0.0009879397727732926,0.00035232922279575447,0.0014477769834399553,0.0022038159628512016,0.0026425570555925733,0.002847059905928884,0.0028918660456354276,0.0028032467595333847,0.0025691923554687765,0.0021853186233965986,0.0016994060427952258,0.0012177095318428414,0.0008601826200865252,0.0006859882070377977,0.0006354396677651949,0.0005335052972534407,0.000169286703591927,-0.0005811008909964587,-0.001656423097211515,-0.002802083645993947,-0.0036690934916317683,-0.003971784582716028,-0.0036167999138995016,-0.0027330132376527437,-0.0015937700181916088,-0.0004851908092822336,0.000403674876288579,0.0010191588194048858,0.0014093256736268012,0.0016562111649379295,0.0018192631863796222,0.0019150497639900213,0.001929459870589116,0.0018412822457062603,0.001637906405608133,0.0013177211893008398,0.0008862689824045263,0.0003560490210366335,-0.0002461387740446215,-0.0008688379132079611,-0.0014315847984322171,-0.0018336750901981882,-0.0019769594262547545,-0.0017972453800120262,-0.0012948717829223185,-0.000552935184486171,0.0002688025130586204,0.0009721351658187553,0.0013859020088679863,0.0014351236220421447,0.0011775462248106144,0.0007794154980517078,0.00043352333701083103,0.0002599304043044727,0.00024623069678986805,0.00026429182064009434,0.00015488317476598183,-0.00016954503530807255,-0.0006641284699855756,-0.001167708812515411,-0.0014858334897039516,-0.0014927353519795146,-0.0011945469723121812,-0.000719220896770694,-0.0002411887986777958,0.00011380257244324957,0.0003275475227315427,0.00047845003512507895,0.0006706701570200175,0.0009510712344097048,0.0012690792707119674,0.0015048699306154177,0.0015438618642463603,0.001344159612274963,0.0009515075661679771,0.00045709884302724444,-6.424240982413345e-05,-0.0005864205236112416,-0.0011128705128615381,-0.0016272549241411857,-0.0020605908567928417,-0.002307499301229027,-0.002282924456487944,-0.0019764178494189677,-0.0014622746209782792,-0.0008582764679808332,-0.00026406456833358196,0.00027795158361570754,0.0007770613106770824,0.0012559432775843967,0.001711981845621015,0.0021054891102336654,0.002379244306852374,0.0024914027656680457,0.0024365566138340525,0.002240528185909848,0.0019348217747209853,0.0015322038432733797,0.0010240563617933927,0.00040251112047457366,-0.00031095082288559847,-0.0010556184294763494,-0.0017504942169073202,-0.0023271541192199834,-0.0027492419611878914,-0.0030038420578092292,-0.0030763586747928158,-0.002935954287739283,-0.002548651246679254,-0.0019099253476351106,-0.0010714230868540426,-0.0001408231830206765,0.0007468063924919686,0.0014701392826047819,0.0019543542567969398,0.0021826805625102946,0.0021871908371955246,0.002028786933801169,0.0017766555790902617,0.0014909465827366694,0.0012073966775330261,0.0009254069299731068,0.0006082396016637431,0.00020471791707780441,-0.0003101008239867918,-0.0008953378680668436,-0.0014337598656156084,-0.0017665886341727084,-0.0017631262360347164,-0.0013896331960164968,-0.0007369424328155334,1.2377287314914096e-05,0.0006612289108675725,0.001077624885896823,0.0012353023941623186,0.0011989015644083007,0.0010692793476824857,0.000923589774096795,0.0007813368436816044,0.0006072226478536942,0.00034006859630324356,-7.154361780617544e-05,-0.0006404442744927484,-0.0013228573486876677,-0.002012988884679572,-0.0025566494088559233,-0.0027907847627881024,-0.0026038318728885002,-0.0019931039387132057,-0.0010861653225201625,-0.0001054548568864271,0.0007149105095399884,0.0012227139819158516,0.0014055490303869697,0.0013837111932583199,0.0013410695955736586,0.0014281731091572289,0.001686676119157897,0.0020340209669574725,0.002315148958321904,0.0023903255587768893,0.0022077554678909413,0.0018203620167147958,0.0013415883346071969,0.0008722199870959049,0.00044505953149516985,1.8595438576377303e-05,-0.0004826442787096831,-0.001110894901013042,-0.0018557359810798125,-0.0026403506579579113,-0.003348207137978722,-0.003860507434424728,-0.004085066950047465,-0.003968914419826865,-0.003500585614388254,-0.0027131274144872744,-0.0016905088744804126,-0.0005661160967500163,0.0005020444026191161,0.0013803110788646047,0.002009856636189912,0.002424829190676635,0.002719239556214531,0.002977392867173059,0.0032108042809406677,0.003344749937943685,0.0032668296411309666,0.002907780192128812,0.0023008695583414266,0.001578889587174459,0.0009090538780769371,0.0004063455846967704,7.71237607604348e-05,-0.00017717942188935631,-0.0005021180015329846,-0.0010096181712882324,-0.0017122356968767623,-0.0025005889861776137,-0.003175316629849279,-0.003523894124313272,-0.0034113921493790266,-0.0028424500631799693,-0.001960946927595724,-0.0009852460716200805,-0.00011408549266272387,0.0005442303283720927,0.0009834342736688762,0.0012564214082926568,0.0014169904670567085,0.0014877475229486976,0.001467333379976816,0.0013571382874719962,0.0011768875515124053,0.0009547156281669348,0.0007032036202679428,0.00040639733757278805,3.430205841944403e-05,-0.00042176762800497894,-0.000918903357641838,-0.0013626964009167556,-0.0016416950454673882,-0.0016747418375402529,-0.00144081744660238,-0.0009755418946114133,-0.00034385636025288007,0.0003857538499594525,0.0011456044568417321,0.0018536201805958098,0.0024008187908901805,0.0026653404546367436,0.0025574241430598266,0.0020738162703242396,0.0013268803563427456,0.0005219996832491599,-0.00011787532827039625,-0.00045154233891220297,-0.000493576440241286,-0.0004178120799008419,-0.00047714545915382764,-0.0008725451249941283,-0.0016365206364838808,-0.0025934442681774233,-0.0034213920011778843,-0.003788718434703462,-0.003500833452328902,-0.0025872794667026566,-0.0012883763986069373,5.0160235340019005e-05,0.001121890750995403,0.0017739869119966088,0.002040152161581522,0.002084330331411727,0.0020926351460806188,0.0021745336675853683,0.002323326256521108,0.0024469950243776635,0.002438536412497346,0.002236847385672801,0.0018440469515917748,0.0012990569761117809,0.0006364196152166482,-0.0001340585958718751,-0.0010094812178139745,-0.0019507165740547546,-0.0028489153270766163,-0.003534938846251861,-0.0038379703602739643,-0.0036638395863314932,-0.003045060637965014,-0.0021294937529013173,-0.001113747404670181,-0.00016192176946149255,0.0006443180825195906,0.0013023415124484342,0.0018434715927413924,0.0022802744668008416,0.0025815061249976783,0.0026909671349070134,0.002576663520139032,0.0022731742653003643,0.001880730270877198,0.0015132912105825622,0.0012269551170468237,0.0009794283590522372,0.0006531098990773213,0.00013021998308755642,-0.0006280123102337743,-0.0015471782615373644,-0.0024667750930264087,-0.00320534557299937,-0.0036231193450603997,-0.0036538707896576657,-0.003303925562107392,-0.0026343758792446684,-0.0017426895493801433,-0.0007487027996537267,0.00021959146602572294,0.0010460006510804112,0.001651199689159838,0.002014222990250678,0.002177349325552028,0.002225450105421727,0.0022440473652266214,0.0022756138818222547,0.0022993281117817356,0.0022481735467717195,0.0020535859871237006,0.0016878214583977693,0.0011746527145067923,0.0005628465159227278,-0.000112839590534325,-0.0008468246193625707,-0.0016364407113829452,-0.002432182840165893,-0.0031064746572633055,-0.0034753917749930432,-0.003372709966720851,-0.002738107145759363,-0.0016680927779583275,-0.0003980723729895872,0.0007774764877923039,0.0016079499178805296,0.0019667495730759455,0.0018794280717381686,0.001496520609136185,0.001027409554661777,0.0006598861943722964,0.0004910625671435175,0.0004930721213991926,0.0005295499937780735,0.0004220992061821126,4.2731390044799256e-05,-0.0006090606865162248,-0.0013839324693890745,-0.0020302253153519473,-0.0022926236827576227,-0.002018443469218769,-0.0012251382844710977,-0.00010069596921705474,0.0010624276093580843,0.0019719117452334702,0.0024358222319109165,0.0024185813465215935,0.002032119223631889,0.0014695622324877363,0.0009137545966764703,0.0004636625043683588,0.00011202574252416973,-0.00021912868906630973,-0.0006089393182229905,-0.0010751251827438315,-0.0015529452491519847,-0.001923977273861734,-0.0020732981468539686,-0.0019397004378665028,-0.001533615590112417,-0.0009220924937210622,-0.00019993878478311564,0.0005325445330100041,0.001179124460297061,0.0016537531205363556,0.001895507672476288,0.001892799713960083,0.0017005315259286968,0.00142788893545251,0.0011888854838996302,0.0010359127138738372,0.0009172453846105869,0.0006930627574209718,0.0002107208378546309,-0.0005993241159721911,-0.0016621776081008617,-0.002768370092337374,-0.003650092251274986,-0.0040821758894158105,-0.003956745917875969,-0.003301686812823315,-0.0022481541484926848,-0.0009768974658798115,0.00032719978968598915,0.001502139826268102,0.002425084907482935,0.0030269390272697457,0.003302426999752775,0.0033046589134558928,0.0031198944521358928,0.00283307856411877,0.0025014543719260574,0.0021457078656972072,0.001755239054504897,0.0012990102842855532,0.0007377974575205122,3.92723087524994e-05,-0.0008029532885074821,-0.001750244176597828,-0.002707731027692043,-0.0035289027651796397,-0.004041171617517333,-0.004092196303053524,-0.0036069758088945443,-0.0026340535734954455,-0.0013547267257428587,-3.992843768940149e-05,0.0010366087864668774,0.001695358286229907,0.0019136024718737574,0.0018209750106200572,0.001626980044378498,0.0015152383895003121,0.001557982832212313,0.001692977179315261,0.0017691874522712402,0.0016304001695156202,0.001191404087832232,0.00047462648824342065,-0.0003989019031725258,-0.0012508201504528962,-0.0018996663505529568,-0.002211642011156888,-0.0021358801654996922,-0.001715892624795966,-0.001073752976447225,-0.00037110385113638556,0.00024052116634177504,0.0006627938972462344,0.000872266264383885,0.0009144062331794202,0.0008737347462872453,0.0008312434584186726,0.0008248679832326966,0.0008302483337109766,0.000773781334448454,0.0005755082109710791,0.000201333790793162,-0.000304905752118869,-0.0008299385850414397,-0.0012372088656111791,-0.001425280832430762,-0.001366664119820602,-0.0011084872973845458,-0.0007391976109012423,-0.0003430016770768942,3.246089489340872e-05,0.00037954995203298844,0.0007073158035809315,0.001010519425420446,0.0012556719571919965,0.0013968467083229586,0.0014099800731069833,0.00131591256843635,0.0011673634408478572,0.001003961939400323,0.0008100492198066024,0.0005138203957456103,3.633621250111489e-05,-0.0006411135979525948,-0.0014388990193990832,-0.00219732900078112,-0.00273981010190523,-0.0029424981353744903,-0.002773241752065986,-0.0022859572721126197,-0.0015832326949511578,-0.0007732790079441393,5.704857417700138e-05,0.0008461370546797439,0.001545683117885888,0.002107382670603581,0.0024810126740327705,0.0026277755133132445,0.0025410988480588227,0.0022594673636343278,0.001858372973301326,0.0014212533674347763,0.0010042915105015287,0.0006157913706144554,0.00022232904397907587,-0.0002227828217926859,-0.0007455223199149324,-0.0013287270788585814,-0.0019090137659659922,-0.0023907859615638094,-0.0026704036666653458,-0.0026641201934072068,-0.0023349436252437647,-0.0017128378023129655,-0.0009001330996844239,-5.381819987410855e-05,0.0006568950821127626,0.001105968335059614,0.001254948296181343,0.0011623116852490243,0.0009499011564186471,0.000743107590241932,0.0006175643014239569,0.0005800649887384094,0.0005879282153449715,0.0005868039741254219,0.000540155528613307,0.0004373262634912373,0.00028688526369715327,0.00010992396556145105,-6.058972029434782e-05,-0.00018144237489665666,-0.0002112236739352921,-0.00013120871176732982,3.894918887355995e-05,0.00024501375075788347,0.0004220717562121142,0.000522968229456986,0.000531534764136051,0.0004536219438858838,0.0002980431285840015,6.72825544712507e-05,-0.00023346834112997206,-0.0005795992748717947,-0.0009214382177617161,-0.0011980683119653867,-0.001361483349954398,-0.0013942399864451346,-0.001311002583492369,-0.0011469259464120139,-0.0009417578320959927,-0.000725887529735911,-0.0005103028543812121,-0.00028220863742091097,-9.969163866397636e-06,0.000340505495451021,0.0007821966810018799,0.0012870481121686557,0.0017816603600370382,0.0021648956000556593,0.0023432239993410996,0.002268652009086519,0.001958997327214227,0.001487171996965497,0.0009437995660606902,0.00039470530492646686,-0.00014168772070830135,-0.0006853504474509096,-0.001262036494702481,-0.0018669406027172874,-0.002443091555286026,-0.0028839184997879633,-0.003060553363066904,-0.0028674108954325197,-0.0022719696207865094,-0.001347455242644722,-0.00026719320770548973,0.0007468540660086822,0.0015043259649402745,0.0019173972209264466,0.0020236722338841133,0.001947410172569618,0.0018223784249989283,0.001722840915881775,0.001641221320911917,0.0015179319456134972,0.0012957951213870612,0.0009608502345148242,0.0005461480908737375,0.00010181040086377954,-0.0003435823799930672,-0.0007998308234322495,-0.0012943459882003498,-0.0018253210640868734,-0.002322934890528278,-0.0026524283814187213,-0.0026666714759185335,-0.0022809254408822236,-0.0015250451010082487,-0.0005420798344317078,0.00046394213891533123,0.0013004812541921656,0.0018444806803024024,0.00206629975710321,0.0020181980382348755,0.0017974627486656506,0.0015002133044621907,0.0011846429306365646,0.0008591069521001164,0.0004985776650122951,7.769199633076481e-05,-0.00039983881746894455,-0.0008913055850813894,-0.001326930642485394,-0.001633449840766035,-0.0017553502967179078,-0.0016650594482294618,-0.0013623345396662104,-0.000869798320090248,-0.0002323892840838045,0.00047746541457722416,0.0011567442059816245,0.001683970020337272,0.0019532063644481256,0.0019189787491397299,0.0016252751312747222,0.0011928662958635308,0.0007615037501605541,0.0004145106908432037,0.00013137733490171943,-0.00019630274154741893,-0.0006867639068523085,-0.0013709301310263964,-0.00213794966947509,-0.0027640451847040777,-0.0030145430618284683,-0.0027616881570687785,-0.0020500458009055154,-0.0010740776822012563,-8.513129831110131e-05,0.0007173003917268204,0.0012531713242462522,0.0015608606007982853,0.0017399945236029866,0.0018782896918903686,0.0020049707861147454,0.002091564075008075,0.0020893662147742943,0.001971689839776716,0.0017511082538948291,0.001463577424338774,0.0011352584547639293,0.0007578315395057082,0.00029025130016937704,-0.00031263469707595685,-0.0010596855780610583,-0.0018925612625727126,-0.0026820251136638476,-0.003258651540615994,-0.00347022319797513,-0.0032431717449036557,-0.0026189216310483518,-0.001744906042239563,-0.0008215698394356907,-2.888449807888398e-05,0.0005338093551058216,0.0008682974429287775,0.0010532755631567333,0.0011926093719168084,0.0013628558892312482,0.0015809667795945457,0.001800880291451284,0.0019381256931078744,0.0019143236132697391,0.0017045232728507642,0.0013624406593016809,0.001001988083081406,0.0007348548757451375,0.000595532331152014,0.0005043610447134433,0.0003041841493753093,-0.00014102219719103973,-0.0008446248845987558,-0.001661188802187288,-0.002344333379234583,-0.002666738244768818,-0.0025319626169780017,-0.0020152342841848773,-0.0013148834228447895,-0.000647124922637365,-0.00014461949029162064,0.00018864781315930564,0.000448425423985041,0.0007497994583576856,0.0011429770910809066,0.0015716443716365753,0.0018949253301404046,0.0019583193709950338,0.0016730252247491246,0.0010617400820848296,0.0002515141926761246,-0.0005758545707673065,-0.0012471037768732613,-0.001646756439969645,-0.0017387221808058155,-0.001561367303784208,-0.0012042949286468448,-0.0007751604905026016,-0.00036409409661429266,-1.5633007094457974e-05,0.00027980469289336696,0.0005678020332200395,0.0008916429342446632,0.001254403541709742,0.0016045901305092392,0.0018546892565173305,0.0019203860911443818,0.0017552592457286034,0.0013621279005946708,0.0007820729158993303,7.725460572098933e-05,-0.0006787977410847528,-0.0014039810658368704,-0.0020132647583666567,-0.002432455876731876,-0.0026142528257427715,-0.0025457262592876164,-0.0022423446966860217,-0.0017348365220454433,-0.0010612783345399874,-0.00027165649886931045,0.0005608513280868804,0.0013372439189561756,0.0019504562918659352,0.0023195416674413687,0.0024209940099461417,0.002296213259982126,0.002027961159135752,0.0016974540217634987,0.001344578369385968,0.0009517225721412178,0.0004604452687801762,-0.0001846207525228273,-0.000983895998156457,-0.0018495849487024252,-0.002613109181880091,-0.003077941193559034,-0.0030986164967601085,-0.0026484552592441453,-0.0018384448194855075,-0.000872696992577782,3.82176696183986e-05,0.0007588461019194829,0.0012617069313576707,0.0015995620732469481,0.0018427077470081067,0.0020243089402240287,0.0021247270301975483,0.002096077693063016,0.001902962668249322,0.0015499418394495762,0.0010803608594015255,0.0005518292337071526,7.335825951378713e-06,-0.0005381740231728269,-0.0010860688797581178,-0.001623374530196731,-0.0020941675636121267,-0.0023980972418774665,-0.00242721419365671,-0.002125257124442162,-0.0015325624374866497,-0.0007837392367879526,-5.4279244643304705e-05,0.0005144584619332087,0.0008691533760808238,0.0010492840278845056,0.0011449877079196676,0.0012355494301954741,0.0013430002203977144,0.0014235491790851938,0.0013975620782718677,0.0011981653901081408,0.0008103373596264636,0.0002813746318693748,-0.00029714744341165743,-0.0008212991972125694,-0.0012051078322719362,-0.0014013910600742482,-0.0014105799441517458,-0.0012748788946974404,-0.0010559287686513282,-0.0008018983292026026,-0.000521092730520352,-0.00018204501741370463,0.0002536987292799409,0.0007839208395656202,0.0013362612826635797,0.0017815826708306266,0.0019872387736084777,0.0018808272934678928,0.0014878570889095546,0.0009221063619811029,0.0003341870528412777,-0.00015435038955956206,-0.000498677318567362,-0.0007388899906463687,-0.0009668120752599435,-0.0012668907019082435,-0.0016578757930631634,-0.002064727370402918,-0.0023402285604050663,-0.0023315149677254413,-0.0019587378636126774,-0.0012617942603758503,-0.00038849644170706486,0.00046726786346538816,0.0011414923185091557,0.0015520813938067752,0.001708504791984814,0.0016849500331110492,0.0015768886926521772,0.0014612289494318406,0.0013728359082606997,0.001302341693383992,0.0012137675754529944,0.001073655747494894,0.000876593387677412,0.0006507358580863018,0.00043664372745584547,0.0002506656818025176,5.833735775067749e-05,-0.00021827012306526762,-0.0006547129021190843,-0.0012618963483881501,-0.001945900057529211,-0.002521944945256321,-0.0027857776474626457,-0.0026103592132216,-0.002015789158653734,-0.0011705672937972192,-0.00031910431667600287,0.00032754719031926607,0.0006796282899174699,0.0007903596737011362,0.0008054279533675568,0.0008742458129108758,0.0010734848599611695,0.001378802316909302,0.0016882303425649224,0.001873627935500661,0.001830529306833866,0.0015093571905785202,0.000927150692945159,0.00016551922498477672,-0.0006431655841383657,-0.0013438330450041914,-0.0018001473345315474,-0.0019377054890759166,-0.0017687235169872063,-0.0013815982136941888,-0.0008965280486547169,-0.0004101048138739187,3.8732340006654106e-05,0.0004613879853778302,0.0008787167681186286,0.0012777085381028433,0.0015979858108488582,0.001757604588340103,0.0016979590750091835,0.0014138250608587625,0.0009479562875735668,0.0003596727755152084,-0.0003016701292369484,-0.000993590646417621,-0.0016521594521132043,-0.002169643812491913,-0.002409589065830845,-0.002262739044962637,-0.0017130201877233152,-0.0008697784359612675,5.955720534012857e-05,0.0008468172230001938,0.0013321015188600407,0.0014804991511652775,0.00138062735743056,0.001188580873799181,0.0010459906430646017,0.0010109482991020762,0.0010330732294823119,0.0009830070891320613,0.0007210305350033207,0.00017150110202272865,-0.00063102353681981,-0.0015422512214880457,-0.0023514179204273114,-0.00284733367777127,-0.0028824296213472303,-0.0024149759138707124,-0.0015193885658682138,-0.00036483111561992914,0.0008293127367889957,0.0018475019864196665,0.0025273835700511094,0.0027935052105300083,0.0026693609042098866,0.002265688738669687,0.0017461444253973214,0.0012757852849653655,0.0009638534132322422,0.0008186858957514537,0.0007358628831265952,0.0005354669056135324,4.582604994065177e-05,-0.0007969864865959213,-0.0018855606763062847,-0.002957857837764857,-0.003697756794395584,-0.0038710541705865445,-0.0034231742999470995,-0.0024877749468528486,-0.0013115483473964793,-0.0001484542659408314,0.0008171937243357246,0.0014935121295306642,0.0018660920622370076,0.0019769772004166707,0.0019120652440205764,0.0017854770525742567,0.001703437365927844,0.0017109813316637818,0.0017523700714083862,0.0016823740916899186,0.001338900768605196,0.0006438695280261589,-0.0003280481342117055,-0.0013599211647415386,-0.002181199428214944,-0.002583595867307516,-0.002497959637005213,-0.0019961297473095087,-0.0012337699410268977,-0.0003829119023289765,0.0004072481064647227,0.0010203950157534098,0.0013791648286288066,0.001463593516284372,0.0013286016178430744,0.0010909683444801257,0.0008732603574277761,0.0007296813970506925,0.0006040929155560404,0.00035884679621844395,-0.00013192854630079184,-0.000878853371856675,-0.0017324020755849815,-0.0024319444967206647,-0.0027237828008858287,-0.002478853904174118,-0.00174387245021924,-0.0007058189915511027,0.00039694663876439643,0.0013604459454494614,0.0020585764355030675,0.002442506912283107,0.0025204990519195935,0.002341945345029914,0.001989232553316951,0.0015630813126168597,0.0011488834317484905,0.0007728895203694963,0.00037891656087601314,-0.0001444215573499271,-0.000885765435166431,-0.0018223984649343395,-0.00278011284121845,-0.003479570087581726,-0.003655982643939781,-0.0031905812794573067,-0.002179389283525256,-0.0008976863435738674,0.000321869763437239,0.0012303246893039356,0.0017476917583702928,0.001954185526790589,0.002005175653627264,0.0020274421002500214,0.0020564569453577226,0.0020422869633247103,0.0019081466284210135,0.0016168298604079282,0.0012005184318217193,0.0007360487264920604,0.0002849715310474063,-0.0001559405941249977,-0.0006513741899876351,-0.0012647560394938328,-0.0019764696091382657,-0.00264611211567005,-0.0030583614646637215,-0.0030343845213633394,-0.0025399333520033534,-0.0017168933557829907,-0.0008135575475342052,-5.640433460330277e-05,0.0004562412609759713,0.0007761567329564395,0.0010377622233658824,0.0013517853068940337,0.0017290336042518053,0.0020774354373510147,0.0022660587937542425,0.00220914262249086,0.0019153194079962513,0.0014742602310546101,0.0009952080476446957,0.0005415751915603434,0.00010527979087065695,-0.0003637865997501086,-0.0008945175233773363,-0.001440979192120952,-0.0018762176696641088,-0.0020422797222568114,-0.001831015757499754,-0.0012513311444994585,-0.0004452848822602666,0.00035741965688440027,0.0009253137570787331,0.0011106552087883528,0.0008958217137746288,0.00038351064745829585,-0.00025755534078574535,-0.0008599522107994848,-0.0013060846201161148,-0.0015429567311072497,-0.0015691692451098675,-0.0014112733805780797,-0.0011042692276823653,-0.0006825874160385314,-0.0001812770287453263,0.00035719883754043304,0.0008790844744759518,0.0013267917418935014,0.0016572938209911952,0.0018584255222578213,0.0019470562714421662,0.0019468839441954993,0.0018639693404396687,0.001684455680433164,0.0014007045423521818,0.0010429235258465645,0.0006813771122190248,0.00038518053334258813,0.00016300130773853547,-6.524408131893173e-05,-0.0004320455925322967,-0.0010340087560583877,-0.0018465894749162934,-0.002701139149555596,-0.0033451513831470395,-0.003553690358659686,-0.0032299075280297187,-0.0024429778815852686,-0.001391057854353181,-0.00031681992473717743,0.00057963796290424,0.0011953144343219623,0.001533684404871127,0.0016753123082521772,0.001725808471764071,0.0017619008166321853,0.0017978760605885343,0.001788060871277654,0.0016633642733353765,0.0013791272091141327,0.000943233358407528,0.00040728344012048035,-0.00016790665988570917,-0.0007402094788601481,-0.0012810653051662036,-0.0017416914956868812,-0.002025354010843807,-0.0020024179896022997,-0.0015740743661503747,-0.0007509952362382071,0.00030491243914297834,0.0013118711372067952,0.0019700894254486524,0.002090727291656177,0.0016870484348393087,0.0009748364020955263,0.0002737903585695018,-0.00014330959770527768,-0.0001755827757043331,7.07123494377091e-05,0.0003499844631126561,0.0004072976713129202,0.00010288259787169995,-0.0005262882824669357,-0.0012898795875416844,-0.0019342930536267488,-0.002253364921203663,-0.0021675023955208274,-0.0017369357491049048,-0.001109751187385362,-0.0004404016125262864,0.000171874155750549,0.0006932586709631379,0.0011207550888520789,0.0014399925007357373,0.0016132159535411049,0.0016059860984673003,0.0014260106214110224,0.0011356357410456873,0.0008209410320152358,0.0005373524792100542,0.0002736248005974367,-3.490967031665685e-05,-0.0004483820725949524,-0.0009578337721097125,-0.0014597108997785903,-0.0017909361299074916,-0.001806529778481114,-0.0014539580424998643,-0.0008013198273735798,-6.651626526917032e-06,0.0007494324392434782,0.0013289983397968231,0.0016702283747225598,0.0017828601886463594,0.0017192805195723946,0.0015403187675954568,0.001288729701161491,0.0009758524878772405,0.0005835692978782172,8.197323317437949e-05,-0.0005413569270366584,-0.0012516555202329543,-0.0019526527070412069,-0.0025004248020664725,-0.002746442686980376,-0.002595101069737046,-0.002049964112369202,-0.001224155014217592,-0.0003049812537322934,0.0005151159000357518,0.0011103639560799132,0.001460270916465332,0.001633899247942419,0.0017287696534862961,0.0018017385211932073,0.0018352312501117383,0.0017587907596000266,0.0015082067334148109,0.0010794432754236472,0.0005397963075143275,-1.0195465340483763e-05,-0.0004957304937460025,-0.0009047891492812854,-0.001276113522745014,-0.0016459264326808922,-0.001991351901151189,-0.002213137524985996,-0.002175740719970457,-0.0017849325223515426,-0.0010566472294400234,-0.00013343983112291372,0.0007646451330635801,0.0014292714311719531,0.0017455597150693209,0.001726650239809908,0.0014908674770935265,0.001200746757374217,0.000994843971170486,0.0009362453711159076,0.0009891290899403994,0.0010283001846512897,0.0008845216299298744,0.00041986152681551146,-0.00039138167026709036,-0.0014167034171228467,-0.0023895809600667168,-0.003006478739985613,-0.0030560078700567444,-0.0025145986632015183,-0.0015565268564958616,-0.0004726897177566795,0.0004566808418444308,0.0010676632455799322,0.0013479313072878325,0.0013982111991210765,0.001355984116361825,0.0013270695721673948,0.0013513665978167303,0.0014025583760650404,0.0014085700686530575,0.0012823883996961264,0.0009591422157668977,0.00043386595166794147,-0.00021424725096363842,-0.0008299881557413504,-0.0012312914358155193,-0.001284147472626156,-0.0009671052220478679,-0.0003898522658472613,0.0002454293548093938,0.0007209941459732625,0.000883976689702597,0.000699580427897784,0.00026037233152242847,-0.0002510281778083474,-0.0006359199355379782,-0.0007661633746648849,-0.0006480784784838342,-0.0004296818944432444,-0.00033780608122855525,-0.0005649663849810605,-0.001156054530327274,-0.0019543771789961636,-0.0026450499333755336,-0.002886649907350789,-0.0024720232773686344,-0.0014360851822292978,-5.041716504570158e-05,0.0012967557844997322,0.0022735628459015942,0.0027392257599012128,0.0027721885222940844,0.002585728300306175,0.0023890559178724588,0.0022778678484579916,0.0022116313929723924,0.002075637132904131,0.0017745656449445263,0.0012935020141964454,0.0006945291106002466,6.517006292430967e-05,-0.0005359183400281149,-0.0010975591210857028,-0.0016328307373618817,-0.002138640088333749,-0.0025708394068258496,-0.002851744815693647,-0.0029026987671584474,-0.0026798553628414185,-0.002193879354720053,-0.001507532260762742,-0.0007172712031456997,7.119904756745191e-05,0.000766121856162324,0.0013071431552377363,0.0016728134933248612,0.0018747577645836942,0.001939944267873669,0.0018895077338786427,0.0017260194427419647,0.001437015629245823,0.001012818681599728,0.00046755666487934455,-0.00014987714649754942,-0.0007617098578922067,-0.0012803299435187,-0.001629920174475101,-0.00176122888605635,-0.001656986445796467,-0.0013320240094544366,-0.0008330641816048468,-0.00023800749744315734,0.00035172578684666367,0.0008324237732962094,0.0011303168250047994,0.0012294088083355365,0.0011751714122690405,0.0010462008977088328,0.0009076474077099636,0.0007750166148451282,0.000611951773405947,0.0003635420401080808,3.638798970874305e-06,-0.0004334916838078908,-0.0008564156929126755,-0.0011536906461236955,-0.0012458605855195282,-0.001124841434676354,-0.0008577946294743003,-0.0005501135532485136,-0.0002863656760387554,-8.461699090872644e-05,0.00010552787077869536,0.00035773950298141535,0.000704607562968021,0.0010960623741922168,0.0014094841795122088,0.00150888839503777,0.001319876189902921,0.0008754119666546905,0.0003026829946861968,-0.0002438651623428396,-0.0006636731045786177,-0.0009542986519496647,-0.0011898555608702566,-0.0014482730819707532,-0.0017371578957982286,-0.001969440906040742,-0.0020060747617731663,-0.0017377040143079557,-0.001152283688717215,-0.0003474704048498865,0.0005153051757012361,0.0012819279260207728,0.0018581121169710221,0.0022183083749455074,0.0023776696397797663,0.002355810029020174,0.002160456856011318,0.0017993020303549974,0.0013047040328531831,0.0007447539756862854,0.00020375475457571702,-0.0002599046397806044,-0.0006479056754575573,-0.0010170538668677084,-0.0014305220197281497,-0.001895779170457658,-0.0023344774850630134,-0.0026091979556653972,-0.0025911961205058003,-0.00222478764562935,-0.001549937142773389,-0.0006779386054536075,0.00025304112629635615,0.0011105861903220118,0.0017789510027703059,0.0021643586086994744,0.0022147461879345673,0.001952002489754604,0.0014887738892950665,0.0009997511392229946,0.0006462588212609991,0.0004920004898647643,0.00046472023810656106,0.0003962463271643957,0.00012447569916248355,-0.00040101791405289776,-0.0010733681113495163,-0.0016713984673404569,-0.0019678627116365,-0.0018431047037821926,-0.0013431938028484742,-0.0006535042354688669,-4.14253019759064e-06,0.00044120794474273575,0.0006535824394673937,0.0007282283000373131,0.000803231710241517,0.0009567160889123523,0.0011468802744638604,0.0012350432437295538,0.0010791114835194276,0.0006358540294510582,1.323139090685056e-06,-0.0006392361102632963,-0.0011162684579681878,-0.0013619001730095404,-0.0014205605518202594,-0.0013850149577446789,-0.0013109508040654754,-0.0011733863656292862,-0.0008933888290127499,-0.0004124429003138123,0.0002404129946948089,0.0009377794378130331,0.001510389873135416,0.001836424339978112,0.001905748285297142,0.001815526517950367,0.0016971953446774113,0.0016197233723652298,0.0015316011574444243,0.0012825049532883296,0.000717446582969784,-0.00020990541883416508,-0.0013736875352494669,-0.0025047888047000084,-0.0033010559156863156,-0.0035589026612972254,-0.0032542634406509527,-0.002532888657054613,-0.0016246674797927184,-0.0007376479156368657,1.038966920705682e-05,0.0005979729514147892,0.0010597553112748946,0.0014371198734306682,0.0017489264412734306,0.0019889844583514463,0.0021387400260260234,0.00218019519602405,0.0021017574814802325,0.0018992606602911137,0.0015785324628029536,0.00116201008473946,0.0006930592472808063,0.0002267437865426077,-0.0001963820841826792,-0.0005787496943460712,-0.0009698391298618931,-0.0014298685956139821,-0.0019682630688948096,-0.002499671133155548,-0.0028579768508378107,-0.0028721215104372533,-0.0024616765557152706,-0.0016910105719421206,-0.0007456413313499046,0.00015418681923786478,0.0008477258321602121,0.0012811976756197478,0.0014917348180777193,0.001554707665861027,0.00153771050842692,0.0014855178137579278,0.0014276509907282255,0.0013834110329602205,0.001349978475710626,0.0012840512723535067,0.0011024936949239708,0.0007183129907334737,0.00010073675676274755,-0.0006765848300967687,-0.0014363460644360939,-0.0019579048358876385,-0.002070839843987968,-0.001733866165953139,-0.001058963437914315,-0.0002699462145362517,0.00038445558823859425,0.0007259324707256333,0.0007127210772687635,0.0004503993145078424,0.00014094215516352723,-1.1744145171055029e-05,0.00010035263339213578,0.00043498471618235194,0.0008177260855379486,0.001024816772246511,0.0008888714573391295,0.00037560008538243866,-0.0004014616381425596,-0.0012282886205938195,-0.001872698163077788,-0.0021643793618280373,-0.002042111964112374,-0.0015554142986807648,-0.0008283687286612467,-8.04519665894665e-06,0.0007777805567419234,0.0014395839492443259,0.001923901692078179,0.002202848253579446,0.0022671663654561963,0.0021254345628811807,0.0018038471744209398,0.001340306196815992,0.0007728806645635783,0.00013019775073824476,-0.0005664567576018915,-0.0012858158734417062,-0.0019628245740186865,-0.002487419843290705,-0.002724180406721601,-0.002565328388936854,-0.0019951384121904827,-0.0011265635641783422,-0.000177225337564332,0.0006151025030339271,0.0010961453669979682,0.0012574665867960723,0.0012187126378999783,0.0011418182071485949,0.0011333069309377264,0.0011955702337596175,0.0012506559258752105,0.0012096871735014646,0.0010343927893189423,0.0007505437088602155,0.00041237727657398573,5.223426003769284e-05,-0.0003426709914110232,-0.000806717516268758,-0.0013416205114866184,-0.0018725385947764076,-0.002252701844101589,-0.0023239659717088457,-0.0020015952726565385,-0.0013311901888149612,-0.0004795344780263028,0.0003386948663120495,0.0009564347382877501,0.0013170339563646802,0.0014717168519020538,0.0015209254832900334,0.0015419133637692396,0.0015485600042227275,0.0015030676926407118,0.001362177642116105,0.0011185825536687314,0.0008062875935235644,0.00046962625517028443,0.00012492958088412397,-0.00025113142354536786,-0.0006945084907048501,-0.0012069192663115764,-0.001724345084623853,-0.0021267006421247675,-0.0022873163984995525,-0.00213496461743869,-0.0016928464027107764,-0.0010719835299476427,-0.0004218476759354067,0.00013574555693754127,0.0005545316043388038,0.0008684011585897587,0.0011513300195396075,0.0014560252148623526,0.0017663277337311495,0.0019901980422148717,0.001997600130753008,0.001684431633811461,0.0010317772219489072,0.00013300762573674409,-0.0008241096159165302,-0.0016142946732509613,-0.0020489627092978788,-0.0020390510087927595,-0.0016219639575926598,-0.000942487237023524,-0.00019680820022057463,0.0004356150779302628,0.0008440644638841231,0.0010049230728358485,0.0009667221916793238,0.0008157376021612028,0.0006389269738173881,0.0004958540180578451,0.00040424068489891725,0.0003390286165105107,0.00024348454474304427,5.1812319491412314e-05,-0.00027821635056987995,-0.0007312833360293283,-0.0012179987538498867,-0.0015949666255456463,-0.001721922937130942,-0.0015284300142907603,-0.0010495892848751917,-0.0004074283156904469,0.0002493271209465305,0.0008081820645133792,0.0012228067358315002,0.001501082877270011,0.0016698089643102122,0.0017438303233655588,0.0017166972532764286,0.0015716422582772518,0.001299521295163529,0.0009099817198888114,0.00042984672956853645,-0.00010822450709111202,-0.000677484515816365,-0.0012585421262249327,-0.0018257962162446907,-0.0023271341763454784,-0.0026760174617244314,-0.0027710207366141047,-0.0025378304944117316,-0.0019690985356126275,-0.0011371598064256134,-0.00017413263606086947,0.000765225994189309,0.0015383144620172888,0.0020394777155265283,0.002219247188072795,0.002101245856205523,0.0017877731366774667,0.0014372008985269222,0.0012061016517477114,0.0011742667436787217,0.0012927193607165622,0.0013924233638889956,0.0012602916074192882,0.0007483248295244603,-0.00014039667133879498,-0.0012337594919093623,-0.0022496795604262316,-0.0029035637107419497,-0.003015511988430575,-0.0025725318853678926,-0.0017238205549539715,-0.0007169082052137021,0.00019441627598279902,0.0008321054525692572,0.0011366214179975886,0.0011605830973236055,0.0010235300337807017,0.0008508013041271887,0.0007211733504566941,0.0006406785876004962,0.0005495356554224447,0.000359152893602741,6.48482809293598e-06,-0.0004966643203091529,-0.0010460999972345443,-0.0014760253560088588,-0.0016289428718751556,-0.0014288477077482329,-0.0009161181150694822,-0.0002253221151446408,0.0004775170793087405,0.0010602001364944235,0.0014599504764286674,0.00168096573249805,0.0017670637755357443,0.001768385173048259,0.0017139658799211297,0.001594400127936538,0.001358756228432051,0.0009326935894300646,0.00025967257021470235,-0.0006482427766960129,-0.0016779674873739273,-0.0026276796147680402,-0.003268312961130073,-0.0034294007662394104,-0.003067227881211773,-0.0022801727701261226,-0.0012634493820351642,-0.00022736098220650636,0.0006782407249888414,0.0013956527399334863,0.0019359588723783959,0.002322828988755272,0.0025458135174670684,0.0025575169621056618,0.0023159652183781824,0.0018378531925004019,0.0012176266380300171,0.0005914874528146187,6.684670868473776e-05,-0.00033520767184947657,-0.0006842209007772797,-0.0010862920847838832,-0.001603532505088318,-0.002194618337822701,-0.0027115314863583803,-0.0029567837533053085,-0.002773355889196409,-0.0021222500964679807,-0.001108731454913242,5.5024250538791624e-05,0.0011305374822730746,0.0019360991264410524,0.0023942301477422392,0.002528399698391923,0.0024220103141175194,0.002168635673016239,0.0018386829278912488,0.0014705999204239568,0.0010783552634412118,0.00066140979118613,0.0002096490634074053,-0.0002932967116474667,-0.0008592116569863895,-0.0014734162831484133,-0.0020717513280179593,-0.0025358480923589454,-0.0027215188675883137,-0.002516660085997411,-0.0019037167731258766,-0.0009916207840730213,8.20708043117722e-06,0.0008597648737562853,0.0014000954362022003,0.0016046931298484878,0.0015804239651085134,0.001485417730143189,0.001421238550419709,0.0013640201955048025,0.0011809512761669907,0.0007267832067918154,-3.636387362866846e-05,-0.0009712253737622575,-0.001797708108123846,-0.0022150227168030736,-0.0020490900252936625,-0.0013442725200205913,-0.0003493959331480745,0.0005942624339771445,0.0012050125520934863,0.0013773085405097297,0.001208051928426911,0.0009241025243707448,0.0007514058434125849,0.0007945440437106903,0.0009888652768269466,0.0011474302132711243,0.0010721986231726913,0.0006637820614567554,-3.097284467605343e-05,-0.0008522643633429286,-0.0016097119373098415,-0.0021580008334242664,-0.0024266378021553085,-0.0024046109082354,-0.002110606821933094,-0.0015788160424691196,-0.0008662695729872226,-6.393012082113935e-05,0.0007103256070257122,0.001342165745466918,0.001758750713437748,0.0019505471530021161,0.0019641698962183014,0.0018714516688119812,0.001731160911467656,0.0015601051999010699,0.0013247836127046582,0.0009580911404301578,0.00039790405205166303,-0.0003653413734567324,-0.0012538543503990119,-0.002103349560425954,-0.0027097321130138555,-0.002907376784829459,-0.0026420143864154463,-0.001997732921168773,-0.0011603066033943777,-0.0003352682667611493,0.000335315347125849,0.0008149315625710048,0.0011565829550822283,0.0014435723315751369,0.0017229280272968023,0.0019684774821420396,0.002093113305526301,0.0020021243384835364,0.001655368258340824,0.001099765681931296,0.0004510156368153972,-0.00016444169711775326,-0.0006699738593487308,-0.0010628040044073604,-0.0013873062618207617,-0.0016776177335102783,-0.0019098852451267306,-0.0019976633887747513,-0.0018359514396673743,-0.001368718676067402,-0.0006396800582995153,0.00020569960479878,0.0009722044761025673,0.0014948306128490384,0.0017028101169682028,0.001632062913590138,0.0013821225155568628,0.0010484653449505184,0.0006747111118107932,0.0002521432733328748,-0.0002397238098398981,-0.0007835335604991519,-0.0012997250649631562,-0.001663526456613708,-0.001754935884346111,-0.001515719106598151,-0.0009834134681591354,-0.0002830890926485059,0.00042069951876247055,0.0009871560089509037,0.0013443857851871328,0.0014954635062519727,0.0014897919510213056,0.0013833841652588306,0.001211422933794495,0.0009810418877810845,0.0006779906684827989,0.000278837587223104,-0.0002327921631222721,-0.0008438582823410405,-0.0014883628838179776,-0.0020393204198129664,-0.0023346586776431524,-0.002238193864592499,-0.0017095120237148695,-0.000841680628397273,0.00016078078247965864,0.0010563666586145383,0.0016554466174279977,0.0018803967454406726,0.0017742068998482738,0.0014625926757518297,0.0010927674120653841,0.0007756216340280768,0.0005513710133057965,0.00038735115532972323,0.00020479392421604656,-7.755275682429154e-05,-0.0004994659353366891,-0.0010313659104071796,-0.001574434618059949,-0.001990876538669305,-0.0021529819916545475,-0.0019894950002026486,-0.0015091689866596316,-0.0007947358323117412,2.4227483083726596e-05,0.0008052554523748304,0.0014242188696810306,0.001800395943644023,0.001912361779066563,0.0017993373131666218,0.001544748740748907,0.001246014305362421,0.0009807569592932223,0.0007802467271905457,0.000618013358419271,0.00041907169790094735,9.21146059722816e-05,-0.00042101215794424006,-0.0010971801783954099,-0.0018127695992903369,-0.002373984274666804,-0.002591910722615789,-0.0023678105013438637,-0.0017425283641246286,-0.000882099366716161,-8.208805103761437e-06,0.0006888207760730046,0.0011132824923485159,0.0012806539912834378,0.0012878437090819313,0.0012534616259540093,0.001252582006578931,0.0012738339346561344,0.0012226501887890881,0.0009770268082285607,0.00047310399271223707,-0.00022674278592144863,-0.0009302328928729624,-0.0013905859030721734,-0.0014279663634516912,-0.001031248913052023,-0.0003793405407974993,0.0002371289138797191,0.0005578291750995808,0.00048464013483223446,0.00013105342525147147,-0.0002409244332951553,-0.0003647823954003399,-0.00011686725074225605,0.00041340248188972994,0.0009679735458934744,0.0012524889253648008,0.001082627039097768,0.00046841941358644653,-0.00039841989286006546,-0.0012343856756217588,-0.0017777100358110252,-0.0018741751612782573,-0.0015111746321205175,-0.000804643571118634,4.368991905948972e-05,0.000804388193236232,0.0012856230426215223,0.0013949861509777877,0.0011762504506921964,0.0007947237438171268,0.0004611700008167233,0.0003208079039015478,0.0003670568901153799,0.0004387538531692922,0.00031481167056988924,-0.00014281580856603942,-0.0008842580531303064,-0.0016735390898384673,-0.0022013401943397322,-0.0022434019965893726,-0.0017705965198184567,-0.0009484159816384027,-3.451461158088904e-05,0.000754916081546811,0.0013272107511882898,0.0017046976441959156,0.001951466237126362,0.0020996598422166135,0.0021267811115343693,0.0019876459920206892,0.0016621350398122582,0.001174474194050412,0.0005711922529797165,-0.0001158536898024174,-0.0008810062088796524,-0.001712852657568137,-0.0025408798046110044,-0.003208139185741073,-0.0035064740169758572,-0.003269251240642382,-0.0024720941352065055,-0.001276584635905888,2.0021930976036554e-05,0.0011088284784007982,0.0017982839758675599,0.0020751214758149995,0.0020689478746093,0.0019531918296053184,0.0018485199306392793,0.0017807872004581393,0.0017010695107406173,0.0015361963353982472,0.0012300704343274856,0.0007577031670190327,0.0001224030775479484,-0.0006426215503449414,-0.0014607033261707873,-0.002201727870883856,-0.002700107993091544,-0.002808568918380042,-0.002465416406453024,-0.0017345920572148566,-0.0007887396378862372,0.00015992167043774107,0.0009426242267697546,0.0014847694309455793,0.0018011023156110932,0.001948361838656368,0.001971703228298408,0.0018771702474570935,0.0016387159524500028,0.0012256491998516698,0.0006305015879868483,-0.00011359288420097223,-0.0009268150276802474,-0.0016876612737151025,-0.002253009954130143,-0.002495372742173794,-0.0023477951372456794,-0.001835145087471877,-0.001072114271007204,-0.00022549398662841417,0.0005412034746148306,0.0011144727890663778,0.0014508434128643578,0.0015679890335788139,0.0015170959620542247,0.0013515692515492326,0.001105813707748952,0.000791783705953039,0.00041203812970214224,-2.0001549827384103e-05,-0.0004650666214055183,-0.000858083592668416,-0.0011257695089809344,-0.0012147587245815766,-0.0011153433351820837,-0.0008657872096636397,-0.0005330782559133849,-0.00018202085713007088,0.00014714792310335355,0.0004400415674419085,0.0006931121966969912,0.0008985927167810484,0.001041279907895168,0.0011047664463344153,0.0010757009599867218,0.0009396285126054978,0.0006750214686968724,0.0002592948559228827,-0.00030673628634601856,-0.0009671094063599297,-0.001596509104711051,-0.0020246120473654964,-0.002097372189461184,-0.0017468779932250196,-0.0010310736447341077,-0.00012000956304861123,0.0007643530407881116,0.0014242901568477366,0.0017454598175452127,0.0017204650359014958,0.001435134052854491,0.001026589721862967,0.0006284367973485756,0.0003226412483512773,0.00011659980886950805,-4.611588464659014e-05,-0.00024800842437205646,-0.000550834567649289,-0.0009594075189235029,-0.001409401035514569,-0.0017828918004413378,-0.0019460193202402633,-0.0017962220936306042,-0.0013036709787495378,-0.0005330177024362179,0.0003640962714720518,0.0011887936668472992,0.0017595376403843498,0.0019800267666949304,0.0018789207745185392,0.0015954619182458319,0.0013097267229662114,0.0011483742719131718,0.001115491974375566,0.0010886710550471852,0.0008859363201513555,0.00036965349206380534,-0.00046727269747417544,-0.00147773443195523,-0.002410279377976033,-0.003006040508535572,-0.003096135267859644,-0.002658626022714497,-0.001817930621512469,-0.0007950809273023557,0.00016782822504744202,0.0008826173041656659,0.0012666291861751402,0.0013551957654215768,0.0012707494337695262,0.0011601225532310723,0.0011256244878384003,0.0011797230973019548,0.0012438796301936948,0.0011927695563455358,0.0009243415894109222,0.0004233803018087902,-0.00021246486730410559,-0.0007999143605344938,-0.0011430594093210641,-0.0011226248939324862,-0.0007600703668476326,-0.0002201380441787383,0.000259581917035857,0.0004846074943945939,0.00040434538723382743,0.00013559092885930294,-0.00011191884083581842,-0.0001662251123987048,5.247385228817486e-07,0.0002557834094153973,0.00038705843682050774,0.00022569772805226557,-0.0002600239924544865,-0.0009488263585581604,-0.0016232900999512048,-0.002059118486222916,-0.002102404581766713,-0.0017106380054515782,-0.0009555496875765906,3.2514705283544654e-06,0.0009638676493713616,0.0017369256932773624,0.0021961854270112855,0.0023085090970271817,0.002131079564010293,0.0017769410279732086,0.0013647093190575722,0.0009744393119155506,0.000625937808066388,0.00028463839665012126,-0.00010897126037664572,-0.0005967875142527676,-0.0011640174316587808,-0.0017233216751858893,-0.002134916481783583,-0.002257829239026927,-0.002009819523898414,-0.0014080334502202848,-0.0005721073269884759,0.0003113549546231171,0.0010486578406000272,0.0015003651296103945,0.001620765562047071,0.0014603941623457187,0.0011321578381021783,0.0007579531303007008,0.0004203278903465536,0.00013835852625155795,-0.0001261194000473718,-0.00043704043572736183,-0.0008385871605836213,-0.001311575895738653,-0.0017527610784202246,-0.001996159042040399,-0.0018784115432187278,-0.0013228637113967263,-0.00039838087877377103,0.0006844150491813676,0.0016460694627430349,0.0022495519878821717,0.0023955698857918853,0.0021517930599086513,0.0016988371606757658,0.0012227655720913637,0.0008169783146024751,0.000451808567689333,2.7555879426327187e-05,-0.0005271043600906878,-0.0011780115511820053,-0.001780210162525663,-0.0021459294326714807,-0.0021403968907703873,-0.0017468632313329788,-0.0010682846749566711,-0.0002756262252885241,0.0004596372918173312,0.0010139030895718471,0.001328830429056784,0.001406436641172304,0.0012940486459103856,0.0010623771456728364,0.0007753360804815104,0.0004591137681679554,9.077520100727763e-05,-0.00037581024168467105,-0.0009531722315575041,-0.0015681730752703476,-0.0020575185525937363,-0.0022272741387913478,-0.00194881766001357,-0.0012349368500801975,-0.000249273427925308,0.0007567594666882723,0.001543702374309373,0.0019695381731423462,0.002025403624715396,0.001814959775533268,0.0014951552116613507,0.0012072450117514293,0.0010247363584177298,0.0009334907067902825,0.0008453995166283625,0.0006375503982243944,0.00020517610030545324,-0.00048498558433960975,-0.0013574292132110398,-0.0022253955133846133,-0.002836151238880831,-0.002959118653800873,-0.0024867121867671147,-0.0014999600330076908,-0.00025711940867106573,0.0009016612213482648,0.0016926818073345175,0.0019987898076003602,0.001892211317142122,0.0015624495746483483,0.0011980659248614321,0.0008934295941245341,0.000627039196880841,0.00030921908156835587,-0.00014058127383631124,-0.0007329649692908488,-0.0013907412706332229,-0.0019741489799286658,-0.002331433091647673,-0.00235183443773845,-0.0020017855945526444,-0.0013335679695602389,-0.0004662529974983087,0.0004515592593564942,0.001282436321776992,0.001930254073988824,0.002351356223417198,0.002546336689073189,0.002539979341510588,0.002361143104818706,0.00203176932253463,0.0015661573313812127,0.0009752572462730603,0.0002719746844041047,-0.000520358832714811,-0.0013526606566509579,-0.00213265063399074,-0.002721768830590318,-0.0029640873460131355,-0.0027476142037673188,-0.0020713963999420865,-0.0010764197534639543,-1.1235237263018704e-05,0.0008597872279955622,0.0013609731348786067,0.0014671747003515221,0.0012903516570007224,0.0010009487887992553,0.0007307112885367304,0.0005121189282849204,0.00028508883666622384,-3.990679503550979e-05,-0.0005047252648015282,-0.0010579714623770782,-0.0015633961676585542,-0.0018535179245436051,-0.001798748145222524,-0.001359362236812566,-0.0006000267932159977,0.00033403238881897284,0.0012636211411298313,0.002023420193541399,0.0024957251780688733,0.0026265236255894773,0.002427999497221569,0.001970482386079581,0.0013621723486091741,0.0007158139004317414,0.00011068160769195541,-0.0004316472613714942,-0.0009397222940154316,-0.0014508996576891784,-0.001957911818636464,-0.0023787090102593347,-0.002575561444055873,-0.0024200459830132676,-0.001869950669774968,-0.0010127297234395361,-4.574444212779565e-05,0.0008022559025154064,0.001369491769582178,0.00162509904564337,0.0016598437164747097,0.0016064774734735657,0.0015377348104031758,0.0014086810946332023,0.001086237441392815,0.0004539091348279994,-0.0004718120282174085,-0.0014908996921879293,-0.002277741670454077,-0.0025258507225793055,-0.002102262932286834,-0.0011233030731021454,9.3872150596265e-05,0.00117720369743099,0.0018603213951955857,0.0020716655391080988,0.0019153438414621555,0.0015725940400633603,0.0011909483039620307,0.0008204817463116106,0.00041854457500372033,-9.348731512366572e-05,-0.0007565018729273438,-0.0015181214553021591,-0.0022215930856185877,-0.00265106235328227,-0.002622245283360955,-0.0020792003709788594,-0.0011426975499451261,-7.337949169426814e-05,0.0008394593939946777,0.0014053589957076491,0.001605595082791946,0.0015726241961477546,0.001492681497612933,0.001491158695981667,0.0015653229106167314,0.0015961846591852212,0.001424388767795928,0.0009429875656069423,0.00015864922771590496,-0.0008029120057575208,-0.0017406067975029977,-0.0024443875309102456,-0.0027560948851541923,-0.0026072226654443435,-0.0020297414988157615,-0.0011444621097172192,-0.00013227958860372347,0.0008084029198062461,0.0015127625684791196,0.0018960254488027731,0.001975493055730805,0.001852751069218359,0.0016588465533078803,0.0014872733481284012,0.0013497136796628338,0.0011783917285761018,0.000872049123239907,0.0003574921398521845,-0.0003672117303619147,-0.00122539489670267,-0.002083961422139722,-0.0027869686430725517,-0.0031884532607631367,-0.0031836745927590233,-0.0027396128896620166,-0.0019162947254027264,-0.0008631388232306005,0.0002188138567746987,0.001138961272581158,0.0017766590797434858,0.0021097799536745794,0.0021996329559782423,0.00214293681539855,0.0020182433346684564,0.0018538572977862084,0.001628035517903588,0.0012931318977000943,0.0008073594473448392,0.00016280146765384855,-0.0005944145908992365,-0.0013561620807124343,-0.001966109551917938,-0.0022626067564470724,-0.0021421293375245443,-0.0016149050637142399,-0.0008187764782905494,2.4996764840163645e-05,0.0006987043588231133,0.0010766379696565216,0.0011689792955100358,0.0010955722509051044,0.0010014249332964864,0.0009609869835129057,0.000928731278429441,0.000768684498506674,0.00034824597707541587,-0.00035830652569026223,-0.0012188594760148288,-0.001979064230309772,-0.0023711698416074103,-0.0022412633545445862,-0.0016262659701787574,-0.0007360522950842568,0.00015145071741727117,0.0008228349337110838,0.0012134593634692268,0.001398858954826345,0.0015082411087954588,0.0016218232939746906,0.0017169472491667965,0.0016889740169587755,0.0014231503483562915,0.0008678277775363771,6.948885652797373e-05,-0.0008398547830980196,-0.0016871145422012188,-0.0023108571179691977,-0.0026038452907656607,-0.002534662149770389,-0.0021439024628890934,-0.0015178050910784322,-0.000752192559976589,7.384336363411965e-05,0.0009004953695973146,0.0016691761715532064,0.0023034289148112573,0.0027102104278514333,0.0028079188919043463,0.0025668954645100828,0.0020365017283154787,0.0013377846998862838,0.0006192750763110723,-4.7539306164239015e-06,-0.0005013216988146971,-0.0009226899456303704,-0.0013596090816952939,-0.0018655962774538786,-0.0023964628885783713,-0.002807711447532125,-0.0029204498200848094,-0.0026204894958255266,-0.001928504759141635,-0.000995567255169747,-2.894494109633339e-05,0.000800526226379049,0.0014116081033460166,0.0018039629216435003,0.0020110220355666593,0.002057975225867259,0.0019527961250976442,0.0017060317775433906,0.0013532493827859513,0.0009556097689168503,0.0005738167859493654,0.00023336168027959228,-9.108180065885792e-05,-0.0004547657677312694,-0.0008932589129440666,-0.0013745203317925496,-0.001786524933765622,-0.0019749915098098915,-0.0018157828494963736,-0.0012848314656923364,-0.00048761062574275284,0.0003705469977967951,0.0010633746508566912,0.0014368792454522907,0.0014711644075757844,0.0012764159542500222,0.00102133932263525,0.0008319548907477308,0.0007199764832465854,0.0005849844234336349,0.00028968209384675365,-0.00023810113580827397,-0.0009389721718242792,-0.001630517306197214,-0.0020849642063691066,-0.0021314792427648715,-0.0017293836870185544,-0.000981088582747178,-8.867611731952442e-05,0.0007188277610501902,0.0012583720853718192,0.001445755437756303,0.0013157275593868069,0.0010022634844126868,0.0006823203920514466,0.0005017665809989242,0.000513387223475933,0.0006542944232111522,0.0007734416630914887,0.0006985998409240485,0.00031661629606515485,-0.0003644411623027902,-0.001198107577755363,-0.0019404256853193585,-0.0023395957686412915,-0.0022400042933396914,-0.0016525837315211295,-0.0007541233861879165,0.00018786453184808222,0.0009289654100698906,0.0013436794364718114,0.0014564407701890994,0.0013965469560509865,0.00130765704455726,0.0012671247383852942,0.0012612590362082402,0.0012230193854807384,0.0010950833800003282,0.0008668399438594594,0.0005605948090401172,0.00018779796661019398,-0.0002779026922567784,-0.0008785048545060295,-0.0016103706212163482,-0.0023701196228012294,-0.0029567556761376885,-0.003145371094839127,-0.002799592178031247,-0.001958992704513227,-0.0008452012312323435,0.0002261269178224546,0.0009858163943254699,0.0013297353833541777,0.0013509353852666104,0.0012690462658986525,0.0012985124983815118,0.0015302176508132075,0.001890376716736583,0.0021941354855114837,0.0022570987985187922,0.0019974836978452187,0.0014717083119550568,0.0008291600947727467,0.00022022549322541721,-0.0002835309911878277,-0.0007097642088029067,-0.0011380567414165273,-0.0016189236085310628,-0.0021132660251144252,-0.002492411263175627,-0.0025996576494987872,-0.002335347525493722,-0.0017143841643950815,-0.0008650242544647746,2.5158955871715282e-05,0.0007817382347591979,0.0012960701134115587,0.0015383019210116712,0.0015366157318234446,0.001345294217880886,0.0010234435718610622,0.0006310280396197498,0.0002319434286787254,-0.00011117301718375442,-0.00035510592757933244,-0.0004954234728109287,-0.0005681863759057235,-0.0006254000730068531,-0.0006962344742879726,-0.0007599926725805088,-0.0007514297791098327,-0.000597673146148331,-0.0002649343821973764,0.00021292341816037228,0.000740681629527332,0.0011995066385598928,0.0014954250869407759,0.0015926697538235942,0.0015160589842675295,0.001325707494766565,0.0010825332140927102,0.0008238250444189325,0.0005563316118534285,0.00026202586945460796,-9.092884360695707e-05,-0.0005337389894627616,-0.0010766516149815432,-0.0016852539812146792,-0.0022665252407670726,-0.0026818904551897693,-0.002792893607552316,-0.0025224384195435805,-0.0018983140619730447,-0.0010512042578473466,-0.00016487508188322143,0.0005960728207283038,0.0011439114653068894,0.0014835574737239788,0.0016820786373085593,0.0018121670351641042,0.0019042529926714454,0.0019368536421797695,0.0018694436693368294,0.0016910674126284823,0.001444194507617138,0.001199945800301536,0.0009977579195776768,0.0007934362232049563,0.00046120868161478876,-0.00013631031823158177,-0.001043510141224999,-0.0021377531921303533,-0.003142741208516815,-0.0037368813561948723,-0.0037036115359486885,-0.0030397052435999633,-0.001958994370007251,-0.0007893332651637236,0.0001791268869063675,0.0008124384310311943,0.0011594343201290942,0.0013808829255274714,0.0016282561251136332,0.0019439293273023528,0.002239503679614556,0.002361644744538475,0.0022013951222481665,0.0017755486706999642,0.001225637681917109,0.0007322228695932269,0.0003979495294320028,0.00017725262245420735,-9.454239048428854e-05,-0.0005832206775591613,-0.0013215335667422737,-0.0021488454959853976,-0.0027707456156608463,-0.0029082433595908823,-0.0024492834678148724,-0.0015150572193457204,-0.0004061531174566524,0.0005379649913908657,0.0010894354275276749,0.0012173635507172055,0.001071769337884906,0.0008819638108527586,0.0008258781617669245,0.0009385769661231426,0.00110538114779993,0.0011383457302702163,0.0008894151186428786,0.0003358929232751993,-0.0004059940718927637,-0.0011396761165737954,-0.0016795982199059641,-0.0019234037147873074,-0.0018708800099689067,-0.0015897261720837128,-0.0011579239474026684,-0.0006220507770485842,3.652457345276977e-06,0.0007017103134839036,0.0014093216750990004,0.002006094013622722,0.0023500094699441467,0.002347363154005934,0.0020150212638877316,0.0014907208380378508,0.000974785442676836,0.0006293786093349061,0.0004913504407338646,0.0004505707437081185,0.00030886635348155813,-0.00011114246253521765,-0.0008646605618971325,-0.0018421786715266844,-0.0028054951171072326,-0.003483002431727813,-0.0036772720289251935,-0.0033343016880423904,-0.002546016178112941,-0.0014938423783385606,-0.0003706098547885182,