-0.0007085040518516688,-0.0025029736673185185,-0.0043437976611548435,-0.005867824253684036,-0.006711872237912193,-0.0066244681237060815,-0.00555991331009853,-0.0037091316908178604,-0.001444630578394506,0.0008006656350671407,0.002666299830877958,0.003951079869733974,0.004624876121195826,0.004777453596683373,0.0045444159097849275,0.004051636991143672,0.003397168323695302,0.002659933535290582,0.0019076792053318204,0.0011840644294855663,0.0004805180171541354,-0.000277936252102115,-0.0012029108570474965,-0.002365793950345054,-0.003709051418104465,-0.00500364952745054,-0.005896890109892203,-0.006046441574067477,-0.005279968908567231,-0.0036935115700918756,-0.0016284568907730171,0.0004655015961250494,0.002208010815271592,0.0034120469432297818,0.004097456147513662,0.004406188443334664,0.00448499851409168,0.00440716627690178,0.004166088273338245,0.003722878779138357,0.0030615577369118617,0.0022116915224515573,0.0012285127823669349,0.00015287705211528932,-0.0010113339494667861,-0.002275746612617106,-0.0036074183703369324,-0.004869409666442417,-0.005812456828361285,-0.006143997683990739,-0.005652629936114482,-0.004325117856665472,-0.0023885664870618327,-0.00024751821792477237,0.0016581814696375657,0.003007539231908773,0.0036932577282874158,0.003818839882415651,0.0036097742059155785,0.0032911701173006223,0.0029941430498287127,0.0027285291650731734,0.002416968858658936,0.001953932583008137,0.0012531900563321659,0.00027312010302682423,-0.0009659837352900863,-0.0023590235736285006,-0.0036980766979711694,-0.004690362146651843,-0.0050342249261072,-0.004536684946963222,-0.0032171825104047747,-0.0013358283250405937,0.0006803580948413799,0.002385086649643651,0.003466721040010147,0.003838965809802851,0.003632731461696194,0.003103050222898937,0.002503545146321068,0.00198920737889652,0.0015838144408918092,0.001208869718332769,0.0007428305156090395,7.801473288884925e-05,-0.000839015051497523,-0.0019807739191202863,-0.003222749255657223,-0.004347234596529233,-0.005083547152694927,-0.005188004987465366,-0.004538258943302393,-0.003195157833137607,-0.00139400176425869,0.0005345419839552699,0.0022725022461427507,0.0035978156442048144,0.004412544170299876,0.004724030490005393,0.0046090544255219645,0.004184209312966556,0.003582733517815876,0.0029240002511807814,0.0022710483872132705,0.001594635100411899,0.0007754768931333546,-0.00033655098297164963,-0.0018209573514349664,-0.0035901439422941824,-0.00535521070477531,-0.006689308616531636,-0.007175905383114329,-0.0065788202372828,-0.004949877270006545,-0.002618132567728218,-6.814913660121785e-05,0.002227978089970595,0.003945865619580602,0.0049634662441864095,0.005335049939451597,0.005217647017341807,0.004789831124336505,0.004191324477447026,0.0034957986314606507,0.0027156707359217622,0.0018277035289919479,0.0008030449987136924,-0.00037146877763680815,-0.0016823478577456105,-0.0030791231827724374,-0.00445611492660547,-0.005634095390277232,-0.006367446970778888,-0.006400668715190341,-0.005569010854995669,-0.003899211147746716,-0.001649402569412589,0.0007490046881062833,0.002831868849221167,0.004261566222062692,0.004928619366176164,0.004949980469231444,0.004573667149268434,0.0040473057511010435,0.0035206817169209283,0.0030231827375061075,0.0025063333116924135,0.0019045174605863127,0.0011688590928524794,0.00026542198829635215,-0.0008334444373102908,-0.0021305294951048347,-0.0035553290631293727,-0.004922061434894115,-0.005941232102441817,-0.006303268700213387,-0.005804719350354598,-0.004453615666280112,-0.002494307339061823,-0.00033230170289103966,0.0016077183051022453,0.0030237732099889347,0.0038150948322987007,0.004070235445225988,0.003983569384008194,0.0037488480436397645,0.0034793859895628234,0.0031814397786474515,0.0027775880283989578,0.0021578249457592843,0.001234832111475874,-9.729622401318406e-06,-0.0014926539161506797,-0.0030172920795997066,-0.0042966909619573685,-0.005023302115310695,-0.004974297321566743,-0.004110252941089873,-0.002612091651362115,-0.000826109544721954,0.0008614204654963345,0.0021569607120238282,0.002935920413626535,0.003236931190443516,0.003195855804345868,0.002965491706708781,0.002658830879436241,0.0023274585121489015,0.001964667845830873,0.001518354456181061,0.0009088735379893563,5.8142017992328615e-05,-0.001064893147412513,-0.002393081845857955,-0.003733140948726968,-0.004791860280530871,-0.005263383341247966,-0.00494615331750772,-0.0038327888877403406,-0.002125542792576103,-0.0001698228100082865,0.001659563952411358,0.003067717437011294,0.003905653714691003,0.00418059915107332,0.004019327129548283,0.0036025213781512404,0.00309016257990544,0.0025592368644058888,0.0019761290865293025,0.0012209333998945396,0.0001637318407488646,-0.0012337663938246713,-0.002840176534703259,-0.004349075081678392,-0.005365288698752396,-0.00555343207599341,-0.00478076991900353,-0.0031836307873179402,-0.0011237786350451527,0.0009431087173525129,0.002623137941258481,0.003695133861149989,0.0041379805215798204,0.0040803721582342665,0.0037123275172730005,0.003203415025633957,0.0026536415960730555,0.0020787564273983218,0.0014212549143992545,0.0005831517733110334,-0.0005188846994511665,-0.001885077951484742,-0.0033789990303362324,-0.004725974565460472,-0.0055831896114309915,-0.005662777762902291,-0.004853741640033314,-0.003281568512189304,-0.0012731992627607576,0.000756985631594974,0.002445856119489306,0.0035827755649441182,0.004136240697101685,0.004209595577514445,0.0039617742334957275,0.00353611819958309,0.0030230960234860324,0.0024567780831397205,0.0018281349064457456,0.0010992900359748522,0.00021692309410891052,-0.0008642877784721881,-0.002139766837167572,-0.003505781917688936,-0.004735967375509263,-0.0055190558848829015,-0.0055642345102524795,-0.004733744766011267,-0.0031312608017811825,-0.0010877759276355767,0.0009578116190866028,0.0026237757194857102,0.0037101604691113137,0.004223939357285775,0.004306954029824555,0.004122987463900385,0.0037739811893014114,0.003283967222946533,0.0026383011324987112,0.0018321329646976618,0.0008875201220010584,-0.00016514841630476247,-0.0013098578869220562,-0.0025348573224751136,-0.0037834714326429406,-0.0049018583001186845,-0.005637416857846389,-0.005715628439023001,-0.004968469438481911,-0.0034435128971286926,-0.0014238193587309848,0.0006630396356729762,0.0024047750237309725,0.003552709970681185,0.0040868550307454395,0.004172770389980738,0.004042408013896909,0.0038676045086964935,0.003691506960998568,0.003442996718147004,0.003007979674975909,0.002302829561198905,0.0013068650713340814,5.055081704715444e-05,-0.0014082054694896516,-0.002983611900826928,-0.0045316899301782645,-0.005822942130162389,-0.006563776420791941,-0.006485032042536206,-0.005465426695317762,-0.0036216286211781584,-0.0013042738126060184,0.001011081156579602,0.002889231627349275,0.004076611180738534,0.0045540641238253,0.004487278631926319,0.004114344492037743,0.0036343435802122202,0.0031455919807950074,0.00264336109221754,0.0020552532816088195,0.0012877696590406767,0.0002728466483530478,-0.0009860130701591298,-0.002376223570783785,-0.003670779162615823,-0.004577724720998344,-0.004839932603245877,-0.004343967536901788,-0.003180368184593021,-0.0016185473923514726,-6.3864256504878275e-06,0.0013540148719031987,0.0022941675168479205,0.0027970231010822156,0.002952556296578125,0.0028878667355848467,0.002710592331762334,0.0024837065075693446,0.0022241103743257874,0.0019061653814761192,0.0014617361159460036,0.0007888426742063011,-0.00021057295891086859,-0.0015603903257260798,-0.003137468959701434,-0.004648374646876522,-0.005694837118816402,-0.005918451574357235,-0.0051593688449434304,-0.0035415567853943723,-0.0014309836967501244,0.0007145616477914022,0.0025220105301269283,0.003812433367053666,0.00459635046543377,0.00497937731810863,0.005051892145716469,0.0048339183946776165,0.004297916564729328,0.0034339061839414736,0.002295298731926408,0.00098743723865612,-0.00038658067983942486,-0.0017695895070024847,-0.003137547762876403,-0.00443323893087055,-0.005501895815932212,-0.006095286062284985,-0.005966020109665992,-0.005004249406531756,-0.0033289342926824737,-0.0012686914760929864,0.0007628912725846634,0.0024266442698267663,0.00356401687358684,0.004201128074297862,0.004466227311786751,0.004483311109507402,0.004307194789753319,0.003926632994985574,0.0033118657997712212,0.0024570442616217983,0.0013836541959312972,0.0001139508580255513,-0.0013432104749618258,-0.0029588505078816645,-0.004613092109992516,-0.006045184502894622,-0.006887904703090621,-0.006799686636722103,-0.0056341908406134684,-0.0035465561433221356,-0.0009640124563659888,0.0015706710950209434,0.003598598886070066,0.004883764121463129,0.005433628351853426,0.005415816655185687,0.0050371268708831775,0.0044547589606169875,0.0037518577649553447,0.0029610375121652648,0.0020944071411664335,0.0011508491415440597,0.00010583565099930303,-0.001085757178431721,-0.002450029876116028,-0.003927862970641975,-0.005326317399372961,-0.0063362126797313085,-0.006630264222746855,-0.006003333671759503,-0.004481688337584041,-0.0023385532264439276,-4.159126666471039e-06,0.0020835714291122373,0.003613969040099653,0.004467512773211195,0.004697442912039505,0.00445999648031443,0.0039388367918423775,0.0032938651499190316,0.0026365203265574805,0.002016412091446716,0.0014101359783991834,0.0007236104163598667,-0.00016960832403598524,-0.0013479814669473504,-0.0027507272138859295,-0.00413445736293095,-0.005125064780426755,-0.005359909812112823,-0.00465490791366838,-0.0031065428885750784,-0.0010704135647616338,0.0009743413803999517,0.002605457700497115,0.0035960510104579967,0.003953774173637216,0.0038569554602736625,0.003531712707498045,0.00313388757012147,0.0026872571248659142,0.00209683685312879,0.001222465434629059,-2.2583482666675356e-05,-0.0015881588436588991,-0.003253648920408274,-0.004665602550236183,-0.005444371030252116,-0.005325623920016991,-0.004276673406113565,-0.0025284869172342806,-0.0005003157482021904,0.0013518498895822785,0.002692414223407728,0.00339861623853074,0.0035556525419678745,0.0033711202810601205,0.0030580699591372554,0.002739838110923095,0.0024111670790275394,0.0019629440535186117,0.0012536756976363635,0.00019605206343395394,-0.0011753603444984368,-0.002680174806931869,-0.004021805753950274,-0.004865070956883245,-0.004942011998135516,-0.004153187555580555,-0.0026245904716389037,-0.0006883948482253194,0.0012165420854290594,0.002690603819695249,0.00350512721410907,0.0036622250862879797,0.0033588257448351755,0.002876432954356803,0.002449111839278525,0.0021650602297096726,0.0019376175562755304,0.0015544502224438112,0.0007880409956577653,-0.00047183177374821906,-0.0021185111507813366,-0.0038146601935544686,-0.005088008326478478,-0.005509393943549795,-0.0048773832239439666,-0.003319169965882155,-0.0012523879230262485,0.0007785342294980036,0.0023139762266499615,0.003138984457921231,0.003321411755178906,0.0031212555126532548,0.0028266468471258945,0.0026031324457307953,0.002428154845280146,0.002132186475509807,0.0015125159924360269,0.00045669331348336425,-0.0009794291082364068,-0.0025641050277581774,-0.003948628633820032,-0.004771827253674492,-0.004779322388032185,-0.0039185972325067875,-0.0023706372647495683,-0.000497757557585039,0.001276904840151563,0.002609924579611666,0.003340811270784269,0.0035186843530594833,0.0033455960079204197,0.0030617698351926466,0.002820861431241051,0.0026107035554250083,0.002260619319900707,0.0015397386841152758,0.00030448590601005686,-0.0013786187307401956,-0.00320460889668969,-0.004721671260695845,-0.005504551842030834,-0.005325246992454492,-0.004237092833485601,-0.002537080584952034,-0.0006371870064532884,0.0010831290162311442,0.0023768439056652624,0.003156039967008955,0.0034618145228911285,0.0034109193192779436,0.0031432166185934637,0.0027764958114201255,0.002368007077901334,0.0018895268493131713,0.0012339600621392999,0.0002697670843060944,-0.0010637257122664606,-0.0026617486337614914,-0.004221472058909539,-0.005313162183179029,-0.005540621307500689,-0.004717280445295803,-0.0029654450240063955,-0.0006845068336302153,0.0015953511114264471,0.003400594788085423,0.0044582538608364045,0.004744054578051866,0.00443287345634733,0.003789836390266906,0.003055003880166953,0.0023639835964099493,0.0017229618803754777,0.001034660620622758,0.0001602364545262261,-0.0010012820778913202,-0.002437780418271757,-0.00398058568423494,-0.0053202171025013454,-0.00609180443420824,-0.006006892912942024,-0.004976359363272523,-0.003163877392937586,-0.0009400969124484736,0.0012428320634134593,0.0029992718564642606,0.004118027936594686,0.004591936635041333,0.00456841818579245,0.004253142934358789,0.0038144663641912473,0.003328964623310538,0.0027823765774878995,0.0021102475572869184,0.0012469018339576388,0.00015879923404859848,-0.0011401035137587963,-0.0025780932484664367,-0.004012952930133923,-0.005228916971450039,-0.005967212747014822,-0.006000018538135119,-0.0052243163720302604,-0.0037267579698878704,-0.00177724189069898,0.0002539513746354404,0.00201838676092165,0.003294361935948966,0.004030118357316988,0.00431444050014603,0.004298878237786507,0.0041159933675194455,0.0038336174601384387,0.0034582075426447152,0.0029678427606196402,0.0023405779725237477,0.001557963726143332,0.000594075633353448,-0.0005798299288919525,-0.0019554307956252195,-0.00342811891121075,-0.004766256882104953,-0.005654106219139201,-0.005809695712538308,-0.005121638832437251,-0.003722865619815877,-0.0019497363064123405,-0.00020436431425834034,0.0012030598600904856,0.0021479269104762106,0.002682395647185077,0.0029481365191647126,0.0030728141298448264,0.0031081516403451597,0.0030311863374397133,0.002788848371494618,0.0023445234687427758,0.0016945225326242537,0.0008534061467070452,-0.0001638503869636535,-0.0013313167082644765,-0.002568886971697947,-0.003700023462137604,-0.004460046922181399,-0.004578933826891943,-0.00390825732068355,-0.0025189025934035463,-0.000701890250000325,0.0011386286620862147,0.0026423152947973438,0.003611560625634246,0.0040346066207016945,0.0040207784859321236,0.0037072157565495164,0.0031989743655666614,0.0025631896304122463,0.0018510403024135742,0.0011067159419497793,0.00034824475392210166,-0.0004561007524545495,-0.0013769407460445821,-0.0024631810616332264,-0.0036603976552093825,-0.004765802831541625,-0.005466264033826434,-0.0054586429867988576,-0.00459775535088966,-0.002991700622173824,-0.0009858542791257637,0.0009646692610342211,0.0024725171060323804,0.0033558955588910725,0.003669750254567532,0.003623920346497976,0.003444082053721947,0.003257316804732933,0.0030584957210676882,0.0027558498620754227,0.0022464771333903515,0.0014683518760618965,0.0004117322385223722,-0.0008863432824114999,-0.0023326299976299597,-0.003751266670920372,-0.004875257677411587,-0.0053961973541628554,-0.005075585059966048,-0.0038688498049781433,-0.001988125456271284,0.0001456232296825886,0.002050328003569257,0.003362061161730475,0.003958099535091864,0.0039660156975397575,0.003661841553854292,0.0033165305025643866,0.00307019554211515,0.0028895063856909774,0.0026137257970702656,0.0020511439778999035,0.0010735560954858452,-0.0003273722073898257,-0.002029698636263638,-0.0038049775547069785,-0.005362204042691381,-0.006405947979631077,-0.00670580312364588,-0.00616416540548953,-0.0048551955407460925,-0.0030090114897509093,-0.0009397568066017919,0.0010512039990080613,0.0027509368584296657,0.00405831322889174,0.004956589592543293,0.005463615537576888,0.00559393608942569,0.005352467881819213,0.004755882665290952,0.0038588425902567522,0.0027582880578790603,0.0015639942610705352,0.00035055720322490374,-0.0008731826274201225,-0.002145236331070269,-0.0034820662404472466,-0.0048010370163508115,-0.005891564784718278,-0.006469034101183137,-0.006292555050243264,-0.0052824638554328,-0.003570521395671297,-0.0014579978663128343,0.0006879182549927475,0.00254092835375732,0.003881343676634283,0.004613481067136589,0.004754863555535411,0.0044173034315340915,0.0037811643743331826,0.0030504739785829835,0.002385050573742989,0.0018314912471725452,0.0012947379118444051,0.0005839636562045163,-0.0004717234451791818,-0.0018895961135267643,-0.003458027572507387,-0.004776178893562237,-0.005406013276061101,-0.005067824760929073,-0.0037790231988541474,-0.0018619905288427341,0.00018362015735076773,0.0018781751036635807,0.0029325883643027983,0.0033186593026708336,0.0032225971571643725,0.002920893849347161,0.0026444566726449297,0.002487503480312247,0.0023860745482492617,0.0021596392831367754,0.0015928715465080053,0.0005322713325023433,-0.0010267029115496086,-0.0028890766068334498,-0.004674982934091974,-0.005915172933829527,-0.006209185187980917,-0.005386550912037515,-0.0035927250068201505,-0.001248535695177574,0.0011038345655125783,0.0029939024103808297,0.004163359493884784,0.004599186858644718,0.004466998717179468,0.003998072418741888,0.0033894134141770997,0.0027500635073659484,0.002094902211193063,0.0013703397122021522,0.0004967902888179233,-0.0005811320174131541,-0.0018456107704846686,-0.003173342551884341,-0.004339535672457186,-0.0050690687463389944,-0.005124036841441773,-0.004394758275076737,-0.0029546255751347608,-0.0010539211251481258,0.0009454080894147076,0.0026694760292432632,0.003833787018994635,0.004316543233213387,0.00418195699420224,0.0036424391089076684,0.0029666041066072,0.0023637653781532855,0.001892789765942011,0.0014397105052255342,0.0007812675542758474,-0.00028772814717715215,-0.0018177812129028864,-0.0036237336800217872,-0.0053063087598072285,-0.006380861267395381,-0.006466277527973932,-0.005449734744999827,-0.003544958567668853,-0.0012103926054894752,0.001033318200596421,0.0027939096602743263,0.003914524402984804,0.004458731510818467,0.004604145256150782,0.004517741451857441,0.004281294864359415,0.0038931776731835166,0.0033224798858020733,0.0025637221262381524,0.0016503810268121372,0.000623979092632572,-0.0005054698624956876,-0.0017614493577624542,-0.003147015523270481,-0.004564563967379862,-0.0057718991802046425,-0.006427301293568994,-0.006223715206165962,-0.005048943769275872,-0.003079025894235431,-0.000740792098525486,0.0014475747224453133,0.0030778547035568643,0.003990544204226784,0.004284316681020698,0.004204954118404833,0.003988342411957413,0.00374832227562835,0.00346050562338227,0.0030281291092873032,0.0023699563366401653,0.0014704109935973423,0.0003721938423714374,-0.0008613547888643538,-0.0021682494823933125,-0.0034701109605470466,-0.004633058278246725,-0.005453095559156683,-0.0057006238709448025,-0.005215328765951215,-0.003999377115190306,-0.002247900007825657,-0.0002908799256590537,0.001524408810980033,0.0029463308898963958,0.003871785303192472,0.004325502518742037,0.004395162038013727,0.00416913607293438,0.0037102349721321822,0.0030680606160754477,0.002304891115233864,0.00150226024476894,0.0007329251941571555,1.4941286890465355e-05,-0.0007120282384664794,-0.0015539432608277415,-0.0025756294214114733,-0.0037074093371592966,-0.004712213857965436,-0.0052542684195941314,-0.0050490640217759584,-0.00401631371813869,-0.0023451388751576426,-0.00042753290458022713,0.0013058884632224216,0.002556309266338548,0.0032427859609652455,0.0034704962799270043,0.0034201889982403023,0.003236975405364145,0.002980127815082689,0.002642113520671864,0.0021975170066159113,0.0016340251449968248,0.0009479462177862606,0.00012584551107979413,-0.0008515492242905246,-0.001967981516271775,-0.003116427820867881,-0.004078421337435197,-0.004574883037557278,-0.004380975065251844,-0.003448499084074542,-0.001961244907401672,-0.0002793357283600422,0.0012070922880866575,0.0022378107929400754,0.0027689714536147164,0.00294362633438024,0.002972933667634159,0.00300293142868642,0.0030405383324179,0.002968216900264868,0.0026230795715530084,0.0018877779314611376,0.000749085343399786,-0.000689840682808072,-0.0022322149506185983,-0.0036283115700805274,-0.004625102484479964,-0.005021941152473256,-0.004724345058199641,-0.003777614013570284,-0.0023604688154622733,-0.0007339316740398733,0.0008353672055814465,0.0021434164639424465,0.0030811263424320857,0.0036262737222793563,0.0038123859273984013,0.0036974721003551563,0.003344530593810637,0.002810513040931781,0.0021348550077281933,0.001327004040088016,0.00036566250403504325,-0.0007745576286004689,-0.0020694715211047442,-0.0033922843232374825,-0.004504574108625565,-0.0051187431762905414,-0.0050143717514516874,-0.004146971124286665,-0.002681718560059069,-0.000928023607259242,0.0007859309723903618,0.0022239774764767455,0.0032814524131921877,0.003951369576394498,0.0042628108680547155,0.004243452397951381,0.00392380919341818,0.0033580164068824658,0.002622042299512713,0.001776525516198494,0.0008235675009788314,-0.00029465797714571046,-0.001633053822279249,-0.0031464033538485792,-0.004625413057906062,-0.005724137356250794,-0.006083078634443502,-0.005490085047131801,-0.003993008465741563,-0.0019021709481242483,0.0003197728554677492,0.0022252624938357414,0.003527040842372646,0.0041599808872723925,0.004245140278090722,0.003990066467827056,0.0035839300461542197,0.003135904751474734,0.002670281254890671,0.0021564756175210106,0.0015395713958836444,0.0007537249442855942,-0.00026960642257454825,-0.0015723638132577706,-0.0031112339714545,-0.004699500813591837,-0.0060031285058657555,-0.006626500505769972,-0.006267894610582403,-0.004870221963409494,-0.0026808642749276634,-0.0001784934118120075,0.002102456580381686,0.0037638758899555627,0.004661650609203145,0.004901763880572007,0.004732319810311221,0.004398607640563554,0.00403789173484602,0.003657774901523509,0.0031886940429277618,0.0025608320936966935,0.0017517758754085958,0.0007821172218899304,-0.0003215332516606356,-0.0015521290714240786,-0.002902576403111192,-0.004306148944202573,-0.005582859177238453,-0.0064477723891981295,-0.006602912701482231,-0.0058752509272996245,-0.004322039410484943,-0.0022354514094219606,-3.7248333539236045e-05,0.001879768865935355,0.0032789882807886927,0.0041173097180713875,0.004491383780555337,0.004541036933537829,0.004370901815622083,0.004025306266138521,0.003509414045373171,0.0028219190854475765,0.001968469225949026,0.0009530032034019756,-0.00022891968484976534,-0.001568321938014549,-0.0029919816372610797,-0.004316797803177641,-0.005257461071495585,-0.005510990319624574,-0.004890131515215475,-0.003435091815952711,-0.0014339682137170825,0.0006692938449730908,0.0024360268323655623,0.0035822476109634432,0.004047394247744448,0.003962370815833201,0.0035497357841105205,0.003015440249014803,0.0024811442056726874,0.0019712853463818097,0.0014363665722847644,0.0007856935393107146,-8.033834863656266e-05,-0.001228662462574442,-0.0026358039417347955,-0.004134642946620171,-0.005410834445724629,-0.0060826166228796115,-0.005847313231443758,-0.004624481625768767,-0.0026147671946670685,-0.0002381240188125296,0.002016491521959404,0.0037534195308122223,0.004772549124510259,0.005081358726561465,0.004834497250392231,0.004245628547891823,0.003513066890301512,0.0027770090072065778,0.002102346181647002,0.0014741115514315258,0.0008037284684579069,-4.167328169466959e-05,-0.0011758478134868398,-0.0026071858825414663,-0.004170452232199251,-0.0055287171959867275,-0.006272464040018208,-0.006087388977469757,-0.0049100038492433775,-0.0029810269893671736,-0.0007565738991643165,0.0012802787393854647,0.002804591271569302,0.003732999102083491,0.004174345025386744,0.0042993045300185355,0.004222929141934082,0.003969726936712903,0.0035226576467382144,0.0028971979257778778,0.002171204946164169,0.0014431676860374599,0.0007514039012076942,2.1488393200676508e-05,-0.000904921525660579,-0.0021607282063295786,-0.0037234955502106143,-0.0053493911262367,-0.006625355420537075,-0.00712529973208688,-0.006592473225577279,-0.00505332910191119,-0.0028082434214683934,-0.000312778235363203,0.0019842242547770863,0.003769973501735309,0.004918667234121047,0.005463206773558378,0.005522063982021564,0.005227369722474069,0.004687222679683942,0.0039866273806591175,0.0032043665109738914,0.002415061004790978,0.0016632144826983681,0.0009270127264680548,0.00010913618011949421,-0.0009189165357781211,-0.0022291101473688557,-0.003752212186798546,-0.005250991231239068,-0.006378578609729138,-0.006802833323963402,-0.006340333778207456,-0.00503660021679155,-0.0031551726101320164,-0.0010823013644053615,0.000807534898338215,0.002266387636977721,0.003223795942634201,0.0037619074788948484,0.004035550407726586,0.004178842188277568,0.004241825774582857,0.004182971363450545,0.003913470007099341,0.003361964282527329,0.002519577813514547,0.00144123039251178,0.00021077651744145104,-0.0010967243391631343,-0.0024213829611447546,-0.0036858220058202393,-0.004751963334065259,-0.0054138004151546215,-0.005454736255186325,-0.004751965234713059,-0.003368311657974193,-0.0015678797119967512,0.0002665179667359463,0.001776255966643549,0.00275563711198149,0.0032023350546949375,0.0032723947165199992,0.0031738876084946603,0.0030591533989919413,0.00296636873368916,0.002827897635604158,0.002526538223036245,0.0019609518101876408,0.0010874007374217474,-7.034789584218018e-05,-0.0014274990465589024,-0.002842134264252921,-0.004115412683435808,-0.005007141879759403,-0.0052859516750741325,-0.00480874199546286,-0.0035937249725431705,-0.0018421749129732853,0.00011274308443049865,0.0019107933267593225,0.003274146620860379,0.004073399014515186,0.0043298026525808095,0.0041670779815262396,0.0037446296246573156,0.0032001766868685463,0.0026134950177151475,0.001990721532440466,0.0012688018819549457,0.0003453648525318728,-0.0008630849709377604,-0.002347747047086763,-0.0039519231641740845,-0.005372383243239281,-0.006237388426422932,-0.006241353604192039,-0.0052781778565175776,-0.0035051091731812933,-0.001298511006214202,0.0008816449012038021,0.002653385408162556,0.003824042664716373,0.0044063417855867235,0.004547272531934071,0.004420342199296746,0.004141542093811192,0.003744212700376925,0.003206637194253967,0.002496686728638073,0.0015985770339157531,0.000513036970633789,-0.0007495576865736881,-0.002156713620890662,-0.00361604043892741,-0.004938036690918597,-0.005842246654645979,-0.006033095641569387,-0.005326558787069347,-0.003764319878652639,-0.0016433827180431784,0.0005708687786421761,0.0024140655875255837,0.00359137811536456,0.004061460014444216,0.004000258123124812,0.003675457506686096,0.0033067177291304217,0.0029842924401412264,0.002674449304323481,0.002285675112685849,0.0017402556893201125,0.0010068301367214488,8.803832782541067e-05,-0.0010063450839973564,-0.002261946949756454,-0.0036235636432025648,-0.004944659358016371,-0.005970811323191391,-0.006393134210289929,-0.005964190755627794,-0.004622640195669648,-0.0025567159433246057,-0.00016366669532748556,0.0020832077424309723,0.0037989831662794994,0.004805754815148873,0.005152985414738746,0.005039109932862782,0.004685353949771945,0.004234343683095821,0.003724047023441947,0.003134784129056852,0.002458513431463895,0.001729715376363647,0.0009934774202154282,0.00024170453233515754,-0.000619646194614975,-0.0017265582317230735,-0.0031465723684880775,-0.0047684119938954835,-0.00627270544376636,-0.007223891672557154,-0.007250068899547749,-0.006218653107149785,-0.0043107636111157045,-0.0019518293409628018,0.0003633320362919622,0.002256548895902549,0.0035710309372475203,0.004356633418288056,0.004765946367202025,0.0049330977046191824,0.004903338801376416,0.004641774384211782,0.004100311620180472,0.0032902364854037664,0.002309161821658247,0.001302734457753679,0.00038471963116830463,-0.00043138317725092734,-0.0012388634367040598,-0.002167923874572455,-0.0032737551669199338,-0.0044491487756004155,-0.005422049432084774,-0.005853684599164856,-0.005493171667036901,-0.004306174867279902,-0.0025056349094944134,-0.00046857523685870744,0.0014116020955254258,0.0028566787824201917,0.00375898312741682,0.004153397872117269,0.004145850748189846,0.003850800807505891,0.003366611664840779,0.0027800129816162138,0.00216880880126288,0.0015815418408043269,0.0010041782486350937,0.00034891838810565485,-0.0005049609526389417,-0.0016236908459929921,-0.0029311347916267765,-0.004181209204016918,-0.005024994594593204,-0.005152234873980062,-0.004437461763706476,-0.0030102886682265287,-0.0012081028942386846,0.0005643419719108774,0.001991783922338817,0.0029407060769261273,0.003450634606761935,0.003649858910781168,0.0036583009034984845,0.0035328618079416272,0.0032710439178619674,0.002848724404077731,0.00225353711281289,0.0014904745308219611,0.0005651205948654114,-0.0005295861813826942,-0.0017985884032984004,-0.003199489914149088,-0.004592676189446745,-0.0057275720616845275,-0.006294237405427734,-0.006033796460257663,-0.0048609275680716515,-0.0029331582065481674,-0.0006212295596588763,0.0016147129545217454,0.003385925130490446,0.004494641194281152,0.004958812060388487,0.004942899428920632,0.004645066703190986,0.00420597553592696,0.0036797403590904353,0.0030635494756592442,0.0023484765218723404,0.0015494410005581234,0.0006958735927854005,-0.00020206078489585556,-0.0011763150932551762,-0.002282791919833068,-0.003540267849877911,-0.004859040174862766,-0.006010405890306137,-0.006674358404279181,-0.006559286918227755,-0.005538810383469512,-0.0037311719352646723,-0.001473346284763653,0.0008001484907252816,0.0027123091247554317,0.004057283025643814,0.004825500555832236,0.005143065376710937,0.005170174148042397,0.005016152739198984,0.004709504301261457,0.004225141652792846,0.0035394272169498794,0.0026724579181873756,0.001689728698670346,0.0006638187337742426,-0.000374905519805192,-0.0014587908782135134,-0.0026506214649397682,-0.003969686795100687,-0.005320135911420141,-0.006473114074041936,-0.007127762701254776,-0.007029415475404669,-0.006085714078657668,-0.00441869131502558,-0.002325856818159314,-0.00017279895270851022,0.0017277803528343793,0.003196984661594857,0.004204533620717537,0.0048246174561233195,0.005162545743454152,0.00528889226659936,0.005210574984258045,0.004889694161136418,0.004296322934636206,0.0034609812420619674,0.0024887639088355504,0.0015171551785740048,0.0006366121244156974,-0.00017498329394289788,-0.0010509391487572143,-0.0021505950382407933,-0.0035287497912603978,-0.005036345807269643,-0.006322599188682655,-0.006956980867410508,-0.006620422331440671,-0.0052692130829888,-0.003181455556958687,-0.0008547189071373003,0.0011964920343671072,0.002639757314517291,0.0034199575701801717,0.0037111098927692624,0.0037666497967656504,0.0037628107051386195,0.003723054460228628,0.003551894286964946,0.003134581145455186,0.00242389637440935,0.0014592882739181954,0.0003246596782272862,-0.0009011907068555541,-0.0021506877054715597,-0.003327268099867421,-0.004265247782321608,-0.004744025108354492,-0.004570077692154381,-0.003683774102075335,-0.0022211580230830285,-0.0004846564511055654,0.001166805182867841,0.002448933050028796,0.0032357444151485935,0.0035601621332405978,0.0035468645128614107,0.003327885062813619,0.002989999608438094,0.0025702634238565815,0.0020791128439501794,0.0015171867188369997,0.0008699218010703693,9.486586304684153e-05,-0.0008677700198137106,-0.0020458667250994366,-0.0033677724243222074,-0.00462481852330931,-0.0055072289428836855,-0.005714885318495391,-0.005091877826466999,-0.0037091882899177985,-0.0018452525424966922,0.0001252888948725735,0.0018710472073275278,0.003198364471837651,0.004063947972116183,0.0045209126046501765,0.0046460449819898594,0.004493561488929479,0.004092004497987111,0.003468229845421996,0.002666470479163711,0.0017405013908429385,0.0007251025997713793,-0.0003828885556652944,-0.0016051044493007869,-0.0029242399348896465,-0.0042250779430032855,-0.005283401327144447,-0.005828170238759848,-0.005654387925408126,-0.004725539369924056,-0.0032046884351105793,-0.0013943669641506907,0.000380737100941778,0.0018842024052336736,0.003018307466468861,0.003801203268609941,0.004298184056282354,0.004553453853449445,0.004560394494440774,0.004281046681140809,0.0036951717096828517,0.00284209269921729,0.0018239633601217753,0.000764275502427159,-0.0002542314527767852,-0.00123082483607292,-0.0022335611432367035,-0.0033294501821526335,-0.00449461259766999,-0.00556212000300745,-0.00625059235287252,-0.006270860777316685,-0.005459094670314687,-0.0038656464381236883,-0.001752765383756104,0.0004951245770317102,0.0025008116385737177,0.004003028272122195,0.004904466095033051,0.00525382352037527,0.005184823785976544,0.004845902679227771,0.004349093205371154,0.0037527250274882636,0.00307612578295981,0.002330083036681081,0.0015399146132598497,0.0007437739275643859,-3.368179363713044e-05,-0.0008124937514999854,-0.0016648598364644254,-0.002679852217293924,-0.0038917275346534285,-0.005206577387875822,-0.006375974341989476,-0.007051802381673994,-0.006914714045832768,-0.005821250896252739,-0.003893231916502804,-0.0014961215974451123,0.0008898905437716116,0.002845165131884427,0.004147732659397187,0.004810397684454673,0.00501055449622454,0.00496092547050481,0.004795544168407192,0.004528733000709764,0.004097015684849918,0.003444693217215447,0.002592435175967573,0.0016447172754401767,0.0007330375932726918,-6.754647860540781e-05,-0.0007927558258693573,-0.00157211249834255,-0.002538494899245656,-0.0037091777980665435,-0.004910585193166625,-0.00580544670052547,-0.006027112645132676,-0.005359237118153541,-0.0038623109279862875,-0.0018706607048034787,0.00014412496469834609,0.0017697449102749016,0.0028038791551578107,0.00328603540089878,0.0034108807356550254,0.003388407250279806,0.0033350486210879902,0.0032477162916880764,0.0030555901235901585,0.0026991991749612905,0.002178572932889708,0.0015427817737165127,0.0008384890240847763,6.370038069040322e-05,-0.0008328427717499151,-0.0018992427402395968,-0.0031048093242072713,-0.004290186303873005,-0.005183325223895364,-0.005488157464456496,-0.0050108631363143,-0.0037610629455886203,-0.001971234409143845,-1.7848002859926864e-05,0.0017197984388482956,0.002993466886591469,0.003748018767583201,0.004087351695250395,0.004172609055584184,0.004116279841094845,0.003933002519774919,0.0035682418155304615,0.0029743418744013015,0.0021737435123506,0.00126134901536222,0.00034368826005100426,-0.0005394422198144355,-0.001447806281177689,-0.002491809620664294,-0.003721718025039022,-0.005024245552364406,-0.006103055770516437,-0.006574878482949975,-0.006141441489164439,-0.004745761821216875,-0.002624889400779114,-0.00022829937144351598,0.001955130716351645,0.0035730236998859576,0.0045055074368388435,0.004847088301461664,0.0048012589782441,0.004555173546816829,0.004202153402797228,0.003743184269607371,0.003147962391573122,0.0024218695725140016,0.0016276780521342702,0.0008468576444908665,0.00011050997466128314,-0.0006455895467823679,-0.0015590585623843386,-0.0027499441428321877,-0.004204726895167557,-0.005704575728025289,-0.006854576316198948,-0.007221432164354096,-0.006524065681356332,-0.004781433684765868,-0.0023342737316418383,0.0002786168386600396,0.0025297942213728334,0.004092756639828946,0.004921506807620084,0.005194501905591646,0.005170108616942532,0.005039619699409976,0.004851979395625601,0.004535078260632951,0.003983174220354109,0.003148823775669124,0.0020844434876017993,0.0009150338296880827,-0.00023411823644996308,-0.001306728215222107,-0.0023380283371828847,-0.0034140328989456766,-0.004586829655489999,-0.005792449783753106,-0.006822108789949304,-0.007373252040485149,-0.007164089875289268,-0.006058329922979375,-0.004139210896457142,-0.0016987159446978164,0.0008493993762517642,0.003092214801230425,0.004728633906456081,0.005634989333447167,0.005871378253924784,0.005632358215063929,0.005160433062164628,0.004653559996038714,0.004203183321897052,0.0037880624134643314,0.0033209126003871624,0.002715094849933299,0.001929369414373949,0.0009687750090220092,-0.00014561082994329097,-0.001402525428096341,-0.002792531265665571,-0.004266189030508174,-0.005689110600363924,-0.006834193568910305,-0.007432129115878981,-0.007265019770946131,-0.006258505493484629,-0.004525329968925266,-0.002339346286743151,-5.4941449108559154e-05,0.0019908942400413067,0.0035578523317986183,0.004542836871208205,0.0049776114567254524,0.004989694706649615,0.004740727427183836,0.00436451606427474,0.003929058951756708,0.003436138315902396,0.002851257074748595,0.0021395471020655625,0.0012837581638719992,0.00027982302632258366,-0.0008713064100688967,-0.0021509479403818412,-0.003484760268769762,-0.004707297294005752,-0.005571512968572926,-0.005823785499420696,-0.005316913951752306,-0.004095881806802897,-0.0023982014690693554,-0.0005626396741243909,0.0011008566446513695,0.0024063045829158247,0.0033087072158069766,0.0038538627161940945,0.004108118184721268,0.004113483138200672,0.0038847014676973227,0.0034342317293506773,0.0027971215307514355,0.002033812963812335,0.0012069676817401127,0.0003471241948292793,-0.0005675092936637778,-0.0015947650212553661,-0.0027713624429018253,-0.004038650920383061,-0.005198062632957514,-0.005940537253104416,-0.005957086829477663,-0.005083885433835033,-0.003402760995585043,-0.0012353278857503438,0.0009712488204057894,0.00280705870423161,0.004028557910613493,0.004599543606458367,0.004643558517849353,0.0043507011242194665,0.0038921345744140396,0.0033754823194858644,0.0028431916741638004,0.0022939665466958532,0.0017040716623562204,0.0010374548068675948,0.0002498108198868925,-0.000700004315329541,-0.0018229097699816806,-0.003063444963433858,-0.004275512615596996,-0.005234024452729081,-0.005692459327787558,-0.005470226420890667,-0.004531162877002861,-0.0030127787981733397,-0.001189130663755968,0.0006161736553388817,0.00212778971477258,0.003187673546908329,0.003772951588625399,0.003964106176173299,0.003885348870761618,0.003648157266864443,0.003322248496926637,0.002938687323508803,0.002509353972224392,0.0020397083463748384,0.0015226727867866346,0.0009217966960967496,0.0001660522073613337,-0.0008242096823693691,-0.0020799867595550667,-0.0035202058409296816,-0.004922873949636595,-0.005963717414830171,-0.006322303016743046,-0.005813719605173467,-0.004480191571850654,-0.002590749050542054,-0.0005434398476958286,0.0012835804088645293,0.0026592580678010576,0.0035461692675856655,0.004052835038101505,0.0043289648138275195,0.004467731881504292,0.004467776350460066,0.004266423381824718,0.003811119330394015,0.003115977665159106,0.0022657110022103587,0.001367747802017655,0.0004880211352164934,-0.0003854781937149165,-0.0013269055965209023,-0.00241147030690589,-0.003640160811731186,-0.004889382025345739,-0.005916351366374477,-0.006428833554277941,-0.006196711342374217,-0.005156270961950053,-0.0034538442613226404,-0.0014021768631679054,0.0006314076248801171,0.0023489769789854544,0.0035977829853961283,0.0043687386734084675,0.004734428888158395,0.004774945208625156,0.004538166500983421,0.004050132358137894,0.003353397368098,0.002532187141230452,0.0016948549691333682,0.0009183623787086769,0.00019318822768165744,-0.0005837350828263475,-0.0015452861692508862,-0.002743457179136461,-0.0040555642810045905,-0.005176046233007958,-0.005721416202964746,-0.005407449694455935,-0.004204102586187145,-0.002375106240804539,-0.00037202925947004664,0.0013611094461956112,0.0025642251416413153,0.003226037930617691,0.003516055764253964,0.0036402452871282798,0.0037132857169495594,0.0037169518035938673,0.0035515086843891704,0.0031280381701572733,0.002431638478085389,0.0015166773424211933,0.00045095069676698014,-0.0007349500312262855,-0.002042444745759972,-0.0034403437981802773,-0.004790327699763591,-0.0058300262608637025,-0.006247829970469531,-0.0058205021780376055,-0.0045362619529415475,-0.0026276113597707208,-0.0004901401460512773,0.001469338611933701,0.002974137772546905,0.0039404050148306655,0.004443479784639078,0.004623425315245866,0.004590955146864977,0.0043834287507241755,0.003983452976916127,0.0033732422243323533,0.002578896500890766,0.0016705790046527892,0.0007189606878632978,-0.0002575342691335269,-0.001309285843798003,-0.002511373975350373,-0.0038753704682824124,-0.005269423497302763,-0.006405548673654762,-0.006921952860307785,-0.006533783639101636,-0.005179067468910484,-0.003078712779128478,-0.0006701880603098282,0.0015574949113714926,0.0032454057641384025,0.004273095778422744,0.004746650098278912,0.004885907623194423,0.004881762648000447,0.004802394387370824,0.004590835835325625,0.0041407118621263235,0.003395143770209684,0.0024059599144570227,0.001316855448431421,0.0002801382793462901,-0.0006410737100960269,-0.0015187446989481472,-0.002513125552607614,-0.0037486178369600196,-0.0051821582395528525,-0.00654984465487975,-0.0074387607276042555,-0.007458124879268721,-0.006422965517482669,-0.004453740767299904,-0.0019415788558255008,0.0005995853543838259,0.0027185256470340555,0.004164498939878084,0.0049244906275880285,0.005159674975278418,0.0050864220990421965,0.004866749498616112,0.004559756387210936,0.004146520360110506,0.003597295068197715,0.002927589142648602,0.0022026732352614397,0.00148900543695845,0.0007900093155834771,1.7866115113318083e-05,-0.0009663791474929437,-0.002254703169090871,-0.003788332193828387,-0.005316000125536824,-0.0064560473919574035,-0.006846043577417201,-0.0063062411482388645,-0.0049261395605561765,-0.0030241379340639083,-0.0010056651376437547,0.0007956325434284684,0.002207027988947473,0.003203517179312697,0.0038283339173811604,0.004118299345776432,0.0040862361925261825,0.0037589977121978376,0.0032233093065641635,0.0026263649591643946,0.0021153966330413362,0.0017503629275696932,0.0014498099854082767,0.0010149447757518166,0.00023202323548181052,-0.0009941597932766307,-0.0025460378996947346,-0.004094734643587858,-0.0052082352736487585,-0.005522132075951227,-0.0048929457285326015,-0.0034592291867575117,-0.001582002817596777,0.00030180222392972377,0.0018378675487132272,0.0028524753359095876,0.0033578648913411852,0.003482866856072831,0.0033777942106977786,0.0031433625828895793,0.0028106183780521837,0.0023675093609178926,0.0018032901505670269,0.001136293190589809,0.00040687219556291175,-0.0003545037081856701,-0.0011531068901375406,-0.0020206697873661602,-0.0029668198072386894,-0.003919282083009439,-0.004697732486551274,-0.005052985777160558,-0.004764684198256444,-0.0037506416493871325,-0.0021275220702150315,-0.00018670753257611888,0.0017044111515806266,0.003226947169026933,0.004203123178428585,0.0046207583533126725,0.004590113878152488,0.004265818470081846,0.0037786611317823047,0.0032079335815719625,0.0025935810708303197,0.0019602177796479757,0.0013223077787589289,0.000663759482161642,-8.351225306390036e-05,-0.001025614294282795,-0.002241704480131599,-0.003694251787462465,-0.0051729785962809525,-0.006325316064318055,-0.006779219361510111,-0.006303830116276935,-0.004922076700598363,-0.0029120475115014042,-0.0006973763472106642,0.0013123386091730498,0.002850930386536798,0.003842895789947702,0.004365750667619073,0.004563390245705864,0.004559326462535096,0.004408667067037346,0.00410369498625033,0.0036195790393336756,0.0029656088033157783,0.0022048525442433307,0.0014251069926386024,0.0006770229684058317,-7.805074421887953e-05,-0.0009659102774292531,-0.0021261464745872248,-0.0035954350875962143,-0.005211782025924249,-0.006607518811802688,-0.007319920376067962,-0.0069829098277535435,-0.005508561496827857,-0.0031599076773730023,-0.00046733449906524564,0.0019765320489667634,0.0037420226899055574,0.004695924738908438,0.004984235732657426,0.004889584718093427,0.00465460852952761,0.004371961916729205,0.003991810162089901,0.003421440998573306,0.002636734346323313,0.0017248402920846937,0.0008297826452591088,4.275116568647707e-05,-0.0006793342347885237,-0.0014980797355719669,-0.002575838433834396,-0.003924460315626604,-0.005322222104417069,-0.006366795862521285,-0.006649255236904172,-0.005955687078154141,-0.0043819597793479555,-0.0022978752849996996,-0.00018469148295193047,0.001562265044892304,0.002764974127756719,0.003473633484991377,0.003870479108154989,0.004130916157113195,0.004319207987172063,0.004370019470883602,0.004157373618662124,0.0036032672681449254,0.0027548162415047973,0.0017767695452520535,0.0008593366682956771,9.93615484806105e-05,-0.0005631134601175813,-0.0013015621017379978,-0.0022706543040574086,-0.003464918141108241,-0.004661312519515132,-0.005491323018269991,-0.005609378724218921,-0.00486403318423102,-0.0033755440265270447,-0.0014803690704617905,0.0004177682263310716,0.002001227140946891,0.0031174707381843867,0.0037620709519451266,0.004004451632047713,0.00391906969191906,0.003563031113715146,0.0029963833141930596,0.0023075034878704175,0.0016053790021069649,0.0009715115028097845,0.0004033931469779878,-0.0002009967839853423,-0.0009885061027035311,-0.0020439342552739117,-0.0032911331785738253,-0.004468560704357087,-0.005208349367703699,-0.005188199256763511,-0.004280464157695173,-0.0026211923964552263,-0.0005646390089470165,0.0014505569664619974,0.003054632682864796,0.004048678627133295,0.004420836601051195,0.004291267766429743,0.0038317966928860074,0.003204176254039193,0.002533781827051503,0.0019064205274001737,0.0013650771012624937,0.0008953876480066149,0.00041169646214335594,-0.00022974986248298248,-0.0011721310180923092,-0.002465511683526468,-0.003985292342702959,-0.005418059794159937,-0.006346169596770979,-0.0064086485755441205,-0.005464432027077481,-0.0036709073961177204,-0.0014310062002780189,0.0007663562161521528,0.0025303240942780455,0.003686927120975041,0.004285945741271199,0.004511367367421597,0.004555286401367642,0.004522025992740321,0.004402873596225638,0.004120155915483284,0.003603334584734789,0.002846137438158722,0.0019093553385591494,0.0008711202501305342,-0.0002359499674282076,-0.0014479498979373885,-0.002823816373148194,-0.0043503229442292575,-0.00586113955803639,-0.0070367105051851436,-0.007506704772662409,-0.007010486649153911,-0.005529246747285086,-0.003315844931466929,-0.0008061869301004782,0.001539843912404945,0.003388203716156294,0.004606022317211819,0.005242646275811303,0.005444112211977951,0.005354718222883217,0.00505552895840462,0.004562583368624459,0.0038722346014644048,0.003014725240408956,0.002073602558838275,0.001151471496002972,0.00030083930810316447,-0.0005302357736095115,-0.0014871656748494926,-0.002718390012474212,-0.004246351912681797,-0.0058781267589258345,-0.0072238834800720415,-0.007833710873003316,-0.007391314810758872,-0.0058635900182571945,-0.003526550033289933,-0.0008579714153928345,0.0016410978373128003,0.0036054760510816743,0.004881101157576536,0.005505891929655627,0.005630687465521753,0.005429783916469408,0.005038321718915005,0.004530030795276059,0.003928533462014209,0.003234913161973203,0.00245270529857289,0.001596471991208185,0.0006808627196314709,-0.0002985877995298925,-0.0013712931184280447,-0.002566439933810003,-0.00386043348457388,-0.005127002113356996,-0.006130593364381671,-0.006585724862873279,-0.006266272037847919,-0.005113913178901848,-0.00328829393752352,-0.001128996709164464,0.0009555701276159167,0.0026216368424815785,0.003687300469261063,0.004155641964073491,0.004162931300627277,0.003886874251941759,0.0034663115932911754,0.0029703475216251315,0.0024186276754718243,0.0018203671497746916,0.0011931718565726841,0.0005480261576123969,-0.00013730542193426335,-0.0009178967137997442,-0.001834244118552274,-0.0028392209729007642,-0.0037534985285040375,-0.0042984306181841955,-0.0042093225231388705,-0.003374117964678019,-0.0019156914626727755,-0.00016344793290493445,0.001475035891670086,0.0026738220706333344,0.003298218062502138,0.0034173160721921356,0.003227763320647933,0.0029385530602774115,0.002675885112155596,0.002446501104035924,0.0021631118083085613,0.0017056734155726067,0.0009816784429463716,-3.9500368259927474e-05,-0.0013194678027252456,-0.002755040626088749,-0.00418038276488635,-0.0053716245550017375,-0.006073832300154241,-0.00606429099421139,-0.005238167623627841,-0.003674069994490138,-0.0016348955947213164,0.0005086365602108206,0.0023991959560513963,0.0038001889508077584,0.004640901278346857,0.004988394591899755,0.004974124363395768,0.004721041582109398,0.004305889764463009,0.0037618148559211955,0.0030996406971065464,0.002320650460517099,0.0014113995700538173,0.0003357071408276088,-0.0009509286224786983,-0.0024535246801839785,-0.004075242472612288,-0.005583130755145473,-0.006642250384686667,-0.006924419942622689,-0.006248991930210688,-0.004681956600457761,-0.0025328534153768456,-0.0002438623868275606,0.0017724811855050256,0.0032631689603002337,0.004173068152820593,0.0045901284232531024,0.004647287372751132,0.004445493952981927,0.004035525659307662,0.0034498214802764753,0.0027416110920554042,0.0019890350468579066,0.0012544956671485708,0.000530200742478774,-0.00027989910619571727,-0.0013098279596277106,-0.0026274940740265446,-0.0041355966053006005,-0.005546151572149145,-0.006461449465259047,-0.0065323312769586354,-0.0056154327904503025,-0.003846962946264373,-0.0015951159801655748,0.000681725330217412,0.0025976254853395456,0.0039460849250830855,0.004711908034478143,0.005001837037001957,0.004947762268887433,0.0046416416586807455,0.004130609032927996,0.0034551079635257295,0.002683811675699456,0.0019068962772365071,0.0011872170283739871,0.000507572030021342,-0.00023846576363261525,-0.0011918911645360665,-0.0024327597503730467,-0.003895585614327628,-0.0053448838597632995,-0.006431348450486511,-0.006811315787413199,-0.006281756743303778,-0.004871860559096169,-0.002847166148660183,-0.0006203364312423373,0.001392905847684604,0.002907728558982392,0.0038361211195245726,0.004263375548447299,0.004359021846754174,0.004275593698491539,0.00408693583944872,0.0037878774793918433,0.003338771908884279,0.002715748505860937,0.0019329196408438892,0.0010293192248285337,4.095513005201984e-05,-0.001011901792019729,-0.0021059285057073852,-0.003175454888112071,-0.004085045352636948,-0.004645409538934827,-0.004678324511870341,-0.0041011049259593885,-0.0029818553229565723,-0.001529851468977612,-2.3727855556572607e-05,0.0012836436441121377,0.002235831956204452,0.0027922559933825893,0.0030010467710959656,0.0029508517168268284,0.002729053330072839,0.0024018265545201396,0.002014508489844922,0.0015980175881613358,0.0011661628039942344,0.0007013835638788608,0.00014427565571810885,-0.0005901023122879255,-0.0015591255408159725,-0.0027213976070530038,-0.003891032437699527,-0.004760664336695844,-0.005003834544356137,-0.00441828199173771,-0.0030373129603671178,-0.0011433477252376497,0.0008328057517769541,0.0024796281833167353,0.0035540539358551422,0.0040385263399462246,0.004086670614996367,0.0039012141726874447,0.003620887916291132,0.0032774225346227075,0.002831828606545966,0.002246613515259227,0.0015327150930176572,0.0007376161579767488,-0.00010723868032543537,-0.0010256117178396094,-0.002076547541484683,-0.003277544738271636,-0.0045238852317137,-0.0055706350035774725,-0.006106947537236642,-0.00589031100166874,-0.004865787339410302,-0.0032021287910185417,-0.0012266273179746844,0.0007020119832874892,0.0023152358729656717,0.00349627419576289,0.004266483738016496,0.004719307702354241,0.004943562245619383,0.004973536706894256,0.0047836710406132825,0.004321819478955697,0.0035574088181442023,0.0025156150857425733,0.001278185522988657,-4.803478842961575e-05,-0.0013731354827355323,-0.002647197440506158,-0.003846492621864948,-0.004930261876015109,-0.005798744708401161,-0.006287860063445809,-0.0062161401052608055,-0.00546585164509159,-0.004055002852001534,-0.0021585436264125075,-6.522742826617174e-05,0.0019082057686925888,0.00350474010967415,0.0045817740912923715,0.005119631150798826,0.005192333954688036,0.004920536303420376,0.004427168334555861,0.0038097776919874316,0.003132872214470016,0.0024324454008980236,0.0017194846967451374,0.0009749067196164748,0.0001427135964636257,-0.0008599990904010076,-0.002100872278816593,-0.0035643816868350573,-0.005092812739528104,-0.006383094026210363,-0.007066277576333215,-0.0068490211788978135,-0.005651158992062553,-0.003664437106680963,-0.0012958198405050112,0.0009787751242871872,0.0027781721716739734,0.003921786273401096,0.004439385841309908,0.004498135231458154,0.004297352409209087,0.0039868723132373786,0.003640043347134128,0.0032746138616722956,0.0028877431119053434,0.0024711520561584363,0.0019972244921728126,0.001397557099113593,0.0005682101300379843,-0.0005803714559876176,-0.002045523442794756,-0.0036718985452707607,-0.005155006975121055,-0.006125728685472969,-0.0062872551027515385,-0.005540813171248508,-0.004035007177362948,-0.0021105607370496358,-0.00016779367916918341,0.0014755159741214432,0.0026679054114841557,0.0034195094625497063,0.0038290941849092176,0.003995597927613335,0.003965507280322778,0.003736909144413455,0.003301917677418422,0.002685506495333375,0.0019453677394491234,0.0011304705260410392,0.00023351759351495494,-0.0008134981296278303,-0.0020762213486737453,-0.0035149454856416456,-0.004912663401419134,-0.005902452726988983,-0.006105624501545531,-0.005315364303506532,-0.003619940142385171,-0.0013887800434036987,0.0008738259917401122,0.0027256010860117366,0.003930324203386322,0.00448751566983183,0.004556647310437086,0.004336989739338479,0.003972308829475771,0.0035189658031152954,0.0029720047879091284,0.002313195563171865,0.001541906547287565,0.0006715004102948396,-0.00029514191139569867,-0.0013778832026157158,-0.002592756706553425,-0.0038911978783525273,-0.005105933667018969,-0.005956510473059813,-0.006138413141867468,-0.005462938193360389,-0.003970477667101758,-0.0019446769854746969,0.00018915107232749862,0.0020286271861371737,0.003334088284039954,0.004075881921477651,0.004379058350495707,0.004411472712730097,0.004284376675732973,0.00401671138188967,0.0035703304370088033,0.0029195848494538304,0.002099973574721595,0.0011985035891314499,0.00029292245923594743,-0.0006113050526210771,-0.0015895700665256906,-0.00273095822129818,-0.004030498494431444,-0.005313551954318598,-0.006254761468225014,-0.006498911244980065,-0.005825796523244619,-0.004269223746229068,-0.0021235574693430864,0.0001657970946850359,0.0021699510703203366,0.003619494013866023,0.004460843624586066,0.004812469161896257,0.004857005091786995,0.004732639692540616,0.004480081176007436,0.0040641410034010445,0.0034430987253864934,0.002632369743467265,0.0017174183058325393,0.0008074903231323062,-3.734276299991368e-05,-0.0008533482800910908,-0.0017551475690847631,-0.00285246364695421,-0.004144394354474529,-0.005454940706848212,-0.006458215149366892,-0.0067958927564376725,-0.006236644163245004,-0.0047973905621775115,-0.002759241851520753,-0.0005637374668065337,0.0013606163171630717,0.00275370990128972,0.003585428246176871,0.004002121456303205,0.00419984952931144,0.0043019806037179475,0.004308322132034502,0.004134865743855333,0.003706891025367926,0.0030374606964709253,0.002236695297621929,0.0014456842892411987,0.0007408277162864796,7.59218974881913e-05,-0.0006930472422264776,-0.0017068250122355868,-0.002981007577235066,-0.004337242150922474,-0.005437498956782231,-0.005915581987550496,-0.005542302601710814,-0.004336786178126409,-0.0025641271802605203,-0.0006235096736954803,0.0011094481977334389,0.002404101346549316,0.003209022216819189,0.0036035950788451546,0.003713261853386823,0.0036400651704306492,0.003435029590102082,0.003107909452978407,0.0026534572017580756,0.002074492605464875,0.0013909801291693198,0.0006329234565723653,-0.0001772124546666614,-0.0010386466170574946,-0.001965761102523306,-0.0029534268192567287,-0.003929219557442309,-0.004727752767457611,-0.005119700148252064,-0.004896717864752986,-0.003972837129211817,-0.002444627532153607,-0.0005730719716028635,0.0013041724090741018,0.002883166415683691,0.003973612771422247,0.0045207213746915,0.004577241905277581,0.004255702345230469,0.0036881983746461736,0.0030019649916571646,0.002301764305358404,0.0016486708923422952,0.0010381342799823357,0.0003944752062748864,-0.00040017547110956153,-0.0014408623834557942,-0.002721901326948892,-0.0040869714382944025,-0.005244715667664081,-0.005858948238600013,-0.005680875605677971,-0.004660468422427331,-0.0029782664879789977,-0.000979772016439675,0.000952425270142948,0.0025234747458492386,0.0035931677037011334,0.004168987598290622,0.0043480678884687644,0.0042478335411701585,0.0039581712056038325,0.0035279580619570127,0.002978285985223211,0.0023226519722316426,0.0015755095815838615,0.0007441334182589227,-0.00018371198824600503,-0.0012356186796334385,-0.00242293218030808,-0.0036933113219611694,-0.004897867815290353,-0.005802781713623377,-0.00615320319541292,-0.0057664985797873484,-0.004611844497052422,-0.0028370750949243155,-0.0007297275777697954,0.0013686460879426925,0.0031566257090236242,0.0044397089275890695,0.0051523833749654545,0.005339291661492803,0.005112486393248329,0.004604525763647682,0.003932864889808989,0.003183084374890794,0.0024087248598417795,0.0016370958424442778,0.0008691941733301324,7.13986875864919e-05,-0.000827816501446472,-0.0019145845453808743,-0.0032300140836036425,-0.004695181520888898,-0.006070179751780138,-0.006994716221522469,-0.007115426222493922,-0.006245741018664856,-0.004471363791582118,-0.0021371834895999005,0.0002818552228122155,0.002357646444934951,0.0038435427793041465,0.004708933550584397,0.0050761919918513795,0.00511132501622281,0.004932660983895455,0.004579686599547415,0.004044498857829561,0.0033326522771741393,0.0025052431154339782,0.0016676337716607851,0.0009067040180563182,0.00021801740636389298,-0.0005193977611547293,-0.0014856275959264716,-0.0027970726115445874,-0.004384796368342727,-0.005952378750163013,-0.0070546544655428,-0.00727263328337213,-0.006402623939871445,-0.004563086881449948,-0.002161679571593641,0.0002631755357387884,0.0022479893573079932,0.003558642974697656,0.004226670430377038,0.004463605812383134,0.004510057157033269,0.004503962638982676,0.0044344785228268594,0.004194380507196048,0.003685387128720424,0.0029026477000135874,0.001944215686402391,0.0009451255439996424,-1.2780785892872802e-05,-0.0009489355765057038,-0.001953034101394246,-0.0030908958735825593,-0.004306218050722366,-0.005384795015319535,-0.006014626381547766,-0.005919117003229453,-0.00499423602062893,-0.0033741176638219087,-0.0013891786312721982,0.0005587915469749214,0.0021382353684155416,0.00318031555480246,0.00369204798788647,0.0038027611761626357,0.003682312871050991,0.0034704421836900265,0.0032397655404433827,0.0029932026061304435,0.0026820051256186313,0.0022290853218349203,0.001551382582269184,0.0005852601379264888,-0.0006793000694744783,-0.002160013490885266,-0.0036590030603836244,-0.004882053971565565,-0.005514434246756855,-0.005335179803963163,-0.004319581598504669,-0.0026728255366193967,-0.0007676373335263141,0.0009900420537293318,0.0023037559244658036,0.003071171829982288,0.0033773548997928123,0.0034102184456023007,0.0033469050221011046,0.0032685363709766637,0.003141253539813176,0.002863697199541009,0.002344296105124594,0.0015574270993736412,0.0005464401805417852,-0.0006170328245120252,-0.0018735318307771121,-0.0031728705498683205,-0.004424352634736681,-0.0054453603829373145,-0.005969540151539065,-0.0057396472460243,-0.004644932021133876,-0.0028185827102267386,-0.0006240867407336223,0.0014756510895752525,0.0031002454979684817,0.0040874211389408735,0.004513456944668898,0.004597320710158582,0.004551029714449036,0.004462007621009097,0.004266708849175595,0.0038183961569784285,0.0029995626355374914,0.0018090336241719214,0.00037417774659548927,-0.0011129429976488414,-0.002488763686046309,-0.0036767230338308784,-0.004673097978574725,-0.0054751545674939575,-0.00600927788748031,-0.006117732984386648,-0.005621354859571104,-0.004422828142384341,-0.002588849323730964,-0.00036403586198189316,0.0018906722251274461,0.0038052097167410046,0.0051071121209002165,0.005688038287912621,0.005610695113202972,0.0050608654711896735,0.004268550777433198,0.003430453353721133,0.002660276993191462,0.0019768143401685456,0.0013222801635362248,0.000595632989059923,-0.00030939219119553577,-0.0014626498931115026,-0.002852782865927761,-0.0043513507318754426,-0.005710614213785295,-0.006615613039710657,-0.006784680400543421,-0.006079337203497855,-0.004570292759367235,-0.002524302006959774,-0.0003163361450527734,0.0016920340947856449,0.003254292289446009,0.0042816904196140634,0.004819602921356471,0.004981315380140461,0.004878884935567637,0.004584249013855917,0.004130008047571502,0.0035338500550922015,0.002819910974090703,0.0020196127865469062,0.0011542980844511082,0.00021736275876932954,-0.0008245393046200421,-0.002002835126704907,-0.0033000121117006055,-0.004608226731245415,-0.00572158876717031,-0.006378709880958641,-0.006347820250642556,-0.005521373664978263,-0.0039763207523695766,-0.0019687899072375857,0.00013845396025423648,0.001987421368019392,0.0033311316274732966,0.004093882998300746,0.004363645569905277,0.004322363241322928,0.004147068318118361,0.00392896200844363,0.0036486751737417403,0.003214763727556774,0.0025361034774842636,0.0015815513214286641,0.0003950159771919582,-0.0009300625864312118,-0.002284147247303801,-0.0035517027116928473,-0.004596005732987999,-0.005247519658430804,-0.005328963500417531,-0.0047224926643931586,-0.003446470480773936,-0.0016918150879610223,0.0002144126193917822,0.0019095109838979565,0.003114390758525677,0.0037164354669474583,0.0037815282988546695,0.003497442221838604,0.0030813909708199668,0.002693507172998075,0.002385595571193222,0.0020945523557235664,0.0016761137227333496,0.0009688585605365423,-0.00012689369752562438,-0.001579477406801664,-0.0031957907076876875,-0.0046537731133809565,-0.005596803250335073,-0.0057581465977195115,-0.005062194500797202,-0.003653429086668562,-0.0018369823619311652,3.913490389432378e-05,0.0016988352746640687,0.0029945196820896558,0.0038906113872969406,0.004405464360053407,0.004561974903080027,0.0043779483343573435,0.00388885559717802,0.0031697898963300225,0.002327969869739548,0.0014638521129955243,0.0006249907876449607,-0.00021519944783041466,-0.0011341439854694092,-0.002197181035282915,-0.003384106072731841,-0.004546015138888597,-0.005424219719276296,-0.005733997404452056,-0.005280262996285132,-0.004050717193612791,-0.00223973813405896,-0.00019031710691228788,0.0017186359372525113,0.0031893680090654677,0.004080416714078114,0.004417133667551346,0.004343510135090604,0.0040423628437375285,0.003658189640856784,0.0032498887206290506,0.0027846696878489592,0.002168690867843624,0.0013000474691894724,0.00012580091323156003,-0.0013151406974000624,-0.0028776383875260504,-0.004331120883952639,-0.0054121143691610845,-0.005894557173773678,-0.0056558562030367375,-0.004715271345402684,-0.003230082846168416,-0.0014516051661595311,0.0003415348498980457,0.0019096603519497685,0.0030990042293069027,0.003859197636757056,0.004229468603135897,0.004299978324919112,0.004163659944256379,0.003879465717609502,0.003463254315271143,0.0029066623789187236,0.0022065941267241152,0.001381973574004879,0.00046598034599624626,-0.0005167603941705399,-0.0015638606129316254,-0.0026797904892741494,-0.003833617647099819,-0.004917043567588742,-0.005738555937770718,-0.006072334212427803,-0.005746296578849595,-0.004725032077359359,-0.0031413758339021406,-0.0012581059361925027,0.0006198737578281882,0.0022384002894232672,0.0034514344167587154,0.004227108223840577,0.004613653585084618,0.004691251845353739,0.0045345965981520905,0.004198457803850223,0.0037231845991428612,0.003146714251096692,0.002508485910719726,0.0018383190062845286,0.0011359254056168638,0.00035787390858248424,-0.0005692205645198382,-0.0017026579089771086,-0.0030207417139538366,-0.00437853818048229,-0.0055181028991467315,-0.006143615152334728,-0.0060334028499951274,-0.005135027474749428,-0.0035957960657223135,-0.0017152909246477032,0.0001550815728995299,0.0017205415737641468,0.002818097833416764,0.003435662731094204,0.003675458264080887,0.0036830824590989237,0.003576262993738997,0.003404851033834472,0.003154778661613965,0.002783135022613647,0.0022555707403941723,0.0015618340963669502,0.0007066869135489346,-0.000304251669749459,-0.0014582915938123396,-0.0027009182017378322,-0.0038944835612717272,-0.0048116743665401075,-0.005192673102031972,-0.004852515669314255,-0.0037820631473426815,-0.002178266628475739,-0.0003780250758909973,0.0012712235493266924,0.002534135418355758,0.0033420153573105456,0.003762039275705926,0.003912141576784062,0.003877235670674952,0.003673320774907338,0.003271283508263272,0.002652659427679604,0.001849640998768828,0.0009357783116119651,-2.5321271800729368e-05,-0.0010274344724258088,-0.0021151780812599654,-0.003312314811890348,-0.004529987223195272,-0.00552890522776525,-0.005983030804101549,-0.005624406948364425,-0.004388243281004589,-0.0024702693096646322,-0.00026092122931031575,0.0018048891793954872,0.0033987821916589265,0.0043773662586172905,0.004766999999707887,0.0046893548675463375,0.004285537271798101,0.00367754190302712,0.002965462901111096,0.0022310047189939906,0.0015223487984279411,0.0008247662426272876,4.887056047167906e-05,-0.000930927438970198,-0.0021867678081734687,-0.003639715134933684,-0.005020732090438178,-0.005935383375017622,-0.006017973549982836,-0.005101108291775656,-0.0033093444387383678,-0.0010250689259882523,0.0012547383989655217,0.003096391774937645,0.004258420046831235,0.00472429334217851,0.0046457676290407365,0.0042425148959671505,0.003709890401008737,0.003165390444175301,0.0026358536740113975,0.0020711449719121528,0.0013714756619944799,0.0004254129201028034,-0.000839836670605116,-0.0024019135949160577,-0.004101447605703742,-0.005644546221731212,-0.006669234510249279,-0.006864610245400424,-0.006095361535382659,-0.004469176068298004,-0.0023074232159438052,-3.02323783595924e-05,0.0019870277366832805,0.003517686564864355,0.004507746396012568,0.00502543019867101,0.005178110037637084,0.005047252975926276,0.004671711008048944,0.004073654689564526,0.003292504680839454,0.002390161797147823,0.0014180126443861603,0.00037314806950827724,-0.0008107108834762762,-0.002209824803378534,-0.0038120548149148683,-0.005433857626440327,-0.006720733527232388,-0.00725859540966034,-0.006754447780002068,-0.0051917606544121826,-0.0028689603074370683,-0.0002924880904386031,0.002020303549876892,0.0037237702036017994,0.004723062264494425,0.0051269156450987965,0.0051234894754792265,0.004863161388067343,0.004412485647772091,0.003786349485845026,0.003010331006484478,0.0021503578265276435,0.0012814379759533805,0.00042336836550132195,-0.0004958286229730826,-0.0016040999905714676,-0.0029849560412505177,-0.004570432494394535,-0.006098792288624271,-0.0071761920520578455,-0.007423238657183895,-0.006637217703647872,-0.004888360554699225,-0.002501658666053423,6.458854008950911e-05,0.0023805804513132565,0.004169228280572453,0.005342636717291814,0.005952620772119192,0.006101586804947934,0.005872346387233042,0.005311562212472013,0.004460045912555571,0.0033917983242906283,0.002221600443521483,0.00106756792106172,-8.065251417685307e-06,-0.0010342943769159772,-0.0021060033694063215,-0.0032990255774746164,-0.0045712268974569484,-0.00571552298726025,-0.006408510324331363,-0.006343217579456323,-0.005380291699648988,-0.0036350814252562886,-0.0014515112940844182,0.0007235995114113892,0.0025001210390060745,0.0036614577029328134,0.004193290229699909,0.0042287062721852575,0.003952904412949019,0.003519836236780363,0.003013258544518206,0.002452057033869161,0.0018162956209359957,0.0010701648360792134,0.00017680902532059566,-0.0008820871773272414,-0.0020715782789141974,-0.003266068451346628,-0.0042427455789866,-0.004733754908413346,-0.004529504803352936,-0.003584212608152542,-0.002061300590875519,-0.0002855473931469182,0.0013767869737038017,0.0026470515159198287,0.003408820686187132,0.0037017057229771456,0.00365526327221049,0.003409851899202893,0.003063895427837483,0.0026587904158019045,0.0021878606447637327,0.0016105731046063164,0.0008655074588880344,-0.00010996492126965832,-0.0013433374628168404,-0.002777977971043937,-0.004235828545166344,-0.0054257872369087665,-0.006017336536161249,-0.005762552851340359,-0.004612548626262038,-0.002764801516196444,-0.0006080200575039076,0.0014147891222126767,0.002960172977218893,0.0038826983992162945,0.004238000670792674,0.004201860434981849,0.003957964707325803,0.0036160598133512215,0.0031956929283754173,0.002666120912543912,0.001999815314474485,0.0011976875492488727,0.00027610285952537277,-0.0007578436665243828,-0.001905293112750544,-0.003134956571745326,-0.0043287864175962434,-0.005263559203833238,-0.0056632051508552364,-0.005310141582402391,-0.004158060994109478,-0.0023785513897445552,-0.00030957177139221234,0.0016682590793743995,0.0032606299577752733,0.00432907431746871,0.004877727061594148,0.004984923918699684,0.004734277765830397,0.0041874826794441496,0.0034015486588010275,0.002457061732357325,0.0014582734448686475,0.0004937843822001367,-0.00041450287475039915,-0.0013283574509177635,-0.0023488137388935513,-0.0035259094977766322,-0.00477488408746227,-0.005855917982749518,-0.0064425138713469065,-0.006253261461072157,-0.005183006279054561,-0.0033661429494347066,-0.0011394803040443687,0.0010759304974004705,0.002916052722044152,0.004175157031741946,0.004830757114786679,0.004995792441278465,0.0048336058502803075,0.004481439137461159,0.0040148330985949245,0.0034581294514673955,0.002820766666107846,0.002127952569742573,0.0014216541541396096,0.0007292810840943716,2.2675596035224427e-05,-0.0007951278943860514,-0.0018467026133650764,-0.0031863327813396554,-0.004703731704490994,-0.006093794233030509,-0.0069361458417310905,-0.006865703843870145,-0.005752461948235846,-0.0037897824185713575,-0.0014341107687452616,0.0007789382370034299,0.0024479327179923334,0.0034398967774097993,0.0038836594781143435,0.00403877334332459,0.004122415204507684,0.00419451422971588,0.00416098970061135,0.0038795363404132196,0.003288638237504103,0.0024700192778325317,0.0016037643397055646,0.0008493363289633037,0.0002348917484539423,-0.0003685341440444915,-0.001165436480351338,-0.0022912527578511106,-0.003688925296552815,-0.0050811426573306555,-0.006060588265722875,-0.006256333249258058,-0.005494465289021667,-0.003875988974472986,-0.0017395533976266172,0.00046618174674942594,0.002336973840786214,0.003627648521729602,0.004288711940727879,0.0044267436654769655,0.004221163605914126,0.003839527849870478,0.0033826786518425227,0.002870185838535877,0.002258254527922689,0.0014746996430881195,0.0004586174927012417,-0.0008010463795412925,-0.002232175368551361,-0.003661429395690782,-0.004828355207467831,-0.0054449101212862856,-0.005293154561639825,-0.00432454290487925,-0.0027075817956703444,-0.0007863511462770549,0.0010413134716469514,0.002468288321682761,0.0033711152028118715,0.003807158269883716,0.003928785536184174,0.0038737083765721346,0.0036967776466247334,0.0033732815793521835,0.002853242133915408,0.002115716871770443,0.0011821621860723793,8.894651169962691e-05,-0.001142529243564179,-0.002496170936859113,-0.003906163139334782,-0.005198311567857564,-0.006088239349838983,-0.006266339460424608,-0.005537798144386552,-0.00393926641399183,-0.0017591782455599427,0.0005560824731257008,0.002562539140603283,0.003965526780603728,0.0046888444142619765,0.004847998182225076,0.004655364408257598,0.00430855129566253,0.003909241786016436,0.0034378777141091323,0.0027841604903015705,0.001814946287804725,0.00045281887027455426,-0.0012613874261905799,-0.0031433135837805088,-0.004888733916742027,-0.006144645174434196,-0.006610025697178675,-0.00613321454908409,-0.004767667499260169,-0.0027612066199547407,-0.000482874654199087,0.001680623642523944,0.0034180118459570326,0.0045483966958568545,0.005032730726043238,0.004952033406799316,0.004465718080950861,0.003759185265157085,0.0029871724248614227,0.002223132672807244,0.001432725622979033,0.0004923262781524362,-0.0007385908481737888,-0.0023104628650871973,-0.0040916416704811455,-0.005750127389844564,-0.006840314598894708,-0.006970597902182183,-0.005976098145228962,-0.00400800881349555,-0.0014897612514671778,0.0010405590001358526,0.0031237477325640863,0.0045174318169094166,0.005222567429611429,0.005403692213288449,0.005259481609371935,0.0049160443020938365,0.0043914557025774995,0.0036334850354824,0.002591789167358861,0.0012741891714109362,-0.00024216989492365995,-0.001837514524519661,-0.0033817951737885703,-0.004744523712959456,-0.0057822034425685145,-0.006331505806685018,-0.006238137156888694,-0.005421936554046368,-0.003941642340846461,-0.002011179636122802,5.385694885278434e-05,0.001935318782549977,0.003403829704355302,0.004357432469169175,0.004800768524169196,0.004795985783372301,0.004426271877969752,0.003789437581360321,0.0030044276097858282,0.002198833063159573,0.0014640190729007868,0.0008011504159901055,0.00010449361753495751,-0.0007848594300440112,-0.0019667981698206333,-0.0033708268158242063,-0.004719683181803403,-0.005608620262879848,-0.005674904099855923,-0.0047734395983963515,-0.0030628993692258565,-0.0009532061082864164,0.0010583163298232795,0.002576573616113963,0.0034325937101183177,0.003694226469613816,0.0035781410723318557,0.003320854034298548,0.0030727392958445803,0.0028540167231755243,0.0025759167939353096,0.002103374503502273,0.0013268182588381187,0.0002171765896647719,-0.00114890743263435,-0.0025958565679527258,-0.0038844932964964955,-0.004769350466546074,-0.005066060871921581,-0.004708682687855199,-0.003772382819774319,-0.002446132599448564,-0.0009644258959654569,0.0004678503438232917,0.0017185736546623993,0.0027238615621814123,0.0034541166412700164,0.0038860855611708572,0.004003544534322531,0.0038187939868312886,0.003385525519124555,0.0027793022086404903,0.0020513388558563318,0.0011912423623067097,0.0001384931422259186,-0.0011480368636552947,-0.0025994946554760835,-0.003989495974843931,-0.004977472193723542,-0.005237538514123993,-0.004611033308884665,-0.0031988764206913175,-0.0013385968606691215,0.000525923591620506,0.0020148977230070855,0.002937330637993938,0.0033151962712198255,0.0033115053649297264,0.003116060997219103,0.0028539862043128416,0.002553945764609333,0.002169922700074392,0.0016241807483670348,0.0008443662465600383,-0.00020849425847016203,-0.001509639536886182,-0.0029365806609945233,-0.00425426125211241,-0.005152254872204824,-0.005344072194764167,-0.004692923229960902,-0.0032948231986723803,-0.0014614730315755872,0.0003983533618015908,0.0019371575577347795,0.0029817202322396075,0.003548236520763768,0.003769356066660127,0.0037902143859261384,0.003694814784755065,0.003491056965043268,0.003141489364958993,0.002605249279125555,0.0018626711085720652,0.0009163351390687548,-0.00021697296392628093,-0.0015028652690890318,-0.0028659708486317914,-0.004160395981142804,-0.005164325545038236,-0.005623929238539878,-0.0053426906972306775,-0.004276664283558187,-0.0025813529479022006,-0.000577176332470455,0.0013543660174880267,0.002893801886026705,0.0038694948133847305,0.004274521763984842,0.004220424535789779,0.0038620627730069643,0.0033344546792940365,0.0027263980662077013,0.0020875373062626155,0.0014441883526243218,0.0008004110144326401,0.00012370788585646628,-0.0006603552137881135,-0.0016371239261154021,-0.0028336645067439195,-0.0041466723749813954,-0.005320942803901729,-0.006012257243865605,-0.005919508554164957,-0.004923841315325129,-0.00316022529697211,-0.0009799847834494424,0.001178201387177298,0.0029434322078506587,0.00412023522103666,0.004707573003510081,0.0048372880585096836,0.004677005049841499,0.004350696130366347,0.003910317435614558,0.0033574994501767933,0.002684912772327603,0.001900458913538125,0.001018435423176066,3.492286775610238e-05,-0.0010771526660888011,-0.0023319194321643442,-0.003669498641908445,-0.004916318215125158,-0.005808971419812077,-0.006084724889689671,-0.005595228886899464,-0.00437988447089248,-0.0026568741143708488,-0.0007388521004737169,0.0010767305282029381,0.0025844149104653213,0.0036857913478997033,0.004357109727928403,0.004609340475905324,0.0044733924840944,0.004012479137167259,0.0033344242300850824,0.0025724505246215333,0.0018290214262822258,0.0011146565255749604,0.00033119750303663164,-0.0006715640522466353,-0.0019845289818670704,-0.0035335817119817826,-0.0050463338023988644,-0.006123039755618154,-0.0063865213560297,-0.005640525087240672,-0.003959383638840541,-0.0016681981953684298,0.0007708525347715298,0.002908082082715437,0.004427190230072997,0.005199465023316358,0.0052713710257294745,0.004811319059423183,0.0040439085161864405,0.003186653565558684,0.00239257385354241,0.0017041370680587811,0.0010363334870240846,0.00021249078915719106,-0.0009398410701147316,-0.002462636502948606,-0.004175330641721698,-0.0056834118017335495,-0.006509147012419399,-0.006294128921410095,-0.004971397205774685,-0.0028130125536446797,-0.00032662756831200413,0.0019423251232202918,0.003601226081710733,0.0045081646490311615,0.00475045386834913,0.004538978517512034,0.004085731944403428,0.0035236865923556136,0.0028915305402484885,0.0021658943011585406,0.001304536459969687,0.0002742384668330426,-0.0009360917635254443,-0.00229886474617675,-0.003717879925909118,-0.005002159869553557,-0.005879328494723712,-0.0060708451565647924,-0.005408715045765241,-0.003932917407627631,-0.0019066885588823073,0.00026890023414001605,0.00219891560019259,0.003621770901116081,0.004460157053230003,0.004785488924042081,0.004733291744866613,0.00442517088651022,0.003936012761218397,0.003307500593103257,0.00257635345503012,0.0017804872561937015,0.000933008744057231,-7.904422889803671e-06,-0.0011286661513110782,-0.0024892453076092846,-0.004022972827082193,-0.005478500814990434,-0.00646633857697115,-0.006611433508602023,-0.00573812308054107,-0.003979496630701516,-0.0017399352061169277,0.0004738282248668356,0.002259754356520346,0.0034541493124231725,0.004130226887008429,0.0044814818106180395,0.004671588791533073,0.004740480690198323,0.004610990383457716,0.004173558124568462,0.0033805526449054543,0.0022846189873303334,0.00100248858796456,-0.00035801663294897173,-0.001745140448665183,-0.003144966863893671,-0.004510853148678866,-0.005697065190805333,-0.006456491797134773,-0.0065222003917209765,-0.005735421592563112,-0.004147060560317705,-0.0020308011692604226,0.00020366534202216662,0.002152627260978928,0.0035448758903781534,0.0042987716365836225,0.004499083525204287,0.004322866743401725,0.003958343675620677,0.0035479168789088163,0.0031617263019212936,0.0027917541650747013,0.00235794703794623,0.0017300062889208992,0.0007748743121451913,-0.0005706005803501558,-0.0022253959419539075,-0.003930176148277314,-0.0052903798818855615,-0.005900992757520087,-0.005510371235013372,-0.00414662874640317,-0.002135587511296511,1.114378407173725e-05,0.001790871370631205,0.002893820485364222,0.003288262170296384,0.003173216733370162,0.0028364467492038524,0.0025010248367872984,0.0022382590299159623,0.0019759692867495388,0.0015743814609771958,0.0009143781228804199,-4.3956562630928606e-05,-0.001241108032814289,-0.002522967505144264,-0.0036612450643423106,-0.00439501072313891,-0.004500188735802563,-0.0038731913376038496,-0.002590510015145586,-0.0009046326182543184,0.0008334755348958093,0.0022929289648239183,0.003266093694772435,0.003710735213420966,0.003721753880303158,0.003458788709003336,0.003069779235841754,0.002640551417463324,0.0021802834869055787,0.0016368777498338306,0.0009304374091704717,-5.462398034643354e-06,-0.0011822472715579343,-0.002522987658825222,-0.00385011045728399,-0.004908693335240892,-0.00543066265131547,-0.005224473272531716,-0.004253960437365273,-0.002666462256360586,-0.0007521320247306665,0.0011481024772045166,0.0027429992816566462,0.003857612404538715,0.004447069328235969,0.0045668245102285145,0.004324640153342498,0.003836963969443416,0.0031983819187611316,0.002461437271554899,0.0016249669906614336,0.000638859787941287,-0.0005623584256982143,-0.0019970116276848016,-0.0035694855700451984,-0.005041362106980011,-0.006074079658919263,-0.006340938620994151,-0.005663202094610166,-0.004102763955888916,-0.0019597110328983536,0.00032912747276710175,0.002342430882706566,0.0038042222799089206,0.004634758601058884,0.00491283804742072,0.004787444940511561,0.004396240821541195,0.003830344768578954,0.0031445508566713084,0.002379888465154404,0.001564968888710753,0.0006926472091902484,-0.00029720495642036014,-0.0014906382751262665,-0.0029202250947034363,-0.004473348704939648,-0.005857001143991631,-0.006668844980930698,-0.006561312525228225,-0.005418182658288886,-0.0034411092864860262,-0.001088283350444037,0.0011078089601532183,0.0027476690539220824,0.0036919074652152044,0.004054810295226214,0.004086993374039437,0.004023497817227998,0.003978282168667375,0.003926444866218054,0.0037606267850983344,0.0033714758883202434,0.002701765264774472,0.0017531862647894724,0.0005608192675818111,-0.0008301812078690002,-0.0023583551081782475,-0.003911010609077824,-0.005291975686362549,-0.006233507965457706,-0.006471201450651177,-0.005856162061081013,-0.004443459477250595,-0.0024992471262936296,-0.0004131718007212499,0.0014413561103207655,0.0028268850594156975,0.003684770578957363,0.004092245333853081,0.0041736497063520695,0.004025293832930742,0.0036934981765856566,0.003202075098239827,0.0025901886461932437,0.001918776224128916,0.0012345466087599142,0.0005218773910519257,-0.00030728463406535107,-0.0013558628884127741,-0.002637177958032504,-0.003989410663326897,-0.005078682862041243,-0.005513841704605822,-0.0050257530577525154,-0.0036160078817885338,-0.001588597490210381,0.0005592689211157914,0.0023333649077992543,0.0034269446211599697,0.0038067591039871586,0.0036703934895481027,0.0033104110028741186,0.0029604071538003886,0.002695499231159711,0.00242338613362686,0.0019561347059837853,0.0011208868157611728,-0.00014005488220436959,-0.0017172489682960412,-0.0033467134381412007,-0.004681845625283178,-0.005400408373787026,-0.005308944235294338,-0.004405123907111257,-0.002873583130275567,-0.0010195398792911799,0.0008277122930242034,0.0023995993282143373,0.0035331266928991757,0.004173082054894049,0.004348332786739239,0.0041421859626313475,0.0036662308453650804,0.003033982824804146,0.0023276076339149346,0.001563153743391608,0.0006775898621966365,-0.00043556643832411894,-0.0018391820379098256,-0.00345200498856684,-0.004999939341632559,-0.006070719600923213,-0.0062687175390156195,-0.005401044213662322,-0.003593845185718538,-0.0012664728912078786,0.0010307423050235976,0.0028309109105695914,0.0039066355335554154,0.004298869828161723,0.004226948454638644,0.003947532131978215,0.0036390830966264425,0.0033536463102052643,0.0030320263639523545,0.0025525533859219627,0.0017859258276620399,0.0006451873797036734,-0.0008694536924069258,-0.0026355208023606273,-0.0043992751257863815,-0.0058133241771917985,-0.006527179939765361,-0.006307715134030839,-0.005139007291580151,-0.0032476590011921713,-0.0010307334069420812,0.0010848393919775357,0.0027828080882712153,0.003930258053351239,0.004557103647360709,0.004773004751367568,0.00468342223052925,0.004353280653728336,0.0038222751226802834,0.0031356594951016583,0.002348368444891312,0.0014907903005720916,0.0005260975334717182,-0.0006513565053540781,-0.0021473963822637725,-0.003950766259021682,-0.005837223021381042,-0.007373486818391986,-0.008052518328869104,-0.007511134675187426,-0.005718324061847696,-0.0030246088442139646,-3.574989941291471e-05,0.002625747951177044,0.0045455011887253986,0.0056176596741191465,0.00598919770030183,0.005906115247657447,0.0055643756479038615,0.005045842807840813,0.0043510838495294515,0.0034758854274735376,0.0024599535662100974,0.0013721290439961816,0.00025477271492396834,-0.0009147577031756641,-0.0022004111480108074,-0.0036255734361711144,-0.005085839383552266,-0.006322833222373895,-0.006993575882376996,-0.006811718880817141,-0.005688790210224225,-0.003796738564619607,-0.0015139912127212912,0.000718044108477186,0.002552449227695257,0.003829427534502005,0.004567639435823346,0.004878029614901057,0.004864674136775642,0.004574205517519149,0.004013043569900657,0.003200819615602507,0.00220565235963046,0.0011280075687566074,4.708951429271827e-05,-0.001020891313813744,-0.002108513128253185,-0.003226123300274436,-0.004281897715783313,-0.005057668276050718,-0.0052747208796417346,-0.004724571140926128,-0.0033924703713465202,-0.001500095982690149,0.0005599243636172223,0.0023634475074437115,0.0035973990824986818,0.004142212723656417,0.004070834749419479,0.003583988513275521,0.0029220266388999953,0.0022868451022020346,0.0017881240858828597,0.0014164909475238156,0.0010485572044547124,0.0004936943796569148,-0.0004165056290693233,-0.0017209826955872263,-0.00325504451400302,-0.004661313435862617,-0.005502569379902329,-0.005437024574885591,-0.004374195881243015,-0.0025310359232829484,-0.00035619550676279656,0.0016419718561130196,0.003080182389302172,0.003812794526977156,0.003930272130148441,0.003662098056845224,0.003245872430331258,0.002828861044217072,0.0024374512704336665,0.0020073617985448106,0.0014403331416143732,0.0006544804562921484,-0.0003834903637375973,-0.0016378301861747677,-0.0029892222503709286,-0.004234711389904784,-0.005118934883006451,-0.005401668553581901,-0.00494125116645007,-0.0037558406150062953,-0.002030803531458781,-6.715483871985465e-05,0.0018058769474528407,0.0033180781688302045,0.004314757128556694,0.00476889861307514,0.004754045506194883,0.0043960887294787355,0.0038249115672019185,0.003139351904476881,0.002388007778666627,0.0015633725420015029,0.000610761816931542,-0.0005409453962203274,-0.00192426464723291,-0.0034693455428274084,-0.004966874893953331,-0.006094536593241905,-0.006516324638635649,-0.006019068167624472,-0.004618527195158568,-0.002575236166198226,-0.000307691594116775,0.0017532324075578874,0.0032973790161966617,0.004200913301673315,0.0045123277517742965,0.004385576633570571,0.0040017470297175825,0.003511102005184603,0.0030062804104450344,0.00251909968779873,0.002026750791733958,0.001459626359260323,0.000715897654535671,-0.00030479466711963053,-0.0016441901876692684,-0.0032221231109934496,-0.004804533835453663,-0.006038885858407292,-0.006562291316103804,-0.006142386400663227,-0.004782532262714184,-0.002735108834843768,-0.0004147548651942538,0.001744111288811212,0.003417711971379851,0.004459648865321061,0.004892086098003372,0.004846094612695629,0.004490362419477728,0.003977848745202176,0.003418809387821373,0.002872377137991701,0.002345805825781815,0.0017969913228999858,0.0011434496658393213,0.0002843163970824332,-0.0008601656422399226,-0.002295534293527889,-0.003903994221627756,-0.005429044869300568,-0.0065213290120365325,-0.006848028188118387,-0.006228054797998215,-0.004726239875211691,-0.0026489099145514377,-0.0004337166711563058,0.001512340811222541,0.002943863340058238,0.003816980260315528,0.004234602383482464,0.004344566694310295,0.004254353148831543,0.0040023945121356415,0.003582391183479257,0.002984065853890446,0.002212950222874661,0.0012805101680206164,0.00018897172519725524,-0.0010563272640540782,-0.002399803875161312,-0.0036864487847428594,-0.004662335457742112,-0.005051862425871674,-0.0046826750221071,-0.0035843723272324544,-0.0019934895720808395,-0.00025600587970871686,0.0013132256280109242,0.002529818359862974,0.0033496591465841602,0.003806767389763901,0.003940866133895184,0.0037686473116114636,0.003305961057433604,0.0026034309752951033,0.0017505607334491772,0.0008360728381060828,-0.00010425066059692315,-0.0011031260136692032,-0.0022149738211512493,-0.0034290656473746073,-0.004601822054166493,-0.005464163016172103,-0.005715374699060998,-0.005158585085092246,-0.0038037238928047817,-0.0018819895433378963,0.00023262382306965185,0.002150626880154441,0.0035827950602343945,0.004402140608661299,0.004642531275621564,0.004450311243852971,0.004015472288091398,0.003506195388429941,0.0030220149001154674,0.002572269755454544,0.0020809906812500178,0.001417205903304705,0.00044799258005807506,-0.000893943165382318,-0.002547036710323751,-0.004290758977650414,-0.005775728012293192,-0.00662048533650956,-0.006546673242509342,-0.005494652485639094,-0.003659899813547028,-0.001425481474321576,0.0007793302548072577,0.002623467842081699,0.003951191465725345,0.004764163746858583,0.0051381944550390485,0.005139438231278269,0.004794789449842726,0.004124110892023306,0.003192282095249384,0.0021241084066767986,0.0010570344697490325,6.16008167972946e-05,-0.0009055817319207815,-0.0019667077030332196,-0.0032130608586212013,-0.004586533596271966,-0.005834511178248066,-0.006581294465140476,-0.006489435911573896,-0.005427504584065799,-0.0035520634781790773,-0.0012572614357021263,0.0009811514271548646,0.0027836482183681626,0.0039767922908030195,0.004591806448221252,0.004775414449040229,0.004680641683550797,0.004401774743075221,0.003975360972837351,0.0034210839960861434,0.0027750478399910603,0.0020838362031072723,0.0013652681805952738,0.0005731074352691582,-0.0003937203656902862,-0.00162477516847404,-0.0031042621313121686,-0.004648260164419592,-0.0059248275569481045,-0.00656509406369867,-0.006317075425599913,-0.005161888686739203,-0.0033287840249104786,-0.0012026052193056303,0.0008228279883358504,0.0024684814839948796,0.0036181772065137065,0.004288017207980916,0.004555736196741064,0.004499559460966634,0.004176530070280467,0.0036369816133358045,0.0029467618498102604,0.0021867556243069636,0.0014203871935486892,0.0006498800206418948,-0.00019954185330253152,-0.0012371938023547108,-0.002512371859546898,-0.003918409692184888,-0.00516620447401775,-0.0058697102109367,-0.005717334776238226,-0.004638116981593328,-0.0028605198481497576,-0.0008206972522607687,0.0010303292492485887,0.002409182190315109,0.0032722355933780256,0.0037514836316316466,0.004013014679100764,0.004136715234186361,0.004088810148714143,0.003787813349172343,0.0031998953638568816,0.0023855182307030744,0.0014627339008972712,0.0005198795133611939,-0.00044844277572450575,-0.0015234651940300241,-0.0027650585325601964,-0.004101179910013401,-0.005288125631002269,-0.005983220285851347,-0.005897246395633136,-0.004939999240055146,-0.003275037693266512,-0.0012547305899667845,0.0007237402810717454,0.0023602196325641345,0.0035206086106626374,0.004213429418134377,0.004511132701963643,0.004479823881861245,0.004161946193485429,0.0036074569206541885,0.0029070136834182915,0.0021784564484830338,0.0014993993668740186,0.0008333546927764782,1.9868627937560924e-05,-0.0011339106851045075,-0.0026951240994560724,-0.004477180208674936,-0.006040412297051389,-0.006850626071550639,-0.006524413231426193,-0.00502711566097463,-0.002709916584577068,-0.00016443271277080272,0.0020246539244474625,0.0034990375593319514,0.004214979525973661,0.004375565349106219,0.0042649910630075585,0.004085833123634076,0.0038842504002972096,0.003586028280014514,0.003097135100626339,0.0023889161079143012,0.0015100612148384466,0.0005280439952919422,-0.0005413759868113546,-0.0017472874434445464,-0.0031339249431463715,-0.004630720044462256,-0.005986832257373281,-0.0068170696680768875,-0.006756441268400498,-0.005645344707904846,-0.0036389645929135587,-0.0011735252978000198,0.0011973377955879236,0.003012923498916081,0.004060523588215324,0.004409556356895712,0.004323574404586717,0.004105461727618207,0.003954639041894803,0.0038994580469075275,0.003824620319210245,0.003564932134358956,0.003006899943885969,0.0021427293256592074,0.001054086944134989,-0.00015351486886153138,-0.0014154763290206871,-0.0027238952127686734,-0.004079840299459217,-0.005413430013581989,-0.006531891569558865,-0.007145745332180844,-0.0069763369316940965,-0.005892763092690121,-0.004000737151982014,-0.0016294577423493703,0.0007800900463957117,0.0028287279686002175,0.004280294606385171,0.005099500646882123,0.005401860940490009,0.005354756000456958,0.005087992713904395,0.004658379645801402,0.004074940448362629,0.003353051712123657,0.0025504551160427367,0.0017539480818489915,0.0010218100876570884,0.0003218336111417626,-0.0004829652597755318,-0.0015700350188210923,-0.0030315345197222967,-0.004753881091726966,-0.006385767005803844,-0.00744012030629527,-0.007497961729069181,-0.006412155688322652,-0.004396432298261041,-0.0019441945268033017,0.0003820785153060137,0.0021773509242213763,0.003318912356188547,0.003936365981089784,0.0042637166352927115,0.004471905855195533,0.004579460303967666,0.004481765231173715,0.004063087958889306,0.003306025595316793,0.002320236900041077,0.0012718919906699161,0.00026847474415593256,-0.0007107441242379251,-0.001777879255809258,-0.0030091314169151924,-0.004313042154848644,-0.005393496050087921,-0.005850826462076497,-0.005375042588110439,-0.0039220007244895995,-0.001769078213995193,0.0005827095855891857,0.002605758814684278,0.003938638612218944,0.004485156710508682,0.004389645824295802,0.003922182713044392,0.003341652825757522,0.0027990031010905548,0.002310185836835196,0.0017909106092200693,0.0011221778877947308,0.00021332346453627557,-0.0009572325170096971,-0.0023259467025100395,-0.003745780666695113,-0.005001699719290241,-0.0058451215629779655,-0.006052645091946328,-0.005498989892883558,-0.004213959845203846,-0.0023897091911613934,-0.00032745493858710346,0.0016526023415854864,0.0032949310481648754,0.00445237531160763,0.005084911408391648,0.005232718107169212,0.0049869993616512166,0.0044680470188604125,0.003803530341619495,0.003096532069813972,0.002385766230140739,0.0016188313519750193,0.0006665695900320561,-0.0006080824683389,-0.0022461805859201175,-0.004105288811537615,-0.00584706597760686,-0.007028265491666963,-0.007267291237699189,-0.006408871477421896,-0.004600664345555689,-0.0022391419749493158,0.00018590258223769035,0.0022646584856796104,0.0037737361358905867,0.004680153848255859,0.005069090097322577,0.005055321832997438,0.004729246535987981,0.004152434504910251,0.0033828064072499355,0.0024954673924510277,0.00157504479546946,0.0006795710929519208,-0.00019966715557713434,-0.0011468141398623998,-0.002274561263277337,-0.0036307412914751507,-0.005106152760132367,-0.006407928192046905,-0.007136655997850209,-0.00694509163252104,-0.0057005392711697855,-0.003563422353831731,-0.0009402057192833927,0.0016621257534676062,0.003805851508951305,0.005241456922873238,0.005936748001214446,0.0060234785338482855,0.005701597919804709,0.005149786216018011,0.0044771486698458275,0.0037248516099458173,0.0029011436844512367,0.0020193816833816167,0.001111589469349505,0.00020848855253569236,-0.0006974449927321866,-0.0016711818749653444,-0.0028059457243718444,-0.004144786980537151,-0.005592427537413307,-0.0068795377842517675,-0.007624232692704158,-0.007481123465448268,-0.006308599743413886,-0.004261765501139738,-0.0017525316051938667,0.0007082050471957076,0.0027048856215421066,0.00404915745537617,0.00479058658506252,0.005117838374625348,0.0052190252576494135,0.00518256079053928,0.004985383754321852,0.004557979483939522,0.003870545229850199,0.002977906434649738,0.0019941656985703934,0.0010184330843291396,6.722250990423681e-05,-0.0009344153732002657,-0.0020888929746767245,-0.003422935073262772,-0.004807738247141721,-0.005957801972273357,-0.006523817116687007,-0.0062423346431557235,-0.005068046097611235,-0.003216660179517585,-0.0010907843243391554,0.000875472904865763,0.002373470073979137,0.003301591294092353,0.003741107590047219,0.003856432313220088,0.003787160029304385,0.003593187148253699,0.003271796053157216,0.0028158153619368908,0.0022576333207160793,0.0016605145836024837,0.0010637581543234517,0.0004289487916150171,-0.0003592627468693738,-0.0014190131992953795,-0.0027583235651522306,-0.004194741102989229,-0.0053719289314786405,-0.00588626705706734,-0.005468838828093822,-0.004126491770364079,-0.002160070760132155,-4.3901861610588146e-05,0.0017712736593013209,0.0030281341281779106,0.003721082147155727,0.004024777592021104,0.004146553079670479,0.004193520049514257,0.0041287036130209665,0.0038316782132353875,0.003213394407262196,0.0023027161013048324,0.0012442185317439525,0.0002089904829453403,-0.0007182176758714037,-0.0015924479685722871,-0.002556608941067424,-0.0037097296729898623,-0.004979938597266064,-0.006091601286706615,-0.006660471397003863,-0.006370333047690783,-0.00513301894628619,-0.0031440312257156435,-0.0008083854429129463,0.0014171925836245027,0.0031824748092076625,0.0043320733169265125,0.004899996762202339,0.0050346371468571825,0.004903749869595549,0.004625020425137394,0.004244013052433476,0.003753989708265954,0.00313451417950343,0.0023827663755313184,0.0015208710867483737,0.0005789062488563018,-0.0004304980843737074,-0.001522317819985921,-0.002717424888881017,-0.0039930631473439095,-0.00523328738939788,-0.006217844626711372,-0.006673880895167537,-0.006379193689830247,-0.005269233409117136,-0.003488891216785967,-0.0013559133918456306,0.0007488097160412864,0.0025091499554584845,0.0037590553196646557,0.004493357126897812,0.004814140432654592,0.004851653453676408,0.004701675305922537,0.004403064532138241,0.00395409769063007,0.0033474095216571792,0.0025979592246878017,0.0017467346775685562,0.0008394465669566774,-0.00010420725622657453,-0.0011070667910978466,-0.0022181718517151165,-0.0034623277849596405,-0.0047772095706640795,-0.005976034255865905,-0.00677116180385187,-0.006866562164725715,-0.006085105198903877,-0.00446660575581189,-0.002279995474226449,6.193651384127916e-05,0.0021438843231159892,0.0036785645523320955,0.004572981735141492,0.004913381125737406,0.004887706652055363,0.004685949577865112,0.00442277331228889,0.0041134855211482566,0.003707158335474304,0.0031504698467412647,0.0024394542884860343,0.0016254488842099152,0.0007725177114403725,-0.00010181945117798943,-0.0010549450456808199,-0.0021844702633750574,-0.003538820122151459,-0.00502305253625546,-0.006365026708475014,-0.007181426352266379,-0.007127385623111454,-0.006059455949533483,-0.004124465962759836,-0.0017213732358748674,0.0006485518379045472,0.0025672475525424145,0.003829251690558635,0.00445995261949242,0.004632017680181376,0.004541173046190614,0.004313234269779018,0.00398267865589348,0.0035331169605702824,0.002954114038630923,0.0022675809096200598,0.0015078199845946503,0.0006792778452789175,-0.00026314837032915324,-0.0013802002331823305,-0.0026702995924720117,-0.003997548937029299,-0.005085927158132013,-0.005606698977269743,-0.005325714806811586,-0.004229837351484541,-0.0025541769855989237,-0.0006879066578773809,0.0009899410883098443,0.0022523325083718044,0.0030700053593249125,0.0035505725552155572,0.003824152575469044,0.003952394105437527,0.003910306124563689,0.003634923371751825,0.0030912738967567768,0.0023030515635870854,0.0013309240838331958,0.00022578929875249665,-0.0009965492462273825,-0.00233172489663373,-0.003727430165186178,-0.0050332692946764524,-0.006004446534960892,-0.00637175303536619,-0.005948051366857158,-0.004716842244884601,-0.0028568226499593482,-0.0006906644667833293,0.0014162467886706075,0.0031617318052528827,0.004376317663259385,0.00503598151432949,0.005223456998055249,0.0050640266802268455,0.004669197573103041,0.004111874849163688,0.0034342274528289473,0.002668189353056942,0.0018433948112715134,0.0009728237408623963,3.1294265206360144e-05,-0.0010440358073049187,-0.0023125940878929753,-0.003760571221026213,-0.005242813614761994,-0.006481107095708301,-0.0071368808873762905,-0.006934187284759414,-0.005777660553667527,-0.0038093213976356337,-0.0013771160872467479,0.0010710910846797668,0.0031237017333698904,0.004519202710848408,0.005198292401583415,0.005281030469233265,0.004985207431976443,0.004525391007273429,0.004038262867659579,0.0035625547075095513,0.0030686737472143733,0.0025051506811607175,0.0018263497856690336,0.0009901280888870072,-5.4449660530075765e-05,-0.001356884985923764,-0.0029182867045508118,-0.0046291739927725485,-0.006238649895548913,-0.0073941615332603645,-0.007752091829950514,-0.00711323112937556,-0.00551546768729395,-0.003235308511535457,-0.0006983311254132557,0.0016558360959689836,0.0034941021200843693,0.004655977064246364,0.00515769260831565,0.0051489063356817385,0.004841882717337132,0.004432611162033183,0.004036525634472965,0.003663451173265716,0.00324473834441734,0.0026985972302139595,0.001994271300455881,0.0011739374172864865,0.0003187283276993238,-0.000515932747422542,-0.0013477444519379037,-0.0022586350942443044,-0.0033255389404918644,-0.004527334757834621,-0.005686929496193105,-0.00649644807800924,-0.006630043979127838,-0.00589455648573607,-0.00433736734660109,-0.00224822168203335,-5.0659955266484286e-05,0.0018589499501391763,0.003241904816404708,0.004059436556901306,0.0044225951396636085,0.004492495336778365,0.0043899991889859,0.004157388692634055,0.0037796411670089057,0.0032392686860167096,0.0025623462487922135,0.0018219045734999524,0.0010943883284321592,0.00039927138948411264,-0.0003307875236298211,-0.0012159463048147063,-0.0023383249988439586,-0.003643648410436115,-0.004900413798436122,-0.005756465179873785,-0.005878396872909107,-0.0051072712536861745,-0.003547854855060856,-0.0015407802291344391,0.00046996022744737935,0.0021060126835667414,0.0031765809403059035,0.003701315811960557,0.003838798859465601,0.003772523301751732,0.00361929926544837,0.003400901879053192,0.0030767071459847943,0.0026002201112024287,0.00195599202291589,0.0011568356796481986,0.00021630566778688267,-0.0008677284729474761,-0.0020916330686399586,-0.0033929612293936186,-0.004605063562543617,-0.005465542871410035,-0.005696336621739023,-0.005125500533175368,-0.0037861448734786097,-0.0019325163296137191,4.35489295437166e-05,0.0017577748101929532,0.0029691705603646606,0.0036415695801478264,0.003906171098342212,0.003952166550446267,0.00390960310964138,0.0037901793382980093,0.003514185869420137,0.0029957878108905355,0.0022211178488661595,0.0012626798465482426,0.00022467591687062188,-0.0008310901051580258,-0.0019130935892634894,-0.0030526562584709898,-0.004213833724213546,-0.0052325440315075696,-0.005842143337265273,-0.0057833152219685015,-0.0049360478243722465,-0.0033947248102497267,-0.0014436753121871405,0.0005496630230252865,0.0022647708873117347,0.0035188909127694037,0.004284992160900702,0.004642862199339858,0.004700466083642727,0.004532106556319021,0.004163399528469537,0.003600014064023522,0.0028686053858728356,0.002033417230406142,0.0011728441129077358,0.0003313290805119273,-0.0005173900050133122,-0.0014623785108931928,-0.0025949929614093705,-0.003922130116028452,-0.005302354176984928,-0.006449328092486203,-0.00701484845327884,-0.006721399515272099,-0.0054852774244192205,-0.003471994098901856,-0.0010555026396947612,0.0013037019888250216,0.0032107337033581663,0.004455653020831077,0.005052428969837729,0.005185659694799926,0.005093926542857223,0.0049468632243625105,0.004775073143433154,0.004484790725751329,0.003944038062947717,0.0030872979978217997,0.001975005311232031,0.0007709087666734448,-0.0003495485761459616,-0.0013027273812044827,-0.002144592151300617,-0.003026417158578075,-0.004077667943596464,-0.005282554708847942,-0.006426716048145508,-0.007155560116450577,-0.007124026554834526,-0.0061635469842308156,-0.0043782395854316,-0.0021188044594308425,0.00015210338821775417,0.002034404400202934,0.0033222373056900007,0.004038824679550758,0.004371148248229214,0.004545913907654541,0.004709591536420397,0.004867792210510258,0.00490784245835198,0.004686111813132044,0.004127527677166123,0.0032777378614393853,0.0022761008387039558,0.0012670516545603369,0.0003084634415316292,-0.0006596656889044844,-0.0017599114666302467,-0.003065402342977675,-0.004500316018969469,-0.005818754334688989,-0.006682812487787532,-0.0068018164286172585,-0.006059121811872289,-0.004562178058701496,-0.002597352042807265,-0.000521909864549054,0.0013491333843807087,0.0028134495991417466,0.00379308842268701,0.0043030152338320825,0.004407213404339805,0.0041877884709492965,0.0037343765484481074,0.003143523932064895,0.0025115093018372005,0.0019116277038722998,0.0013622548737764989,0.0008057606223007732,0.00012182739805154883,-0.0008138388121910563,-0.0020413347034073186,-0.003442448010134721,-0.004731428503359142,-0.005535644727232192,-0.005541533232855942,-0.004637530137919693,-0.0029786727183578237,-0.0009359820417030882,0.0010446729313827916,0.002603191133814027,0.0035702252452768177,0.0039777552425371565,0.003987625022336138,0.0037869985604023944,0.0035057600063877177,0.003188750339746492,0.0028204701212979437,0.002370854323336097,0.0018237880250828735,0.0011697038209150354,0.0003774926919526832,-0.000616022138234114,-0.0018692304083526702,-0.003359178514170828,-0.004912919853900908,-0.0062052718757493125,-0.006850670852057615,-0.006559949935071908,-0.005284824773196362,-0.0032669483610648364,-0.0009543215862455182,0.0011783058828241312,0.0028119624711608732,0.003873611592474049,0.004493162137737287,0.004864265163404007,0.005099297950993354,0.00516611551147018,0.0049374785272808495,0.004309747467932682,0.0033037718218242567,0.0020766092921069516,0.0008363318003707837,-0.00028046300178131094,-0.001283159397647634,-0.0022998297899559043,-0.0034604495599501565,-0.004761433449191173,-0.005998118747717853,-0.006815785513089102,-0.006861930696915921,-0.005961430517058737,-0.004218871218564486,-0.0019911205752154134,0.0002548534054989485,0.0021234030365059452,0.0034210436226044475,0.004181251611520517,0.00458515700423958,0.0048288400986763015,0.005007869676759383,0.005075818327272337,0.004893267603097929,0.004335249302853301,0.0033922677607743233,0.0022023083507042517,0.0009902724347978862,-5.311101885834674e-05,-0.000881094522898602,-0.0016191307806167992,-0.0024855546340817975,-0.0036416199971443497,-0.005052933270429863,-0.006444905327510219,-0.0073882182444532235,-0.0074801674251496544,-0.0065327314641354245,-0.004670719741313523,-0.002289114865732646,0.00010790011179529169,0.002103966760848103,0.0035070518986625807,0.004365637593247269,0.004870914502644163,0.005209847197911467,0.0054532719120581365,0.005534960820420083,0.005321393746659254,0.004721448864478485,0.003766914187136583,0.0026151400111825997,0.0014712182575832545,0.000474370712677851,-0.0003832160308972246,-0.0012510625066409656,-0.0023212590046388006,-0.0036837726315636227,-0.005217626693246541,-0.006588030482504931,-0.007365200902727206,-0.007211669572458504,-0.006042289319550432,-0.004072711423940383,-0.0017326249218278292,0.0005068093016351461,0.0023003520429723846,0.0035128290604101303,0.0041964969976181704,0.004497193885501009,0.0045537992916233686,0.004443026037376465,0.004182332365616522,0.0037659904427872356,0.0031960980614221942,0.002485472392778949,0.0016377735483577543,0.0006309261078026118,-0.0005698878886198125,-0.00196354190402427,-0.0034517629038799237,-0.004808894045395013,-0.005720257236713881,-0.005891033281540162,-0.005179945295968907,-0.003685055215150087,-0.0017270027041833501,0.00026840695948309855,0.0019282914424476078,0.003051553768771017,0.0036372328719178814,0.0038243358634545994,0.003788214832876597,0.0036508739313697003,0.0034448062837481594,0.0031359748496419563,0.002679351423856862,0.0020658933371833763,0.0013302955551187782,0.0005178327858618972,-0.0003616373436520372,-0.001352345262153331,-0.0025179992899472237,-0.003862722771075471,-0.005252926464749822,-0.006399372565177254,-0.0069340728776792915,-0.006561356422088103,-0.005209300080376215,-0.003094964901901282,-0.0006587849043525828,0.0016037756999654823,0.0033277218016204728,0.004388895425696792,0.004892538092900014,0.005061326128519395,0.005094041668780656,0.005071346227271607,0.004947754124898411,0.0046159187070085594,0.003993362906931667,0.003079556870623568,0.0019567546883750616,0.0007420834591690105,-0.00047685090340774956,-0.0016837091054041197,-0.00292461235091994,-0.004246238404785302,-0.005609850643282094,-0.006833237390732022,-0.007608837427705435,-0.007609247974267008,-0.006637729143841164,-0.0047455359132729065,-0.002247472466476124,0.0003799381577518212,0.0026690279133155933,0.004315998129913557,0.005249166790828133,0.005590171844967091,0.0055443979828395315,0.00528687702382708,0.004900068301948278,0.0043817209160835245,0.003700487163028205,0.002856301168326258,0.0019079019689683227,0.0009530060798546285,7.418438065303094e-05,-0.0007164107722867772,-0.0014963885018862842,-0.0023953123127946254,-0.0035091277657999225,-0.004807150008596695,-0.006085401605322229,-0.007004705787416717,-0.007210822949491153,-0.00648670575304661,-0.004861993497694611,-0.002621381438158384,-0.00020486559092460405,0.0019516964434662955,0.0035604545368938347,0.004548293024388549,0.005026618908364545,0.005190766345648057,0.005205179033698443,0.005130909034741312,0.004924042405338874,0.004493694407728588,0.0037795477035977793,0.0028056264448908896,0.0016850648780063564,0.0005755703738303851,-0.00039379774209239967,-0.0011902482981795556,-0.0019013344834608204,-0.0026906748496343244,-0.0036934471605287087,-0.004900047111172666,-0.006097306431213898,-0.006916681878254708,-0.006981896305864831,-0.006087086291537449,-0.0043111140367532025,-0.0020040642742471747,0.00034869029147275964,0.002313880469688433,0.0036554884557278376,0.004373929021358169,0.004636189472575759,0.004649029331257719,0.004548530329774807,0.004359170612519152,0.004029562404016298,0.003507922931319485,0.002802378011612837,0.0019871266844497235,0.0011538609349639683,0.00034490783221984944,-0.00048189912635939977,-0.0014245955318113487,-0.002552427790296244,-0.0038125417779085466,-0.004990710067205528,-0.005765446866735132,-0.005840981280448987,-0.005091838129197587,-0.003637003151962635,-0.0017988827330333891,3.088620051963848e-05,0.0015443649257949597,0.0026098348963075856,0.0032665835161281446,0.003642298094326489,0.0038514290699142957,0.003933169074316413,0.003855544791085688,0.0035690130033318454,0.0030643956324693435,0.002392278202865969,0.0016313009814811895,0.0008302607836690496,-3.12721895433329e-05,-0.0010294295119609375,-0.0022287670877658124,-0.0035967882774325033,-0.004953420955012781,-0.005995908477516574,-0.006400991430355489,-0.00596097135259477,-0.004684580396095666,-0.002806780031466594,-0.0007002108656385036,0.0012641571850114507,0.0028346312887135732,0.0039221988167531365,0.004565626957149762,0.0048568487901159835,0.004876976651037974,0.004672840245421229,0.004270598481334358,0.0037005116536727818,0.0030073086590168595,0.0022379134602575936,0.0014169104135379799,0.000528277509313724,-0.0004813287834492334,-0.0016718750752454956,-0.00305804922427385,-0.00455579269069954,-0.005956869443464493,-0.006957964413986332,-0.007248753944084569,-0.0066302556472093155,-0.005110831111022484,-0.00293063275855472,-0.000496806532558315,0.0017463789478537523,0.0034587021495341534,0.004498409569874523,0.004932839493427769,0.004965296184594779,0.004816438028047931,0.004619740665675148,0.004381655040004154,0.00401998454703658,0.0034489638737881375,0.002653762841252108,0.001706995868619516,0.0007191747240251766,-0.0002410087402762944,-0.0011993702092967893,-0.002258951406729791,-0.0035123073456374398,-0.004930414276333305,-0.006299410055035926,-0.007258431096243497,-0.0074365842506674065,-0.006625189318175852,-0.004892899253115193,-0.002578063855677797,-0.0001600201763342306,0.0019237895355525276,0.00342421606882193,0.00432667623745345,0.004789712725756954,0.00502033826354074,0.005154699643487774,0.005201558714249864,0.005068429685289399,0.00464526863453373,0.0038915006704624885,0.0028744206716369573,0.0017383333608683924,0.0006250333362536596,-0.0004057261063107286,-0.0014057842676846175,-0.00249351334603973,-0.0037508798938720046,-0.005117796423056638,-0.006351595904248086,-0.007091965816405594,-0.007012816548866245,-0.005985666110796342,-0.004162967521006109,-0.0019302858523418472,0.00024916446698637965,0.0020134418822234657,0.0032123106244548345,0.003903812418138872,0.004258411718797385,0.0044373630609132325,0.004513452293922942,0.004466057567396094,0.004234154839800852,0.00377975440195446,0.0031169328888223467,0.002292683852303672,0.0013422502954792822,0.00025913501555262507,-0.0009910645329818612,-0.0024144811836575605,-0.003922753417119297,-0.005302003699286336,-0.00624897100470858,-0.006471650209892841,-0.005813376099600074,-0.0043393739966482055,-0.0023374068511229523,-0.0002246748011061169,0.0016000545816185474,0.0028921491070056588,0.003622802260802271,0.00394058678393603,0.004056677394758247,0.004117113269500734,0.004131725209571838,0.003995409896813911,0.00358145593944396,0.002842992136049792,0.0018552190867410685,0.0007707007326842329,-0.00028148932866883466,-0.001281447723936186,-0.002322781561482181,-0.0035203986395386916,-0.0048731916073104405,-0.006172280282400602,-0.007028522282166138,-0.007025589623134518,-0.005926413107417379,-0.0038210082444327153,-0.0011298411007263764,0.0015460724752896073,0.0036560153389012806,0.004899666575391008,0.005304570200428333,0.00515318704792557,0.004806143237362517,0.004516650122062195,0.004329560465712126,0.004107918278620488,0.003657818636010358,0.00286963686590394,0.001790114766768355,0.0005864080300632061,-0.0005683512249806535,-0.0016090600178334457,-0.00261269237006542,-0.0037222354566383764,-0.005001625906515737,-0.006313724892364725,-0.007310373482856524,-0.007562245003965519,-0.006769312249387245,-0.004935342496875632,-0.0024033207185837056,0.0002722252793393999,0.0025468988733565855,0.00408570253602182,0.004846717014538301,0.0050266476513559245,0.004916484532251865,0.0047495194663798816,0.004612465523839131,0.0044484071520999105,0.004132071426290176,0.0035656758933667074,0.002740578294890702,0.0017352794373900568,0.000658941176294452,-0.0004195363272128141,-0.0015089708382434292,-0.0026706201684260295,-0.003938135341014032,-0.005228984944709096,-0.006309774272825293,-0.006855392625176848,-0.00658687344678325,-0.005417938885765782,-0.0035252495276521835,-0.0012975590357139995,0.0008110749360584213,0.0024466792613118235,0.0034595376300855614,0.003909025985146077,0.003984867029566759,0.003895642708193733,0.0037792431652444065,0.003668379003759784,0.003512607220830201,0.0032323739285157055,0.0027706697089703424,0.002116086242076255,0.0012917118401282917,0.00032647908886446946,-0.0007630531317483421,-0.0019598782901711752,-0.003205829148352882,-0.004362127422963298,-0.005209537421061484,-0.005507957270395703,-0.005097028764509547,-0.003986051762966435,-0.0023782833416664713,-0.0006077315656045934,0.000983627801723272,0.002165900091971614,0.0028794915786521623,0.00321009755987479,0.003306011442678206,0.0032902043430144126,0.0032124009167570477,0.003054084564171284,0.002765999221205893,0.002304715120140367,0.0016471459683560137,0.0007866026213794005,-0.00026931574857592077,-0.0014829323523281597,-0.0027579366356975544,-0.003923095152399238,-0.00475376285761076,-0.00503496133661839,-0.004640986498540686,-0.0035919472217625648,-0.0020580215419150898,-0.0003098874555269891,0.0013603811177075032,0.0027147663180554582,0.003616640870914749,0.004041407577529065,0.004054879934570675,0.003771363452002598,0.003307217066235288,0.0027457584554330308,0.0021236508546353308,0.0014383555250945517,0.0006669614014231719,-0.00021465444538063224,-0.0012162410794944799,-0.002316931431345961,-0.0034448080676772403,-0.004460178763737659,-0.005162008299912035,-0.005333727488659758,-0.004822625999357862,-0.0036198095133105415,-0.0018966348510472855,3.0188526646776485e-05,0.0017972700939540098,0.0031156303756498336,0.0038594646528783833,0.004082386847868603,0.003957337994037123,0.0036761719389304874,0.003364653974371532,0.0030539158038091338,0.0027087915521250253,0.0022762075067102425,0.001711587982189737,0.0009714974590288544,-2.495996520781186e-07,-0.00125352381336687,-0.0027687945828837462,-0.0043867106886013255,-0.0057930618261452,-0.006598801350152339,-0.006493468435806045,-0.005393873526397416,-0.003501464266757397,-0.001230861441965653,0.0009533896000439111,0.0027043790042661107,0.003881932360666718,0.004532610650274537,0.0047927521386789095,0.004782284500902692,0.0045494667945546585,0.0040865105829420885,0.0033898866745896055,0.002514017646168105,0.0015758391501067544,0.0007028695497560148,-4.331147579711062e-05,-0.0007163898849499104,-0.0014670488059457878,-0.0024539345007081655,-0.0037240814934622595,-0.005128491003935734,-0.006329580099773328,-0.0069140186459876775,-0.006566833799833245,-0.005222893270177193,-0.0031166746715642238,-0.0007016408581219109,0.0015221060524568415,0.0031883240204951457,0.004170845683200303,0.004575570586962917,0.004636434009168679,0.00457701654968947,0.004508369725145193,0.004406744471449227,0.0041689184280702864,0.003702924503081075,0.0029981421455005652,0.002135616728807456,0.001236038137018724,0.00037945054195370596,-0.0004514372177585348,-0.001363798888744904,-0.0024788379676037335,-0.0038256935438600636,-0.0052670269572128075,-0.006506989720317789,-0.007189435626122241,-0.00704301758449918,-0.006000714168117226,-0.00423312551735395,-0.0020812883764552196,7.244111575642667e-05,0.0019291289893716712,0.003338478503660175,0.004288360337335267,0.004843281799572843,0.005076195155048992,0.005030195424247309,0.004721202593971012,0.004167100069381504,0.0034167497266881655,0.002557281749200958,0.0016936983259060203,0.0009108234485545354,0.0002364461859427115,-0.00037548933785269353,-0.0010292125876534986,-0.0018372673206810456,-0.002849506959388024,-0.003990338690429377,-0.005042193270964506,-0.005701016320039712,-0.005693389088035116,-0.004902587551386121,-0.003434361434278003,-0.0015819222871138235,0.00029155228820850154,0.0018871064709179498,0.0030520230964812996,0.003779959848208893,0.004149460306400451,0.004249279240685784,0.004133426938827577,0.0038203807130989973,0.0033210202641202266,0.002665868477517421,0.0019087390696745801,0.001103628762184577,0.0002721255764106105,-0.0006116647183898255,-0.001598789141012687,-0.002708037592695344,-0.0038625338283376828,-0.00486407671187299,-0.005437165238208329,-0.0053364842493890535,-0.004468061443342093,-0.0029562022815217822,-0.0011126889707127067,0.0006811054764790794,0.0021190239248988583,0.0030680434653792598,0.0035747477249066725,0.00378817976298158,0.0038505909065902682,0.003818859119996983,0.0036549322868149135,0.0032799950308484652,0.0026499019792072106,0.0018000377949382155,0.0008311599272116123,-0.0001510371478188118,-0.0010974851365375452,-0.0020311864064756174,-0.003000053283263162,-0.003995283397469138,-0.004892181005954576,-0.005461784019289743,-0.005458698668820107,-0.004740779923478215,-0.0033532920610873374,-0.0015292449692043135,0.0003943618021850693,0.0020985327894598124,0.0033800718264186845,0.004183224728853399,0.004564795991962287,0.004627331500568241,0.004463120724716532,0.004133101150498078,0.0036763298966254066,0.003127373403469705,0.002520075353672307,0.0018720456685622064,0.0011623379574663775,0.0003237161239020939,-0.0007341131566599849,-0.0020703826260231283,-0.0036484689589547726,-0.005294162741280161,-0.006708513541864622,-0.007545488874041323,-0.0075314423844956326,-0.00657547972905159,-0.004816374611889258,-0.0025796156455096413,-0.0002636473510628255,0.0017899561751516329,0.003383553177438838,0.004477053816797402,0.005138144892897699,0.005467705774072913,0.005541941721537623,0.0053937572090388694,0.0050296834870697535,0.004460648458828032,0.003722853064393228,0.002876263086336618,0.0019830397296223185,0.0010781678591435353,0.00014797638498986854,-0.0008684876073480432,-0.0020457614395630887,-0.0034105046976922954,-0.004877749962864771,-0.006224947970728617,-0.0071352518227037285,-0.007306319059589307,-0.006578522439306738,-0.005017123739853744,-0.0029034602632551695,-0.0006385331169645166,0.0013931186357712699,0.002936918046803765,0.0039154670041827615,0.004401303380648803,0.0045395880577540505,0.004462783338289331,0.004238037223841947,0.0038682596969024327,0.003336684887550627,0.002657753637617619,0.0018929720095980699,0.0011160074975477248,0.00035215957114346596,-0.00045591608748387063,-0.0014151524296114799,-0.0025868156340898667,-0.003885593849440635,-0.005047133777072483,-0.005703620784945742,-0.005540214879203536,-0.004451388247869734,-0.0026121717258599238,-0.00042615079699883903,0.001622541572523743,0.00314127011500213,0.003949104496423445,0.00410086558588525,0.003817647849170076,0.0033665760675447615,0.002948662465691588,0.002639655775275488,0.0023947594241721503,0.00209602663071278,0.0016098227231026738,0.0008327003978751389,-0.0002771158983651127,-0.001675949305966787,-0.0032181912515938053,-0.004660228256060878,-0.005702300633655754,-0.006070935611430303,-0.005616774623485873,-0.004382309324013067,-0.002600283936377813,-0.0006171540708986391,0.0012234793084569965,0.002681986078114772,0.0036649644677076033,0.004200383272087129,0.004373091054880204,0.004264254621554275,0.003927141679507518,0.0034016223419193288,0.0027409367218583485,0.0020169118413876233,0.0012901370698575729,0.0005652939939449448,-0.00022745047887683188,-0.0011949873733746587,-0.002395615510424922,-0.0037521675809847064,-0.005022945813323699,-0.00586340451461648,-0.005960466135053518,-0.0051752852564535415,-0.003618662888949856,-0.0016163272609724649,0.00041930949132077685,0.002144722042965394,0.0033913809827075367,0.004177079766085674,0.0046293986941926355,0.004872374603172608,0.004942313249643322,0.004777755233864841,0.004282744108906104,0.0034176089519366176,0.0022552338577941033,0.0009641090867661981,-0.00027243858113386917,-0.0013494071011855876,-0.0022849268496553587,-0.003185111760430423,-0.0041468663314209045,-0.005156307024167089,-0.0060463807024158265,-0.006545016065767208,-0.006392927751667278,-0.005469328113368443,-0.003859608060860811,-0.001832972139759085,0.00025354379959202644,0.002075302601535204,0.003432345535330488,0.004282353354633228,0.004711544845960992,0.00486495193866347,0.0048709611086574164,0.004793717930985475,0.004630028036500112,0.004341872272212504,0.003896478564269439,0.003285989375440029,0.0025177551442621213,0.0015896693923236754,0.00047608242088955765,-0.0008571809338807771,-0.0024089171269888556,-0.004089893727994401,-0.00569393107519389,-0.006922518626947029,