1900,1898,1896,1893,1890,1887,1884,1881,1877,1874,1871,1868,1864,1861,1858,1854,1852,1850,1847,1844,1843,1843,1844,1846,1850,1856,1864,1874,1886,1901,1917,1936,1955,1977,1999,2021,2043,2066,2087,2108,2127,2145,2161,2175,2187,2202,2210,2216,2219,2222,2223,2222,2221,2218,2216,2211,2206,2201,2196,2191,2185,2180,2175,2171,2166,2162,2158,2155,2152,2150,2149,2147,2146,2146,2145,2145,2145,2146,2146,2146,2145,2145,2143,2141,2139,2136,2133,2129,2126,2122,2118,2113,2109,2105,2101,2097,2092,2088,2085,2081,2078,2076,2074,2071,2070,2068,2068,2067,2067,2066,2066,2067,2067,2066,2067,2067,2066,2066,2066,2064,2063,2059,2057,2056,2053,2049,2046,2042,2039,2036,2032,2029,2024,2020,2015,2012,2007,2003,1999,1994,1990,1985,1981,1977,1973,1969,1964,1960,1957,1954,1950,1947,1944,1942,1938,1936,1933,1931,1928,1926,1925,1922,1919,1917,1915,1912,1909,1907,1903,1901,1898,1895,1893,1889,1887,1884,1881,1879,1878,1876,1874,1873,1875,1876,1880,1884,1891,1901,1912,1924,1940,1957,1975,1995,2015,2037,2058,2079,2101,2122,2141,2158,2174,2189,2202,2213,2225,2234,2238,2239,2241,2240,2238,2237,2233,2229,2225,2220,2216,2212,2207,2202,2198,2194,2192,2189,2186,2184,2182,2180,2179,2178,2179,2178,2178,2179,2178,2177,2178,2178,2178,2177,2175,2173,2171,2169,2166,2163,2159,2154,2150,2145,2139,2134,2128,2122,2116,2110,2105,2099,2095,2091,2087,2083,2079,2077,2075,2073,2071,2069,2067,2066,2065,2063,2063,2062,2060,2060,2060,2058,2058,2055,2055,2053,2050,2048,2045,2042,2039,2036,2032,2029,2024,2021,2017,2012,2008,2003,1999,1993,1989,1984,1980,1975,1971,1966,1961,1957,1951,1947,1942,1938,1934,1929,1925,1921,1917,1913,1910,1907,1904,1901,1898,1895,1892,1889,1886,1883,1880,1877,1874,1871,1868,1865,1862,1860,1859,1855,1854,1852,1851,1850,1850,1852,1855,1860,1867,1876,1887,1900,1915,1932,1951,1971,1991,2012,2033,2055,2074,2094,2112,2130,2146,2160,2172,2183,2194,2201,2205,2207,2208,2207,2205,2203,2199,2195,2191,2186,2182,2178,2174,2171,2168,2165,2163,2161,2159,2159,2157,2158,2157,2158,2158,2158,2159,2159,2160,2160,2160,2160,2160,2160,2159,2158,2156,2154,2152,2149,2146,2141,2138,2132,2128,2123,2117,2112,2106,2101,2096,2090,2085,2080,2076,2072,2068,2065,2062,2059,2056,2054,2053,2050,2049,2047,2046,2044,2043,2042,2041,2040,2037,2035,2033,2031,2028,2025,2022,2020,2016,2012,2008,2004,2001,1996,1992,1989,1984,1979,1975,1971,1966,1962,1958,1953,1949,1944,1941,1937,1933,1929,1926,1922,1920,1917,1914,1912,1909,1907,1906,1903,1899,1898,1895,1892,1890,1888,1886,1884,1881,1878,1876,1874,1872,1868,1866,1863,1861,1858,1855,1852,1849,1846,1843,1840,1837,1833,1832,1829,1827,1825,1825,1824,1825,1827,1831,1837,1845,1853,1866,1880,1895,1913,1931,1951,1973,1994,2015,2036,2057,2076,2095,2111,2126,2140,2151,2165,2173,2178,2183,2184,2184,2183,2183,2179,2176,2173,2169,2166,2163,2160,2157,2153,2151,2149,2146,2145,2144,2144,2143,2144,2144,2145,2145,2147,2147,2148,2148,2150,2151,2151,2151,2151,2150,2148,2147,2144,2142,2138,2135,2130,2126,2122,2116,2111,2105,2099,2092,2087,2081,2076,2070,2066,2061,2057,2053,2050,2047,2044,2041,2040,2038,2037,2034,2034,2032,2031,2030,2030,2029,2027,2026,2026,2024,2021,2020,2018,2014,2013,2009,2006,2002,1999,1995,1992,1987,1983,1978,1974,1970,1966,1962,1958,1955,1950,1946,1942,1939,1936,1933,1929,1927,1924,1921,1919,1916,1913,1910,1907,1905,1902,1899,1896,1893,1890,1887,1884,1882,1878,1876,1873,1870,1867,1865,1862,1860,1857,1855,1853,1852,1849,1848,1846,1845,1845,1844,1842,1841,1840,1838,1836,1835,1833,1831,1829,1828,1825,1824,1821,1818,1816,1814,1811,1809,1806,1804,1803,1802,1802,1804,1807,1812,1820,1829,1840,1854,1870,1887,1906,1926,1947,1968,1989,2010,2031,2050,2068,2085,2100,2115,2126,2140,2149,2154,2157,2159,2160,2159,2158,2156,2153,2150,2146,2142,2139,2136,2132,2129,2125,2124,2121,2120,2119,2118,2118,2118,2118,2119,2119,2121,2121,2121,2122,2123,2124,2124,2124,2124,2124,2123,2123,2121,2119,2115,2112,2108,2104,2100,2094,2089,2083,2078,2073,2067,2061,2056,2052,2045,2042,2038,2035,2031,2029,2026,2024,2022,2021,2021,2019,2018,2017,2016,2016,2015,2014,2014,2013,2011,2010,2008,2007,2005,2002,2000,1998,1994,1992,1988,1984,1981,1977,1973,1969,1965,1960,1956,1951,1948,1943,1939,1934,1930,1927,1923,1919,1915,1913,1910,1906,1903,1901,1898,1895,1893,1890,1887,1885,1883,1881,1879,1877,1875,1872,1870,1867,1866,1863,1862,1860,1857,1855,1853,1851,1849,1847,1844,1843,1840,1838,1837,1835,1833,1830,1828,1827,1824,1822,1820,1818,1815,1813,1810,1808,1806,1804,1801,1800,1797,1795,1794,1792,1791,1789,1786,1785,1783,1781,1780,1778,1777,1778,1779,1782,1786,1792,1800,1810,1822,1837,1852,1870,1889,1908,1928,1949,1970,1990,2010,2029,2046,2062,2077,2090,2102,2114,2123,2126,2129,2130,2130,2128,2126,2122,2119,2113,2108,2103,2097,2093,2089,2084,2079,2076,2073,2071,2069,2070,2068,2069,2069,2069,2070,2072,2072,2073,2074,2076,2076,2078,2078,2078,2077,2076,2075,2074,2071,2068,2064,2061,2057,2052,2048,2043,2039,2034,2030,2026,2023,2018,2014,2011,2008,2005,2004,2001,2001,1999,1998,1999,1998,1997,1996,1997,1996,1996,1995,1995,1993,1992,1991,1990,1989,1986,1984,1982,1980,1977,1973,1970,1967,1963,1959,1955,1951,1947,1943,1939,1935,1931,1927,1923,1918,1915,1912,1908,1904,1902,1899,1896,1894,1891,1888,1886,1883,1881,1878,1877,1874,1872,1871,1869,1867,1866,1865,1863,1861,1859,1858,1858,1856,1854,1853,1851,1850,1848,1846,1844,1842,1841,1839,1837,1836,1834,1832,1829,1828,1826,1825,1822,1821,1818,1816,1814,1812,1809,1807,1805,1804,1802,1801,1801,1803,1805,1811,1816,1825,1836,1848,1863,1878,1896,1914,1933,1952,1972,1992,2011,2030,2048,2063,2078,2090,2101,2111,2121,2128,2130,2131,2131,2129,2127,2123,2120,2115,2111,2106,2101,2095,2091,2087,2083,2078,2076,2072,2070,2068,2066,2065,2065,2065,2065,2066,2067,2068,2069,2069,2070,2070,2070,2071,2070,2069,2068,2066,2063,2060,2057,2054,2050,2046,2041,2039,2034,2030,2027,2022,2019,2016,2013,2010,2008,2005,2003,2002,2000,2001,1999,1998,1997,1997,1997,1998,1997,1998,1998,1997,1997,1997,1996,1995,1992,1991,1988,1986,1984,1981,1978,1975,1972,1968,1965,1961,1958,1954,1951,1948,1943,1940,1937,1933,1930,1927,1924,1920,1918,1915,1914,1910,1907,1906,1902,1900,1897,1896,1893,1891,1889,1885,1883,1881,1878,1877,1874,1872,1870,1868,1867,1865,1863,1862,1861,1859,1857,1855,1854,1853,1851,1849,1848,1845,1844,1841,1839,1836,1834,1832,1829,1827,1823,1821,1819,1816,1815,1813,1812,1812,1814,1817,1822,1827,1836,1846,1858,1873,1890,1907,1927,1947,1968,1989,2010,2030,2050,2068,2086,2103,2117,2131,2142,2155,2164,2169,2172,2175,2174,2173,2171,2167,2164,2161,2156,2151,2146,2141,2136,2133,2128,2124,2121,2117,2116,2114,2113,2113,2113,2114,2114,2117,2118,2120,2121,2123,2125,2126,2128,2128,2128,2129,2128,2125,2123,2121,2118,2115,2110,2106,2101,2096,2091,2086,2081,2076,2072,2068,2063,2061,2056,2055,2052,2049,2047,2046,2045,2044,2044,2044,2044,2044,2044,2045,2045,2045,2044,2045,2044,2043,2042,2041,2040,2039,2035,2033,2030,2027,2023,2020,2016,2012,2008,2004,2000,1997,1992,1989,1986,1982,1979,1975,1972,1968,1965,1961,1958,1955,1950,1947,1944,1940,1937,1934,1932,1929,1925,1922,1920,1918,1916,1913,1912,1909,1908,1906,1904,1902,1901,1900,1898,1896,1894,1892,1890,1888,1886,1884,1882,1880,1877,1875,1874,1872,1869,1867,1865,1862,1859,1857,1855,1852,1851,1849,1848,1848,1848,1849,1852,1857,1864,1872,1884,1897,1911,1928,1945,1965,1986,2008,2029,2051,2073,2092,2112,2131,2148,2163,2176,2188,2202,2210,2216,2219,2220,2221,2221,2219,2216,2213,2209,2205,2201,2197,2193,2189,2185,2182,2179,2176,2173,2172,2169,2169,2169,2168,2169,2169,2171,2171,2172,2173,2175,2176,2177,2177,2179,2179,2180,2179,2179,2177,2175,2172,2170,2166,2162,2158,2153,2148,2144,2139,2134,2130,2125,2122,2118,2114,2112,2108,2106,2103,2101,2099,2097,2095,2094,2093,2092,2091,2090,2090,2089,2089,2087,2086,2084,2083,2081,2078,2076,2073,2071,2067,2064,2061,2057,2053,2049,2045,2041,2036,2032,2028,2024,2019,2015,2011,2007,2002,1998,1994,1990,1987,1983,1978,1974,1971,1967,1964,1960,1956,1953,1950,1947,1944,1941,1938,1936,1933,1930,1928,1925,1922,1920,1917,1914,1912,1909,1907,1904,1902,1899,1897,1894,1891,1890,1887,1885,1883,1880,1878,1875,1873,1871,1868,1866,1864,1861,1859,1856,1854,1852,1850,1847,1844,1842,1842,1841,1842,1843,1848,1853,1862,1872,1884,1898,1915,1934,1954,1975,1997,2021,2043,2066,2089,2110,2131,2150,2166,2182,2197,2208,2225,2233,2237,2239,2240,2240,2239,2235,2232,2228,2223,2218,2213,2208,2203,2199,2195,2193,2189,2187,2185,2184,2183,2182,2182,2183,2183,2184,2185,2186,2187,2189,2189,2190,2191,2191,2191,2190,2189,2188,2186,2183,2180,2178,2173,2169,2164,2160,2154,2150,2144,2138,2133,2127,2122,2117,2112,2109,2104,2101,2097,2094,2092,2089,2088,2085,2084,2082,2080,2079,2077,2076,2075,2073,2072,2070,2068,2066,2064,2062,2059,2058,2055,2053,2049,2047,2043,2040,2036,2032,2029,2024,2020,2017,2012,2008,2004,2001,1996,1992,1988,1984,1980,1976,1971,1967,1963,1959,1955,1952,1949,1945,1943,1939,1936,1933,1930,1926,1923,1920,1917,1914,1911,1909,1906,1904,1901,1898,1896,1894,1891,1890,1889,1886,1884,1882,1881,1879,1876,1875,1873,1871,1869,1867,1865,1862,1860,1857,1855,1852,1850,1847,1846,1843,1841,1839,1836,1835,1832,1830,1828,1827,1828,1830,1832,1836,1844,1853,1865,1878,1895,1913,1934,1955,1978,2001,2025,2048,2072,2095,2116,2136,2155,2172,2188,2200,2216,2226,2231,2235,2237,2238,2237,2235,2232,2228,2224,2219,2215,2210,2205,2200,2196,2191,2187,2184,2180,2178,2176,2175,2174,2173,2173,2174,2173,2174,2175,2175,2177,2177,2177,2178,2179,2178,2178,2176,2174,2173,2169,2166,2163,2159,2154,2149,2143,2139,2134,2128,2122,2117,2113,2107,2102,2098,2094,2090,2086,2083,2080,2078,2076,2075,2073,2071,2070,2070,2069,2067,2066,2065,2063,2063,2061,2059,2057,2055,2054,2051,2049,2047,2044,2041,2038,2035,2031,2028,2024,2020,2018,2014,2009,2005,2001,1997,1992,1988,1984,1980,1975,1971,1967,1963,1959,1955,1952,1949,1946,1942,1940,1937,1934,1932,1929,1927,1925,1922,1920,1918,1915,1913,1910,1908,1905,1902,1900,1898,1895,1892,1891,1888,1885,1883,1881,1878,1876,1874,1872,1869,1867,1865,1862,1861,1859,1857,1855,1852,1850,1848,1846,1843,1841,1839,1836,1834,1831,1829,1826,1824,1822,1820,1819,1819,1820,1823,1827,1833,1841,1852,1865,1879,1897,1916,1937,1959,1982,2006,2031,2055,2079,2102,2123,2144,2162,2180,2195,2208,2223,2233,2239,2243,2245,2246,2245,2243,2241,2237,2233,2228,2222,2217,2211,2207,2201,2195,2191,2186,2182,2180,2176,2173,2171,2169,2168,2168,2167,2167,2166,2167,2167,2168,2167,2167,2167,2166,2165,2163,2161,2159,2157,2154,2150,2146,2142,2138,2134,2128,2124,2119,2113,2108,2104,2100,2096,2093,2088,2086,2083,2080,2078,2076,2076,2075,2074,2074,2074,2073,2072,2074,2073,2073,2073,2073,2072,2071,2070,2069,2067,2065,2063,2059,2056,2053,2050,2046,2042,2038,2034,2030,2026,2022,2018,2013,2009,2005,2002,1997,1994,1990,1986,1984,1980,1976,1973,1969,1966,1964,1960,1957,1955,1952,1950,1946,1944,1941,1938,1936,1933,1930,1928,1924,1922,1920,1917,1915,1912,1910,1907,1906,1903,1902,1900,1897,1895,1893,1889,1887,1885,1882,1880,1877,1874,1872,1869,1868,1866,1866,1867,1869,1873,1879,1887,1897,1910,1926,1943,1962,1983,2005,2029,2052,2075,2099,2122,2145,2165,2184,2202,2218,2232,2249,2260,2266,2271,2274,2276,2275,2274,2271,2268,2263,2259,2252,2246,2240,2235,2229,2223,2218,2214,2208,2205,2202,2199,2196,2194,2193,2192,2192,2192,2192,2193,2192,2194,2194,2193,2193,2194,2193,2192,2190,2189,2185,2183,2179,2175,2171,2167,2162,2157,2152,2147,2143,2138,2134,2130,2126,2123,2120,2117,2116,2114,2112,2111,2110,2109,2108,2107,2107,2107,2106,2105,2104,2104,2103,2102,2100,2099,2096,2094,2092,2090,2087,2084,2081,2077,2073,2069,2065,2061,2056,2052,2049,2044,2041,2036,2032,2028,2023,2019,2015,2013,2008,2004,2000,1997,1994,1990,1986,1982,1979,1975,1972,1969,1966,1963,1960,1957,1954,1952,1949,1946,1944,1941,1939,1937,1935,1933,1930,1929,1925,1923,1920,1918,1915,1912,1910,1907,1905,1902,1899,1896,1894,1892,1889,1888,1887,1887,1889,1892,1896,1904,1913,1924,1938,1955,1973,1993,2014,2038,2062,2086,2111,2136,2160,2184,2206,2228,2246,2265,2280,2300,2312,2320,2326,2330,2333,2334,2334,2332,2329,2327,2324,2320,2316,2311,2307,2304,2299,2296,2294,2291,2289,2287,2287,2286,2286,2287,2288,2289,2290,2291,2293,2294,2296,2298,2298,2299,2298,2297,2297,2295,2293,2291,2288,2284,2280,2275,2272,2265,2260,2255,2250,2244,2239,2234,2228,2223,2219,2216,2212,2209,2205,2203,2200,2199,2198,2196,2194,2193,2192,2190,2189,2187,2186,2184,2183,2182,2179,2178,2176,2173,2171,2168,2165,2162,2158,2155,2150,2145,2141,2136,2131,2126,2121,2116,2110,2105,2100,2095,2090,2086,2080,2076,2071,2066,2062,2057,2052,2048,2043,2040,2035,2030,2027,2023,2020,2017,2014,2012,2008,2006,2003,2000,1998,1995,1992,1989,1987,1984,1981,1978,1975,1972,1970,1967,1964,1961,1959,1956,1953,1951,1948,1945,1942,1939,1936,1935,1933,1931,1930,1930,1931,1933,1937,1943,1951,1962,1974,1990,2007,2026,2047,2070,2093,2118,2142,2167,2191,2215,2238,2259,2279,2298,2315,2330,2350,2362,2371,2376,2381,2385,2386,2388,2388,2387,2385,2382,2379,2376,2373,2369,2366,2363,2360,2357,2356,2354,2353,2352,2352,2352,2353,2354,2355,2357,2358,2360,2360,2362,2363,2364,2364,2365,2365,2363,2361,2359,2356,2353,2350,2343,2339,2333,2328,2321,2315,2309,2303,2298,2292,2287,2282,2277,2272,2267,2263,2260,2257,2254,2252,2249,2247,2245,2244,2242,2240,2239,2237,2235,2233,2231,2230,2227,2225,2223,2218,2214,2211,2208,2203,2199,2193,2188,2183,2178,2173,2168,2162,2157,2152,2147,2141,2135,2130,2125,2119,2114,2109,2103,2099,2094,2089,2084,2080,2074,2070,2066,2061,2057,2053,2049,2045,2041,2038,2034,2030,2027,2023,2021,2017,2014,2010,2007,2003,2000,1997,1994,1990,1988,1985,1982,1980,1976,1974,1971,1969,1966,1963,1960,1957,1954,1951,1949,1946,1944,1942,1942,1942,1944,1947,1953,1960,1970,1982,1997,2013,2031,2053,2075,2097,2122,2146,2170,2194,2218,2240,2262,2282,2300,2317,2331,2350,2362,2370,2376,2380,2383,2384,2384,2383,2381,2379,2375,2372,2369,2366,2362,2358,2356,2352,2350,2347,2346,2345,2344,2344,2345,2345,2347,2348,2348,2350,2350,2351,2352,2352,2352,2352,2351,2349,2347,2345,2342,2338,2334,2329,2323,2318,2311,2305,2298,2291,2285,2279,2273,2267,2261,2256,2251,2247,2242,2239,2235,2233,2230,2229,2227,2225,2224,2222,2221,2219,2218,2217,2215,2213,2211,2207,2205,2201,2198,2194,2190,2186,2183,2178,2173,2168,2163,2158,2153,2147,2141,2135,2130,2124,2117,2111,2106,2099,2093,2088,2082,2076,2071,2066,2061,2056,2052,2048,2043,2040,2036,2032,2028,2024,2021,2017,2013,2009,2005,2002,1998,1994,1991,1987,1984,1981,1977,1974,1970,1967,1964,1962,1959,1957,1954,1950,1948,1944,1942,1938,1935,1931,1928,1925,1921,1917,1914,1911,1907,1903,1900,1896,1893,1890,1887,1886,1885,1886,1889,1893,1899,1908,1919,1934,1949,1967,1988,2010,2032,2056,2080,2104,2129,2152,2175,2196,2217,2235,2253,2268,2287,2300,2308,2314,2318,2322,2322,2322,2321,2319,2316,2313,2309,2305,2300,2296,2292,2288,2284,2281,2278,2276,2274,2272,2271,2271,2271,2271,2272,2271,2273,2274,2274,2274,2274,2274,2273,2270,2269,2266,2263,2259,2256,2251,2247,2241,2235,2228,2223,2217,2211,2206,2201,2195,2191,2187,2182,2178,2176,2172,2170,2167,2165,2163,2161,2159,2159,2158,2156,2155,2154,2153,2152,2150,2149,2147,2145,2142,2139,2137,2134,2131,2127,2124,2119,2114,2110,2105,2100,2094,2089,2084,2077,2072,2067,2061,2056,2051,2046,2041,2036,2031,2027,2022,2018,2014,2010,2007,2003,1999,1996,1993,1990,1986,1983,1981,1977,1974,1971,1969,1966,1963,1959,1956,1953,1950,1947,1944,1940,1938,1935,1931,1929,1925,1923,1920,1917,1914,1911,1909,1906,1903,1900,1898,1896,1894,1894,1897,1900,1904,1911,1921,1932,1946,1963,1980,2001,2021,2043,2066,2092,2115,2138,2161,2183,2204,2225,2243,2259,2275,2292,2304,2312,2318,2322,2324,2324,2326,2324,2322,2321,2318,2315,2312,2309,2306,2302,2300,2298,2295,2292,2291,2289,2287,2287,2286,2286,2287,2287,2288,2290,2290,2290,2290,2291,2289,2289,2287,2285,2283,2279,2276,2271,2267,2262,2257,2250,2246,2240,2234,2228,2222,2218,2214,2209,2206,2202,2199,2196,2192,2190,2189,2185,2184,2183,2182,2181,2181,2180,2179,2178,2176,2174,2172,2170,2167,2164,2161,2158,2154,2150,2145,2141,2136,2131,2125,2120,2115,2109,2104,2098,2094,2088,2084,2079,2075,2069,2065,2060,2055,2050,2045,2041,2036,2032,2029,2025,2021,2017,2014,2010,2008,2003,2000,1996,1993,1989,1986,1982,1979,1975,1972,1968,1965,1962,1959,1956,1953,1949,1946,1942,1938,1935,1931,1929,1924,1922,1919,1917,1916,1915,1916,1919,1924,1931,1940,1951,1965,1981,1999,2021,2042,2064,2089,2113,2137,2162,2186,2208,2230,2250,2269,2286,2301,2322,2335,2343,2351,2355,2360,2361,2363,2362,2362,2361,2358,2357,2353,2350,2348,2344,2343,2340,2339,2338,2337,2336,2336,2337,2337,2338,2339,2341,2342,2343,2346,2346,2347,2347,2347,2346,2346,2344,2342,2340,2336,2331,2327,2322,2316,2310,2304,2298,2290,2284,2277,2269,2263,2257,2251,2246,2240,2236,2231,2228,2224,2220,2217,2214,2211,2209,2206,2205,2203,2202,2200,2198,2196,2195,2192,2189,2187,2183,2181,2177,2173,2169,2164,2159,2154,2149,2143,2137,2132,2126,2120,2114,2108,2103,2096,2091,2085,2080,2075,2069,2064,2059,2053,2048,2044,2040,2035,2031,2027,2022,2019,2014,2011,2006,2002,1998,1994,1990,1986,1982,1979,1975,1971,1967,1964,1960,1956,1953,1949,1946,1943,1939,1935,1933,1929,1925,1923,1919,1916,1913,1911,1910,1909,1910,1913,1916,1923,1933,1943,1956,1973,1990,2010,2031,2054,2078,2103,2129,2154,2180,2204,2227,2249,2270,2289,2306,2322,2342,2355,2364,2371,2376,2380,2383,2383,2384,2384,2383,2382,2381,2379,2378,2377,2375,2374,2373,2373,2373,2373,2373,2374,2375,2377,2378,2379,2380,2382,2384,2385,2386,2387,2386,2387,2386,2385,2384,2382,2379,2376,2372,2367,2362,2356,2350,2343,2336,2328,2322,2314,2306,2298,2292,2284,2278,2271,2265,2261,2255,2251,2247,2243,2239,2236,2232,2229,2227,2223,2221,2217,2215,2211,2209,2206,2203,2200,2197,2193,2189,2185,2181,2177,2172,2167,2161,2156,2150,2144,2138,2131,2125,2119,2111,2104,2097,2091,2084,2078,2071,2065,2058,2052,2046,2041,2034,2030,2023,2018,2014,2010,2005,2000,1996,1992,1988,1985,1980,1977,1973,1969,1966,1963,1959,1955,1951,1946,1943,1939,1934,1930,1926,1923,1919,1915,1911,1907,1903,1899,1896,1891,1887,1883,1880,1876,1873,1871,1868,1866,1864,1863,1864,1866,1870,1878,1886,1898,1912,1927,1946,1967,1990,2014,2040,2066,2094,2120,2146,2171,2196,2220,2242,2264,2283,2300,2321,2335,2345,2352,2357,2362,2365,2366,2367,2367,2366,2365,2363,2362,2361,2359,2359,2357,2356,2356,2356,2356,2356,2357,2358,2360,2360,2362,2364,2366,2368,2368,2370,2372,2372,2372,2371,2370,2369,2366,2363,2359,2355,2349,2342,2335,2328,2320,2311,2303,2293,2284,2277,2268,2258,2251,2244,2236,2231,2225,2220,2214,2210,2207,2203,2200,2199,2195,2193,2190,2187,2184,2182,2178,2176,2172,2167,2165,2161,2156,2152,2147,2142,2137,2131,2125,2119,2114,2107,2101,2094,2088,2081,2074,2067,2061,2054,2048,2041,2035,2028,2022,2015,2009,2003,1997,1992,1986,1981,1975,1971,1965,1961,1956,1951,1946,1943,1938,1934,1929,1926,1922,1918,1914,1909,1906,1902,1898,1894,1889,1885,1881,1876,1872,1869,1865,1861,1858,1855,1851,1848,1845,1842,1839,1836,1833,1831,1827,1824,1822,1819,1816,1813,1810,1808,1805,1802,1799,1796,1793,1790,1787,1784,1782,1779,1777,1774,1772,1769,1767,1765,1763,1761,1759,1758,1758,1759,1763,1767,1775,1784,1797,1812,1829,1849,1872,1896,1922,1949,1977,2005,2033,2060,2087,2112,2137,2159,2179,2197,2213,2233,2246,2254,2260,2265,2268,2268,2268,2267,2265,2263,2259,2256,2254,2250,2247,2244,2241,2239,2238,2237,2236,2235,2236,2236,2237,2239,2240,2242,2243,2245,2247,2248,2249,2250,2250,2251,2250,2249,2248,2246,2242,2239,2235,2229,2223,2218,2211,2204,2197,2190,2183,2174,2167,2161,2153,2147,2141,2135,2129,2124,2119,2114,2111,2107,2104,2101,2098,2095,2092,2090,2087,2084,2081,2078,2076,2074,2070,2068,2064,2059,2056,2052,2047,2042,2038,2032,2026,2021,2016,2011,2005,1999,1993,1987,1981,1976,1971,1965,1960,1954,1949,1943,1939,1934,1928,1923,1918,1914,1909,1905,1900,1896,1893,1889,1885,1882,1878,1874,1870,1866,1862,1859,1856,1852,1849,1846,1842,1839,1837,1833,1830,1826,1823,1821,1818,1814,1811,1809,1805,1802,1799,1797,1794,1791,1789,1787,1785,1783,1781,1780,1777,1776,1773,1771,1769,1767,1764,1762,1759,1757,1754,1751,1749,1746,1744,1741,1739,1737,1735,1732,1731,1729,1727,1728,1730,1733,1738,1746,1756,1769,1784,1802,1822,1844,1868,1892,1918,1944,1971,1996,2022,2047,2070,2091,2111,2129,2145,2164,2177,2184,2190,2193,2195,2196,2195,2193,2191,2186,2183,2178,2174,2170,2166,2162,2160,2157,2155,2153,2151,2150,2150,2149,2149,2150,2152,2152,2154,2155,2156,2157,2160,2160,2160,2160,2160,2159,2156,2156,2152,2148,2145,2140,2135,2130,2123,2116,2111,2104,2098,2093,2087,2082,2078,2073,2069,2065,2062,2059,2057,2054,2052,2050,2049,2047,2046,2045,2044,2043,2042,2041,2041,2040,2039,2037,2035,2032,2030,2026,2023,2018,2013,2009,2004,2000,1995,1990,1985,1981,1976,1970,1966,1961,1956,1951,1947,1942,1936,1933,1928,1924,1919,1915,1911,1907,1903,1900,1896,1891,1888,1885,1882,1878,1874,1871,1869,1865,1863,1859,1857,1854,1851,1849,1846,1844,1841,1839,1837,1834,1832,1830,1828,1826,1823,1821,1818,1816,1814,1811,1810,1807,1805,1804,1801,1798,1797,1793,1792,1790,1788,1787,1786,1787,1788,1791,1795,1800,1809,1819,1831,1846,1863,1882,1903,1925,1948,1971,1996,2020,2044,2067,2089,2109,2128,2146,2161,2174,2191,2201,2207,2211,2213,2214,2214,2213,2209,2207,2202,2198,2194,2189,2184,2179,2175,2170,2166,2163,2159,2156,2154,2151,2149,2148,2147,2147,2148,2147,2148,2150,2150,2151,2151,2151,2151,2150,2149,2147,2144,2140,2137,2133,2128,2123,2118,2111,2106,2100,2094,2089,2084,2079,2074,2069,2065,2062,2058,2055,2053,2050,2049,2047,2046,2045,2045,2043,2044,2043,2042,2042,2041,2040,2038,2036,2034,2032,2029,2025,2023,2019,2015,2011,2007,2003,1999,1994,1990,1984,1980,1975,1969,1965,1960,1954,1949,1945,1941,1936,1931,1928,1924,1919,1915,1911,1908,1904,1902,1897,1894,1891,1887,1884,1881,1878,1875,1872,1869,1867,1864,1861,1859,1855,1852,1850,1846,1844,1841,1838,1836,1832,1829,1826,1823,1821,1819,1817,1814,1813,1812,1811,1810,1810,1813,1815,1820,1827,1835,1846,1858,1873,1890,1909,1929,1951,1975,1997,2022,2046,2069,2090,2112,2132,2152,2168,2183,2198,2214,2224,2230,2234,2235,2236,2235,2231,2227,2222,2218,2212,2206,2200,2194,2188,2182,2178,2173,2169,2166,2163,2160,2159,2157,2156,2155,2154,2154,2154,2154,2154,2154,2152,2152,2151,2150,2148,2145,2141,2138,2134,2130,2126,2121,2116,2110,2106,2100,2096,2090,2086,2082,2077,2074,2070,2068,2065,2063,2062,2060,2059,2058,2057,2057,2056,2056,2055,2054,2053,2052,2051,2050,2048,2046,2044,2042,2040,2037,2034,2031,2028,2025,2021,2017,2014,2010,2006,2001,1997,1993,1988,1983,1978,1973,1969,1964,1959,1954,1950,1945,1940,1936,1932,1928,1924,1920,1916,1913,1909,1906,1903,1900,1896,1894,1890,1887,1884,1880,1877,1874,1871,1867,1865,1862,1859,1856,1854,1850,1847,1845,1842,1840,1839,1837,1838,1840,1843,1848,1856,1865,1877,1890,1906,1924,1945,1967,1990,2014,2039,2065,2090,2114,2137,2160,2181,2200,2218,2235,2255,2268,2277,2283,2288,2291,2292,2292,2292,2290,2288,2286,2282,2278,2275,2271,2267,2263,2260,2257,2254,2252,2249,2247,2245,2245,2243,2242,2242,2241,2242,2241,2242,2241,2242,2241,2240,2239,2237,2234,2230,2226,2222,2217,2211,2205,2199,2192,2186,2178,2172,2166,2160,2154,2148,2143,2138,2132,2129,2126,2121,2119,2116,2114,2113,2112,2112,2112,2110,2112,2112,2112,2111,2111,2111,2110,2109,2107,2105,2103,2101,2098,2095,2091,2087,2083,2077,2073,2067,2063,2056,2052,2046,2040,2034,2028,2022,2017,2012,2006,2002,1996,1991,1986,1981,1977,1972,1968,1964,1960,1956,1951,1948,1943,1939,1935,1932,1928,1924,1920,1916,1912,1909,1905,1901,1898,1895,1892,1890,1888,1888,1889,1892,1895,1902,1911,1922,1936,1952,1971,1991,2013,2037,2062,2086,2112,2136,2161,2184,2208,2228,2247,2264,2281,2301,2314,2321,2326,2330,2332,2332,2331,2330,2327,2325,2321,2316,2313,2309,2306,2302,2298,2294,2292,2289,2287,2286,2285,2284,2283,2282,2282,2282,2282,2283,2283,2283,2283,2283,2283,2282,2281,2278,2276,2273,2269,2265,2260,2254,2248,2241,2235,2228,2221,2213,2205,2198,2191,2184,2177,2171,2164,2158,2154,2148,2145,2139,2136,2132,2130,2127,2124,2122,2121,2118,2117,2114,2112,2110,2108,2105,2103,2100,2097,2094,2090,2088,2083,2078,2073,2068,2063,2056,2051,2044,2038,2031,2024,2017,2011,2005,1998,1993,1987,1980,1975,1969,1963,1957,1952,1947,1942,1938,1933,1928,1925,1920,1915,1912,1908,1903,1899,1895,1892,1889,1885,1881,1878,1874,1870,1866,1863,1859,1855,1852,1849,1846,1845,1844,1846,1848,1853,1861,1871,1883,1899,1915,1935,1956,1980,2005,2030,2055,2081,2106,2131,2154,2176,2197,2216,2233,2247,2265,2276,2283,2288,2292,2294,2294,2293,2290,2288,2285,2280,2276,2272,2267,2262,2259,2254,2250,2247,2245,2242,2240,2238,2237,2237,2237,2236,2237,2237,2237,2237,2237,2237,2237,2236,2235,2233,2231,2229,2226,2223,2219,2214,2209,2204,2198,2192,2186,2178,2170,2163,2156,2149,2141,2135,2127,2121,2114,2109,2104,2099,2095,2089,2085,2081,2078,2075,2073,2070,2068,2067,2065,2063,2062,2060,2058,2056,2053,2051,2048,2045,2041,2037,2032,2028,2024,2019,2013,2009,2003,1998,1993,1986,1981,1975,1969,1963,1958,1952,1946,1941,1936,1930,1925,1920,1915,1910,1906,1901,1897,1892,1888,1883,1880,1875,1871,1867,1864,1860,1857,1853,1850,1846,1843,1840,1836,1832,1829,1826,1822,1820,1817,1814,1811,1808,1805,1800,1797,1793,1789,1786,1783,1780,1778,1777,1776,1778,1781,1786,1794,1804,1816,1832,1850,1870,1892,1916,1941,1967,1993,2020,2045,2072,2095,2118,2138,2156,2173,2188,2206,2217,2223,2228,2232,2233,2233,2233,2231,2228,2225,2221,2217,2212,2207,2204,2199,2195,2193,2189,2187,2184,2182,2181,2179,2179,2179,2179,2180,2181,2181,2182,2183,2183,2184,2183,2183,2182,2180,2178,2177,2173,2169,2164,2159,2154,2149,2141,2135,2128,2121,2114,2107,2101,2093,2086,2080,2075,2070,2064,2058,2054,2049,2046,2042,2040,2037,2034,2032,2031,2030,2029,2026,2025,2023,2021,2018,2016,2014,2011,2008,2005,2001,1997,1992,1989,1984,1979,1975,1971,1965,1960,1954,1949,1944,1938,1933,1928,1923,1918,1913,1908,1903,1899,1894,1889,1885,1880,1876,1871,1867,1863,1858,1854,1850,1847,1843,1839,1836,1832,1828,1826,1822,1819,1817,1813,1810,1807,1804,1801,1798,1794,1792,1789,1785,1782,1779,1776,1774,1771,1769,1767,1765,1762,1760,1758,1757,1754,1752,1751,1749,1747,1744,1743,1741,1738,1737,1734,1732,1730,1728,1724,1722,1720,1718,1715,1713,1711,1710,1710,1710,1712,1716,1722,1732,1743,1757,1775,1794,1816,1840,1866,1892,1920,1948,1975,2003,2028,2052,2075,2096,2116,2132,2147,2164,2175,2180,2184,2186,2187,2187,2185,2182,2177,2172,2166,2160,2155,2149,2144,2138,2134,2129,2125,2122,2120,2117,2116,2116,2116,2116,2118,2119,2120,2122,2123,2125,2125,2126,2127,2128,2127,2126,2126,2124,2122,2118,2116,2112,2108,2102,2099,2093,2088,2081,2076,2070,2063,2057,2051,2046,2041,2035,2030,2025,2021,2017,2014,2011,2008,2005,2003,2000,1997,1996,1994,1991,1990,1988,1987,1984,1984,1982,1980,1977,1974,1972,1969,1966,1963,1959,1955,1952,1948,1945,1941,1937,1932,1928,1924,1919,1915,1910,1906,1902,1898,1894,1890,1887,1883,1879,1875,1872,1869,1865,1862,1859,1856,1852,1850,1847,1844,1841,1837,1835,1832,1829,1826,1824,1821,1818,1815,1812,1809,1807,1805,1803,1801,1800,1798,1797,1794,1793,1790,1788,1786,1784,1782,1780,1778,1775,1773,1771,1769,1767,1766,1764,1762,1759,1757,1756,1754,1751,1750,1747,1747,1744,1743,1742,1739,1737,1736,1734,1732,1730,1728,1726,1725,1724,1723,1723,1725,1728,1731,1738,1747,1758,1771,1788,1806,1827,1851,1875,1900,1927,1953,1980,2006,2031,2056,2078,2099,2118,2135,2149,2164,2174,2180,2182,2184,2183,2181,2178,2174,2169,2163,2156,2150,2143,2136,2130,2124,2117,2112,2107,2102,2098,2095,2092,2090,2088,2088,2086,2086,2086,2087,2086,2087,2088,2087,2088,2089,2088,2087,2087,2086,2084,2082,2079,2076,2071,2067,2061,2056,2052,2046,2041,2037,2031,2027,2022,2017,2012,2008,2005,2001,1999,1995,1993,1991,1988,1987,1987,1985,1985,1984,1984,1984,1983,1983,1982,1981,1980,1979,1978,1975,1973,1970,1969,1965,1962,1959,1956,1953,1949,1946,1942,1938,1934,1931,1927,1923,1919,1916,1912,1908,1904,1900,1895,1892,1888,1884,1880,1877,1874,1870,1867,1863,1859,1856,1853,1851,1849,1846,1844,1842,1839,1837,1835,1833,1831,1829,1827,1825,1822,1820,1818,1815,1812,1810,1807,1805,1803,1800,1799,1797,1796,1794,1792,1791,1791,1790,1788,1787,1787,1786,1785,1784,1783,1782,1780,1778,1776,1775,1773,1771,1769,1767,1765,1763,1760,1759,1757,1755,1753,1752,1750,1749,1747,1746,1747,1746,1748,1752,1757,1765,1776,1788,1803,1821,1840,1862,1885,1910,1936,1961,1987,2012,2037,2061,2083,2102,2121,2137,2150,2166,2175,2180,2183,2185,2184,2181,2178,2172,2167,2160,2153,2146,2138,2131,2124,2117,2112,2106,2100,2095,2092,2088,2085,2082,2081,2078,2077,2077,2076,2076,2077,2077,2077,2079,2079,2080,2080,2080,2079,2077,2076,2075,2071,2068,2064,2060,2056,2051,2045,2041,2035,2031,2027,2022,2017,2014,2010,2006,2003,2000,1997,1994,1993,1991,1990,1988,1988,1986,1986,1986,1986,1986,1986,1986,1985,1984,1983,1982,1981,1979,1978,1976,1974,1972,1969,1967,1964,1961,1958,1954,1950,1946,1943,1939,1936,1932,1929,1925,1922,1919,1915,1912,1909,1906,1902,1898,1894,1892,1888,1885,1882,1879,1876,1872,1871,1869,1866,1864,1862,1859,1857,1856,1854,1852,1850,1848,1846,1845,1843,1841,1840,1839,1838,1836,1835,1834,1832,1831,1829,1828,1825,1823,1822,1820,1818,1816,1814,1812,1810,1808,1806,1804,1802,1799,1797,1795,1794,1791,1790,1789,1788,1789,1791,1794,1799,1806,1816,1828,1843,1859,1877,1899,1920,1943,1967,1991,2014,2038,2060,2082,2101,2119,2135,2148,2160,2173,2181,2186,2187,2187,2186,2183,2179,2174,2168,2162,2154,2147,2139,2132,2124,2116,2110,2103,2097,2091,2086,2082,2078,2074,2072,2070,2068,2069,2068,2067,2068,2067,2068,2067,2068,2068,2067,2067,2065,2064,2061,2059,2057,2054,2050,2047,2043,2041,2035,2032,2027,2024,2020,2017,2014,2011,2009,2007,2005,2004,2004,2002,2002,2001,2001,2001,2001,2001,2001,2001,2002,2002,2002,2002,2001,2001,1999,1998,1998,1996,1994,1992,1991,1988,1985,1983,1980,1977,1975,1971,1968,1965,1961,1959,1956,1952,1950,1946,1943,1940,1936,1934,1931,1928,1925,1923,1920,1917,1914,1912,1909,1907,1904,1902,1900,1899,1896,1895,1893,1893,1890,1889,1887,1886,1884,1882,1881,1879,1877,1875,1873,1871,1868,1867,1864,1863,1860,1858,1857,1854,1853,1851,1850,1850,1849,1851,1854,1858,1865,1873,1883,1897,1911,1928,1947,1967,1989,2011,2033,2056,2078,2100,2120,2140,2158,2174,2188,2200,2216,2225,2231,2234,2235,2235,2233,2230,2226,2221,2216,2210,2204,2198,2190,2184,2178,2173,2167,2163,2160,2156,2152,2150,2148,2148,2146,2146,2145,2146,2146,2147,2147,2148,2149,2149,2149,2149,2148,2147,2146,2145,2142,2140,2136,2132,2128,2125,2121,2117,2113,2109,2106,2103,2100,2097,2095,2093,2092,2090,2089,2088,2088,2088,2088,2087,2089,2089,2090,2092,2092,2093,2094,2094,2094,2094,2093,2093,2092,2090,2090,2088,2086,2084,2082,2079,2077,2073,2069,2065,2061,2057,2053,2050,2046,2042,2040,2036,2032,2029,2024,2022,2018,2016,2012,2008,2005,2003,2000,1997,1994,1992,1990,1987,1984,1982,1979,1977,1975,1972,1970,1967,1965,1962,1960,1957,1954,1951,1949,1945,1942,1940,1938,1936,1935,1934,1934,1936,1941,1945,1953,1962,1973,1987,2003,2020,2040,2061,2082,2105,2127,2150,2173,2194,2214,2233,2251,2267,2281,2292,2307,2315,2320,2323,2325,2326,2325,2324,2321,2318,2314,2310,2305,2301,2297,2292,2288,2284,2280,2277,2274,2272,2270,2269,2267,2266,2266,2266,2267,2269,2269,2272,2273,2274,2275,2276,2277,2276,2276,2276,2274,2272,2269,2266,2263,2259,2254,2249,2245,2239,2234,2229,2225,2220,2215,2210,2206,2203,2200,2196,2195,2192,2191,2190,2189,2188,2188,2188,2189,2188,2188,2188,2189,2189,2190,2189,2188,2188,2186,2185,2183,2180,2177,2174,2170,2167,2162,2158,2153,2149,2144,2138,2133,2128,2123,2118,2113,2108,2103,2099,2095,2090,2086,2081,2077,2074,2070,2066,2061,2058,2055,2051,2048,2045,2041,2040,2038,2035,2032,2030,2027,2026,2022,2019,2017,2014,2012,2008,2006,2003,2000,1997,1995,1993,1993,1993,1996,1999,2004,2011,2022,2034,2049,2065,2084,2103,2125,2148,2171,2193,2217,2239,2261,2282,2301,2319,2335,2350,2367,2379,2386,2392,2397,2399,2401,2401,2400,2399,2398,2396,2394,2391,2388,2386,2383,2381,2379,2378,2376,2375,2376,2375,2375,2376,2376,2378,2378,2380,2380,2381,2382,2382,2383,2383,2383,2382,2381,2380,2379,2376,2373,2370,2367,2362,2358,2353,2348,2342,2336,2331,2325,2320,2314,2309,2304,2299,2295,2290,2286,2282,2279,2276,2273,2270,2268,2266,2264,2261,2259,2257,2255,2253,2251,2250,2248,2246,2244,2242,2240,2236,2234,2230,2226,2223,2219,2216,2211,2207,2202,2196,2191,2186,2180,2175,2170,2164,2159,2154,2147,2142,2137,2132,2127,2122,2118,2113,2108,2104,2100,2095,2091,2088,2083,2079,2075,2071,2067,2063,2059,2055,2052,2048,2045,2041,2038,2033,2029,2025,2022,2018,2015,2011,2008,2003,2000,1996,1994,1989,1989,1988,1988,1990,1993,1998,2006,2015,2027,2042,2058,2077,2097,2119,2141,2165,2189,2212,2236,2259,2281,2301,2321,2339,2354,2368,2386,2398,2405,2410,2413,2416,2417,2417,2418,2417,2415,2414,2412,2409,2407,2406,2404,2403,2402,2400,2400,2399,2399,2399,2400,2400,2400,2402,2402,2403,2404,2406,2406,2407,2408,2409,2408,2407,2406,2405,2402,2399,2396,2392,2386,2382,2376,2370,2364,2357,2348,2342,2335,2328,2322,2315,2310,2304,2300,2295,2291,2287,2283,2279,2277,2273,2270,2267,2264,2261,2258,2256,2253,2250,2247,2244,2241,2238,2235,2232,2227,2225,2221,2216,2213,2208,2203,2198,2193,2187,2181,2176,2170,2164,2157,2152,2146,2139,2133,2128,2121,2115,2110,2105,2099,2094,2089,2083,2079,2074,2069,2064,2059,2055,2051,2046,2042,2039,2035,2031,2028,2023,2020,2017,2012,2008,2005,2001,1997,1994,1990,1986,1982,1979,1975,1973,1968,1965,1962,1958,1955,1951,1948,1945,1941,1937,1933,1929,1926,1922,1919,1916,1914,1913,1913,1914,1917,1923,1929,1939,1950,1965,1982,2001,2022,2044,2068,2092,2117,2143,2168,2192,2215,2237,2258,2277,2294,2309,2332,2344,2351,2358,2362,2365,2367,2367,2366,2365,2363,2362,2359,2355,2352,2350,2347,2345,2343,2341,2341,2340,2339,2339,2340,2340,2342,2343,2344,2345,2346,2348,2348,2349,2351,2351,2350,2351,2350,2348,2346,2343,2340,2335,2331,2325,2321,2314,2308,2302,2295,2288,2282,2276,2270,2263,2257,2253,2247,2242,2237,2233,2229,2225,2222,2218,2216,2213,2210,2208,2204,2202,2198,2195,2193,2189,2186,2182,2177,2174,2170,2165,2159,2155,2150,2145,2139,2133,2128,2122,2116,2109,2103,2098,2093,2087,2080,2076,2069,2063,2058,2053,2048,2042,2038,2031,2027,2022,2018,2013,2008,2004,2000,1996,1990,1987,1983,1980,1975,1971,1967,1962,1959,1955,1950,1946,1941,1937,1932,1928,1924,1921,1917,1914,1911,1907,1904,1901,1899,1897,1894,1891,1889,1886,1884,1881,1878,1875,1872,1869,1865,1862,1859,1856,1853,1850,1846,1842,1839,1836,1833,1830,1827,1824,1821,1818,1816,1813,1812,1812,1813,1816,1821,1827,1837,1848,1862,1878,1897,1917,1938,1962,1986,2010,2035,2060,2084,2107,2129,2150,2168,2185,2201,2220,2232,2241,2247,2252,2255,2257,2256,2256,2255,2253,2250,2247,2244,2241,2238,2235,2232,2230,2228,2227,2226,2225,2226,2225,2226,2226,2227,2228,2230,2231,2233,2234,2236,2237,2238,2238,2238,2237,2237,2234,2232,2229,2225,2221,2217,2211,2207,2201,2196,2189,2185,2178,2173,2168,2162,2158,2153,2149,2144,2140,2136,2133,2130,2127,2125,2122,2120,2117,2115,2113,2109,2107,2104,2102,2098,2096,2092,2090,2086,2082,2078,2075,2071,2066,2061,2056,2052,2047,2042,2037,2033,2028,2023,2017,2012,2006,2001,1996,1991,1985,1981,1975,1970,1965,1960,1955,1951,1946,1942,1939,1935,1931,1928,1924,1920,1917,1914,1910,1906,1903,1900,1897,1893,1888,1885,1882,1878,1874,1871,1868,1864,1862,1859,1856,1853,1851,1848,1846,1843,1840,1837,1835,1833,1830,1828,1826,1824,1821,1819,1816,1813,1811,1808,1805,1802,1799,1796,1793,1791,1788,1785,1782,1779,1776,1773,1771,1769,1766,1764,1763,1762,1761,1762,1765,1770,1776,1785,1796,1810,1824,1842,1861,1882,1904,1928,1950,1974,1997,2019,2042,2062,2082,2099,2115,2130,2147,2158,2165,2171,2175,2177,2179,2178,2177,2175,2172,2169,2166,2163,2159,2154,2150,2147,2144,2142,2139,2136,2135,2134,2133,2133,2133,2134,2134,2134,2136,2137,2138,2140,2141,2142,2141,2142,2140,2139,2137,2134,2131,2127,2123,2118,2113,2108,2104,2098,2092,2087,2083,2078,2074,2070,2067,2064,2060,2058,2056,2053,2052,2050,2049,2048,2047,2046,2045,2044,2042,2041,2040,2037,2035,2033,2031,2028,2026,2023,2019,2015,2012,2009,2005,2001,1997,1992,1988,1984,1980,1975,1970,1965,1961,1956,1952,1947,1943,1939,1935,1932,1928,1924,1921,1917,1915,1911,1909,1906,1903,1900,1897,1895,1891,1890,1887,1885,1882,1880,1877,1874,1870,1869,1866,1863,1860,1857,1854,1852,1849,1847,1843,1841,1838,1836,1833,1830,1827,1824,1822,1819,1817,1814,1811,1809,1806,1804,1802,1800,1799,1798,1799,1800,1804,1808,1816,1824,1835,1847,1862,1878,1895,1915,1935,1955,1976,1998,2018,2039,2058,2077,2095,2109,2124,2137,2153,2163,2171,2175,2179,2180,2181,2180,2180,2178,2175,2172,2169,2166,2163,2159,2156,2153,2151,2149,2146,2144,2144,2143,2141,2142,2142,2143,2143,2143,2144,2145,2146,2146,2147,2146,2146,2145,2144,2142,2139,2136,2134,2130,2126,2121,2116,2112,2107,2102,2097,2093,2089,2084,2080,2075,2073,2069,2065,2063,2061,2059,2057,2056,2055,2054,2054,2053,2052,2051,2050,2050,2048,2047,2046,2045,2043,2041,2041,2038,2035,2032,2029,2026,2023,2018,2014,2010,2006,2002,1996,1991,1988,1983,1977,1974,1969,1965,1960,1956,1952,1947,1943,1940,1936,1932,1929,1926,1923,1919,1916,1913,1910,1908,1905,1903,1900,1898,1895,1893,1891,1889,1886,1883,1881,1879,1875,1873,1870,1867,1864,1861,1858,1855,1851,1849,1846,1843,1840,1839,1838,1836,1837,1838,1841,1846,1851,1860,1869,1882,1896,1912,1929,1948,1969,1990,2010,2032,2054,2075,2095,2114,2131,2148,2163,2176,2193,2204,2212,2216,2220,2223,2224,2223,2224,2221,2219,2216,2213,2209,2206,2203,2199,2196,2192,2190,2188,2186,2185,2183,2183,2182,2183,2183,2184,2184,2185,2187,2188,2189,2191,2190,2191,2190,2190,2188,2185,2183,2180,2175,2171,2166,2162,2155,2151,2145,2139,2134,2129,2123,2119,2115,2110,2106,2102,2099,2097,2095,2093,2091,2091,2090,2091,2089,2090,2088,2088,2088,2086,2086,2083,2082,2080,2077,2075,2071,2068,2065,2061,2058,2052,2049,2044,2040,2035,2030,2025,2019,2015,2010,2004,2000,1995,1991,1985,1981,1977,1973,1969,1965,1961,1957,1953,1950,1946,1943,1939,1936,1932,1929,1926,1922,1918,1915,1910,1907,1904,1900,1897,1894,1890,1887,1885,1881,1878,1876,1872,1870,1867,1864,1862,1860,1859,1856,1854,1854,1854,1857,1861,1866,1874,1884,1896,1911,1928,1946,1966,1987,2009,2033,2057,2079,2103,2126,2148,2168,2187,2206,2221,2235,2253,2267,2274,2280,2285,2287,2288,2289,2289,2288,2286,2284,2281,2279,2276,2274,2271,2270,2268,2267,2266,2265,2265,2265,2265,2266,2267,2269,2271,2272,2274,2275,2276,2277,2279,2279,2278,2279,2277,2275,2273,2270,2268,2264,2260,2256,2251,2246,2241,2236,2229,2224,2218,2212,2207,2201,2197,2191,2187,2182,2179,2175,2172,2168,2165,2162,2160,2157,2155,2153,2150,2149,2146,2144,2142,2139,2136,2134,2132,2128,2125,2121,2118,2114,2110,2105,2102,2097,2093,2088,2084,2078,2074,2068,2063,2057,2053,2046,2041,2035,2031,2025,2019,2014,2008,2003,1999,1994,1991,1985,1982,1978,1974,1971,1967,1964,1960,1958,1954,1951,1948,1945,1940,1937,1934,1930,1926,1923,1918,1915,1911,1907,1903,1899,1896,1891,1888,1884,1881,1877,1876,1875,1875,1876,1880,1886,1894,1904,1916,1930,1947,1965,1985,2006,2029,2053,2076,2100,2123,2145,2167,2188,2208,2226,2241,2257,2275,2287,2296,2302,2306,2309,2311,2311,2311,2310,2308,2305,2303,2300,2297,2293,2291,2289,2286,2284,2283,2282,2281,2282,2283,2284,2284,2286,2287,2288,2289,2290,2291,2291,2291,2291,2290,2289,2287,2285,2283,2280,2277,2272,2268,2262,2257,2251,2244,2238,2232,2226,2218,2211,2205,2198,2193,2186,2180,2174,2170,2164,2159,2154,2151,2145,2142,2139,2134,2131,2128,2126,2122,2120,2117,2114,2112,2109,2105,2101,2097,2093,2090,2084,2081,2075,2071,2066,2061,2055,2050,2043,2038,2033,2026,2020,2015,2008,2003,1996,1990,1984,1979,1973,1967,1960,1955,1950,1944,1939,1934,1930,1926,1921,1916,1913,1909,1904,1900,1897,1893,1889,1886,1883,1879,1875,1872,1868,1864,1862,1857,1854,1851,1847,1843,1841,1837,1834,1831,1828,1825,1822,1819,1816,1812,1810,1806,1803,1799,1796,1794,1791,1789,1788,1788,1791,1795,1801,1810,1821,1834,1850,1868,1887,1909,1931,1954,1978,2001,2024,2047,2068,2088,2106,2123,2138,2151,2167,2177,2183,2188,2191,2193,2193,2192,2191,2188,2185,2182,2179,2176,2172,2168,2165,2163,2159,2158,2156,2155,2154,2153,2154,2154,2154,2154,2155,2156,2156,2157,2158,2158,2158,2158,2158,2157,2156,2154,2152,2149,2146,2142,2138,2132,2127,2122,2115,2109,2103,2097,2091,2084,2078,2073,2067,2063,2057,2053,2049,2045,2041,2038,2035,2032,2029,2027,2024,2022,2020,2017,2015,2013,2011,2008,2007,2005,2001,1998,1995,1993,1989,1986,1983,1978,1974,1970,1965,1961,1957,1952,1947,1943,1938,1933,1929,1923,1919,1914,1909,1904,1899,1894,1889,1884,1879,1875,1871,1867,1863,1858,1855,1851,1847,1843,1840,1836,1833,1829,1826,1823,1820,1818,1814,1812,1809,1807,1805,1802,1800,1797,1794,1792,1790,1787,1785,1783,1780,1777,1775,1772,1771,1769,1765,1764,1761,1759,1757,1755,1753,1750,1748,1745,1742,1740,1738,1736,1733,1731,1730,1727,1726,1726,1726,1727,1730,1734,1740,1748,1758,1770,1783,1801,1818,1838,1858,1880,1902,1924,1946,1968,1989,2009,2029,2046,2061,2075,2087,2101,2110,2115,2118,2121,2121,2120,2117,2115,2111,2107,2103,2099,2094,2090,2085,2081,2077,2074,2071,2070,2067,2066,2065,2065,2065,2065,2066,2068,2069,2069,2071,2071,2072,2073,2073,2073,2073,2073,2072,2071,2069,2067,2063,2060,2057,2054,2049,2044,2040,2035,2030,2024,2019,2015,2010,2006,2002,1997,1995,1991,1988,1985,1983,1981,1980,1978,1978,1977,1975,1975,1974,1973,1972,1972,1971,1970,1969,1967,1965,1963,1960,1958,1956,1953,1949,1947,1943,1940,1936,1932,1928,1924,1921,1916,1912,1907,1903,1899,1894,1890,1886,1881,1877,1874,1870,1866,1863,1859,1856,1854,1851,1849,1845,1843,1841,1838,1836,1834,1831,1830,1827,1825,1823,1820,1818,1815,1813,1810,1808,1806,1804,1802,1800,1798,1796,1794,1792,1791,1790,1788,1786,1785,1784,1782,1781,1779,1777,1776,1774,1772,1770,1768,1766,1763,1762,1759,1757,1755,1753,1751,1749,1747,1745,1744,1743,1743,1743,1745,1748,1753,1759,1768,1778,1791,1805,1823,1840,1861,1881,1903,1924,1946,1967,1987,2007,2025,2042,2056,2070,2081,2094,2103,2107,2110,2112,2111,2110,2107,2104,2100,2097,2092,2087,2081,2077,2072,2068,2064,2060,2057,2055,2052,2051,2050,2049,2050,2050,2051,2052,2053,2054,2055,2057,2059,2059,2061,2061,2063,2062,2062,2061,2061,2059,2056,2053,2050,2045,2041,2036,2032,2026,2022,2017,2012,2007,2003,1999,1995,1992,1989,1987,1984,1983,1980,1979,1977,1977,1975,1974,1974,1974,1973,1973,1972,1973,1972,1971,1970,1970,1968,1967,1966,1962,1961,1957,1955,1951,1948,1945,1941,1937,1933,1929,1925,1922,1918,1915,1912,1909,1904,1901,1898,1895,1891,1888,1885,1882,1878,1876,1873,1870,1867,1864,1861,1858,1856,1853,1851,1849,1846,1845,1843,1842,1841,1839,1839,1837,1835,1836,1834,1833,1831,1830,1829,1827,1825,1825,1823,1822,1820,1819,1817,1816,1814,1813,1811,1810,1808,1807,1805,1803,1801,1800,1798,1795,1795,1793,1792,1792,1793,1795,1799,1804,1811,1820,1832,1844,1860,1876,1895,1913,1933,1954,1975,1996,2015,2035,2053,2069,2084,2097,2108,2117,2128,2134,2137,2138,2138,2136,2134,2131,2126,2121,2116,2111,2105,2100,2095,2090,2085,2080,2076,2073,2070,2068,2066,2064,2064,2063,2063,2064,2065,2065,2066,2068,2068,2069,2071,2070,2071,2070,2070,2069,2067,2066,2064,2060,2058,2056,2051,2047,2042,2039,2033,2029,2026,2021,2017,2013,2010,2005,2003,2001,1999,1996,1995,1993,1992,1991,1990,1989,1989,1989,1988,1988,1988,1987,1986,1986,1985,1984,1983,1981,1979,1977,1975,1973,1970,1967,1964,1961,1958,1955,1951,1948,1946,1942,1940,1937,1933,1930,1927,1924,1920,1916,1913,1909,1906,1902,1898,1895,1892,1889,1886,1884,1881,1878,1876,1875,1873,1871,1870,1868,1867,1865,1864,1861,1860,1859,1857,1856,1855,1852,1850,1849,1848,1846,1844,1843,1841,1839,1837,1835,1832,1831,1828,1827,1826,1825,1825,1827,1830,1835,1841,1849,1860,1872,1887,1903,1921,1940,1959,1980,2000,2021,2041,2060,2078,2094,2109,2122,2133,2144,2154,2161,2164,2166,2167,2166,2164,2162,2158,2154,2149,2144,2139,2134,2128,2123,2118,2114,2109,2105,2102,2100,2097,2095,2094,2092,2092,2091,2092,2092,2092,2092,2092,2092,2094,2093,2093,2092,2092,2091,2090,2087,2086,2083,2080,2077,2074,2070,2068,2064,2060,2056,2053,2048,2045,2042,2039,2036,2033,2031,2029,2027,2024,2023,2022,2020,2018,2017,2017,2016,2016,2015,2014,2013,2013,2013,2012,2009,2008,2007,2004,2002,2000,1997,1994,1992,1989,1987,1983,1980,1978,1974,1971,1966,1963,1959,1956,1953,1950,1946,1943,1940,1937,1935,1932,1930,1926,1924,1922,1920,1918,1916,1914,1912,1910,1908,1906,1905,1904,1902,1900,1898,1896,1894,1892,1890,1888,1886,1885,1883,1881,1879,1877,1875,1874,1872,1870,1870,1870,1870,1873,1877,1882,1890,1899,1911,1925,1940,1957,1975,1995,2015,2035,2056,2076,2094,2113,2131,2147,2161,2174,2185,2198,2205,2209,2211,2212,2212,2210,2207,2205,2200,2196,2191,2187,2181,2175,2170,2166,2161,2157,2155,2151,2149,2146,2144,2142,2141,2140,2139,2138,2138,2138,2138,2139,2139,2138,2138,2137,2136,2134,2133,2131,2128,2125,2119,2116,2111,2107,2103,2098,2093,2088,2084,2079,2075,2072,2070,2066,2064,2062,2061,2060,2059,2059,2058,2057,2058,2057,2057,2057,2057,2058,2057,2056,2056,2056,2055,2054,2053,2051,2049,2047,2044,2042,2040,2036,2033,2029,2025,2022,2017,2015,2010,2006,2002,1999,1995,1991,1987,1985,1981,1977,1975,1971,1969,1967,1965,1962,1960,1958,1956,1953,1952,1950,1947,1945,1942,1940,1938,1935,1933,1930,1929,1927,1924,1921,1920,1917,1915,1913,1911,1909,1906,1904,1901,1899,1897,1895,1893,1891,1891,1890,1892,1894,1899,1904,1912,1922,1935,1949,1965,1983,2002,2023,2042,2065,2086,2105,2126,2145,2164,2180,2195,2209,2221,2235,2244,2249,2253,2255,2256,2256,2254,2252,2249,2245,2241,2237,2233,2227,2223,2218,2215,2210,2207,2205,2202,2201,2199,2198,2197,2197,2196,2196,2197,2198,2198,2200,2199,2200,2199,2199,2198,2198,2195,2193,2190,2186,2183,2179,2174,2170,2165,2160,2155,2150,2145,2141,2136,2133,2130,2127,2124,2122,2120,2119,2117,2116,2116,2116,2116,2116,2116,2116,2117,2116,2116,2116,2115,2113,2113,2111,2110,2108,2106,2104,2101,2099,2097,2095,2090,2087,2083,2080,2076,2074,2070,2066,2063,2058,2055,2050,2047,2044,2041,2036,2033,2030,2027,2024,2021,2017,2014,2011,2008,2006,2003,2000,1998,1995,1992,1991,1987,1985,1983,1979,1978,1975,1973,1969,1967,1965,1962,1960,1957,1954,1952,1950,1946,1944,1941,1938,1936,1933,1930,1929,1927,1927,1928,1929,1933,1938,1945,1955,1966,1979,1995,2012,2031,2051,2073,2094,2116,2137,2158,2179,2198,2216,2232,2248,2261,2277,2288,2294,2299,2302,2303,2303,2303,2300,2298,2294,2290,2286,2282,2277,2273,2267,2263,2260,2256,2253,2251,2248,2247,2246,2244,2244,2244,2244,2245,2245,2246,2246,2246,2247,2246,2245,2245,2244,2243,2240,2238,2235,2232,2229,2224,2218,2215,2210,2205,2201,2197,2193,2190,2185,2181,2179,2176,2174,2172,2170,2170,2168,2167,2168,2166,2167,2167,2166,2166,2166,2166,2165,2164,2163,2163,2161,2159,2158,2155,2153,2151,2148,2144,2142,2137,2134,2131,2127,2123,2119,2115,2111,2107,2104,2100,2096,2093,2089,2084,2081,2077,2073,2070,2066,2062,2058,2055,2052,2050,2046,2043,2040,2038,2033,2031,2029,2026,2023,2021,2018,2015,2013,2009,2007,2004,2002,1999,1996,1993,1990,1987,1984,1981,1977,1975,1972,1968,1966,1964,1962,1962,1962,1964,1966,1972,1978,1987,1998,2011,2025,2042,2060,2080,2100,2121,2142,2164,2184,2205,2224,2243,2258,2274,2287,2299,2313,2322,2326,2330,2332,2334,2333,2333,2329,2327,2323,2319,2315,2311,2307,2303,2300,2297,2294,2292,2290,2288,2288,2287,2286,2286,2286,2287,2287,2288,2289,2290,2290,2290,2291,2290,2289,2288,2286,2284,2281,2277,2273,2270,2265,2261,2257,2252,2248,2243,2238,2236,2231,2228,2224,2221,2219,2217,2215,2213,2212,2211,2210,2209,2210,2209,2209,2208,2207,2206,2205,2205,2204,2202,2200,2198,2195,2192,2190,2187,2183,2180,2177,2172,2168,2163,2158,2154,2150,2145,2140,2136,2131,2127,2121,2117,2113,2109,2104,2100,2097,2093,2089,2086,2083,2079,2075,2072,2070,2067,2064,2060,2056,2053,2050,2048,2045,2041,2039,2036,2033,2029,2026,2023,2018,2015,2011,2008,2005,2000,1998,1994,1991,1988,1986,1984,1983,1982,1984,1988,1993,2001,2010,2022,2035,2051,2068,2088,2108,2130,2152,2175,2197,2218,2239,2260,2279,2296,2312,2327,2339,2354,2364,2371,2375,2379,2381,2382,2382,2382,2380,2378,2376,2374,2370,2367,2364,2361,2358,2356,2354,2352,2351,2350,2350,2349,2349,2350,2350,2350,2351,2351,2351,2351,2351,2351,2350,2349,2347,2344,2341,2338,2334,2330,2324,2319,2315,2309,2303,2298,2293,2287,2283,2278,2274,2270,2267,2263,2260,2257,2255,2254,2251,2250,2248,2248,2247,2246,2246,2245,2244,2243,2243,2242,2240,2238,2237,2234,2231,2229,2225,2222,2217,2213,2209,2205,2198,2194,2189,2184,2178,2173,2167,2161,2155,2150,2145,2139,2133,2128,2122,2118,2113,2108,2104,2099,2094,2091,2088,2083,2079,2076,2072,2068,2066,2061,2058,2055,2052,2048,2045,2042,2039,2035,2031,2028,2025,2020,2018,2013,2010,2005,2003,2000,1999,1998,1999,2000,2005,2012,2019,2030,2042,2057,2075,2095,2115,2137,2159,2183,2207,2231,2254,2276,2297,2317,2335,2352,2367,2386,2398,2407,2412,2418,2421,2423,2424,2426,2424,2423,2421,2419,2417,2414,2412,2410,2408,2407,2405,2405,2406,2405,2406,2407,2408,2410,2410,2413,2414,2416,2416,2418,2420,2420,2421,2421,2420,2419,2418,2415,2412,2407,2403,2398,2392,2386,2379,2372,2365,2359,2352,2344,2338,2332,2325,2320,2314,2309,2304,2300,2296,2292,2289,2285,2282,2279,2277,2274,2271,2269,2267,2264,2261,2259,2256,2254,2250,2248,2245,2241,2237,2234,2230,2225,2220,2216,2211,2206,2200,2194,2189,2184,2178,2173,2167,2161,2155,2149,2143,2138,2132,2127,2122,2117,2112,2107,2103,2098,2093,2088,2084,2079,2075,2069,2066,2060,2056,2052,2047,2042,2038,2033,2030,2026,2022,2018,2013,2010,2005,2002,1997,1993,1990,1984,1980,1975,1972,1968,1964,1962,1959,1959,1959,1960,1965,1970,1978,1990,2002,2017,2034,2054,2075,2097,2121,2146,2171,2195,2219,2241,2264,2284,2304,2321,2337,2357,2371,2380,2387,2393,2398,2401,2403,2404,2405,2405,2404,2403,2402,2401,2399,2398,2397,2396,2395,2395,2394,2394,2394,2395,2395,2397,2399,2400,2400,2402,2403,2404,2405,2404,2404,2404,2402,2400,2397,2394,2391,2386,2381,2376,2369,2363,2355,2348,2341,2333,2325,2319,2311,2303,2297,2289,2283,2277,2272,2266,2261,2257,2252,2248,2245,2242,2240,2237,2234,2231,2229,2227,2224,2221,2218,2215,2212,2209,2205,2201,2198,2192,2188,2183,2178,2173,2168,2162,2156,2150,2143,2137,2130,2124,2116,2109,2103,2096,2090,2082,2076,2071,2065,2058,2053,2047,2041,2036,2030,2024,2020,2014,2010,2004,1999,1996,1992,1987,1983,1979,1975,1972,1968,1964,1961,1956,1953,1948,1944,1940,1936,1932,1928,1924,1920,1916,1913,1910,1907,1903,1900,1898,1895,1892,1888,1886,1884,1881,1877,1875,1872,1870,1866,1864,1861,1860,1859,1860,1862,1865,1871,1880,1891,1903,1919,1937,1957,1979,2003,2028,2055,2081,2109,2135,2161,2186,2210,2233,2253,2273,2289,2312,2327,2337,2345,2351,2355,2360,2362,2362,2363,2363,2362,2361,2360,2358,2357,2356,2354,2353,2351,2351,2350,2349,2349,2350,2351,2352,2353,2354,2356,2358,2359,2360,2362,2362,2362,2362,2363,2361,2360,2357,2354,2351,2346,2341,2335,2328,2322,2315,2307,2299,2291,2284,2277,2269,2261,2254,2249,2243,2238,2232,2227,2223,2220,2216,2212,2209,2205,2202,2200,2197,2194,2191,2188,2185,2181,2178,2175,2171,2167,2163,2158,2153,2149,2144,2139,2133,2128,2121,2116,2110,2104,2097,2091,2084,2079,2073,2067,2061,2054,2048,2043,2038,2031,2026,2020,2015,2010,2004,1999,1993,1989,1983,1978,1973,1968,1963,1959,1955,1949,1945,1942,1937,1934,1930,1926,1923,1920,1916,1913,1910,1907,1904,1901,1897,1894,1891,1888,1885,1882,1879,1876,1874,1871,1868,1866,1863,1860,1857,1854,1851,1848,1845,1842,1839,1836,1832,1829,1827,1823,1820,1817,1814,1812,1809,1805,1802,1799,1797,1795,1794,1793,1794,1796,1800,1807,1816,1828,1841,1858,1878,1900,1923,1948,1976,2005,2033,2062,2090,2119,2146,2173,2197,2220,2240,2259,2284,2300,2312,2320,2328,2333,2337,2339,2340,2341,2339,2338,2336,2333,2331,2329,2327,2325,2323,2321,2321,2320,2319,2319,2320,2320,2320,2322,2323,2325,2327,2329,2329,2332,2333,2334,2334,2335,2334,2333,2331,2328,2324,2320,2315,2310,2303,2297,2290,2283,2276,2269,2261,2255,2248,2241,2234,2228,2223,2217,2213,2208,2203,2200,2196,2193,2190,2187,2185,2183,2181,2179,2175,2173,2171,2167,2165,2161,2158,2154,2150,2145,2141,2136,2132,2127,2121,2115,2109,2104,2098,2093,2086,2080,2075,2070,2062,2058,2052,2047,2041,2036,2030,2024,2019,2013,2007,2002,1996,1991,1986,1981,1976,1970,1966,1961,1956,1951,1946,1942,1937,1933,1929,1924,1920,1916,1911,1907,1903,1900,1897,1894,1890,1887,1885,1882,1879,1877,1875,1872,1869,1867,1865,1862,1859,1857,1853,1851,1847,1844,1841,1838,1834,1831,1828,1825,1821,1818,1814,1811,1808,1805,1801,1799,1796,1794,1793,1792,1793,1794,1797,1804,1810,1821,1834,1849,1866,1886,1908,1932,1959,1985,2013,2042,2071,2100,2127,2154,2179,2204,2226,2246,2264,2288,2304,2314,2323,2328,2333,2336,2339,2338,2337,2336,2334,2331,2329,2326,2323,2321,2319,2316,2315,2314,2313,2313,2314,2314,2315,2316,2318,2320,2322,2324,2325,2326,2326,2327,2327,2326,2325,2322,2319,2317,2312,2307,2301,2295,2289,2281,2274,2267,2259,2252,2244,2236,2230,2222,2216,2210,2204,2199,2194,2189,2185,2181,2178,2175,2172,2170,2168,2164,2162,2160,2157,2155,2152,2150,2148,2144,2141,2137,2133,2129,2125,2120,2115,2110,2104,2100,2094,2088,2081,2076,2070,2063,2056,2050,2044,2037,2031,2024,2018,2012,2007,2001,1995,1990,1984,1979,1974,1969,1964,1959,1955,1950,1945,1941,1936,1932,1927,1924,1920,1916,1912,1908,1904,1900,1897,1893,1889,1886,1882,1879,1876,1874,1871,1867,1865,1861,1858,1854,1851,1848,1844,1841,1837,1834,1831,1827,1825,1820,1818,1814,1812,1808,1805,1803,1800,1797,1794,1791,1789,1785,1783,1781,1778,1776,1774,1773,1773,1775,1778,1784,1791,1801,1814,1829,1848,1869,1892,1918,1945,1972,2002,2032,2063,2092,2121,2150,2175,2202,2225,2247,2266,2291,2308,2319,2328,2335,2341,2344,2346,2347,2346,2345,2343,2340,2337,2334,2330,2327,2325,2321,2319,2316,2315,2313,2313,2311,2311,2312,2312,2313,2314,2315,2315,2316,2318,2319,2320,2319,2319,2317,2316,2314,2310,2306,2301,2295,2290,2283,2276,2270,2263,2255,2248,2240,2234,2227,2220,2215,2209,2203,2198,2194,2189,2185,2182,2178,2175,2173,2171,2168,2166,2165,2162,2160,2158,2155,2152,2150,2146,2144,2139,2135,2131,2126,2120,2114,2109,2102,2096,2090,2083,2076,2070,2064,2056,2050,2043,2038,2031,2025,2018,2012,2006,2000,1995,1989,1982,1976,1971,1965,1960,1954,1949,1943,1938,1934,1929,1925,1921,1917,1913,1908,1905,1903,1899,1897,1894,1891,1888,1885,1882,1880,1877,1875,1872,1869,1867,1864,1862,1860,1858,1856,1854,1851,1848,1846,1844,1842,1839,1836,1833,1830,1827,1824,1821,1818,1814,1811,1808,1805,1802,1799,1796,1794,1792,1792,1792,1794,1798,1804,1814,1825,1839,1856,1875,1897,1921,1947,1975,2003,2033,2063,2091,2121,2149,2176,2202,2226,2249,2268,2294,2313,2323,2333,2340,2347,2349,2351,2351,2350,2348,2345,2342,2338,2333,2328,2325,2320,2315,2311,2308,2304,2302,2299,2297,2296,2296,2294,2294,2294,2293,2294,2294,2293,2292,2290,2288,2285,2283,2279,2275,2270,2265,2260,2254,2247,2240,2234,2227,2219,2212,2206,2200,2195,2189,2184,2178,2175,2172,2168,2166,2163,2161,2158,2157,2155,2153,2151,2150,2147,2147,2144,2142,2140,2138,2134,2132,2128,2125,2121,2116,2112,2108,2102,2098,2093,2088,2082,2077,2072,2066,2060,2054,2047,2042,2036,2030,2025,2019,2015,2009,2005,2001,1996,1992,1987,1983,1980,1976,1973,1968,1965,1962,1958,1955,1951,1948,1945,1942,1938,1935,1931,1928,1924,1921,1918,1915,1910,1907,1904,1900,1897,1893,1889,1887,1882,1880,1876,1872,1869,1865,1863,1859,1856,1852,1849,1845,1843,1840,1837,1835,1834,1834,1835,1839,1844,1852,1862,1876,1891,1909,1930,1954,1979,2005,2034,2062,2091,2120,2150,2178,2206,2232,2256,2278,2300,2317,2340,2355,2365,2372,2377,2380,2382,2382,2380,2378,2375,2371,2366,2362,2356,2351,2346,2342,2337,2333,2330,2326,2323,2320,2318,2316,2315,2314,2313,2313,2313,2313,2313,2312,2310,2309,2306,2304,2300,2295,2291,2285,2280,2274,2266,2260,2252,2246,2239,2232,2225,2219,2213,2208,2202,2197,2192,2187,2184,2180,2176,2174,2170,2168,2166,2164,2163,2161,2159,2157,2156,2156,2153,2150,2149,2147,2144,2140,2137,2133,2128,2124,2119,2114,2108,2103,2097,2091,2084,2078,2071,2066,2059,2053,2047,2042,2035,2030,2024,2018,2013,2008,2002,1997,1991,1985,1982,1977,1971,1967,1962,1958,1954,1950,1946,1943,1939,1935,1931,1928,1923,1920,1916,1912,1908,1904,1900,1896,1892,1887,1883,1879,1874,1870,1866,1862,1858,1855,1852,1850,1850,1850,1852,1856,1862,1870,1881,1894,1910,1928,1948,1971,1996,2021,2048,2075,2103,2131,2158,2185,2211,2235,2257,2278,2295,2318,2334,2344,2352,2358,2363,2364,2366,2366,2363,2360,2358,2355,2350,2346,2341,2337,2333,2329,2326,2322,2320,2317,2315,2313,2312,2311,2310,2309,2308,2309,2308,2308,2308,2307,2305,2303,2300,2297,2293,2289,2283,2279,2273,2267,2259,2252,2246,2237,2230,2222,2214,2205,2199,2193,2186,2181,2175,2171,2167,2163,2159,2156,2153,2151,2149,2147,2144,2142,2140,2139,2136,2134,2132,2130,2127,2125,2121,2118,2113,2109,2103,2098,2093,2087,2081,2074,2067,2061,2055,2048,2041,2034,2028,2021,2014,2007,2001,1995,1988,1981,1976,1970,1964,1960,1954,1950,1945,1940,1936,1931,1927,1922,1919,1914,1910,1905,1901,1897,1893,1890,1885,1881,1877,1873,1870,1865,1860,1856,1852,1847,1844,1840,1836,1833,1829,1825,1824,1823,1823,1824,1827,1832,1840,1852,1865,1881,1899,1920,1944,1969,1996,2024,2054,2083,2111,2140,2168,2195,2220,2245,2266,2286,2311,2330,2342,2351,2359,2365,2369,2372,2373,2374,2374,2372,2371,2369,2366,2365,2363,2360,2359,2357,2356,2354,2354,2354,2354,2354,2354,2356,2356,2358,2358,2359,2361,2362,2361,2362,2362,2361,2359,2358,2355,2352,2347,2343,2337,2331,2324,2317,2309,2300,2292,2284,2275,2266,2257,2249,2240,2232,2225,2217,2210,2203,2196,2191,2186,2182,2177,2174,2170,2166,2163,2160,2157,2155,2152,2150,2146,2144,2141,2138,2134,2130,2127,2123,2117,2113,2108,2103,2097,2091,2084,2078,2072,2065,2058,2052,2045,2039,2031,2025,2019,2012,2006,2000,1994,1989,1982,1977,1971,1966,1961,1956,1951,1947,1942,1938,1934,1929,1925,1920,1917,1911,1908,1902,1898,1894,1889,1885,1880,1876,1872,1868,1863,1859,1855,1851,1847,1843,1839,1835,1832,1828,1825,1822,1821,1820,1820,1821,1825,1831,1839,1850,1863,1879,1897,1917,1939,1964,1990,2016,2043,2071,2098,2126,2151,2176,2199,2221,2242,2260,2282,2298,2308,2317,2323,2328,2332,2335,2337,2339,2339,2338,2337,2336,2334,2334,2332,2331,2330,2330,2329,2329,2329,2329,2329,2330,2331,2331,2332,2333,2334,2335,2335,2335,2336,2335,2335,2334,2333,2330,2328,2324,2320,2314,2309,2302,2295,2287,2279,2271,2262,2253,2245,2235,2227,2219,2212,2203,2196,2190,2183,2178,2172,2167,2163,2158,2155,2151,2148,2144,2141,2139,2135,2132,2129,2125,2123,2119,2114,2111,2108,2102,2097,2093,2087,2082,2076,2071,2065,2058,2053,2047,2040,2033,2027,2020,2014,2007,2001,1995,1989,1983,1976,1970,1964,1958,1952,1948,1942,1937,1931,1926,1921,1916,1912,1907,1903,1899,1894,1891,1886,1882,1878,1875,1871,1867,1864,1861,1858,1854,1851,1848,1844,1841,1838,1836,1832,1829,1827,1823,1820,1817,1814,1811,1807,1804,1801,1798,1795,1790,1788,1784,1781,1778,1775,1772,1769,1766,1764,1762,1760,1759,1759,1760,1763,1768,1776,1785,1798,1813,1831,1852,1874,1899,1925,1953,1982,2011,2040,2069,2097,2124,2150,2174,2197,2217,2236,2263,2277,2287,2295,2299,2304,2307,2309,2308,2307,2306,2305,2302,2300,2298,2295,2294,2293,2292,2292,2291,2292,2292,2293,2294,2295,2296,2299,2301,2302,2305,2307,2307,2309,2309,2310,2309,2308,2306,2304,2301,2297,2293,2287,2280,2273,2266,2259,2251,2244,2236,2228,2220,2212,2204,2197,2191,2183,2178,2172,2166,2161,2157,2152,2149,2146,2141,2139,2136,2133,2130,2127,2125,2121,2119,2116,2113,2109,2106,2103,2099,2096,2090,2086,2081,2076,2071,2065,2059,2053,2048,2041,2035,2029,2023,2017,2010,2005,1998,1992,1986,1981,1975,1969,1963,1959,1953,1949,1944,1939,1935,1931,1926,1922,1919,1915,1912,1908,1904,1902,1897,1894,1890,1887,1884,1881,1877,1874,1871,1869,1866,1862,1860,1857,1854,1852,1849,1846,1843,1840,1837,1834,1831,1828,1825,1822,1820,1816,1814,1811,1809,1806,1803,1798,1796,1794,1790,1788,1784,1782,1778,1776,1774,1772,1772,1773,1775,1780,1786,1795,1806,1820,1838,1857,1878,1902,1928,1955,1982,2011,2039,2067,2094,2121,2145,2168,2190,2210,2227,2249,2264,2274,2282,2287,2291,2294,2295,2295,2294,2292,2290,2286,2283,2280,2278,2276,2273,2271,2269,2268,2268,2268,2268,2269,2270,2271,2273,2275,2277,2279,2280,2282,2284,2285,2286,2287,2287,2287,2285,2283,2281,2277,2273,2268,2262,2256,2250,2242,2236,2228,2220,2212,2205,2197,2190,2183,2175,2169,2163,2158,2153,2148,2144,2141,2137,2134,2133,2130,2128,2125,2124,2121,2119,2117,2114,2112,2109,2106,2102,2098,2095,2090,2087,2082,2077,2071,2066,2061,2055,2049,2043,2039,2032,2026,2020,2015,2009,2003,1997,1992,1986,1980,1975,1970,1964,1959,1955,1950,1946,1941,1936,1932,1928,1923,1920,1916,1912,1908,1905,1902,1899,1895,1893,1889,1886,1883,1880,1879,1875,1872,1869,1866,1864,1861,1858,1855,1853,1851,1848,1845,1842,1840,1837,1833,1830,1827,1824,1821,1817,1814,1811,1808,1805,1803,1800,1797,1794,1792,1788,1786,1783,1780,1777,1775,1772,1770,1767,1765,1764,1764,1764,1766,1769,1774,1782,1791,1803,1818,1836,1856,1878,1903,1928,1955,1983,2011,2040,2068,2095,2120,2145,2168,2189,2208,2226,2247,2261,2269,2277,2281,2284,2287,2287,2287,2285,2282,2280,2277,2273,2270,2267,2264,2261,2259,2258,2257,2256,2256,2256,2258,2258,2259,2262,2263,2265,2267,2269,2270,2272,2274,2274,2275,2275,2275,2273,2271,2269,2265,2261,2256,2251,2244,2238,2231,2223,2216,2209,2202,2194,2188,2181,2174,2169,2163,2159,2153,2150,2147,2143,2140,2137,2135,2132,2130,2128,2127,2125,2123,2122,2119,2118,2115,2113,2110,2107,2104,2100,2096,2092,2087,2082,2076,2071,2066,2059,2054,2048,2041,2034,2028,2022,2016,2011,2005,2000,1995,1990,1985,1979,1974,1969,1964,1960,1956,1950,1946,1942,1938,1934,1930,1927,1923,1919,1915,1912,1908,1905,1901,1898,1895,1892,1888,1886,1882,1878,1876,1872,1870,1867,1864,1861,1858,1856,1853,1851,1849,1847,1845,1844,1843,1842,1839,1839,1837,1836,1834,1832,1831,1830,1827,1825,1822,1820,1817,1813,1811,1808,1804,1801,1798,1794,1791,1788,1785,1781,1778,1774,1771,1768,1766,1766,1765,1767,1771,1777,1785,1796,1809,1825,1845,1866,1889,1915,1941,1967,1995,2023,2051,2078,2104,2129,2154,2174,2193,2211,2234,2248,2257,2265,2269,2272,2275,2274,2275,2271,2269,2267,2262,2258,2255,2250,2246,2243,2239,2237,2234,2232,2231,2230,2229,2230,2230,2231,2233,2235,2236,2238,2240,2242,2243,2245,2245,2245,2245,2243,2242,2240,2237,2232,2228,2223,2218,2212,2205,2200,2193,2186,2181,2174,2168,2162,2157,2151,2147,2143,2138,2135,2132,2128,2126,2124,2122,2120,2118,2117,2116,2115,2112,2111,2110,2109,2107,2105,2102,2100,2096,2092,2090,2086,2082,2077,2073,2069,2063,2057,2053,2047,2043,2037,2031,2025,2019,2011,2006,2001,1994,1989,1983,1977,1971,1965,1960,1955,1949,1945,1941,1936,1932,1927,1924,1920,1917,1913,1910,1906,1903,1900,1897,1894,1891,1888,1885,1882,1879,1876,1873,1870,1867,1864,1861,1859,1855,1853,1849,1847,1844,1841,1839,1836,1833,1831,1828,1825,1822,1818,1816,1812,1809,1806,1803,1799,1796,1793,1789,1785,1783,1779,1776,1775,1775,1775,1777,1781,1787,1797,1807,1821,1837,1855,1876,1898,1922,1947,1973,1999,2025,2052,2077,2101,2125,2147,2166,2185,2200,2220,2233,2241,2247,2251,2253,2254,2253,2251,2248,2244,2240,2235,2231,2225,2221,2217,2212,2208,2204,2201,2198,2195,2194,2192,2190,2190,2189,2189,2189,2189,2190,2191,2190,2190,2189,2189,2188,2185,2183,2180,2177,2172,2167,2163,2157,2153,2146,2141,2135,2130,2125,2119,2115,2111,2106,2103,2099,2095,2093,2091,2089,2088,2087,2086,2086,2084,2083,2083,2082,2081,2081,2080,2078,2076,2074,2072,2069,2065,2061,2057,2053,2047,2042,2038,2032,2027,2020,2016,2010,2004,1998,1993,1986,1981,1975,1970,1965,1961,1955,1951,1946,1942,1938,1934,1929,1926,1922,1918,1915,1910,1907,1904,1900,1897,1895,1891,1889,1886,1883,1880,1877,1875,1873,1869,1866,1864,1861,1858,1856,1852,1850,1846,1844,1840,1838,1834,1831,1829,1825,1822,1820,1817,1813,1809,1807,1805,1803,1801,1803,1804,1807,1812,1820,1830,1843,1857,1875,1894,1916,1939,1964,1989,2015,2041,2067,2091,2116,2140,2162,2182,2200,2218,2239,2252,2261,2268,2273,2276,2278,2278,2277,2275,2273,2269,2266,2263,2257,2253,2249,2246,2242,2238,2235,2232,2230,2230,2228,2227,2227,2226,2226,2226,2226,2226,2226,2226,2227,2226,2226,2224,2222,2221,2219,2215,2211,2207,2202,2198,2192,2186,2181,2175,2171,2165,2160,2154,2150,2146,2142,2137,2133,2131,2128,2126,2124,2123,2121,2120,2121,2120,2119,2118,2117,2116,2116,2115,2114,2112,2110,2108,2106,2104,2101,2098,2095,2091,2087,2084,2079,2074,2068,2063,2058,2052,2047,2041,2035,2029,2023,2017,2012,2007,2000,1994,1990,1985,1980,1975,1972,1967,1963,1959,1955,1951,1948,1945,1942,1938,1935,1933,1929,1926,1923,1920,1916,1913,1910,1906,1903,1900,1896,1892,1889,1885,1881,1878,1874,1871,1869,1866,1864,1864,1864,1866,1870,1876,1884,1895,1907,1923,1941,1961,1983,2007,2031,2057,2082,2109,2135,2161,2185,2209,2231,2251,2269,2286,2308,2322,2331,2338,2344,2347,2351,2351,2351,2349,2348,2345,2342,2339,2335,2331,2327,2324,2321,2318,2316,2314,2312,2311,2311,2311,2310,2311,2311,2311,2313,2313,2314,2314,2314,2314,2313,2312,2311,2308,2304,2300,2296,2289,2284,2278,2270,2264,2257,2249,2242,2234,2227,2221,2214,2208,2203,2198,2193,2189,2186,2183,2180,2177,2175,2174,2172,2171,2170,2170,2168,2167,2167,2165,2164,2162,2160,2156,2153,2150,2146,2143,2137,2133,2127,2121,2116,2110,2105,2098,2092,2086,2079,2073,2067,2060,2054,2048,2042,2037,2030,2024,2019,2014,2008,2004,1998,1994,1990,1985,1982,1977,1972,1968,1964,1959,1956,1951,1947,1944,1940,1936,1933,1930,1926,1922,1919,1915,1911,1908,1904,1900,1896,1893,1889,1885,1882,1879,1877,1876,1876,1878,1882,1888,1896,1907,1921,1938,1957,1978,2001,2025,2051,2079,2108,2135,2164,2191,2219,2244,2269,2290,2311,2331,2355,2371,2382,2392,2399,2404,2408,2411,2412,2413,2413,2412,2410,2408,2406,2404,2401,2399,2398,2396,2395,2394,2394,2394,2394,2394,2395,2397,2397,2399,2400,2401,2402,2402,2404,2404,2403,2403,2402,2400,2397,2395,2392,2387,2382,2377,2371,2365,2358,2349,2341,2333,2324,2317,2309,2300,2293,2284,2278,2271,2263,2258,2253,2247,2242,2238,2235,2231,2228,2225,2223,2220,2217,2215,2212,2210,2206,2205,2200,2197,2193,2189,2185,2180,2175,2169,2163,2157,2151,2145,2138,2131,2124,2118,2110,2104,2097,2091,2085,2077,2070,2064,2057,2050,2044,2039,2033,2027,2022,2017,2011,2006,2001,1996,1991,1987,1982,1978,1973,1969,1963,1959,1955,1951,1946,1942,1938,1934,1929,1924,1920,1915,1911,1906,1901,1897,1892,1888,1885,1880,1876,1873,1870,1869,1868,1868,1870,1874,1880,1889,1902,1915,1933,1951,1973,1998,2023,2051,2079,2108,2138,2167,2197,2224,2250,2275,2299,2320,2339,2363,2380,2391,2399,2406,2412,2416,2418,2420,2420,2420,2419,2419,2418,2415,2415,2413,2412,2410,2410,2408,2409,2408,2408,2409,2408,2410,2410,2412,2413,2414,2415,2416,2417,2417,2417,2417,2417,2415,2414,2411,2408,2404,2399,2393,2386,2380,2373,2364,2356,2347,2338,2330,2321,2312,2304,2295,2287,2280,2273,2266,2260,2253,2248,2243,2238,2235,2230,2226,2223,2219,2216,2213,2209,2206,2203,2199,2196,2192,2188,2184,2179,2175,2170,2165,2159,2154,2149,2142,2136,2130,2123,2117,2110,2104,2096,2089,2083,2076,2069,2062,2055,2048,2042,2034,2028,2021,2015,2008,2003,1996,1991,1984,1978,1973,1968,1962,1958,1952,1947,1942,1938,1932,1927,1923,1918,1913,1909,1904,1900,1895,1892,1888,1883,1880,1877,1873,1869,1867,1862,1859,1856,1852,1848,1845,1841,1838,1835,1831,1827,1824,1820,1817,1814,1810,1806,1803,1799,1796,1794,1792,1791,1791,1793,1797,1803,1813,1825,1840,1857,1878,1901,1926,1954,1983,2013,2045,2076,2108,2139,2169,2198,2225,2251,2275,2297,2325,2345,2359,2370,2379,2386,2391,2395,2398,2399,2399,2398,2397,2396,2394,2392,2390,2388,2386,2384,2382,2381,2380,2379,2378,2378,2379,2379,2380,2382,2384,2385,2386,2386,2388,2388,2388,2388,2386,2384,2381,2377,2372,2368,2361,2355,2347,2339,2330,2321,2311,2302,2293,2285,2275,2267,2259,2251,2244,2236,2230,2224,2218,2213,2208,2203,2199,2196,2191,2188,2184,2181,2177,2173,2169,2165,2161,2157,2152,2148,2143,2138,2133,2127,2121,2115,2110,2103,2097,2090,2084,2076,2070,2063,2056,2049,2041,2035,2028,2021,2014,2007,2002,1995,1988,1982,1976,1970,1963,1958,1952,1946,1941,1935,1930,1925,1920,1915,1910,1904,1900,1895,1889,1885,1880,1876,1871,1868,1863,1859,1856,1852,1848,1844,1841,1837,1833,1829,1826,1822,1818,1815,1811,1808,1805,1801,1798,1794,1791,1788,1785,1783,1780,1777,1775,1772,1770,1765,1762,1760,1757,1754,1750,1748,1744,1741,1737,1734,1730,1727,1724,1721,1719,1716,1716,1716,1718,1722,1727,1736,1748,1763,1780,1800,1823,1848,1875,1904,1934,1966,1997,2030,2061,2091,2122,2150,2177,2202,2225,2246,2273,2292,2304,2314,2321,2327,2331,2334,2334,2334,2332,2331,2328,2326,2322,2319,2316,2313,2311,2309,2308,2307,2307,2307,2307,2308,2309,2311,2312,2314,2315,2316,2317,2318,2319,2319,2317,2317,2314,2312,2308,2305,2300,2294,2288,2281,2274,2266,2258,2249,2241,2232,2224,2216,2208,2200,2193,2185,2179,2174,2169,2163,2159,2155,2151,2147,2144,2141,2138,2134,2131,2127,2125,2121,2117,2114,2111,2107,2103,2098,2094,2089,2084,2079,2073,2067,2062,2056,2050,2043,2037,2030,2023,2017,2010,2004,1998,1991,1984,1977,1971,1964,1957,1951,1945,1939,1932,1926,1920,1914,1908,1903,1898,1893,1888,1883,1878,1874,1869,1864,1860,1856,1852,1847,1843,1839,1834,1830,1826,1823,1818,1814,1810,1806,1802,1798,1795,1791,1788,1785,1782,1778,1776,1773,1770,1766,1764,1761,1758,1756,1754,1750,1749,1746,1744,1742,1740,1738,1735,1733,1730,1728,1725,1723,1720,1717,1715,1711,1709,1707,1703,1701,1699,1696,1693,1692,1690,1690,1690,1692,1696,1702,1711,1722,1736,1752,1772,1794,1818,1845,1874,1904,1935,1968,2000,2033,2064,2094,2123,2151,2177,2201,2222,2249,2268,2281,2291,2299,2305,2309,2312,2312,2312,2311,2309,2305,2301,2298,2295,2291,2287,2283,2280,2278,2275,2273,2272,2272,2271,2271,2271,2273,2273,2273,2275,2276,2277,2277,2278,2277,2277,2276,2274,2272,2270,2265,2261,2256,2250,2244,2236,2229,2222,2213,2206,2198,2190,2182,2175,2168,2162,2156,2147,2143,2137,2133,2128,2125,2122,2119,2116,2114,2112,2110,2108,2106,2104,2103,2101,2098,2096,2093,2090,2086,2082,2078,2074,2069,2064,2059,2054,2048,2041,2035,2029,2022,2017,2010,2003,1996,1990,1984,1977,1971,1965,1958,1952,1947,1941,1935,1930,1924,1920,1915,1910,1906,1901,1897,1893,1889,1885,1881,1878,1873,1869,1866,1862,1858,1854,1850,1847,1843,1840,1836,1834,1830,1827,1824,1821,1819,1816,1813,1811,1807,1804,1802,1799,1797,1795,1791,1788,1785,1782,1778,1776,1773,1769,1765,1762,1759,1755,1753,1749,1747,1743,1741,1738,1737,1736,1736,1738,1742,1748,1757,1768,1781,1798,1817,1839,1862,1889,1915,1945,1974,2004,2034,2062,2090,2118,2144,2168,2190,2211,2237,2256,2267,2277,2284,2290,2294,2297,2298,2297,2295,2292,2288,2284,2279,2274,2269,2264,2259,2255,2251,2247,2244,2242,2238,2236,2234,2232,2232,2232,2231,2230,2231,2230,2229,2228,2227,2225,2222,2219,2215,2210,2206,2200,2194,2189,2182,2175,2167,2161,2155,2149,2143,2138,2132,2127,2123,2118,2114,2111,2108,2106,2103,2101,2099,2098,2097,2096,2094,2095,2093,2092,2090,2090,2088,2087,2085,2084,2081,2078,2077,2073,2070,2065,2061,2056,2051,2046,2041,2036,2030,2023,2017,2011,2005,1999,1993,1987,1981,1975,1970,1964,1958,1953,1948,1943,1938,1933,1928,1924,1920,1916,1913,1909,1905,1901,1898,1895,1891,1888,1884,1882,1877,1875,1871,1868,1865,1862,1858,1855,1852,1848,1845,1842,1839,1835,1831,1829,1826,1823,1819,1816,1812,1809,1806,1802,1799,1797,1795,1792,1791,1791,1793,1797,1803,1811,1822,1836,1852,1871,1893,1917,1943,1971,2000,2030,2060,2091,2120,2150,2179,2205,2231,2254,2276,2295,2320,2337,2347,2357,2363,2367,2370,2372,2371,2370,2368,2364,2360,2355,2351,2346,2341,2337,2332,2327,2324,2320,2317,2315,2313,2311,2310,2309,2308,2308,2307,2307,2307,2306,2305,2304,2302,2299,2296,2292,2288,2283,2277,2271,2264,2258,2251,2243,2237,2230,2222,2215,2209,2203,2197,2191,2187,2183,2179,2175,2172,2169,2166,2164,2161,2159,2157,2156,2154,2152,2150,2147,2145,2142,2139,2138,2134,2131,2127,2123,2118,2113,2108,2102,2097,2092,2085,2079,2074,2067,2060,2054,2048,2041,2035,2027,2022,2014,2008,2002,1996,1988,1983,1976,1970,1963,1958,1952,1947,1941,1936,1932,1927,1923,1918,1914,1909,1905,1902,1898,1893,1891,1886,1883,1879,1876,1872,1869,1865,1862,1858,1856,1853,1850,1846,1843,1840,1836,1832,1829,1825,1822,1818,1815,1813,1811,1809,1807,1807,1810,1813,1819,1827,1837,1850,1867,1886,1908,1931,1958,1987,2017,2049,2082,2116,2149,2182,2214,2245,2275,2303,2329,2352,2382,2403,2417,2429,2438,2445,2450,2454,2456,2456,2455,2454,2452,2449,2446,2442,2439,2435,2432,2429,2426,2424,2423,2421,2421,2421,2421,2422,2423,2426,2426,2428,2429,2430,2431,2432,2433,2433,2431,2430,2428,2425,2421,2417,2411,2406,2398,2390,2382,2375,2365,2356,2344,2333,2323,2314,2305,2295,2287,2279,2271,2264,2257,2250,2244,2239,2234,2230,2226,2222,2218,2215,2212,2208,2205,2202,2198,2195,2191,2187,2182,2178,2173,2169,2163,2157,2151,2145,2139,2132,2125,2118,2111,2104,2097,2090,2082,2074,2067,2059,2051,2043,2036,2028,2021,2014,2008,2001,1995,1989,1982,1975,1970,1964,1959,1953,1949,1943,1938,1933,1929,1925,1919,1916,1911,1906,1902,1898,1893,1889,1884,1881,1876,1871,1867,1863,1859,1855,1850,1846,1842,1839,1834,1831,1827,1823,1819,1816,1813,1809,1807,1806,1805,1806,1809,1814,1821,1832,1844,1860,1879,1900,1924,1949,1977,2005,2036,2068,2099,2130,2161,2192,2221,2248,2274,2297,2319,2348,2368,2381,2392,2400,2406,2412,2416,2417,2418,2417,2417,2415,2413,2410,2408,2404,2402,2399,2397,2394,2392,2390,2389,2388,2388,2387,2387,2387,2388,2387,2387,2388,2387,2387,2386,2385,2383,2381,2379,2375,2371,2366,2361,2355,2348,2339,2331,2323,2314,2304,2295,2286,2277,2267,2258,2249,2241,2233,2226,2218,2211,2205,2199,2193,2189,2184,2180,2176,2173,2169,2166,2163,2161,2157,2154,2151,2147,2143,2139,2134,2130,2124,2119,2113,2107,2100,2094,2088,2080,2074,2067,2060,2053,2045,2038,2031,2022,2015,2007,1999,1992,1984,1978,1971,1964,1958,1951,1945,1940,1933,1927,1921,1916,1911,1906,1900,1895,1891,1886,1881,1877,1873,1868,1864,1861,1857,1852,1848,1845,1840,1836,1833,1829,1825,1820,1816,1812,1808,1803,1800,1796,1793,1788,1784,1782,1778,1774,1770,1767,1764,1760,1758,1755,1753,1752,1752,1753,1756,1761,1769,1779,1792,1807,1825,1847,1871,1897,1926,1955,1984,2016,2047,2078,2109,2138,2166,2193,2218,2240,2261,2286,2304,2316,2326,2334,2339,2344,2347,2348,2349,2347,2345,2343,2341,2338,2335,2333,2330,2328,2324,2323,2322,2320,2319,2319,2318,2319,2320,2321,2322,2323,2324,2326,2327,2328,2328,2328,2327,2326,2323,2320,2316,2312,2306,2300,2293,2286,2278,2270,2261,2252,2243,2234,2225,2216,2208,2200,2191,2183,2177,2169,2163,2157,2151,2146,2141,2137,2133,2129,2126,2122,2119,2117,2113,2111,2108,2105,2101,2097,2094,2089,2086,2081,2076,2071,2065,2059,2053,2046,2040,2033,2026,2019,2012,2005,1998,1992,1985,1978,1972,1966,1960,1953,1946,1940,1935,1929,1922,1917,1911,1905,1899,1894,1889,1884,1879,1873,1869,1865,1859,1856,1852,1848,1844,1841,1837,1834,1831,1828,1825,1822,1819,1816,1813,1810,1807,1804,1800,1797,1794,1792,1789,1786,1783,1780,1777,1774,1772,1768,1765,1762,1759,1755,1753,1750,1747,1743,1740,1738,1735,1732,1730,1730,1730,1731,1735,1740,1748,1758,1772,1788,1807,1829,1852,1879,1907,1935,1966,1996,2027,2058,2088,2117,2145,2171,2195,2216,2237,2261,2278,2290,2299,2307,2311,2315,2317,2318,2318,2316,2315,2313,2311,2308,2305,2302,2299,2297,2295,2292,2292,2291,2291,2290,2290,2290,2291,2292,2293,2295,2296,2296,2297,2297,2298,2297,2295,2293,2290,2287,2282,2278,2271,2265,2258,2250,2243,2234,2226,2218,2209,2200,2192,2184,2176,2169,2162,2155,2149,2143,2138,2134,2129,2126,2123,2119,2116,2113,2110,2109,2107,2104,2101,2099,2096,2094,2091,2088,2084,2080,2076,2072,2067,2062,2057,2051,2045,2040,2033,2027,2019,2013,2006,1999,1992,1985,1979,1973,1966,1960,1954,1948,1941,1936,1930,1924,1918,1912,1906,1901,1896,1891,1887,1884,1879,1874,1870,1867,1863,1860,1856,1853,1850,1847,1845,1842,1839,1837,1834,1831,1828,1825,1823,1820,1817,1813,1809,1806,1803,1800,1796,1793,1789,1786,1783,1779,1776,1772,1768,1765,1761,1757,1754,1750,1747,1743,1741,1738,1736,1733,1732,1732,1734,1736,1741,1748,1759,1771,1787,1805,1825,1850,1875,1902,1930,1960,1991,2022,2051,2082,2111,2138,2164,2188,2209,2229,2255,2272,2283,2291,2298,2303,2305,2308,2306,2306,2303,2301,2297,2293,2289,2285,2281,2277,2273,2270,2268,2265,2263,2261,2260,2258,2257,2257,2256,2255,2255,2254,2254,2253,2252,2251,2249,2246,2244,2240,2235,2229,2224,2218,2211,2205,2198,2191,2183,2177,2169,2163,2157,2151,2145,2140,2135,2131,2127,2124,2120,2117,2115,2114,2112,2110,2108,2108,2105,2103,2101,2100,2098,2095,2093,2091,2087,2086,2081,2077,2073,2069,2064,2059,2054,2049,2043,2038,2032,2027,2021,2015,2010,2004,1996,1991,1985,1978,1972,1967,1961,1955,1950,1944,1939,1933,1928,1923,1918,1914,1910,1907,1902,1898,1895,1891,1887,1884,1881,1878,1875,1871,1869,1866,1862,1859,1857,1853,1851,1848,1844,1842,1839,1836,1833,1830,1827,1824,1821,1818,1814,1811,1807,1804,1800,1797,1794,1790,1790,1787,1786,1787,1788,1792,1798,1807,1817,1831,1847,1865,1886,1909,1935,1962,1989,2019,2049,2078,2109,2137,2165,2192,2217,2239,2261,2279,2302,2318,2328,2335,2341,2346,2348,2350,2350,2348,2346,2344,2340,2337,2332,2328,2324,2320,2315,2313,2309,2307,2304,2302,2300,2300,2300,2299,2300,2299,2300,2299,2299,2298,2298,2296,2295,2293,2290,2286,2282,2277,2271,2265,2258,2251,2242,2235,2227,2220,2212,2206,2198,2191,2184,2178,2173,2167,2163,2159,2155,2152,2149,2146,2144,2141,2139,2137,2135,2133,2130,2128,2126,2124,2121,2117,2114,2111,2107,2103,2099,2094,2089,2084,2078,2074,2068,2060,2055,2049,2043,2036,2030,2024,2016,2011,2003,1997,1990,1984,1978,1971,1963,1958,1952,1946,1941,1935,1929,1924,1919,1914,1909,1905,1901,1896,1892,1889,1885,1881,1877,1874,1871,1868,1865,1862,1859,1857,1855,1852,1849,1847,1844,1841,1838,1835,1833,1830,1827,1824,1821,1817,1813,1810,1806,1802,1799,1795,1792,1789,1787,1784,1783,1784,1785,1790,1796,1805,1816,1831,1848,1868,1890,1916,1943,1972,2004,2035,2068,2100,2132,2164,2194,2223,2250,2275,2298,2318,2345,2364,2375,2384,2391,2396,2401,2402,2403,2403,2401,2400,2398,2395,2392,2389,2386,2383,2381,2378,2377,2375,2374,2373,2373,2373,2372,2374,2375,2376,2376,2377,2378,2378,2379,2379,2379,2378,2377,2374,2372,2368,2363,2358,2352,2345,2337,2329,2321,2312,2302,2293,2284,2274,2265,2256,2248,2240,2232,2225,2217,2211,2206,2201,2196,2191,2188,2184,2180,2177,2175,2171,2168,2166,2163,2159,2157,2152,2149,2145,2141,2136,2132,2128,2122,2116,2111,2105,2098,2092,2085,2077,2070,2062,2055,2047,2040,2031,2024,2016,2008,2001,1993,1987,1980,1973,1965,1960,1953,1947,1941,1935,1930,1924,1920,1915,1909,1904,1900,1896,1892,1888,1884,1881,1876,1872,1869,1866,1861,1859,1855,1852,1849,1846,1842,1839,1836,1833,1830,1827,1824,1820,1817,1813,1809,1806,1802,1798,1794,1791,1787,1783,1779,1776,1772,1767,1764,1762,1761,1760,1761,1764,1770,1776,1786,1799,1815,1833,1854,1878,1904,1933,1963,1994,2027,2059,2093,2125,2157,2188,2217,2244,2270,2293,2323,2344,2357,2368,2378,2385,2390,2393,2396,2396,2396,2394,2393,2391,2388,2385,2383,2381,2378,2377,2374,2373,2373,2371,2371,2370,2372,2372,2372,2373,2374,2375,2375,2375,2376,2377,2376,2375,2373,2371,2368,2363,2358,2352,2346,2339,2331,2323,2314,2305,2295,2285,2277,2268,2258,2249,2241,2232,2224,2217,2210,2200,2194,2188,2183,2179,2174,2170,2165,2161,2158,2154,2152,2148,2145,2142,2138,2134,2130,2127,2123,2118,2113,2109,2104,2098,2091,2085,2079,2072,2065,2057,2051,2043,2035,2027,2021,2012,2004,1997,1989,1981,1975,1967,1960,1952,1945,1939,1932,1926,1921,1915,1909,1905,1899,1893,1888,1884,1879,1874,1871,1867,1863,1858,1855,1851,1847,1843,1838,1835,1830,1827,1823,1819,1816,1812,1809,1806,1801,1798,1794,1791,1788,1785,1782,1779,1776,1773,1771,1767,1765,1761,1759,1755,1752,1749,1745,1741,1739,1736,1733,1730,1726,1724,1721,1718,1715,1714,1712,1711,1712,1715,1720,1727,1737,1751,1767,1787,1809,1835,1863,1893,1926,1960,1995,2030,2066,2101,2136,2169,2200,2231,2258,2282,2305,2335,2354,2367,2378,2386,2392,2397,2400,2401,2401,2401,2398,2396,2392,2389,2385,2383,2379,2376,2374,2371,2369,2368,2366,2366,2364,2365,2364,2365,2366,2366,2367,2367,2368,2368,2367,2367,2366,2363,2361,2357,2352,2348,2342,2336,2328,2320,2312,2303,2294,2285,2275,2266,2257,2247,2238,2230,2221,2213,2205,2199,2192,2187,2181,2175,2170,2168,2163,2159,2156,2153,2149,2146,2143,2140,2136,2132,2128,2125,2120,2115,2110,2105,2099,2093,2087,2080,2073,2066,2060,2052,2045,2039,2031,2024,2016,2009,2002,1994,1987,1980,1973,1966,1959,1952,1945,1939,1931,1925,1919,1912,1907,1901,1895,1891,1885,1880,1876,1872,1867,1863,1858,1854,1851,1847,1843,1839,1836,1832,1828,1824,1820,1817,1812,1808,1805,1801,1797,1794,1791,1788,1785,1782,1779,1776,1773,1771,1768,1765,1763,1760,1758,1755,1752,1748,1746,1743,1741,1737,1734,1731,1728,1725,1722,1720,1716,1713,1710,1707,1704,1701,1699,1696,1694,1692,1690,1690,1690,1693,1696,1703,1712,1725,1740,1758,1780,1805,1833,1863,1896,1931,1968,2004,2042,2080,2117,2153,2188,2221,2253,2281,2308,2342,2366,2381,2395,2405,2413,2419,2423,2424,2425,2423,2422,2418,2414,2409,2404,2400,2395,2390,2386,2382,2379,2376,2374,2373,2372,2371,2371,2371,2372,2372,2373,2375,2376,2376,2376,2377,2376,2375,2374,2371,2367,2363,2358,2351,2345,2337,2330,2321,2311,2303,2292,2283,2273,2265,2256,2247,2238,2230,2223,2215,2209,2202,2196,2191,2187,2181,2177,2174,2170,2166,2163,2159,2155,2151,2147,2144,2140,2136,2131,2127,2122,2117,2113,2107,2101,2094,2088,2081,2074,2067,2060,2053,2044,2038,2031,2022,2015,2008,1999,1992,1983,1977,1969,1962,1955,1949,1942,1935,1929,1922,1917,1910,1904,1899,1892,1887,1882,1875,1871,1866,1860,1856,1851,1846,1842,1838,1833,1830,1825,1821,1817,1814,1810,1807,1803,1799,1796,1792,1788,1785,1782,1779,1775,1772,1769,1766,1764,1761,1759,1757,1755,1753,1750,1748,1745,1744,1741,1738,1736,1734,1731,1729,1726,1725,1721,1719,1717,1713,1710,1707,1704,1702,1699,1697,1693,1691,1688,1687,1685,1685,1687,1689,1694,1703,1713,1726,1744,1765,1789,1816,1846,1879,1914,1952,1990,2029,2069,2108,2147,2185,2221,2255,2288,2317,2344,2379,2403,2419,2433,2444,2452,2458,2461,2462,2462,2460,2457,2453,2447,2441,2436,2429,2424,2418,2412,2407,2402,2398,2394,2391,2388,2386,2386,2385,2385,2385,2385,2386,2386,2387,2387,2387,2386,2385,2383,2382,2377,2374,2368,2362,2356,2349,2341,2332,2323,2315,2306,2296,2287,2277,2268,2259,2251,2243,2235,2228,2221,2215,2209,2204,2198,2194,2189,2186,2183,2179,2176,2173,2169,2166,2162,2159,2155,2151,2146,2142,2137,2132,2125,2120,2115,2109,2102,2096,2089,2082,2075,2067,2059,2052,2044,2036,2029,2021,2013,2006,1998,1991,1983,1976,1968,1962,1955,1948,1942,1935,1930,1924,1918,1913,1907,1902,1897,1892,1887,1882,1877,1873,1869,1865,1860,1857,1852,1848,1844,1840,1836,1832,1828,1824,1820,1817,1813,1811,1807,1804,1801,1798,1796,1793,1791,1789,1787,1784,1782,1780,1779,1776,1774,1772,1770,1767,1765,1762,1760,1758,1754,1752,1750,1746,1744,1741,1738,1735,1732,1729,1726,1723,1721,1718,1716,1715,1713,1713,1714,1717,1722,1729,1740,1754,1770,1791,1814,1841,1871,1904,1939,1977,2015,2054,2094,2134,2174,2213,2250,2285,2319,2349,2378,2414,2441,2462,2475,2486,2495,2500,2504,2505,2505,2504,2501,2497,2492,2487,2481,2475,2470,2463,2459,2452,2448,2443,2439,2435,2433,2430,2428,2426,2425,2424,2423,2422,2421,2420,2418,2417,2415,2412,2409,2405,2401,2395,2389,2383,2375,2369,2359,2351,2342,2332,2323,2313,2305,2296,2287,2279,2271,2262,2255,2249,2242,2237,2231,2227,2222,2219,2214,2210,2207,2203,2201,2197,2195,2192,2188,2185,2182,2178,2174,2169,2164,2160,2154,2148,2142,2135,2129,2122,2115,2108,2101,2094,2086,2078,2070,2062,2054,2046,2039,2030,2022,2015,2006,1999,1991,1984,1977,1971,1964,1958,1952,1946,1940,1935,1929,1924,1918,1913,1907,1902,1897,1893,1888,1883,1878,1874,1871,1866,1862,1859,1854,1851,1847,1844,1840,1836,1833,1830,1827,1824,1822,1819,1816,1813,1810,1808,1805,1803,1799,1797,1794,1792,1789,1787,1784,1782,1779,1776,1773,1770,1768,1765,1762,1759,1756,1754,1750,1748,1746,1745,1744,1745,1747,1752,1760,1770,1784,1801,1821,1845,1873,1903,1936,1972,2010,2049,2088,2128,2168,2208,2246,2283,2317,2351,2381,2409,2445,2470,2487,2501,2513,2522,2528,2533,2535,2535,2534,2531,2527,2522,2517,2512,2506,2501,2494,2489,2483,2478,2473,2470,2466,2463,2461,2459,2457,2456,2455,2455,2455,2454,2454,2452,2452,2450,2447,2444,2441,2436,2430,2424,2417,2409,2401,2392,2382,2372,2362,2352,2342,2332,2322,2313,2305,2297,2288,2281,2274,2266,2261,2256,2250,2246,2241,2238,2233,2230,2227,2223,2220,2216,2212,2209,2205,2201,2196,2193,2188,2183,2177,2172,2165,2160,2153,2147,2141,2133,2125,2117,2109,2100,2093,2085,2076,2068,2059,2052,2044,2036,2029,2021,2014,2006,1999,1992,1985,1979,1972,1966,1959,1954,1948,1942,1937,1931,1926,1920,1916,1911,1906,1901,1896,1892,1889,1884,1879,1875,1870,1866,1862,1858,1854,1850,1846,1843,1839,1836,1832,1829,1827,1823,1821,1818,1815,1812,1808,1805,1803,1799,1796,1793,1790,1787,1785,1781,1778,1775,1773,1770,1767,1764,1761,1759,1756,1754,1752,1751,1752,1754,1759,1765,1774,1787,1802,1821,1844,1869,1898,1930,1965,2001,2040,2080,2120,2162,2202,2241,2280,2316,2351,2384,2414,2441,2477,2501,2518,2532,2542,2550,2556,2558,2560,2559,2557,2554,2550,2545,2540,2534,2528,2522,2517,2511,2506,2501,2497,2495,2491,2489,2487,2485,2485,2483,2483,2482,2482,2482,2481,2480,2478,2475,2473,2469,2463,2458,2452,2444,2437,2428,2418,2408,2399,2388,2377,2368,2357,2348,2338,2328,2320,2311,2304,2295,2288,2282,2277,2271,2266,2261,2258,2254,2251,2247,2244,2240,2238,2234,2230,2227,2223,2219,2215,2210,2205,2199,2193,2188,2182,2175,2169,2161,2154,2146,2138,2129,2122,2114,2106,2098,2090,2082,2075,2067,2059,2052,2043,2036,2028,2021,2012,2005,1998,1991,1984,1978,1972,1964,1959,1953,1947,1942,1937,1931,1926,1921,1915,1912,1907,1903,1899,1894,1890,1886,1882,1878,1874,1870,1867,1864,1860,1856,1853,1849,1846,1842,1838,1834,1830,1827,1824,1820,1817,1814,1811,1808,1804,1800,1796,1793,1790,1785,1783,1781,1779,1778,1780,1782,1787,1794,1803,1817,1833,1853,1876,1903,1932,1964,1999,2036,2074,2113,2153,2193,2232,2270,2306,2342,2374,2404,2432,2468,2494,2510,2524,2536,2544,2550,2555,2556,2558,2556,2554,2549,2546,2541,2535,2530,2525,2519,2515,2510,2506,2501,2499,2495,2494,2491,2490,2490,2489,2489,2489,2488,2488,2488,2487,2486,2484,2482,2478,2474,2470,2464,2457,2448,2440,2431,2421,2410,2400,2390,2379,2368,2357,2345,2335,2326,2316,2308,2299,2291,2285,2277,2273,2266,2261,2256,2252,2248,2243,2239,2235,2232,2228,2224,2221,2215,2212,2207,2202,2197,2191,2186,2180,2174,2167,2161,2153,2146,2138,2130,2122,2114,2104,2096,2088,2079,2072,2063,2055,2047,2039,2031,2023,2015,2008,2001,1994,1988,1981,1974,1967,1962,1955,1949,1944,1937,1932,1927,1922,1918,1913,1908,1905,1900,1896,1892,1888,1884,1880,1876,1873,1870,1866,1862,1858,1855,1851,1848,1845,1842,1838,1834,1830,1827,1823,1819,1815,1812,1808,1805,1800,1797,1793,1789,1785,1781,1776,1773,1769,1765,1763,1761,1759,1759,1761,1765,1771,1781,1794,1810,1829,1852,1878,1908,1939,1975,2011,2049,2090,2130,2170,2209,2247,2284,2320,2353,2383,2412,2448,2477,2494,2508,2518,2525,2531,2535,2536,2536,2534,2532,2528,2523,2519,2514,2509,2504,2500,2495,2490,2485,2482,2480,2477,2476,2474,2473,2472,2472,2471,2471,2470,2469,2467,2465,2462,2459,2454,2449,2443,2436,2428,2419,2410,2401,2391,2380,2370,2359,2348,2337,2328,2318,2309,2300,2292,2285,2279,2273,2268,2264,2260,2257,2253,2251,2248,2246,2243,2240,2237,2235,2231,2227,2224,2219,2215,2210,2205,2200,2194,2188,2182,2175,2168,2162,2155,2147,2139,2132,2124,2116,2108,2100,2092,2084,2076,2068,2060,2053,2045,2038,2030,2023,2017,2011,2004,1999,1993,1988,1983,1978,1972,1968,1964,1959,1953,1950,1945,1941,1937,1934,1929,1926,1921,1918,1914,1910,1907,1903,1899,1895,1891,1888,1884,1881,1876,1873,1869,1866,1862,1858,1854,1850,1846,1842,1838,1833,1830,1826,1822,1820,1817,1815,1816,1818,1821,1829,1837,1850,1866,1885,1906,1932,1959,1989,2021,2055,2091,2130,2167,2204,2242,2278,2314,2347,2379,2408,2434,2468,2492,2507,2519,2528,2535,2540,2542,2543,2542,2539,2536,2531,2526,2521,2516,2510,2505,2501,2496,2492,2488,2484,2482,2480,2477,2475,2473,2472,2471,2469,2468,2467,2465,2462,2459,2457,2452,2447,2441,2434,2427,2418,2408,2399,2388,2377,2365,2355,2344,2333,2323,2314,2305,2298,2290,2284,2277,2272,2268,2263,2260,2256,2253,2250,2248,2246,2242,2239,2237,2233,2230,2227,2223,2219,2215,2210,2205,2200,2194,2188,2182,2175,2169,2161,2153,2146,2137,2129,2121,2113,2103,2095,2087,2079,2070,2061,2054,2044,2037,2029,2024,2017,2011,2005,1998,1992,1987,1982,1975,1970,1964,1960,1955,1950,1945,1941,1937,1932,1928,1923,1919,1914,1910,1905,1901,1896,1892,1888,1884,1880,1876,1872,1868,1864,1860,1856,1852,1847,1843,1840,1835,1831,1828,1824,1822,1821,1821,1822,1826,1833,1842,1855,1870,1888,1909,1933,1961,1990,2022,2055,2090,2126,2162,2198,2234,2269,2303,2335,2365,2391,2417,2449,2471,2486,2499,2509,2515,2521,2523,2524,2525,2523,2520,2518,2514,2510,2507,2503,2500,2496,2494,2491,2489,2488,2486,2485,2485,2485,2484,2484,2484,2484,2483,2482,2481,2480,2477,2474,2470,2464,2458,2451,2443,2434,2423,2413,2400,2389,2376,2363,2351,2338,2325,2314,2302,2292,2282,2273,2265,2258,2251,2246,2241,2237,2233,2229,2225,2222,2218,2215,2212,2210,2206,2203,2199,2196,2192,2187,2182,2177,2171,2165,2158,2151,2144,2137,2128,2120,2111,2103,2095,2087,2078,2070,2061,2053,2044,2037,2028,2021,2012,2005,1998,1990,1984,1978,1971,1965,1960,1953,1947,1942,1936,1931,1925,1920,1916,1910,1905,1901,1896,1891,1887,1882,1877,1873,1868,1864,1859,1855,1849,1845,1840,1835,1831,1825,1821,1816,1811,1806,1801,1798,1794,1792,1790,1791,1792,1797,1803,1813,1826,1841,1860,1882,1907,1935,1966,1998,2032,2067,2103,2139,2175,2212,2246,2279,2311,2342,2369,2394,2427,2450,2466,2480,2490,2499,2506,2512,2515,2517,2518,2518,2518,2517,2515,2515,2513,2513,2512,2512,2512,2512,2513,2513,2514,2514,2515,2516,2517,2518,2518,2518,2517,2517,2516,2514,2512,2509,2507,2502,2497,2491,2484,2476,2466,2457,2446,2434,2422,2408,2394,2381,2368,2353,2340,2326,2313,2301,2290,2279,2269,2260,2252,2244,2237,2230,2224,2218,2212,2208,2203,2198,2193,2187,2182,2178,2171,2166,2160,2154,2148,2141,2134,2128,2119,2111,2105,2096,2088,2078,2070,2061,2052,2042,2034,2024,2015,2005,1996,1987,1978,1970,1961,1953,1945,1937,1929,1922,1915,1907,1901,1894,1888,1882,1876,1870,1865,1860,1854,1850,1844,1840,1834,1829,1825,1820,1814,1809,1805,1800,1796,1791,1786,1781,1777,1773,1768,1763,1759,1754,1749,1745,1740,1736,1732,1727,1724,1719,1715,1711,1707,1703,1698,1694,1692,1690,1689,1690,1693,1698,1705,1716,1730,1746,1766,1788,1814,1842,1872,1904,1938,1972,2008,2044,2078,2113,2146,2177,2206,2234,2258,2291,2314,2330,2343,2354,2364,2371,2376,2381,2383,2385,2386,2386,2386,2387,2386,2386,2386,2385,2386,2385,2385,2385,2385,2386,2387,2387,2388,2390,2391,2392,2393,2393,2393,2393,2392,2391,2389,2386,2383,2379,2373,2368,2361,2353,2345,2336,2325,2314,2303,2290,2278,2265,2253,2239,2228,2217,2205,2194,2184,2174,2164,2156,2148,2141,2134,2127,2121,2115,2110,2105,2099,2095,2090,2085,2080,2076,2070,2065,2059,2054,2047,2041,2034,2026,2019,2012,2005,1996,1988,1981,1973,1964,1956,1948,1939,1931,1922,1913,1905,1897,1888,1881,1873,1865,1857,1850,1843,1837,1830,1824,1818,1812,1806,1801,1795,1790,1784,1779,1774,1768,1764,1759,1754,1750,1745,1741,1737,1733,1729,1725,1721,1717,1713,1709,1705,1702,1698,1695,1691,1688,1685,1682,1679,1675,1672,1668,1664,1662,1657,1654,1650,1647,1643,1641,1637,1634,1631,1628,1624,1622,1618,1615,1611,1608,1604,1601,1597,1594,1591,1587,1584,1581,1579,1578,1578,1579,1583,1590,1599,1611,1626,1643,1664,1687,1712,1741,1772,1803,1836,1870,1904,1937,1971,2003,2033,2062,2088,2112,2133,2160,2180,2192,2202,2211,2217,2222,2225,2227,2229,2229,2228,2228,2227,2227,2226,2226,2225,2226,2227,2227,2227,2229,2231,2232,2235,2237,2239,2242,2244,2246,2248,2249,2250,2250,2251,2250,2249,2247,2245,2241,2237,2232,2226,2219,2212,2205,2196,2187,2178,2168,2159,2149,2139,2130,2121,2112,2104,2095,2088,2081,2074,2069,2063,2058,2054,2048,2044,2040,2036,2032,2028,2023,2019,2015,2011,2007,2003,1998,1993,1989,1984,1979,1973,1967,1962,1956,1949,1943,1936,1929,1922,1915,1908,1901,1893,1886,1879,1871,1864,1857,1849,1842,1835,1828,1821,1814,1807,1801,1796,1790,1785,1779,1775,1770,1766,1762,1758,1754,1750,1746,1742,1739,1734,1731,1726,1723,1719,1715,1711,1707,1704,1699,1696,1693,1690,1687,1684,1681,1678,1674,1672,1669,1667,1664,1662,1660,1657,1654,1652,1650,1647,1645,1642,1640,1637,1633,1631,1628,1625,1622,1618,1614,1610,1607,1603,1600,1596,1593,1590,1587,1585,1582,1580,1578,1576,1573,1573,1572,1573,1575,1580,1586,1595,1606,1621,1638,1658,1680,1704,1730,1757,1784,1814,1843,1871,1900,1928,1953,1978,2001,2022,2041,2065,2081,2092,2101,2107,2113,2116,2118,2118,2119,2118,2117,2115,2113,2111,2110,2108,2105,2105,2104,2103,2103,2103,2104,2105,2106,2108,2108,2111,2113,2116,2118,2119,2122,2124,2125,2125,2126,2126,2125,2124,2122,2120,2115,2111,2107,2101,2095,2088,2081,2074,2066,2058,2050,2041,2034,2027,2019,2012,2006,2000,1994,1989,1985,1980,1976,1972,1969,1966,1964,1961,1959,1956,1955,1952,1949,1947,1944,1941,1938,1935,1930,1927,1922,1918,1912,1908,1902,1898,1892,1886,1880,1873,1868,1862,1856,1849,1843,1838,1832,1827,1822,1818,1811,1807,1803,1798,1793,1789,1785,1781,1778,1774,1770,1767,1764,1760,1757,1753,1751,1747,1744,1741,1737,1734,1731,1727,1724,1721,1717,1714,1710,1708,1705,1701,1699,1695,1692,1689,1686,1684,1681,1678,1676,1674,1670,1668,1665,1663,1660,1657,1654,1650,1648,1645,1643,1640,1637,1634,1631,1629,1627,1624,1621,1619,1617,1614,1611,1608,1606,1603,1601,1598,1595,1592,1589,1587,1584,1582,1580,1577,1576,1575,1574,1575,1578,1581,1587,1595,1606,1619,1635,1654,1675,1697,1722,1748,1774,1801,1828,1856,1881,1907,1930,1951,1972,1990,2006,2024,2038,2046,2052,2056,2058,2059,2060,2059,2056,2055,2052,2048,2044,2040,2036,2033,2029,2026,2023,2021,2020,2018,2017,2017,2018,2018,2021,2021,2023,2026,2027,2029,2032,2033,2036,2037,2038,2038,2038,2036,2034,2031,2028,2024,2019,2013,2006,2000,1993,1986,1979,1972,1966,1961,1955,1949,1945,1941,1937,1935,1932,1930,1929,1928,1927,1926,1925,1925,1925,1925,1924,1923,1923,1922,1920,1920,1918,1916,1914,1911,1908,1905,1902,1899,1895,1890,1887,1882,1878,1873,1869,1864,1858,1854,1849,1844,1839,1834,1829,1825,1819,1814,1810,1806,1801,1797,1793,1788,1784,1780,1776,1772,1768,1764,1759,1756,1753,1749,1746,1743,1740,1737,1734,1732,1728,1726,1724,1721,1720,1717,1716,1714,1712,1710,1708,1706,1704,1702,1700,1699,1697,1695,1693,1691,1689,1687,1685,1683,1680,1678,1676,1674,1671,1669,1667,1664,1662,1659,1656,1653,1650,1649,1646,1644,1641,1641,1640,1642,1644,1647,1653,1661,1670,1683,1697,1714,1732,1754,1776,1799,1824,1849,1874,1898,1923,1945,1966,1987,2004,2020,2035,2052,2062,2068,2072,2074,2075,2074,2072,2069,2065,2061,2056,2050,2044,2039,2034,2028,2024,2020,2016,2012,2010,2007,2006,2004,2002,2003,2003,2002,2003,2004,2006,2006,2007,2008,2008,2007,2007,2005,2004,2002,1999,1995,1992,1987,1983,1979,1975,1971,1966,1961,1957,1953,1947,1944,1940,1936,1934,1932,1930,1929,1928,1928,1927,1927,1928,1927,1927,1927,1927,1927,1927,1926,1925,1924,1923,1922,1921,1919,1917,1914,1912,1908,1904,1899,1896,1891,1887,1882,1878,1873,1868,1864,1860,1856,1852,1848,1844,1840,1837,1833,1830,1827,1824,1821,1818,1815,1811,1809,1806,1803,1801,1797,1795,1792,1790,1787,1785,1783,1781,1779,1777,1775,1773,1771,1769,1766,1764,1762,1760,1758,1756,1754,1751,1749,1747,1745,1743,1741,1739,1736,1734,1732,1730,1728,1725,1725,1722,1720,1717,1716,1715,1713,1712,1711,1712,1716,1720,1727,1735,1745,1759,1775,1793,1813,1834,1857,1881,1906,1931,1955,1979,2003,2024,2044,2063,2079,2093,2105,2119,2126,2132,2133,2135,2134,2132,2129,2125,2120,2115,2109,2103,2098,2091,2086,2082,2076,2073,2069,2066,2064,2062,2060,2059,2058,2058,2059,2060,2062,2063,2064,2065,2067,2067,2067,2067,2067,2066,2065,2062,2059,2056,2052,2048,2044,2039,2033,2027,2022,2017,2011,2006,2002,1997,1992,1990,1986,1985,1982,1981,1980,1981,1980,1981,1980,1981,1981,1981,1981,1981,1982,1981,1980,1979,1978,1977,1975,1972,1970,1967,1964,1960,1956,1953,1949,1944,1940,1936,1931,1927,1923,1918,1914,1910,1906,1901,1897,1892,1889,1885,1881,1878,1874,1871,1868,1864,1862,1859,1856,1853,1851,1849,1846,1843,1841,1840,1837,1836,1834,1832,1831,1828,1826,1824,1822,1820,1817,1815,1813,1810,1807,1805,1801,1799,1797,1794,1791,1788,1785,1783,1780,1778,1774,1771,1768,1766,1763,1762,1761,1761,1763,1767,1772,1780,1790,1803,1818,1837,1856,1878,1902,1926,1952,1978,2003,2028,2053,2076,2098,2119,2138,2155,2170,2188,2200,2207,2212,2215,2217,2217,2216,2214,2212,2208,2204,2200,2196,2193,2189,2185,2183,2180,2177,2175,2174,2173,2173,2174,2174,2174,2175,2176,2176,2179,2180,2182,2184,2185,2186,2188,2188,2188,2188,2186,2185,2184,2181,2178,2175,2172,2167,2163,2158,2152,2146,2141,2135,2128,2122,2116,2112,2106,2101,2096,2092,2089,2085,2082,2079,2077,2076,2074,2072,2072,2070,2069,2068,2067,2066,2065,2063,2062,2060,2058,2056,2053,2050,2047,2043,2040,2035,2030,2027,2021,2017,2012,2008,2002,1997,1991,1987,1981,1976,1971,1965,1961,1956,1951,1947,1942,1938,1934,1929,1925,1920,1916,1913,1910,1906,1902,1899,1896,1893,1890,1887,1884,1881,1878,1876,1873,1871,1868,1865,1862,1860,1857,1855,1853,1849,1847,1844,1843,1840,1838,1835,1833,1829,1827,1824,1821,1818,1815,1812,1810,1807,1804,1801,1798,1796,1795,1793,1793,1796,1800,1807,1815,1826,1840,1856,1875,1896,1919,1944,1969,1997,2023,2050,2076,2102,2126,2148,2170,2189,2206,2222,2241,2252,2260,2266,2270,2272,2274,2274,2272,2270,2266,2263,2259,2256,2252,2248,2245,2242,2240,2237,2236,2235,2235,2234,2235,2237,2237,2239,2241,2243,2244,2247,2249,2250,2252,2252,2254,2254,2254,2253,2252,2251,2249,2246,2244,2239,2234,2230,2225,2219,2213,2206,2200,2194,2188,2181,2175,2169,2163,2158,2153,2149,2145,2141,2139,2135,2133,2130,2128,2127,2125,2123,2122,2121,2119,2117,2114,2112,2111,2107,2105,2102,2099,2095,2091,2088,2085,2082,2076,2072,2068,2063,2057,2052,2047,2041,2037,2031,2025,2019,2014,2008,2003,1998,1991,1987,1981,1976,1971,1965,1960,1955,1951,1947,1941,1937,1934,1930,1925,1922,1919,1914,1911,1908,1905,1901,1897,1895,1892,1888,1885,1882,1880,1876,1872,1870,1867,1863,1860,1857,1855,1851,1849,1847,1843,1841,1838,1835,1832,1828,1825,1822,1819,1815,1812,1809,1806,1803,1800,1798,1796,1795,1796,1797,1801,1807,1815,1827,1841,1857,1876,1898,1921,1946,1972,1999,2028,2056,2083,2110,2136,2161,2183,2205,2224,2241,2262,2277,2286,2293,2299,2303,2305,2306,2306,2306,2303,2301,2298,2295,2291,2289,2285,2283,2280,2278,2276,2275,2275,2275,2274,2275,2275,2277,2278,2280,2282,2284,2286,2288,2289,2291,2292,2293,2294,2293,2293,2292,2290,2288,2285,2281,2276,2271,2266,2260,2254,2248,2242,2235,2229,2223,2217,2210,2205,2198,2193,2188,2183,2179,2174,2170,2166,2163,2160,2157,2154,2152,2149,2148,2146,2143,2141,2137,2135,2131,2128,2125,2121,2117,2112,2108,2104,2099,2095,2089,2084,2078,2073,2068,2061,2056,2051,2045,2039,2033,2026,2020,2014,2008,2001,1995,1989,1983,1977,1972,1967,1961,1956,1951,1947,1942,1938,1934,1931,1926,1923,1919,1915,1912,1907,1904,1900,1897,1893,1890,1887,1884,1881,1878,1875,1873,1870,1867,1863,1861,1858,1855,1853,1849,1846,1843,1840,1837,1834,1831,1828,1826,1823,1820,1818,1815,1813,1811,1808,1806,1803,1799,1796,1793,1790,1787,1785,1783,1781,1780,1781,1784,1787,1794,1804,1816,1830,1849,1869,1893,1918,1945,1973,2004,2033,2062,2093,2122,2149,2176,2201,2225,2245,2264,2288,2303,2313,2320,2326,2330,2332,2333,2332,2330,2327,2324,2321,2316,2312,2309,2305,2302,2297,2295,2292,2290,2289,2287,2287,2287,2287,2287,2288,2290,2291,2292,2293,2295,2296,2298,2299,2299,2299,2297,2296,2294,2291,2287,2284,2279,2274,2268,2263,2256,2250,2244,2237,2232,2225,2218,2212,2206,2201,2195,2189,2185,2182,2177,2174,2171,2168,2165,2164,2162,2159,2157,2156,2154,2152,2149,2146,2145,2142,2139,2137,2134,2131,2127,2123,2118,2113,2108,2102,2097,2091,2086,2080,2073,2068,2061,2055,2049,2043,2037,2030,2025,2020,2015,2008,2002,1996,1992,1987,1982,1977,1972,1968,1963,1958,1953,1948,1943,1938,1934,1929,1925,1921,1917,1912,1908,1904,1901,1898,1895,1891,1889,1885,1882,1879,1875,1872,1869,1866,1862,1859,1857,1854,1851,1848,1846,1843,1840,1837,1835,1832,1828,1825,1821,1819,1814,1811,1807,1804,1801,1797,1794,1790,1788,1784,1781,1778,1775,1773,1770,1769,1770,1772,1776,1782,1792,1805,1819,1837,1858,1880,1906,1933,1961,1991,2021,2052,2082,2112,2140,2168,2193,2216,2239,2257,2282,2299,2310,2319,2326,2330,2333,2335,2334,2333,2331,2327,2323,2318,2314,2309,2304,2299,2294,2290,2287,2283,2281,2278,2277,2276,2276,2275,2276,2276,2276,2277,2277,2277,2278,2278,2279,2278,2276,2275,2273,2271,2268,2265,2260,2256,2251,2246,2241,2234,2228,2221,2214,2208,2202,2195,2190,2184,2179,2175,2171,2167,2164,2161,2159,2158,2156,2154,2154,2153,2151,2150,2149,2148,2146,2145,2143,2140,2138,2134,2132,2128,2125,2121,2118,2114,2109,2104,2099,2094,2087,2081,2075,2069,2063,2056,2050,2043,2037,2031,2025,2019,2013,2008,2003,1999,1993,1989,1984,1979,1974,1970,1967,1962,1958,1954,1950,1947,1944,1941,1937,1934,1930,1927,1924,1920,1916,1913,1909,1905,1902,1898,1895,1891,1887,1883,1880,1875,1872,1868,1865,1862,1858,1855,1851,1848,1844,1841,1837,1834,1832,1830,1830,1832,1835,1841,1849,1860,1873,1889,1908,1928,1952,1977,2005,2032,2061,2091,2119,2148,2175,2202,2227,2251,2272,2292,2317,2334,2347,2356,2363,2369,2373,2376,2377,2376,2374,2371,2367,2362,2357,2351,2346,2340,2333,2327,2322,2317,2312,2308,2304,2300,2298,2295,2294,2292,2292,2291,2291,2290,2289,2289,2287,2285,2283,2280,2277,2273,2269,2265,2258,2253,2247,2239,2233,2227,2220,2214,2209,2203,2198,2194,2189,2184,2181,2177,2174,2172,2169,2168,2166,2165,2165,2164,2163,2162,2162,2161,2160,2160,2158,2157,2154,2152,2149,2146,2142,2138,2133,2128,2124,2119,2114,2109,2104,2099,2094,2087,2082,2076,2071,2065,2059,2053,2047,2041,2035,2030,2024,2020,2014,2009,2004,1999,1994,1991,1987,1982,1978,1974,1970,1966,1962,1958,1954,1949,1945,1940,1936,1932,1928,1923,1919,1915,1910,1907,1903,1899,1895,1892,1888,1884,1882,1880,1878,1877,1879,1882,1887,1893,1903,1916,1931,1948,1969,1992,2017,2043,2071,2102,2130,2160,2190,2218,2247,2274,2299,2322,2343,2362,2386,2403,2414,2423,2430,2435,2439,2440,2440,2439,2437,2434,2430,2426,2421,2416,2411,2408,2402,2400,2396,2393,2390,2387,2385,2383,2382,2381,2380,2380,2379,2379,2379,2378,2376,2375,2373,2370,2367,2362,2358,2352,2346,2340,2333,2325,2317,2309,2302,2294,2286,2279,2271,2265,2259,2252,2247,2242,2238,2234,2230,2227,2224,2221,2219,2216,2215,2213,2211,2209,2207,2205,2202,2200,2196,2192,2189,2185,2181,2178,2173,2168,2164,2158,2153,2146,2141,2134,2128,2121,2113,2107,2099,2092,2085,2079,2072,2065,2057,2051,2045,2039,2033,2027,2020,2015,2010,2003,1998,1993,1988,1983,1978,1974,1970,1964,1960,1956,1951,1946,1941,1936,1931,1927,1922,1918,1913,1909,1905,1901,1897,1893,1890,1888,1886,1886,1887,1890,1895,1904,1915,1929,1947,1966,1989,2015,2042,2071,2102,2135,2168,2200,2233,2265,2295,2324,2353,2378,2401,2422,2449,2468,2479,2490,2496,2503,2507,2509,2510,2509,2508,2506,2504,2500,2497,2493,2490,2488,2484,2482,2479,2478,2476,2476,2476,2476,2477,2477,2477,2478,2480,2481,2482,2483,2484,2483,2483,2482,2480,2477,2474,2471,2467,2460,2454,2447,2439,2430,2422,2412,2402,2392,2382,2372,2362,2352,2343,2333,2325,2316,2309,2301,2294,2289,2282,2277,2273,2268,2264,2261,2257,2253,2250,2247,2243,2239,2236,2231,2227,2223,2217,2213,2208,2202,2197,2190,2184,2177,2172,2164,2157,2150,2142,2135,2128,2119,2111,2103,2095,2087,2079,2071,2063,2055,2047,2040,2033,2026,2019,2013,2006,2001,1995,1989,1983,1978,1973,1967,1962,1956,1952,1947,1942,1936,1932,1926,1921,1916,1911,1906,1901,1896,1891,1886,1883,1880,1878,1879,1880,1885,1892,1903,1915,1931,1951,1972,1997,2023,2052,2083,2115,2148,2183,2216,2248,2280,2311,2341,2367,2393,2415,2446,2466,2480,2492,2501,2509,2515,2518,2520,2522,2522,2522,2522,2519,2518,2515,2513,2511,2508,2505,2503,2501,2499,2496,2495,2493,2492,2491,2490,2491,2489,2489,2488,2488,2487,2486,2484,2481,2479,2475,2471,2467,2461,2456,2448,2440,2432,2423,2413,2403,2393,2382,2373,2362,2349,2338,2329,2319,2311,2302,2294,2287,2279,2271,2265,2260,2253,2248,2242,2237,2233,2229,2224,2220,2214,2210,2206,2201,2196,2192,2187,2181,2175,2169,2163,2157,2150,2143,2136,2128,2120,2113,2105,2097,2090,2080,2073,2063,2056,2047,2039,2031,2022,2014,2005,1998,1990,1982,1976,1969,1961,1954,1948,1941,1936,1930,1924,1919,1914,1910,1905,1901,1895,1892,1887,1883,1879,1875,1871,1867,1864,1860,1856,1853,1849,1845,1841,1836,1832,1827,1823,1818,1813,1810,1805,1803,1802,1801,1802,1805,1810,1818,1829,1843,1861,1880,1903,1929,1958,1989,2022,2056,2091,2126,2163,2198,2232,2265,2296,2324,2351,2377,2409,2432,2447,2460,2470,2478,2483,2487,2490,2491,2490,2490,2488,2484,2482,2479,2475,2473,2471,2467,2466,2464,2464,2463,2462,2462,2461,2461,2462,2462,2461,2461,2460,2460,2459,2458,2456,2454,2451,2448,2444,2439,2433,2427,2420,2410,2402,2392,2382,2372,2360,2350,2338,2327,2316,2306,2296,2286,2277,2268,2260,2252,2245,2239,2233,2227,2221,2217,2213,2208,2203,2199,2195,2191,2187,2182,2178,2174,2168,2164,2158,2153,2146,2140,2134,2126,2120,2111,2105,2097,2089,2080,2072,2063,2055,2046,2039,2030,2022,2013,2005,1997,1990,1982,1975,1968,1961,1954,1948,1941,1935,1927,1922,1915,1909,1904,1898,1891,1887,1882,1877,1871,1867,1862,1857,1852,1848,1842,1838,1832,1828,1823,1819,1814,1810,1805,1801,1796,1792,1789,1785,1781,1778,1776,1772,1770,1767,1764,1761,1758,1756,1752,1750,1747,1745,1741,1739,1736,1733,1731,1728,1725,1723,1721,1718,1715,1712,1710,1707,1704,1702,1699,1696,1694,1692,1691,1692,1696,1702,1710,1721,1737,1755,1777,1802,1831,1863,1898,1934,1972,2012,2053,2093,2133,2173,2211,2248,2282,2314,2343,2369,2404,2427,2443,2456,2467,2475,2480,2484,2485,2485,2484,2482,2480,2476,2472,2469,2465,2461,2458,2455,2452,2451,2449,2447,2446,2446,2446,2447,2447,2448,2449,2449,2449,2450,2449,2448,2447,2446,2442,2439,2434,2429,2423,2416,2408,2398,2389,2378,2368,2358,2346,2334,2323,2312,2301,2291,2282,2272,2263,2255,2247,2241,2234,2229,2223,2218,2213,2209,2203,2199,2194,2190,2186,2182,2178,2173,2168,2164,2159,2155,2149,2143,2138,2132,2125,2118,2111,2104,2095,2088,2080,2073,2064,2055,2047,2038,2030,2022,2014,2005,1997,1989,1981,1973,1964,1957,1949,1941,1935,1928,1921,1914,1908,1902,1895,1890,1885,1879,1875,1870,1865,1861,1856,1852,1847,1843,1838,1833,1828,1825,1820,1816,1811,1807,1802,1798,1795,1791,1788,1784,1781,1777,1774,1770,1768,1764,1761,1758,1756,1752,1748,1746,1742,1740,1737,1734,1731,1728,1726,1724,1722,1719,1717,1715,1712,1710,1707,1704,1701,1698,1695,1692,1689,1686,1683,1680,1677,1674,1671,1669,1666,1665,1664,1665,1666,1671,1677,1687,1699,1714,1732,1755,1780,1810,1842,1876,1913,1952,1990,2031,2071,2111,2150,2187,2223,2256,2287,2315,2340,2373,2396,2410,2422,2432,2439,2443,2445,2445,2443,2441,2437,2433,2429,2424,2419,2414,2409,2404,2399,2396,2392,2389,2386,2385,2383,2382,2381,2381,2381,2381,2381,2381,2380,2379,2378,2376,2373,2370,2366,2361,2355,2349,2342,2335,2326,2317,2308,2298,2288,2278,2268,2258,2249,2239,2230,2222,2214,2207,2201,2194,2189,2184,2180,2176,2174,2171,2168,2165,2163,2161,2158,2156,2154,2151,2148,2145,2141,2137,2132,2127,2122,2116,2110,2103,2096,2089,2081,2074,2066,2057,2050,2041,2032,2025,2017,2009,2001,1993,1985,1977,1970,1963,1956,1949,1941,1935,1928,1922,1915,1909,1902,1897,1891,1886,1882,1876,1872,1868,1863,1859,1856,1852,1848,1844,1840,1836,1833,1829,1825,1822,1818,1815,1811,1808,1804,1801,1798,1795,1792,1788,1786,1783,1780,1776,1773,1770,1767,1763,1760,1756,1752,1749,1746,1742,1739,1735,1731,1729,1725,1722,1720,1718,1717,1717,1721,1725,1733,1743,1756,1773,1792,1815,1840,1869,1901,1934,1970,2006,2044,2081,2119,2155,2191,2224,2256,2286,2313,2336,2368,2390,2404,2415,2424,2430,2434,2436,2437,2435,2432,2429,2424,2419,2413,2408,2401,2396,2390,2385,2380,2376,2370,2368,2363,2360,2358,2356,2353,2352,2351,2349,2348,2345,2344,2342,2337,2334,2329,2324,2318,2311,2304,2296,2288,2279,2269,2259,2250,2240,2231,2220,2212,2203,2195,2188,2182,2177,2171,2166,2162,2158,2154,2151,2149,2146,2144,2143,2140,2139,2137,2135,2134,2131,2129,2124,2122,2118,2114,2109,2105,2100,2095,2089,2083,2078,2071,2063,2057,2049,2041,2033,2025,2016,2009,2000,1993,1985,1977,1970,1963,1955,1948,1941,1934,1927,1920,1913,1908,1901,1895,1890,1884,1879,1875,1870,1867,1862,1858,1855,1852,1848,1845,1842,1838,1835,1832,1829,1826,1822,1819,1816,1813,1810,1806,1802,1799,1796,1791,1787,1784,1780,1776,1772,1768,1765,1761,1758,1756,1755,1755,1756,1759,1765,1775,1787,1801,1820,1842,1867,1894,1924,1958,1993,2030,2069,2107,2146,2184,2222,2258,2292,2324,2353,2381,2405,2436,2457,2470,2481,2489,2494,2498,2499,2499,2497,2495,2491,2487,2482,2475,2470,2464,2459,2453,2447,2442,2437,2433,2430,2426,2424,2422,2421,2420,2419,2418,2418,2417,2416,2414,2411,2410,2406,2401,2396,2390,2384,2376,2368,2360,2350,2340,2330,2319,2308,2297,2286,2276,2266,2256,2247,2239,2231,2224,2217,2211,2206,2201,2196,2193,2189,2185,2182,2178,2175,2173,2170,2166,2163,2160,2156,2152,2147,2143,2137,2132,2127,2120,2114,2107,2099,2092,2084,2076,2068,2059,2052,2043,2034,2026,2017,2008,2001,1992,1984,1977,1969,1960,1953,1946,1939,1931,1925,1918,1912,1906,1899,1894,1888,1883,1878,1873,1868,1864,1860,1855,1851,1848,1843,1840,1836,1833,1829,1826,1822,1817,1814,1810,1806,1803,1799,1795,1792,1789,1785,1781,1778,1774,1770,1767,1762,1758,1754,1750,1747,1744,1742,1740,1740,1741,1744,1750,1758,1769,1784,1802,1824,1850,1878,1911,1945,1982,2022,2062,2104,2146,2187,2228,2269,2306,2342,2376,2407,2434,2471,2497,2514,2528,2539,2549,2555,2559,2562,2562,2562,2561,2558,2555,2551,2547,2543,2538,2535,2531,2528,2525,2523,2521,2518,2518,2518,2518,2518,2518,2519,2520,2520,2521,2520,2520,2520,2518,2516,2513,2509,2504,2498,2491,2482,2474,2464,2453,2442,2429,2416,2404,2391,2379,2365,2353,2340,2329,2317,2306,2295,2286,2277,2269,2261,2254,2248,2242,2237,2231,2226,2222,2216,2212,2207,2202,2198,2193,2188,2183,2177,2171,2165,2158,2151,2145,2136,2129,2121,2113,2103,2095,2086,2077,2069,2059,2050,2041,2032,2022,2013,2004,1996,1987,1979,1971,1962,1955,1947,1939,1931,1925,1918,1912,1907,1900,1895,1890,1885,1880,1874,1869,1864,1860,1856,1852,1846,1843,1839,1835,1831,1827,1823,1820,1816,1813,1808,1805,1801,1797,1794,1791,1787,1783,1779,1776,1772,1769,1764,1761,1757,1753,1750,1747,1743,1738,1735,1730,1726,1722,1720,1716,1713,1710,1710,1710,1712,1716,1723,1734,1748,1764,1786,1810,1839,1871,1905,1944,1984,2026,2068,2111,2155,2197,2240,2279,2318,2354,2388,2419,2459,2488,2506,2522,2535,2545,2553,2558,2562,2564,2564,2562,2560,2556,2554,2550,2546,2542,2537,2533,2530,2527,2524,2523,2521,2521,2519,2518,2518,2518,2518,2518,2518,2517,2517,2516,2515,2512,2508,2505,2501,2496,2489,2481,2473,2463,2454,2443,2431,2418,2406,2393,2381,2368,2355,2343,2331,2320,2309,2299,2288,2280,2271,2263,2257,2249,2243,2237,2231,2226,2222,2218,2214,2209,2205,2200,2195,2191,2185,2180,2174,2167,2162,2154,2148,2140,2132,2125,2117,2108,2100,2092,2083,2074,2066,2056,2047,2038,2028,2018,2009,1999,1990,1981,1972,1963,1955,1946,1938,1931,1923,1914,1907,1901,1894,1888,1881,1876,1869,1865,1860,1855,1849,1845,1840,1835,1831,1826,1821,1817,1814,1810,1806,1801,1798,1794,1790,1786,1783,1778,1775,1772,1767,1764,1761,1758,1755,1752,1748,1745,1741,1738,1735,1732,1728,1725,1721,1718,1715,1712,1708,1707,1703,1700,1698,1696,1694,1691,1689,1687,1684,1682,1680,1678,1676,1673,1670,1667,1665,1662,1660,1657,1653,1651,1647,1644,1640,1638,1636,1633,1631,1630,1631,1633,1638,1645,1657,1671,1688,1711,1738,1769,1804,1844,1886,1931,1978,2027,2076,2125,2174,2222,2268,2313,2355,2394,2430,2462,2504,2533,2552,2567,2580,2589,2594,2599,2600,2601,2599,2596,2592,2588,2583,2577,2572,2567,2562,2557,2553,2548,2545,2542,2540,2538,2537,2536,2535,2535,2535,2534,2535,2534,2534,2533,2532,2530,2527,2524,2520,2514,2507,2500,2493,2483,2473,2462,2450,2439,2426,2413,2400,2388,2375,2363,2348,2336,2325,2315,2305,2296,2287,2279,2273,2265,2258,2253,2247,2241,2236,2231,2226,2221,2217,2212,2207,2202,2197,2191,2185,2180,2173,2166,2159,2152,2144,2136,2127,2118,2111,2101,2091,2082,2073,2063,2054,2045,2036,2026,2018,2008,1999,1990,1981,1972,1963,1955,1947,1938,1930,1922,1915,1908,1901,1894,1887,1882,1875,1868,1862,1857,1851,1846,1840,1835,1830,1825,1820,1816,1812,1807,1802,1798,1794,1790,1786,1782,1778,1774,1770,1766,1763,1759,1756,1752,1748,1745,1741,1738,1735,1732,1728,1726,1722,1719,1716,1714,1710,1707,1705,1702,1700,1697,1694,1691,1690,1687,1684,1681,1679,1678,1675,1672,1670,1668,1665,1663,1659,1658,1655,1652,1649,1647,1644,1641,1639,1636,1633,1630,1628,1625,1622,1619,1618,1616,1614,1615,1616,1618,1623,1630,1641,1656,1675,1697,1725,1756,1791,1829,1871,1916,1962,2010,2059,2109,2157,2206,2252,2298,2339,2379,2416,2449,2491,2521,2540,2556,2569,2577,2583,2588,2589,2588,2586,2581,2577,2571,2564,2557,2549,2542,2535,2529,2523,2518,2513,2509,2505,2502,2499,2497,2496,2494,2493,2491,2491,2491,2490,2487,2486,2484,2481,2477,2472,2467,2461,2454,2445,2437,2427,2416,2404,2392,2380,2367,2355,2343,2331,2319,2307,2297,2286,2278,2268,2260,2253,2246,2240,2235,2230,2225,2222,2218,2213,2210,2207,2205,2200,2197,2193,2189,2184,2179,2174,2169,2163,2157,2149,2143,2135,2127,2119,2111,2103,2095,2085,2075,2066,2057,2047,2038,2029,2019,2009,2000,1991,1982,1973,1965,1956,1949,1941,1933,1925,1918,1911,1904,1898,1893,1886,1879,1874,1869,1864,1859,1854,1849,1845,1840,1836,1832,1827,1824,1819,1814,1810,1807,1803,1799,1795,1791,1788,1784,1781,1778,1774,1772,1769,1766,1764,1761,1759,1756,1753,1750,1748,1744,1741,1738,1735,1731,1728,1725,1721,1718,1714,1710,1707,1704,1699,1695,1692,1688,1685,1682,1680,1679,1679,1681,1686,1694,1703,1716,1733,1753,1778,1807,1837,1873,1911,1952,1994,2039,2084,2129,2174,2218,2261,2301,2340,2376,2409,2438,2477,2502,2518,2532,2542,2549,2554,2556,2555,2554,2549,2544,2537,2530,2522,2514,2504,2495,2487,2478,2470,2463,2456,2450,2444,2439,2434,2429,2425,2422,2419,2417,2414,2410,2407,2403,2399,2394,2389,2382,2375,2367,2357,2349,2338,2327,2316,2305,2294,2283,2272,2261,2250,2240,2230,2221,2213,2205,2198,2191,2186,2181,2176,2172,2168,2165,2162,2159,2157,2154,2151,2149,2147,2145,2142,2138,2136,2132,2128,2124,2120,2114,2109,2103,2096,2089,2081,2073,2064,2056,2047,2038,2028,2018,2009,2000,1990,1981,1972,1963,1954,1945,1937,1930,1922,1915,1908,1901,1895,1889,1883,1878,1872,1868,1863,1858,1853,1849,1844,1840,1835,1831,1827,1822,1818,1814,1810,1806,1803,1798,1794,1789,1786,1782,1777,1774,1769,1766,1762,1758,1755,1751,1748,1744,1741,1737,1734,1730,1727,1724,1720,1717,1715,1712,1710,1709,1709,1711,1714,1720,1729,1740,1756,1774,1797,1823,1853,1886,1923,1962,2003,2046,2090,2135,2180,2225,2268,2310,2349,2387,2420,2453,2494,2523,2542,2558,2570,2580,2587,2591,2592,2592,2589,2585,2579,2573,2565,2559,2550,2541,2533,2525,2517,2509,2501,2495,2488,2483,2478,2473,2470,2466,2463,2460,2458,2454,2451,2448,2444,2440,2434,2429,2423,2415,2406,2397,2388,2378,2367,2357,2345,2335,2324,2312,2302,2292,2282,2273,2265,2257,2250,2244,2239,2233,2229,2225,2221,2218,2214,2212,2210,2207,2205,2203,2200,2197,2193,2190,2186,2182,2177,2172,2167,2161,2155,2148,2141,2133,2125,2116,2107,2099,2089,2080,2070,2062,2052,2042,2034,2023,2014,2005,1996,1987,1979,1970,1962,1954,1947,1939,1932,1925,1920,1914,1908,1903,1898,1893,1888,1884,1879,1875,1870,1866,1862,1858,1854,1850,1847,1842,1838,1835,1831,1827,1822,1818,1814,1811,1807,1802,1797,1794,1789,1786,1781,1777,1774,1770,1767,1765,1763,1763,1765,1769,1776,1786,1801,1818,1839,1866,1895,1928,1965,2004,2047,2092,2137,2185,2232,2279,2325,2370,2413,2453,2491,2525,2555,2595,2623,2640,2655,2666,2675,2681,2684,2685,2684,2681,2677,2672,2666,2660,2654,2648,2641,2635,2629,2623,2618,2614,2609,2606,2602,2600,2597,2596,2593,2592,2590,2589,2588,2587,2585,2582,2578,2575,2570,2565,2558,2551,2540,2532,2521,2510,2498,2486,2472,2459,2446,2433,2419,2405,2393,2381,2368,2357,2346,2337,2327,2319,2309,2301,2295,2289,2284,2278,2274,2269,2264,2260,2255,2250,2246,2241,2235,2230,2224,2218,2211,2204,2197,2190,2181,2173,2165,2156,2146,2136,2128,2118,2108,2097,2087,2077,2067,2056,2045,2035,2025,2015,2005,1996,1987,1979,1970,1962,1955,1947,1941,1934,1928,1922,1916,1911,1905,1901,1896,1891,1886,1881,1876,1872,1867,1863,1858,1854,1849,1844,1840,1835,1830,1826,1821,1816,1812,1807,1802,1797,1792,1787,1783,1778,1774,1768,1764,1760,1755,1752,1749,1748,1747,1749,1752,1759,1769,1782,1800,1821,1846,1875,1909,1945,1984,2027,2071,2117,2164,2210,2258,2303,2347,2390,2429,2467,2502,2533,2574,2602,2621,2637,2650,2659,2666,2670,2671,2671,2671,2668,2665,2661,2657,2652,2646,2642,2638,2632,2628,2624,2622,2619,2617,2615,2614,2614,2613,2613,2612,2612,2610,2610,2608,2607,2604,2601,2598,2592,2587,2580,2573,2563,2553,2542,2531,2519,2505,2491,2476,2461,2447,2432,2417,2401,2387,2373,2360,2346,2334,2323,2311,2301,2291,2282,2274,2266,2259,2253,2246,2240,2235,2230,2226,2220,2216,2211,2205,2200,2194,2187,2181,2175,2167,2159,2151,2142,2133,2124,2114,2105,2095,2086,2075,2064,2054,2043,2034,2023,2013,2003,1992,1983,1974,1964,1955,1946,1937,1929,1921,1913,1905,1898,1890,1884,1877,1871,1864,1858,1852,1847,1842,1837,1832,1827,1823,1818,1814,1810,1807,1802,1799,1795,1792,1788,1785,1781,1778,1774,1770,1766,1763,1758,1755,1750,1747,1743,1739,1734,1730,1725,1721,1717,1712,1707,1703,1698,1695,1691,1687,1684,1682,1681,1683,1686,1691,1700,1713,1728,1749,1773,1802,1834,1870,1910,1952,1997,2043,2091,2139,2188,2235,2281,2326,2368,2408,2445,2477,2521,2552,2573,2590,2604,2615,2622,2629,2631,2633,2632,2630,2628,2623,2619,2614,2609,2603,2598,2594,2590,2587,2583,2581,2579,2578,2577,2576,2575,2574,2574,2573,2573,2572,2571,2569,2566,2563,2559,2555,2550,2542,2535,2527,2516,2506,2494,2481,2468,2454,2439,2424,2409,2394,2379,2364,2350,2336,2322,2310,2298,2288,2276,2267,2258,2249,2241,2233,2227,2221,2215,2209,2204,2198,2193,2188,2182,2175,2171,2164,2158,2152,2145,2138,2131,2123,2115,2108,2099,2090,2080,2071,2060,2051,2041,2031,2021,2011,2000,1991,1980,1970,1961,1951,1943,1933,1925,1916,1907,1899,1892,1884,1877,1870,1862,1856,1849,1843,1836,1830,1823,1817,1811,1806,1801,1795,1791,1785,1780,1776,1771,1767,1763,1758,1755,1751,1748,1744,1741,1737,1734,1731,1728,1725,1722,1719,1716,1713,1709,1707,1703,1700,1697,1694,1691,1688,1684,1681,1677,1674,1669,1666,1662,1658,1654,1651,1646,1642,1638,1635,1630,1627,1625,1622,1622,1624,1627,1634,1643,1656,1673,1695,1720,1750,1783,1820,1861,1905,1951,1998,2048,2096,2146,2195,2242,2287,2330,2370,2407,2441,2486,2516,2536,2552,2567,2577,2585,2591,2593,2594,2593,2591,2587,2584,2579,2575,2569,2565,2560,2556,2553,2549,2546,2544,2541,2540,2539,2538,2538,2537,2538,2538,2537,2537,2536,2534,2532,2529,2526,2521,2515,2508,2502,2492,2482,2471,2460,2447,2434,2420,2406,2392,2378,2363,2349,2336,2322,2309,2297,2284,2273,2262,2253,2243,2234,2226,2218,2212,2205,2199,2193,2187,2182,2176,2172,2167,2160,2155,2150,2144,2138,2132,2126,2118,2111,2103,2094,2087,2078,2069,2059,2051,2041,2031,2022,2012,2001,1992,1981,1972,1962,1953,1942,1933,1924,1915,1907,1898,1890,1882,1874,1867,1860,1853,1846,1840,1834,1827,1821,1816,1811,1805,1800,1796,1790,1784,1779,1774,1770,1764,1760,1755,1751,1747,1743,1739,1735,1731,1727,1724,1720,1717,1714,1710,1707,1704,1701,1699,1696,1694,1691,1689,1686,1684,1681,1678,1675,1673,1670,1668,1665,1662,1659,1656,1653,1650,1646,1643,1640,1636,1632,1629,1625,1621,1618,1614,1612,1610,1610,1611,1615,1621,1630,1643,1660,1679,1704,1732,1765,1802,1842,1885,1930,1977,2025,2074,2123,2171,2219,2265,2308,2348,2385,2420,2463,2495,2516,2533,2547,2558,2565,2570,2573,2573,2572,2569,2565,2561,2555,2549,2543,2537,2531,2525,2521,2515,2511,2507,2503,2501,2500,2498,2497,2496,2495,2495,2495,2494,2493,2491,2490,2487,2483,2478,2474,2467,2460,2452,2442,2432,2421,2409,2397,2383,2370,2356,2342,2328,2315,2301,2288,2275,2264,2249,2238,2228,2219,2211,2203,2196,2189,2183,2177,2172,2166,2161,2157,2152,2147,2143,2138,2133,2126,2122,2116,2110,2104,2096,2089,2081,2073,2065,2056,2047,2038,2030,2020,2011,2002,1992,1982,1973,1963,1954,1945,1935,1927,1917,1909,1901,1892,1884,1875,1868,1860,1853,1847,1840,1833,1826,1821,1815,1809,1803,1797,1792,1787,1782,1777,1772,1768,1763,1759,1755,1750,1747,1743,1739,1736,1733,1729,1726,1724,1720,1717,1714,1710,1707,1704,1702,1699,1696,1693,1691,1688,1685,1682,1679,1676,1673,1670,1667,1664,1662,1658,1655,1653,1649,1646,1643,1639,1635,1632,1629,1625,1622,1618,1614,1611,1608,1606,1604,1603,1604,1606,1611,1619,1630,1646,1665,1688,1715,1747,1783,1823,1865,1911,1958,2006,2055,2104,2153,2200,2246,2290,2332,2370,2405,2437,2479,2506,2525,2540,2552,2562,2567,2570,2571,2570,2568,2565,2560,2555,2547,2541,2534,2527,2521,2515,2509,2504,2499,2495,2491,2488,2486,2485,2483,2481,2480,2479,2479,2477,2476,2474,2472,2468,2464,2459,2453,2446,2437,2428,2419,2408,2396,2383,2370,2357,2343,2329,2315,2302,2288,2275,2263,2251,2240,2230,2219,2210,2201,2194,2187,2181,2175,2170,2164,2159,2155,2150,2146,2142,2138,2132,2128,2123,2118,2112,2106,2099,2094,2086,2079,2072,2064,2055,2046,2037,2028,2018,2009,1999,1990,1981,1971,1962,1952,1943,1933,1924,1915,1906,1897,1889,1880,1872,1864,1856,1848,1842,1835,1828,1822,1815,1810,1804,1798,1792,1786,1780,1775,1770,1765,1760,1756,1751,1747,1743,1739,1735,1731,1728,1724,1721,1718,1715,1712,1709,1706,1703,1700,1698,1694,1691,1688,1685,1683,1680,1677,1674,1672,1668,1665,1662,1659,1656,1651,1649,1644,1641,1637,1633,1630,1626,1624,1622,1620,1620,1622,1625,1632,1641,1653,1670,1690,1715,1744,1776,1812,1852,1893,1938,1984,2032,2080,2128,2174,2220,2264,2305,2343,2379,2411,2452,2480,2500,2515,2527,2535,2540,2543,2543,2541,2537,2532,2525,2518,2511,2502,2494,2485,2477,2470,2462,2455,2448,2442,2437,2433,2429,2426,2423,2420,2417,2416,2414,2412,2409,2406,2402,2397,2392,2385,2379,2371,2362,2353,2342,2330,2319,2308,2295,2284,2271,2260,2247,2236,2225,2215,2205,2196,2187,2179,2172,2166,2159,2154,2149,2145,2141,2138,2135,2132,2130,2127,2124,2120,2117,2113,2110,2105,2100,2095,2089,2083,2076,2070,2064,2056,2048,2041,2032,2024,2016,2006,1997,1987,1978,1969,1959,1949,1940,1931,1921,1912,1904,1894,1886,1878,1870,1862,1855,1849,1842,1836,1830,1824,1820,1814,1809,1805,1801,1796,1792,1787,1783,1779,1776,1772,1769,1765,1762,1758,1754,1751,1748,1744,1741,1738,1735,1731,1727,1724,1720,1717,1714,1710,1706,1701,1697,1693,1688,1684,1680,1676,1672,1669,1667,1667,1668,1671,1678,1687,1700,1717,1738,1763,1791,1825,1861,1900,1942,1986,2032,2080,2127,2174,2220,2264,2309,2348,2386,2421,2452,2494,2520,2539,2554,2565,2573,2578,2582,2581,2580,2576,2571,2564,2557,2549,2541,2532,2523,2515,2505,2498,2490,2483,2477,2471,2466,2461,2457,2454,2451,2448,2445,2442,2439,2436,2433,2429,2424,2417,2410,2403,2395,2386,2375,2363,2351,2339,2327,2314,2302,2289,2277,2264,2253,2242,2232,2222,2213,2206,2198,2192,2186,2181,2177,2172,2168,2165,2161,2158,2155,2152,2148,2145,2141,2138,2134,2130,2125,2121,2115,2110,2104,2097,2090,2083,2075,2066,2057,2049,2040,2029,2020,2010,1999,1988,1978,1967,1957,1947,1938,1928,1919,1909,1900,1891,1883,1875,1867,1860,1853,1847,1840,1834,1828,1823,1818,1814,1809,1805,1800,1797,1793,1788,1785,1781,1777,1772,1769,1765,1762,1757,1753,1749,1744,1739,1736,1731,1727,1722,1718,1714,1709,1705,1701,1697,1693,1690,1687,1685,1686,1688,1692,1700,1710,