2161,2163,2167,2171,2175,2176,2180,2177,2174,2169,2166,2160,2156,2150,2148,2144,2144,2138,2134,2132,2130,2125,2120,2115,2107,2102,2095,2088,2081,2075,2071,2067,2066,2061,2059,2057,2054,2055,2053,2051,2052,2051,2049,2049,2045,2041,2034,2026,2018,2011,2002,1993,1982,1973,1963,1955,1948,1939,1930,1919,1908,1898,1887,1880,1872,1867,1864,1864,1866,1869,1875,1880,1885,1889,1894,1898,1900,1903,1904,1904,1903,1901,1897,1894,1892,1888,1883,1877,1869,1860,1851,1841,1834,1825,1819,1813,1810,1809,1809,1809,1811,1812,1812,1812,1812,1813,1811,1811,1810,1810,1812,1812,1815,1818,1819,1820,1819,1818,1817,1817,1816,1814,1813,1811,1808,1806,1804,1800,1795,1790,1784,1779,1775,1771,1765,1759,1755,1748,1746,1741,1738,1735,1734,1732,1731,1732,1739,1751,1765,1783,1806,1836,1866,1901,1940,1978,2018,2059,2101,2142,2186,2229,2273,2315,2356,2393,2428,2458,2495,2517,2527,2534,2537,2538,2537,2532,2527,2518,2508,2493,2474,2454,2429,2401,2372,2339,2305,2272,2239,2209,2182,2157,2141,2126,2117,2112,2112,2116,2122,2130,2136,2141,2142,2142,2138,2133,2127,2121,2116,2111,2109,2105,2102,2097,2090,2083,2072,2063,2055,2046,2041,2039,2037,2039,2043,2047,2055,2060,2065,2070,2071,2072,2070,2067,2064,2061,2059,2057,2054,2055,2055,2056,2058,2061,2065,2069,2072,2075,2077,2077,2076,2071,2066,2062,2055,2048,2040,2031,2022,2013,2002,1990,1977,1966,1957,1948,1943,1938,1934,1930,1926,1920,1914,1906,1897,1887,1878,1866,1859,1847,1839,1830,1821,1816,1809,1803,1800,1796,1791,1787,1784,1780,1781,1783,1786,1792,1799,1810,1820,1831,1842,1852,1861,1867,1872,1872,1873,1872,1872,1870,1868,1864,1862,1854,1846,1837,1828,1817,1808,1802,1797,1793,1791,1791,1789,1794,1797,1799,1804,1811,1816,1821,1824,1828,1827,1825,1825,1823,1824,1827,1830,1836,1847,1865,1883,1906,1931,1961,1994,2025,2060,2099,2139,2183,2225,2266,2308,2343,2376,2407,2432,2455,2471,2491,2497,2501,2498,2497,2492,2485,2473,2463,2449,2436,2420,2402,2385,2364,2341,2317,2291,2266,2238,2212,2191,2172,2156,2144,2132,2126,2119,2113,2109,2104,2101,2099,2101,2102,2104,2106,2107,2104,2101,2095,2091,2089,2085,2085,2085,2086,2089,2090,2092,2095,2098,2100,2099,2097,2094,2092,2090,2089,2088,2084,2082,2077,2073,2067,2063,2059,2057,2057,2058,2062,2067,2069,2070,2068,2065,2061,2057,2052,2048,2043,2034,2025,2013,2002,1990,1977,1963,1949,1936,1924,1914,1904,1896,1890,1884,1881,1879,1878,1877,1878,1881,1882,1885,1884,1884,1881,1878,1874,1867,1857,1847,1834,1821,1807,1796,1783,1774,1765,1756,1748,1741,1735,1731,1729,1726,1725,1725,1728,1729,1730,1734,1736,1740,1743,1746,1750,1752,1754,1754,1755,1753,1751,1750,1749,1751,1755,1758,1762,1768,1772,1774,1777,1779,1781,1781,1782,1782,1783,1783,1781,1778,1773,1771,1767,1765,1763,1765,1767,1769,1770,1772,1772,1773,1773,1772,1770,1767,1759,1754,1750,1746,1741,1738,1736,1730,1726,1726,1722,1722,1720,1719,1723,1726,1733,1740,1749,1757,1763,1768,1770,1772,1774,1770,1768,1763,1753,1744,1736,1729,1723,1720,1721,1725,1736,1752,1772,1798,1827,1861,1902,1948,1995,2048,2101,2158,2214,2266,2319,2368,2414,2457,2496,2532,2565,2607,2635,2654,2667,2674,2673,2666,2653,2634,2610,2586,2563,2537,2511,2486,2457,2428,2397,2365,2336,2307,2281,2256,2236,2217,2205,2195,2189,2185,2183,2179,2177,2174,2174,2175,2180,2187,2191,2195,2198,2201,2203,2204,2205,2202,2199,2196,2192,2189,2183,2178,2172,2163,2154,2143,2130,2115,2100,2086,2071,2056,2043,2034,2026,2019,2014,2010,2009,2009,2009,2011,2011,2016,2021,2030,2039,2053,2066,2079,2092,2100,2109,2113,2113,2110,2104,2094,2084,2072,2058,2045,2028,2014,1999,1982,1968,1952,1940,1929,1919,1914,1911,1910,1910,1911,1913,1915,1916,1915,1915,1912,1909,1903,1900,1895,1893,1891,1892,1892,1895,1896,1896,1891,1887,1880,1875,1866,1860,1851,1847,1841,1840,1840,1842,1845,1848,1848,1852,1855,1860,1866,1868,1871,1870,1869,1868,1865,1863,1860,1857,1852,1852,1850,1849,1848,1847,1847,1846,1846,1846,1847,1847,1851,1855,1860,1864,1867,1869,1871,1870,1869,1865,1860,1855,1844,1833,1822,1809,1796,1785,1771,1760,1748,1737,1727,1719,1713,1707,1704,1703,1702,1702,1702,1704,1709,1715,1723,1732,1746,1762,1779,1802,1828,1855,1886,1921,1956,1996,2038,2078,2121,2162,2199,2239,2273,2307,2343,2375,2409,2439,2479,2502,2513,2518,2517,2509,2498,2485,2468,2447,2427,2404,2383,2362,2342,2319,2295,2274,2251,2229,2209,2193,2177,2163,2149,2131,2114,2093,2072,2051,2030,2014,2000,1991,1987,1984,1984,1986,1986,1987,1991,1994,1998,2001,2002,2006,2006,2007,2008,2010,2011,2012,2013,2014,2016,2019,2023,2025,2031,2035,2040,2043,2048,2051,2055,2057,2059,2059,2059,2057,2052,2046,2041,2033,2026,2019,2015,2011,2008,2002,2000,1994,1989,1984,1979,1975,1971,1965,1959,1953,1946,1941,1933,1926,1916,1906,1895,1882,1871,1860,1851,1840,1831,1823,1816,1810,1808,1807,1802,1800,1797,1796,1792,1789,1788,1786,1786,1786,1788,1791,1795,1796,1798,1801,1802,1804,1808,1811,1817,1824,1830,1836,1843,1851,1857,1864,1871,1876,1876,1874,1871,1868,1862,1854,1846,1837,1828,1821,1816,1810,1807,1805,1804,1802,1801,1800,1796,1793,1789,1785,1780,1774,1769,1762,1758,1755,1754,1758,1759,1761,1764,1765,1764,1762,1759,1757,1754,1750,1744,1735,1727,1718,1710,1705,1703,1704,1710,1716,1723,1728,1735,1745,1757,1773,1791,1813,1838,1863,1894,1928,1965,2003,2043,2087,2135,2185,2233,2282,2324,2362,2395,2420,2439,2453,2458,2462,2458,2450,2440,2428,2412,2397,2376,2355,2333,2315,2298,2284,2274,2266,2259,2254,2249,2240,2230,2218,2204,2192,2182,2173,2163,2154,2145,2138,2129,2121,2116,2111,2107,2101,2097,2091,2086,2081,2077,2075,2074,2072,2073,2072,2073,2074,2074,2073,2071,2071,2073,2075,2081,2090,2099,2113,2126,2141,2152,2159,2167,2171,2170,2167,2163,2158,2150,2144,2139,2133,2126,2120,2113,2105,2097,2084,2073,2060,2048,2036,2024,2015,2002,1990,1978,1970,1960,1952,1946,1939,1933,1928,1925,1923,1923,1922,1924,1923,1922,1920,1916,1912,1907,1900,1893,1885,1882,1877,1874,1872,1874,1875,1874,1875,1871,1867,1866,1866,1865,1864,1863,1859,1854,1848,1842,1839,1836,1836,1836,1838,1838,1838,1841,1841,1845,1849,1851,1853,1854,1854,1853,1850,1848,1845,1844,1843,1843,1843,1842,1842,1841,1840,1839,1836,1835,1831,1828,1828,1828,1833,1837,1846,1857,1868,1879,1887,1893,1897,1900,1898,1894,1889,1883,1873,1862,1850,1839,1829,1820,1814,1810,1806,1806,1807,1808,1809,1810,1811,1814,1815,1815,1815,1814,1814,1811,1811,1809,1810,1809,1809,1807,1806,1806,1805,1801,1799,1798,1799,1804,1812,1826,1846,1873,1906,1943,1987,2031,2077,2124,2171,2218,2262,2306,2347,2385,2420,2451,2479,2504,2535,2561,2579,2591,2599,2602,2597,2591,2579,2567,2552,2535,2514,2492,2466,2437,2408,2377,2347,2320,2295,2274,2257,2241,2228,2218,2210,2204,2198,2193,2188,2184,2180,2181,2180,2178,2176,2174,2171,2166,2158,2149,2140,2133,2126,2119,2112,2105,2097,2089,2080,2071,2059,2050,2041,2035,2028,2022,2017,2015,2017,2019,2024,2031,2040,2048,2055,2063,2067,2071,2076,2079,2083,2090,2095,2101,2104,2108,2110,2112,2109,2107,2101,2094,2086,2079,2074,2067,2061,2052,2045,2036,2027,2016,2007,2000,1994,1989,1986,1986,1983,1980,1975,1966,1955,1941,1925,1910,1894,1882,1868,1862,1856,1849,1845,1840,1836,1832,1826,1822,1815,1807,1798,1788,1781,1776,1773,1769,1769,1771,1775,1778,1781,1784,1788,1791,1794,1801,1808,1817,1825,1836,1845,1851,1857,1864,1868,1871,1874,1877,1881,1884,1887,1888,1889,1889,1888,1885,1884,1884,1884,1884,1887,1888,1889,1887,1884,1880,1874,1867,1858,1851,1845,1837,1828,1821,1814,1811,1810,1812,1821,1830,1843,1856,1874,1891,1912,1935,1961,1991,2023,2056,2090,2124,2160,2196,2232,2271,2308,2345,2379,2412,2443,2478,2501,2513,2521,2523,2522,2516,2503,2489,2473,2456,2442,2427,2411,2397,2383,2365,2347,2330,2311,2290,2266,2241,2215,2189,2166,2142,2122,2102,2085,2070,2057,2045,2032,2021,2013,2006,1999,1991,1985,1981,1978,1977,1977,1980,1979,1976,1976,1974,1972,1970,1971,1974,1978,1982,1986,1992,1995,1996,1999,1999,2002,2007,2014,2021,2033,2044,2057,2069,2078,2087,2096,2104,2110,2115,2119,2121,2123,2125,2125,2124,2119,2113,2103,2093,2081,2066,2051,2035,2019,2003,1989,1975,1962,1949,1941,1934,1930,1926,1925,1923,1923,1922,1922,1922,1920,1921,1921,1923,1924,1927,1928,1928,1925,1920,1915,1912,1909,1903,1897,1890,1883,1875,1869,1863,1856,1847,1840,1830,1823,1813,1806,1799,1796,1797,1795,1795,1796,1797,1798,1803,1806,1812,1818,1822,1827,1832,1837,1838,1837,1837,1832,1826,1820,1813,1808,1803,1796,1790,1783,1776,1770,1765,1762,1761,1761,1759,1763,1765,1770,1775,1781,1789,1800,1816,1833,1852,1874,1900,1929,1963,2001,2042,2085,2133,2181,2230,2276,2324,2369,2409,2444,2477,2506,2533,2554,2578,2591,2595,2591,2585,2574,2562,2548,2535,2523,2510,2497,2485,2471,2456,2439,2421,2403,2383,2362,2341,2322,2303,2284,2268,2252,2239,2228,2217,2208,2198,2191,2183,2177,2172,2169,2167,2164,2162,2159,2154,2151,2147,2146,2144,2145,2145,2149,2153,2156,2162,2167,2172,2176,2179,2180,2179,2176,2175,2173,2171,2171,2168,2165,2162,2161,2163,2164,2167,2171,2173,2176,2176,2172,2168,2163,2159,2155,2149,2145,2138,2132,2128,2127,2127,2129,2132,2135,2135,2137,2137,2137,2135,2132,2129,2124,2117,2108,2096,2088,2077,2068,2062,2057,2052,2049,2043,2039,2030,2022,2011,1998,1985,1970,1955,1941,1929,1918,1907,1900,1892,1884,1878,1872,1867,1861,1856,1850,1846,1843,1842,1843,1846,1850,1856,1861,1868,1875,1884,1891,1897,1901,1902,1897,1892,1886,1881,1874,1866,1858,1849,1843,1835,1832,1831,1832,1831,1832,1833,1839,1844,1849,1853,1856,1858,1860,1861,1864,1866,1868,1872,1875,1875,1872,1868,1864,1859,1856,1854,1852,1855,1853,1850,1846,1839,1831,1821,1813,1806,1800,1793,1788,1785,1785,1789,1797,1810,1829,1854,1882,1916,1954,1995,2039,2085,2132,2179,2231,2282,2334,2386,2437,2484,2529,2571,2608,2649,2675,2686,2690,2690,2684,2673,2660,2644,2624,2609,2589,2571,2553,2536,2517,2499,2483,2463,2446,2428,2410,2393,2374,2357,2341,2328,2319,2313,2310,2306,2303,2299,2296,2293,2291,2293,2292,2291,2290,2289,2285,2281,2276,2270,2263,2258,2254,2252,2251,2252,2250,2251,2250,2246,2242,2236,2229,2222,2216,2211,2210,2210,2214,2218,2224,2229,2234,2235,2236,2234,2233,2230,2226,2224,2218,2211,2204,2198,2191,2185,2179,2175,2169,2162,2156,2150,2142,2133,2120,2113,2105,2096,2088,2078,2070,2059,2053,2044,2036,2028,2018,2008,1999,1996,1993,1989,1982,1979,1972,1964,1956,1946,1937,1929,1920,1913,1905,1898,1893,1888,1887,1887,1886,1886,1888,1890,1894,1899,1906,1914,1921,1928,1936,1947,1952,1960,1966,1971,1975,1979,1979,1980,1981,1982,1980,1977,1973,1968,1960,1954,1944,1935,1925,1918,1914,1911,1910,1911,1913,1915,1918,1920,1923,1926,1930,1935,1936,1937,1937,1933,1928,1923,1916,1911,1906,1905,1899,1894,1887,1880,1872,1866,1858,1852,1847,1841,1835,1831,1832,1833,1838,1844,1854,1870,1889,1912,1938,1966,1997,2032,2070,2109,2155,2199,2247,2295,2346,2392,2434,2475,2509,2540,2568,2592,2619,2633,2638,2634,2628,2617,2604,2589,2571,2552,2530,2510,2488,2466,2445,2425,2406,2387,2368,2352,2337,2323,2311,2300,2293,2285,2276,2266,2257,2246,2235,2225,2213,2206,2198,2189,2180,2173,2165,2156,2147,2141,2140,2138,2135,2137,2142,2146,2152,2157,2160,2164,2165,2168,2171,2174,2178,2179,2182,2185,2185,2183,2182,2181,2179,2176,2175,2175,2175,2174,2173,2173,2173,2172,2169,2165,2161,2153,2145,2136,2123,2110,2099,2088,2078,2071,2062,2055,2047,2039,2033,2028,2024,2022,2019,2014,2008,2001,1992,1985,1975,1969,1962,1954,1947,1942,1939,1937,1937,1934,1933,1930,1925,1921,1919,1917,1914,1911,1908,1903,1898,1895,1893,1892,1894,1896,1898,1901,1903,1905,1908,1912,1918,1925,1932,1941,1946,1949,1950,1949,1949,1949,1946,1943,1936,1930,1919,1909,1898,1885,1869,1855,1842,1831,1819,1811,1805,1803,1802,1800,1798,1795,1792,1790,1787,1785,1786,1789,1794,1797,1803,1809,1815,1824,1835,1852,1871,1896,1926,1960,1999,2041,2087,2133,2181,2230,2278,2326,2375,2419,2460,2497,2529,2558,2582,2613,2634,2644,2654,2661,2663,2662,2657,2646,2630,2612,2592,2568,2545,2519,2493,2467,2440,2413,2387,2364,2345,2328,2313,2300,2290,2280,2270,2261,2256,2250,2247,2246,2241,2239,2237,2234,2236,2241,2246,2253,2260,2268,2274,2282,2288,2291,2295,2295,2293,2288,2280,2272,2260,2247,2236,2224,2214,2206,2199,2197,2196,2197,2200,2202,2202,2203,2204,2206,2207,2209,2211,2216,2219,2223,2226,2227,2228,2225,2221,2216,2209,2202,2195,2185,2174,2161,2147,2130,2113,2095,2078,2063,2049,2039,2027,2017,2007,2000,1991,1982,1971,1963,1952,1939,1932,1925,1919,1914,1909,1905,1902,1900,1898,1895,1895,1894,1892,1890,1887,1885,1883,1883,1884,1884,1884,1884,1886,1889,1893,1898,1900,1902,1904,1906,1909,1912,1913,1916,1917,1914,1912,1909,1903,1900,1897,1895,1895,1896,1903,1906,1912,1916,1918,1919,1918,1919,1918,1918,1919,1921,1922,1921,1921,1920,1918,1914,1908,1902,1897,1892,1888,1882,1876,1869,1861,1850,1839,1825,1812,1795,1783,1775,1769,1766,1768,1770,1776,1780,1782,1785,1786,1787,1786,1784,1782,1785,1784,1787,1793,1804,1818,1836,1858,1886,1919,1954,1994,2039,2086,2139,2194,2250,2305,2359,2412,2461,2507,2550,2589,2624,2658,2689,2729,2755,2770,2780,2785,2787,2784,2778,2769,2756,2743,2728,2704,2684,2663,2642,2621,2600,2577,2553,2529,2504,2479,2456,2431,2407,2387,2366,2346,2327,2309,2295,2283,2276,2272,2270,2270,2272,2276,2279,2283,2286,2286,2287,2287,2285,2282,2280,2280,2283,2283,2289,2294,2299,2304,2308,2312,2314,2315,2316,2312,2307,2303,2296,2289,2283,2277,2273,2271,2268,2267,2264,2263,2262,2261,2258,2255,2253,2249,2248,2245,2243,2241,2238,2235,2230,2226,2224,2220,2216,2213,2211,2210,2205,2201,2197,2190,2181,2170,2158,2145,2134,2119,2103,2087,2070,2056,2042,2030,2018,2011,2003,1994,1984,1973,1962,1952,1946,1939,1935,1933,1929,1929,1927,1926,1926,1926,1926,1926,1929,1932,1935,1937,1940,1944,1945,1949,1952,1954,1955,1956,1957,1956,1956,1955,1951,1949,1943,1940,1935,1930,1926,1921,1917,1914,1912,1911,1910,1915,1918,1925,1930,1935,1939,1939,1937,1933,1925,1917,1908,1897,1888,1877,1868,1858,1851,1845,1841,1837,1833,1835,1835,1838,1841,1844,1849,1852,1856,1858,1860,1865,1870,1875,1883,1893,1905,1920,1938,1959,1984,2012,2043,2076,2110,2144,2182,2220,2260,2296,2331,2363,2394,2420,2442,2460,2473,2489,2500,2507,2513,2516,2519,2520,2519,2513,2504,2496,2483,2469,2453,2435,2416,2397,2377,2359,2342,2331,2320,2311,2301,2292,2281,2271,2258,2246,2232,2219,2208,2192,2177,2164,2149,2136,2123,2114,2104,2099,2098,2098,2103,2107,2115,2120,2124,2125,2125,2126,2127,2127,2129,2135,2140,2148,2155,2163,2172,2178,2185,2190,2192,2192,2195,2198,2203,2203,2207,2208,2207,2204,2203,2200,2195,2187,2179,2171,2164,2157,2151,2148,2145,2141,2135,2128,2117,2109,2095,2083,2071,2057,2045,2034,2022,2015,2007,2003,1997,1993,1988,1977,1971,1963,1955,1947,1944,1941,1942,1943,1942,1945,1947,1949,1952,1953,1951,1948,1940,1930,1915,1901,1883,1868,1851,1836,1824,1816,1811,1811,1813,1817,1822,1830,1836,1844,1848,1851,1854,1852,1850,1850,1848,1847,1847,1849,1851,1851,1849,1846,1842,1837,1831,1827,1826,1828,1830,1834,1838,1842,1845,1849,1851,1852,1849,1845,1842,1839,1835,1830,1825,1817,1810,1799,1789,1779,1771,1761,1754,1744,1735,1725,1716,1709,1704,1699,1695,1692,1690,1686,1688,1691,1697,1705,1717,1733,1754,1779,1809,1841,1879,1920,1964,2013,2065,2116,2171,2222,2276,2326,2373,2419,2459,2495,2524,2548,2575,2590,2595,2598,2598,2598,2593,2587,2579,2568,2556,2539,2523,2506,2489,2473,2457,2444,2428,2413,2396,2376,2357,2338,2317,2297,2274,2250,2228,2206,2187,2170,2157,2147,2139,2136,2137,2138,2141,2143,2148,2154,2159,2164,2168,2173,2172,2174,2175,2175,2174,2172,2169,2168,2164,2159,2152,2146,2139,2132,2126,2122,2122,2122,2122,2126,2129,2133,2135,2137,2139,2138,2135,2133,2127,2121,2114,2108,2100,2093,2088,2081,2076,2072,2070,2069,2067,2065,2061,2055,2050,2044,2041,2037,2033,2031,2028,2025,2021,2014,2007,1998,1985,1971,1959,1944,1929,1915,1902,1889,1874,1863,1853,1845,1843,1843,1844,1849,1856,1861,1864,1867,1866,1866,1863,1864,1867,1865,1865,1864,1860,1858,1854,1853,1853,1854,1853,1851,1850,1851,1851,1851,1852,1849,1845,1838,1834,1830,1823,1820,1817,1818,1814,1811,1807,1800,1793,1787,1781,1776,1775,1772,1772,1773,1773,1773,1774,1774,1773,1772,1770,1768,1766,1765,1762,1760,1757,1754,1752,1749,1746,1743,1739,1735,1734,1732,1729,1726,1723,1721,1718,1713,1710,1707,1702,1698,1692,1688,1686,1689,1694,1705,1721,1742,1767,1796,1831,1872,1915,1960,2006,2051,2095,2136,2179,2218,2255,2289,2320,2350,2377,2408,2424,2432,2436,2436,2435,2433,2430,2423,2414,2404,2392,2380,2366,2356,2343,2328,2309,2290,2269,2247,2224,2203,2182,2162,2144,2128,2110,2092,2074,2055,2038,2022,2007,1996,1986,1978,1971,1967,1967,1971,1975,1983,1991,1999,2005,2012,2016,2019,2022,2023,2025,2028,2030,2033,2035,2039,2041,2046,2049,2052,2053,2053,2052,2053,2051,2047,2043,2039,2036,2032,2027,2022,2016,2014,2013,2009,2010,2004,1999,1991,1986,1981,1978,1976,1979,1979,1980,1981,1982,1985,1986,1986,1987,1984,1983,1977,1971,1961,1949,1933,1916,1899,1882,1867,1853,1839,1827,1814,1799,1787,1772,1760,1750,1742,1737,1734,1731,1729,1730,1732,1735,1741,1747,1756,1764,1770,1777,1781,1784,1784,1783,1781,1777,1770,1762,1753,1744,1735,1727,1718,1711,1709,1705,1702,1700,1702,1703,1707,1710,1715,1720,1725,1729,1734,1738,1740,1742,1744,1745,1746,1747,1748,1751,1753,1756,1757,1754,1752,1745,1738,1730,1722,1714,1704,1695,1685,1675,1666,1654,1644,1636,1628,1624,1622,1624,1626,1631,1637,1644,1655,1668,1686,1707,1734,1763,1796,1833,1874,1917,1964,2012,2064,2113,2162,2208,2255,2295,2333,2366,2395,2420,2450,2466,2476,2483,2488,2490,2489,2484,2480,2470,2460,2450,2435,2420,2403,2382,2359,2335,2311,2288,2268,2246,2226,2206,2183,2160,2139,2122,2107,2097,2090,2086,2082,2077,2073,2069,2065,2063,2059,2056,2054,2054,2056,2055,2060,2065,2071,2076,2079,2082,2081,2079,2080,2077,2073,2069,2065,2062,2062,2060,2058,2056,2057,2057,2057,2058,2060,2061,2057,2055,2049,2042,2038,2031,2025,2020,2013,2006,1997,1988,1979,1972,1964,1956,1948,1941,1935,1930,1925,1920,1916,1913,1913,1912,1913,1912,1913,1913,1911,1908,1906,1905,1902,1898,1892,1885,1874,1863,1849,1835,1819,1803,1786,1770,1755,1742,1733,1726,1721,1718,1717,1719,1719,1722,1725,1731,1737,1739,1743,1743,1743,1743,1741,1740,1741,1748,1754,1762,1771,1778,1788,1793,1800,1805,1807,1808,1807,1802,1794,1787,1780,1774,1767,1760,1753,1750,1747,1746,1745,1748,1747,1748,1748,1748,1748,1748,1746,1745,1741,1738,1733,1727,1721,1713,1705,1694,1683,1675,1667,1662,1657,1657,1655,1657,1656,1655,1653,1652,1648,1647,1646,1646,1648,1653,1658,1662,1668,1673,1679,1685,1691,1699,1706,1713,1721,1728,1737,1747,1759,1777,1800,1825,1855,1886,1923,1962,2004,2047,2091,2135,2176,2216,2254,2291,2326,2360,2390,2418,2443,2473,2497,2511,2521,2528,2531,2531,2529,2524,2514,2499,2484,2463,2443,2420,2398,2378,2358,2338,2319,2301,2287,2273,2258,2244,2226,2210,2190,2171,2153,2136,2123,2111,2104,2098,2096,2097,2098,2102,2107,2113,2119,2126,2133,2139,2143,2148,2150,2152,2153,2155,2157,2158,2161,2162,2164,2163,2163,2160,2158,2151,2145,2140,2135,2130,2127,2127,2127,2128,2130,2133,2136,2140,2143,2153,2160,2169,2177,2185,2190,2190,2188,2182,2175,2165,2152,2142,2130,2122,2112,2105,2097,2089,2081,2069,2055,2038,2022,2004,1985,1967,1951,1936,1918,1904,1892,1882,1875,1867,1866,1865,1866,1867,1869,1868,1868,1865,1863,1857,1851,1842,1834,1828,1822,1816,1814,1813,1813,1813,1810,1812,1813,1817,1816,1819,1822,1825,1825,1824,1825,1823,1826,1828,1829,1831,1831,1831,1834,1839,1841,1846,1852,1856,1860,1860,1860,1858,1858,1858,1858,1860,1864,1871,1876,1880,1885,1886,1880,1871,1859,1843,1825,1806,1791,1776,1764,1754,1746,1741,1737,1734,1734,1737,1740,1743,1751,1756,1761,1767,1768,1767,1762,1758,1752,1746,1745,1744,1743,1745,1750,1755,1762,1772,1785,1801,1821,1842,1869,1899,1931,1963,1999,2036,2074,2116,2159,2200,2240,2279,2318,2353,2386,2413,2438,2467,2482,2489,2493,2494,2492,2487,2481,2474,2465,2452,2440,2426,2412,2395,2373,2349,2326,2301,2277,2253,2233,2212,2190,2169,2147,2127,2108,2087,2069,2051,2034,2023,2009,1998,1987,1977,1971,1966,1963,1961,1960,1959,1957,1958,1958,1957,1959,1957,1958,1957,1955,1955,1956,1959,1962,1966,1973,1978,1986,1993,2002,2010,2021,2028,2039,2048,2057,2064,2068,2073,2075,2080,2082,2084,2088,2091,2094,2096,2096,2094,2089,2083,2076,2068,2056,2047,2036,2023,2010,2000,1985,1971,1959,1951,1945,1941,1935,1934,1929,1927,1922,1920,1916,1910,1905,1901,1894,1888,1885,1881,1880,1877,1873,1868,1865,1859,1854,1851,1848,1847,1847,1847,1849,1851,1851,1853,1853,1854,1855,1852,1850,1846,1840,1838,1836,1832,1830,1827,1829,1831,1835,1841,1846,1849,1850,1848,1846,1843,1841,1839,1834,1828,1829,1825,1822,1821,1819,1819,1818,1818,1817,1813,1807,1799,1789,1781,1775,1771,1772,1778,1785,1795,1805,1822,1841,1864,1889,1918,1949,1983,2017,2055,2096,2141,2187,2232,2282,2329,2375,2419,2458,2490,2518,2543,2567,2580,2584,2584,2581,2577,2567,2556,2544,2530,2514,2498,2481,2463,2439,2418,2397,2374,2349,2325,2299,2274,2250,2226,2205,2186,2170,2158,2150,2143,2138,2133,2126,2118,2105,2096,2090,2084,2079,2077,2073,2070,2067,2059,2054,2049,2045,2043,2043,2044,2048,2049,2050,2052,2055,2061,2065,2072,2081,2092,2104,2118,2132,2147,2161,2171,2180,2185,2187,2187,2184,2182,2177,2172,2165,2157,2152,2148,2139,2133,2124,2117,2106,2097,2085,2075,2065,2056,2047,2040,2034,2024,2019,2012,2006,1999,1993,1987,1982,1977,1972,1970,1968,1965,1962,1959,1955,1950,1950,1948,1945,1944,1941,1937,1937,1938,1938,1938,1933,1926,1919,1906,1894,1883,1871,1860,1849,1838,1828,1815,1806,1794,1787,1779,1775,1773,1773,1773,1774,1774,1776,1778,1779,1781,1783,1787,1790,1790,1790,1792,1793,1793,1796,1797,1800,1805,1810,1815,1823,1830,1835,1839,1843,1845,1843,1843,1839,1837,1832,1830,1827,1826,1825,1826,1828,1831,1834,1838,1843,1845,1847,1849,1851,1851,1851,1849,1846,1843,1839,1836,1834,1835,1835,1836,1840,1844,1847,1851,1855,1859,1866,1874,1885,1899,1916,1937,1963,1993,2027,2059,2098,2136,2178,2223,2270,2314,2361,2404,2445,2486,2522,2554,2585,2611,2645,2669,2682,2691,2694,2694,2689,2681,2671,2662,2650,2636,2623,2608,2590,2570,2549,2525,2501,2473,2447,2417,2389,2364,2338,2317,2296,2278,2261,2249,2240,2232,2228,2226,2227,2229,2234,2239,2245,2252,2258,2263,2271,2279,2288,2296,2302,2302,2301,2297,2288,2278,2266,2255,2241,2228,2218,2211,2201,2192,2188,2184,2180,2176,2174,2173,2171,2171,2173,2177,2182,2191,2200,2213,2225,2239,2251,2260,2268,2271,2272,2268,2264,2254,2246,2237,2228,2218,2206,2195,2184,2172,2159,2145,2135,2123,2111,2098,2088,2077,2067,2060,2054,2052,2046,2041,2040,2038,2034,2031,2026,2026,2022,2018,2014,2013,2013,2010,2008,2007,2002,1996,1990,1979,1969,1959,1947,1935,1924,1913,1902,1894,1890,1887,1883,1882,1882,1882,1885,1888,1894,1900,1908,1919,1927,1938,1949,1958,1965,1971,1978,1982,1987,1991,1993,1995,1994,1991,1985,1979,1969,1961,1950,1944,1939,1935,1934,1937,1941,1946,1948,1951,1950,1947,1946,1943,1943,1941,1939,1935,1933,1924,1914,1903,1891,1881,1869,1859,1849,1841,1834,1828,1824,1822,1822,1826,1835,1849,1864,1887,1911,1940,1972,2007,2048,2089,2135,2181,2229,2278,2329,2381,2432,2479,2523,2560,2592,2618,2649,2663,2670,2673,2673,2669,2661,2652,2642,2630,2617,2601,2584,2564,2541,2515,2488,2461,2433,2410,2386,2366,2346,2331,2318,2307,2300,2293,2288,2284,2279,2273,2266,2257,2250,2243,2236,2232,2228,2225,2222,2217,2213,2206,2197,2187,2178,2166,2158,2149,2142,2136,2131,2126,2122,2120,2116,2116,2120,2125,2133,2140,2147,2157,2167,2179,2193,2207,2221,2234,2244,2252,2255,2257,2256,2254,2253,2249,2246,2241,2236,2230,2223,2214,2205,2196,2188,2179,2172,2167,2161,2156,2154,2154,2152,2151,2149,2147,2144,2140,2134,2128,2121,2110,2098,2087,2073,2060,2049,2038,2028,2019,2006,1994,1982,1972,1959,1948,1936,1925,1911,1902,1892,1880,1872,1863,1855,1850,1849,1851,1855,1860,1870,1880,1887,1897,1904,1910,1918,1924,1927,1929,1926,1925,1923,1925,1924,1924,1928,1930,1932,1936,1935,1933,1933,1927,1921,1914,1905,1896,1889,1883,1878,1875,1871,1866,1864,1860,1854,1849,1843,1838,1834,1834,1836,1842,1847,1859,1877,1900,1929,1960,1996,2031,2070,2108,2147,2183,2221,2260,2298,2337,2373,2407,2441,2473,2516,2544,2566,2586,2602,2614,2624,2633,2640,2642,2643,2642,2644,2641,2639,2638,2635,2631,2624,2619,2613,2607,2600,2592,2580,2565,2548,2530,2511,2492,2476,2461,2451,2442,2435,2429,2427,2424,2419,2416,2411,2405,2398,2387,2373,2360,2344,2328,2315,2305,2297,2294,2292,2293,2295,2298,2302,2304,2304,2305,2303,2299,2296,2292,2288,2286,2282,2278,2275,2271,2268,2269,2271,2275,2278,2283,2285,2286,2283,2277,2271,2263,2253,2242,2230,2220,2207,2195,2184,2171,2158,2148,2136,2128,2117,2105,2096,2086,2078,2071,2064,2058,2051,2044,2037,2030,2024,2016,2011,2005,1997,1988,1979,1970,1960,1953,1942,1933,1924,1918,1913,1913,1915,1920,1929,1936,1942,1948,1948,1947,1943,1938,1932,1927,1924,1922,1921,1923,1922,1924,1924,1923,1920,1917,1915,1912,1910,1910,1908,1906,1902,1898,1894,1891,1890,1890,1894,1896,1901,1904,1906,1906,1902,1896,1886,1879,1871,1862,1854,1848,1842,1837,1832,1829,1823,1818,1811,1809,1801,1798,1792,1787,1784,1783,1780,1781,1780,1782,1782,1782,1782,1783,1782,1780,1778,1772,1767,1757,1748,1739,1730,1723,1717,1713,1709,1708,1710,1715,1725,1740,1761,1788,1821,1860,1906,1957,2011,2067,2123,2182,2237,2292,2347,2398,2448,2497,2542,2580,2617,2662,2691,2708,2722,2734,2742,2746,2746,2743,2733,2722,2709,2694,2676,2658,2637,2617,2596,2574,2552,2533,2515,2500,2486,2475,2468,2462,2455,2453,2450,2447,2443,2441,2438,2435,2431,2427,2421,2418,2412,2408,2407,2406,2405,2405,2407,2409,2409,2407,2401,2393,2382,2371,2358,2350,2340,2335,2328,2323,2319,2315,2310,2308,2305,2305,2306,2305,2308,2309,2307,2306,2301,2295,2288,2281,2276,2272,2269,2265,2263,2261,2259,2255,2252,2249,2247,2244,2240,2235,2230,2223,2214,2204,2196,2186,2177,2169,2164,2158,2153,2147,2142,2137,2129,2123,2115,2108,2098,2086,2076,2066,2057,2047,2038,2030,2024,2018,2011,2007,2002,1997,1992,1987,1980,1972,1963,1955,1946,1936,1925,1918,1907,1902,1897,1893,1891,1892,1891,1890,1888,1885,1880,1873,1864,1855,1847,1839,1834,1829,1826,1825,1829,1832,1839,1845,1854,1862,1869,1874,1877,1881,1882,1883,1884,1884,1883,1884,1888,1892,1900,1908,1913,1920,1924,1927,1926,1924,1922,1918,1910,1900,1887,1876,1865,1856,1846,1840,1834,1828,1822,1817,1813,1811,1809,1808,1805,1803,1800,1797,1795,1795,1797,1800,1802,1802,1799,1795,1789,1783,1778,1772,1761,1754,1746,1742,1738,1739,1744,1753,1767,1787,1811,1842,1876,1914,1960,2009,2062,2118,2177,2234,2294,2353,2411,2466,2518,2566,2608,2645,2677,2708,2725,2732,2734,2731,2725,2716,2704,2689,2674,2658,2644,2628,2612,2594,2576,2558,2536,2516,2498,2481,2464,2448,2430,2414,2399,2385,2373,2360,2348,2337,2328,2322,2315,2310,2304,2299,2291,2283,2274,2266,2256,2246,2234,2225,2218,2210,2206,2204,2202,2199,2196,2191,2187,2183,2179,2178,2178,2182,2189,2197,2206,2217,2229,2240,2253,2263,2272,2281,2289,2294,2298,2300,2302,2300,2302,2300,2297,2294,2287,2281,2272,2260,2252,2242,2234,2227,2216,2204,2194,2185,2177,2172,2169,2167,2167,2167,2168,2168,2167,2164,2163,2158,2151,2142,2130,2113,2094,2075,2052,2029,2008,1989,1972,1957,1943,1931,1921,1912,1902,1893,1887,1882,1879,1879,1881,1885,1887,1889,1892,1895,1898,1900,1902,1906,1908,1910,1912,1911,1909,1905,1900,1893,1885,1876,1866,1858,1852,1846,1844,1843,1842,1843,1846,1851,1856,1859,1866,1872,1881,1891,1900,1910,1919,1924,1926,1925,1920,1914,1904,1890,1880,1868,1858,1849,1840,1831,1820,1813,1803,1797,1789,1783,1778,1773,1767,1766,1765,1764,1766,1769,1771,1774,1777,1781,1786,1795,1807,1823,1844,1872,1908,1950,1995,2044,2092,2140,2187,2229,2266,2301,2335,2367,2399,2431,2459,2485,2521,2546,2563,2576,2587,2595,2602,2604,2606,2606,2603,2596,2585,2574,2561,2546,2532,2516,2499,2485,2468,2452,2437,2422,2405,2390,2373,2358,2343,2329,2316,2303,2289,2277,2267,2258,2252,2245,2239,2237,2235,2236,2237,2241,2244,2245,2245,2244,2243,2241,2240,2242,2242,2242,2244,2245,2245,2246,2245,2244,2242,2240,2240,2238,2239,2237,2236,2232,2225,2217,2209,2203,2195,2191,2186,2184,2182,2178,2177,2174,2172,2167,2164,2161,2158,2155,2154,2153,2152,2149,2147,2143,2136,2128,2117,2104,2091,2076,2060,2043,2022,2002,1983,1965,1952,1939,1928,1919,1911,1901,1893,1887,1882,1878,1876,1874,1873,1870,1864,1861,1857,1851,1849,1844,1841,1838,1834,1831,1823,1816,1807,1799,1792,1791,1789,1791,1794,1801,1806,1812,1819,1826,1836,1841,1848,1854,1856,1860,1862,1864,1868,1877,1882,1888,1891,1896,1900,1904,1909,1916,1923,1927,1932,1935,1936,1934,1929,1920,1914,1904,1893,1883,1874,1865,1856,1848,1842,1838,1831,1825,1819,1811,1807,1802,1799,1796,1794,1793,1787,1782,1776,1768,1762,1757,1755,1754,1752,1755,1758,1759,1759,1758,1754,1747,1737,1729,1723,1717,1713,1711,1716,1725,1735,1756,1783,1816,1853,1892,1935,1979,2026,2074,2126,2182,2237,2292,2345,2398,2448,2495,2540,2580,2617,2666,2695,2716,2732,2744,2754,2761,2764,2764,2761,2754,2744,2729,2704,2683,2661,2640,2617,2596,2573,2551,2529,2507,2486,2466,2447,2431,2413,2399,2382,2370,2357,2350,2343,2336,2329,2321,2313,2307,2303,2300,2298,2299,2300,2303,2306,2308,2312,2314,2316,2319,2320,2319,2315,2312,2306,2300,2296,2295,2296,2297,2298,2302,2308,2315,2323,2329,2339,2346,2355,2359,2360,2358,2349,2337,2321,2308,2292,2277,2265,2255,2244,2236,2224,2218,2211,2205,2201,2198,2196,2192,2187,2181,2172,2160,2146,2132,2118,2105,2091,2078,2065,2050,2035,2024,2017,2010,2007,2005,2003,2002,2002,2002,2001,2000,1996,1990,1986,1983,1984,1986,1988,1990,1992,1993,1988,1980,1972,1963,1955,1946,1942,1935,1932,1926,1925,1922,1919,1916,1913,1911,1906,1902,1898,1894,1889,1887,1884,1882,1884,1886,1887,1888,1887,1884,1880,1874,1868,1862,1858,1853,1848,1843,1840,1838,1836,1835,1835,1836,1837,1841,1841,1843,1843,1842,1840,1837,1834,1831,1829,1828,1828,1827,1829,1829,1829,1830,1829,1825,1822,1816,1810,1803,1797,1791,1787,1783,1777,1772,1764,1753,1741,1734,1726,1721,1719,1720,1724,1729,1737,1747,1759,1773,1788,1805,1824,1846,1871,1901,1936,1974,2014,2057,2103,2151,2198,2247,2298,2348,2398,2444,2490,2531,2569,2605,2636,2675,2698,2711,2720,2725,2725,2722,2717,2709,2699,2683,2662,2639,2608,2582,2554,2526,2496,2467,2439,2411,2384,2360,2338,2319,2301,2286,2270,2258,2248,2239,2233,2228,2220,2215,2208,2203,2199,2198,2199,2201,2204,2208,2210,2211,2209,2205,2201,2198,2194,2193,2191,2189,2189,2191,2196,2203,2211,2219,2230,2240,2248,2260,2270,2281,2290,2297,2302,2304,2305,2305,2303,2301,2299,2296,2292,2291,2286,2278,2271,2265,2257,2251,2246,2241,2236,2229,2220,2207,2194,2178,2159,2142,2126,2109,2092,2077,2065,2053,2041,2030,2020,2008,1996,1983,1974,1967,1965,1961,1961,1959,1957,1956,1953,1952,1949,1943,1934,1925,1916,1906,1896,1884,1877,1870,1865,1865,1864,1863,1863,1863,1860,1860,1858,1859,1861,1862,1864,1869,1874,1879,1884,1889,1894,1898,1898,1900,1899,1900,1898,1896,1892,1887,1882,1879,1872,1865,1860,1854,1849,1846,1845,1844,1841,1839,1836,1832,1828,1826,1824,1822,1820,1817,1813,1810,1811,1810,1813,1817,1821,1826,1833,1838,1845,1851,1859,1871,1890,1908,1931,1958,1987,2017,2050,2085,2120,2156,2195,2235,2277,2322,2366,2414,2460,2504,2546,2583,2618,2651,2690,2718,2734,2748,2755,2759,2759,2756,2749,2737,2723,2709,2690,2672,2654,2637,2621,2607,2594,2580,2570,2558,2546,2535,2522,2509,2494,2476,2461,2445,2430,2418,2406,2394,2384,2374,2367,2360,2353,2347,2339,2331,2324,2314,2301,2291,2280,2272,2263,2257,2254,2251,2248,2247,2245,2241,2238,2234,2230,2227,2220,2218,2216,2217,2217,2217,2218,2221,2223,2229,2236,2245,2252,2261,2270,2276,2281,2281,2281,2275,2267,2258,2246,2234,2216,2203,2185,2167,2151,2134,2118,2101,2085,2071,2055,2042,2028,2015,2000,1987,1973,1958,1943,1930,1917,1905,1893,1886,1881,1877,1875,1873,1873,1872,1874,1875,1878,1878,1877,1875,1872,1870,1870,1869,1870,1867,1866,1864,1859,1853,1845,1839,1831,1824,1820,1817,1815,1816,1820,1828,1835,1845,1854,1862,1874,1880,1887,1894,1897,1898,1899,1898,1896,1890,1883,1874,1863,1852,1841,1830,1819,1808,1798,1790,1782,1774,1769,1764,1761,1761,1763,1766,1774,1782,1790,1799,1808,1820,1831,1840,1850,1856,1862,1864,1861,1855,1842,1830,1817,1802,1785,1767,1754,1742,1730,1721,1712,1707,1705,1705,1711,1715,1722,1731,1739,1748,1761,1777,1798,1821,1849,1879,1914,1953,1995,2040,2087,2139,2195,2252,2312,2374,2435,2493,2551,2604,2650,2693,2726,2754,2776,2800,2813,2821,2824,2824,2821,2814,2806,2794,2782,2769,2756,2741,2728,2717,2704,2694,2683,2671,2660,2651,2638,2627,2615,2601,2585,2572,2554,2539,2523,2506,2491,2477,2464,2454,2445,2441,2439,2441,2443,2446,2446,2445,2446,2446,2443,2439,2434,2427,2421,2414,2409,2404,2403,2401,2400,2400,2401,2401,2401,2399,2396,2390,2382,2374,2366,2358,2348,2339,2329,2322,2315,2307,2301,2294,2288,2284,2280,2280,2283,2285,2289,2294,2296,2298,2299,2299,2298,2293,2285,2275,2261,2249,2236,2225,2214,2203,2193,2182,2172,2160,2148,2132,2115,2099,2082,2064,2048,2034,2021,2008,1998,1991,1984,1976,1967,1959,1950,1941,1933,1929,1924,1925,1930,1937,1947,1958,1968,1981,1995,2006,2014,2021,2022,2023,2021,2016,2010,2003,1994,1983,1971,1961,1952,1943,1938,1935,1934,1931,1930,1927,1925,1921,1915,1914,1912,1909,1909,1908,1909,1911,1912,1916,1922,1929,1935,1941,1947,1946,1946,1942,1938,1930,1920,1906,1892,1876,1861,1847,1834,1821,1810,1800,1788,1779,1770,1758,1745,1732,1723,1713,1705,1701,1697,1693,1688,1685,1684,1686,1688,1696,1708,1725,1748,1773,1808,1846,1889,1935,1985,2039,2095,2154,2215,2273,2331,2384,2432,2478,2518,2553,2585,2615,2656,2690,2714,2737,2753,2765,2769,2764,2755,2740,2722,2700,2676,2650,2622,2594,2568,2541,2517,2495,2476,2460,2446,2429,2412,2396,2380,2363,2349,2335,2322,2311,2298,2290,2280,2273,2265,2261,2257,2254,2251,2249,2248,2245,2241,2239,2233,2228,2223,2221,2221,2226,2229,2236,2242,2247,2249,2252,2253,2256,2255,2257,2258,2259,2264,2267,2273,2279,2285,2290,2293,2296,2296,2297,2297,2296,2293,2286,2279,2270,2261,2253,2246,2242,2238,2234,2233,2230,2229,2226,2225,2219,2214,2206,2197,2184,2167,2145,2120,2095,2068,2045,2026,2008,1992,1980,1965,1952,1938,1923,1910,1895,1878,1863,1851,1841,1836,1830,1828,1828,1829,1833,1835,1845,1856,1868,1880,1891,1899,1906,1908,1907,1905,1898,1889,1876,1865,1856,1845,1838,1832,1825,1821,1815,1809,1801,1794,1789,1783,1777,1771,1764,1758,1754,1753,1749,1751,1753,1755,1758,1761,1765,1769,1772,1774,1773,1772,1767,1762,1757,1753,1751,1749,1748,1747,1747,1747,1747,1747,1746,1746,1745,1745,1745,1749,1754,1762,1776,1797,1820,1851,1888,1929,1974,2019,2067,2115,2163,2210,2257,2304,2349,2391,2433,2476,2518,2558,2618,2664,2696,2724,2745,2761,2775,2780,2784,2784,2779,2771,2760,2748,2733,2714,2697,2681,2664,2649,2634,2622,2611,2605,2596,2590,2578,2568,2551,2537,2522,2508,2493,2481,2472,2463,2455,2449,2444,2438,2431,2421,2413,2406,2397,2389,2381,2373,2366,2358,2350,2343,2335,2328,2320,2317,2313,2312,2307,2302,2297,2292,2287,2282,2279,2280,2281,2282,2285,2289,2293,2295,2298,2300,2301,2300,2299,2298,2295,2293,2287,2283,2276,2271,2266,2261,2259,2254,2251,2245,2235,2226,2215,2204,2195,2183,2172,2159,2144,2126,2109,2091,2075,2060,2049,2039,2032,2025,2020,2011,2001,1991,1979,1965,1951,1937,1924,1910,1900,1890,1885,1882,1879,1882,1886,1889,1892,1894,1894,1891,1888,1882,1879,1873,1868,1859,1854,1847,1840,1833,1826,1820,1816,1810,1809,1810,1814,1820,1825,1831,1838,1845,1850,1856,1864,1871,1874,1875,1875,1873,1868,1863,1857,1852,1845,1838,1833,1823,1814,1800,1788,1775,1763,1748,1732,1717,1703,1690,1677,1669,1661,1654,1649,1647,1646,1647,1646,1646,1643,1639,1637,1631,1629,1628,1629,1634,1639,1646,1654,1661,1669,1675,1684,1689,1692,1697,1699,1701,1701,1702,1706,1707,1710,1716,1722,1733,1749,1768,1793,1825,1863,1909,1961,2016,2078,2139,2203,2266,2327,2384,2439,2493,2541,2588,2630,2668,2702,2744,2769,2782,2788,2790,2783,2773,2762,2744,2726,2707,2686,2663,2640,2616,2591,2568,2547,2525,2507,2492,2477,2467,2458,2451,2443,2436,2428,2419,2410,2405,2399,2395,2394,2395,2397,2402,2409,2414,2417,2422,2423,2425,2425,2426,2428,2432,2434,2438,2441,2442,2441,2439,2434,2428,2423,2419,2416,2414,2414,2416,2417,2419,2418,2419,2421,2425,2429,2434,2436,2435,2432,2425,2416,2404,2393,2376,2356,2338,2321,2304,2287,2273,2260,2247,2236,2223,2210,2198,2183,2169,2154,2139,2125,2111,2096,2081,2067,2052,2042,2032,2022,2016,2009,2003,1998,1992,1990,1987,1985,1978,1971,1960,1947,1930,1912,1895,1875,1855,1838,1818,1803,1786,1774,1764,1759,1756,1754,1753,1757,1763,1771,1781,1790,1801,1809,1815,1820,1825,1826,1824,1822,1821,1817,1811,1806,1802,1796,1790,1780,1767,1752,1735,1722,1710,1702,1695,1692,1690,1691,1694,1696,1698,1702,1706,1709,1713,1717,1723,1727,1729,1732,1732,1731,1731,1727,1722,1715,1706,1695,1684,1673,1666,1658,1651,1648,1645,1641,1640,1636,1632,1626,1621,1618,1613,1609,1605,1601,1600,1601,1602,1602,1604,1602,1597,1593,1587,1584,1577,1573,1572,1573,1578,1583,1590,1599,1608,1618,1633,1652,1675,1705,1739,1775,1817,1861,1909,1960,2014,2070,2127,2185,2246,2307,2365,2421,2477,2529,2578,2621,2660,2708,2736,2753,2769,2779,2784,2785,2781,2775,2761,2743,2722,2698,2671,2646,2621,2598,2575,2554,2534,2514,2493,2472,2449,2426,2405,2385,2365,2344,2325,2307,2293,2282,2274,2269,2265,2262,2261,2259,2257,2257,2255,2254,2250,2244,2235,2227,2220,2214,2209,2207,2206,2205,2206,2210,2215,2219,2224,2230,2235,2244,2251,2261,2268,2276,2280,2288,2295,2303,2308,2311,2313,2315,2312,2310,2309,2307,2302,2296,2286,2275,2262,2248,2232,2216,2200,2184,2168,2154,2138,2123,2109,2097,2085,2074,2063,2054,2042,2034,2024,2020,2016,2014,2014,2012,2011,2010,2007,2004,2003,2001,1996,1988,1979,1969,1958,1946,1934,1923,1911,1898,1882,1870,1857,1844,1830,1821,1813,1805,1798,1790,1783,1773,1766,1760,1758,1755,1755,1759,1763,1767,1771,1774,1774,1774,1772,1768,1766,1762,1756,1750,1745,1741,1736,1731,1728,1726,1725,1723,1725,1728,1731,1737,1742,1750,1759,1764,1768,1771,1771,1769,1766,1764,1765,1766,1766,1767,1769,1770,1770,1771,1771,1771,1769,1765,1763,1762,1764,1764,1767,1773,1783,1793,1809,1829,1854,1883,1918,1956,1998,2042,2090,2138,2190,2243,2299,2355,2413,2470,2525,2575,2624,2667,2709,2744,2787,2812,2825,2833,2837,2838,2833,2827,2817,2805,2788,2768,2745,2724,2698,2671,2644,2615,2584,2556,2526,2499,2474,2452,2433,2421,2413,2407,2400,2393,2387,2378,2368,2356,2345,2335,2321,2310,2299,2291,2282,2276,2272,2269,2268,2267,2267,2269,2270,2272,2273,2273,2273,2271,2265,2260,2257,2253,2251,2248,2248,2247,2246,2247,2248,2249,2251,2252,2254,2255,2256,2257,2258,2256,2255,2253,2252,2250,2249,2246,2242,2237,2232,2226,2220,2213,2204,2192,2180,2164,2147,2131,2114,2098,2081,2067,2054,2042,2032,2021,2009,1995,1982,1964,1949,1931,1914,1894,1876,1860,1845,1833,1823,1816,1810,1806,1803,1801,1802,1802,1803,1804,1803,1802,1797,1793,1786,1781,1778,1776,1777,1779,1783,1785,1790,1791,1792,1790,1784,1777,1769,1761,1754,1747,1742,1735,1731,1728,1728,1726,1724,1724,1721,1721,1720,1721,1722,1720,1723,1726,1729,1730,1733,1735,1739,1741,1745,1748,1752,1757,1760,1762,1760,1754,1746,1734,1720,1703,1688,1673,1659,1648,1639,1635,1634,1632,1633,1633,1634,1634,1632,1631,1628,1622,1619,1614,1611,1609,1602,1595,1591,1587,1584,1581,1583,1587,1597,1612,1632,1654,1682,1719,1760,1809,1860,1915,1973,2033,2094,2154,2215,2272,2328,2382,2435,2486,2536,2584,2650,2702,2741,2777,2806,2831,2849,2861,2867,2868,2864,2856,2843,2826,2802,2783,2764,2746,2726,2707,2689,2670,2653,2637,2620,2604,2588,2574,2560,2547,2534,2523,2514,2505,2497,2494,2494,2497,2502,2508,2513,2516,2521,2522,2523,2522,2519,2514,2504,2496,2484,2472,2458,2444,2428,2413,2398,2385,2372,2362,2354,2349,2345,2343,2344,2346,2349,2351,2357,2363,2369,2375,2379,2383,2382,2381,2379,2373,2368,2361,2350,2339,2327,2314,2303,2286,2271,2257,2243,2229,2217,2208,2196,2185,2175,2165,2149,2133,2119,2107,2098,2089,2085,2077,2072,2066,2059,2054,2048,2041,2031,2018,2004,1989,1973,1956,1940,1924,1908,1893,1883,1874,1867,1862,1860,1860,1859,1862,1865,1866,1868,1866,1864,1861,1857,1853,1848,1845,1844,1841,1839,1835,1833,1827,1821,1810,1799,1787,1774,1760,1746,1734,1724,1719,1716,1716,1717,1718,1723,1726,1730,1731,1729,1732,1732,1731,1730,1733,1733,1735,1735,1735,1733,1732,1731,1729,1725,1721,1715,1708,1701,1694,1686,1678,1670,1658,1648,1639,1630,1624,1619,1613,1608,1603,1599,1595,1592,1592,1593,1594,1595,1596,1598,1600,1599,1598,1595,1591,1586,1577,1570,1562,1551,1542,1534,1530,1531,1535,1546,1563,1586,1614,1651,1693,1744,1801,1863,1931,2000,2072,2145,2218,2287,2354,2421,2486,2547,2606,2660,2708,2772,2817,2849,2874,2895,2908,2919,2922,2925,2924,2917,2906,2893,2875,2856,2832,2811,2789,2764,2740,2715,2689,2660,2633,2607,2581,2554,2532,2513,2500,2486,2478,2472,2466,2459,2454,2448,2443,2438,2430,2422,2412,2404,2397,2390,2382,2378,2372,2369,2366,2364,2362,2362,2363,2366,2368,2372,2374,2379,2384,2389,2390,2392,2391,2386,2381,2373,2361,2351,2337,2325,2316,2306,2298,2294,2288,2285,2284,2282,2282,2280,2280,2279,2276,2275,2271,2265,2257,2246,2233,2214,2196,2175,2157,2139,2123,2107,2095,2081,2068,2056,2044,2031,2017,2003,1988,1974,1959,1944,1932,1920,1909,1898,1887,1879,1870,1862,1853,1846,1840,1831,1824,1814,1805,1796,1787,1780,1777,1774,1773,1774,1779,1783,1786,1790,1794,1798,1799,1800,1801,1799,1796,1793,1788,1783,1776,1768,1761,1753,1748,1740,1736,1736,1736,1739,1741,1745,1753,1758,1764,1768,1772,1776,1779,1781,1784,1785,1784,1781,1779,1772,1764,1753,1742,1726,1712,1694,1676,1660,1640,1625,1611,1599,1587,1581,1576,1575,1573,1571,1569,1568,1565,1563,1559,1559,1559,1562,1566,1574,1582,1591,1597,1604,1608,1611,1615,1616,1616,1615,1610,1607,1606,1604,1603,1601,1601,1599,1600,1600,1606,1613,1625,1643,1665,1692,1724,1761,1802,1849,1900,1956,2012,2074,2135,2196,2257,2318,2381,2441,2499,2555,2606,2653,2697,2750,2784,2804,2818,2826,2827,2822,2814,2799,2781,2760,2736,2708,2680,2651,2624,2597,2573,2550,2531,2511,2497,2481,2468,2459,2447,2436,2425,2414,2403,2391,2379,2369,2358,2346,2339,2333,2328,2324,2323,2321,2318,2313,2311,2307,2304,2301,2298,2294,2291,2288,2284,2283,2283,2283,2285,2287,2291,2293,2295,2296,2298,2296,2293,2290,2287,2283,2278,2275,2273,2271,2271,2269,2268,2265,2264,2258,2251,2243,2234,2222,2207,2194,2183,2169,2160,2153,2147,2141,2137,2131,2123,2114,2102,2091,2079,2067,2053,2036,2021,2007,1993,1978,1963,1947,1929,1910,1894,1880,1865,1852,1842,1833,1824,1814,1807,1800,1793,1787,1782,1780,1779,1780,1780,1779,1776,1773,1770,1769,1767,1766,1768,1769,1770,1775,1776,1778,1779,1778,1776,1771,1765,1756,1748,1741,1736,1731,1729,1724,1720,1713,1708,1704,1697,1693,1690,1687,1684,1680,1679,1678,1678,1680,1682,1685,1685,1685,1687,1688,1688,1688,1688,1686,1687,1687,1686,1686,1686,1686,1687,1688,1688,1686,1682,1682,1682,1683,1685,1687,1689,1692,1697,1702,1713,1727,1744,1772,1805,1843,1886,1933,1986,2042,2099,2154,2210,2262,2313,2360,2402,2441,2472,2502,2526,2559,2583,2598,2611,2621,2625,2625,2619,2608,2593,2575,2553,2532,2509,2486,2462,2440,2416,2394,2372,2351,2331,2313,2297,2282,2267,2251,2235,2219,2202,2186,2168,2152,2137,2123,2110,2099,2088,2079,2071,2066,2061,2058,2055,2054,2051,2050,2049,2049,2047,2049,2049,2050,2050,2051,2053,2054,2056,2059,2061,2064,2066,2067,2069,2072,2076,2078,2081,2086,2090,2093,2098,2099,2099,2099,2099,2100,2102,2101,2102,2101,2099,2095,2090,2085,2081,2076,2071,2064,2055,2045,2033,2018,2006,1991,1980,1968,1961,1951,1942,1933,1921,1908,1893,1875,1857,1841,1826,1807,1790,1773,1756,1740,1725,1715,1707,1703,1699,1696,1693,1689,1683,1678,1674,1670,1666,1663,1662,1662,1661,1660,1657,1654,1651,1648,1643,1640,1638,1639,1637,1636,1634,1630,1623,1617,1613,1610,1609,1610,1615,1625,1634,1643,1651,1657,1660,1663,1667,1668,1669,1669,1674,1681,1688,1693,1696,1699,1698,1696,1690,1686,1679,1672,1661,1649,1635,1622,1606,1590,1575,1561,1548,1537,1531,1528,1528,1530,1535,1542,1553,1570,1591,1624,1662,1706,1758,1816,1878,1942,2009,2075,2143,2208,2272,2335,2396,2452,2506,2556,2603,2660,2702,2729,2748,2762,2772,2778,2781,2778,2773,2763,2750,2734,2714,2693,2671,2651,2629,2607,2587,2572,2558,2545,2533,2521,2510,2497,2482,2467,2451,2434,2417,2402,2386,2373,2361,2350,2340,2331,2327,2324,2317,2312,2306,2298,2293,2285,2278,2271,2266,2261,2259,2256,2256,2257,2258,2258,2260,2262,2259,2254,2251,2247,2247,2246,2246,2247,2249,2251,2252,2255,2257,2256,2257,2258,2259,2259,2259,2256,2253,2246,2234,2220,2208,2196,2182,2172,2158,2146,2134,2121,2110,2099,2090,2079,2072,2065,2059,2053,2045,2036,2027,2017,2007,2000,1993,1985,1980,1974,1967,1958,1952,1945,1938,1932,1926,1919,1915,1907,1900,1893,1885,1877,1867,1857,1846,1838,1824,1812,1801,1793,1786,1778,1772,1764,1755,1749,1743,1737,1732,1728,1724,1718,1714,1708,1704,1701,1702,1704,1707,1711,1713,1718,1719,1720,1717,1716,1710,1704,1696,1690,1684,1679,1676,1674,1674,1671,1670,1669,1669,1671,1672,1675,1679,1680,1683,1682,1684,1687,1688,1688,1689,1689,1689,1686,1683,1683,1680,1680,1677,1674,1670,1664,1658,1650,1640,1633,1623,1617,1609,1603,1597,1594,1594,1597,1602,1612,1626,1644,1665,1692,1724,1762,1807,1853,1905,1960,2017,2076,2133,2191,2248,2304,2356,2408,2457,2504,2548,2590,2651,2694,2726,2755,2780,2801,2817,2828,2836,2838,2837,2831,2822,2808,2790,2775,2758,2740,2721,2705,2688,2674,2659,2645,2631,2616,2603,2590,2579,2568,2558,2547,2538,2531,2524,2519,2516,2516,2518,2520,2522,2524,2525,2526,2526,2523,2520,2515,2509,2502,2496,2487,2478,2465,2449,2433,2414,2397,2382,2369,2358,2343,2333,2321,2308,2296,2288,2280,2273,2265,2263,2259,2257,2256,2257,2257,2257,2255,2256,2256,2258,2256,2252,2249,2240,2231,2218,2204,2190,2177,2164,2151,2139,2126,2113,2096,2082,2067,2051,2038,2025,2016,2008,2001,1995,1987,1982,1975,1968,1963,1959,1955,1951,1946,1939,1930,1921,1913,1905,1897,1889,1880,1873,1864,1859,1851,1843,1835,1828,1819,1813,1806,1798,1793,1787,1782,1778,1775,1771,1769,1764,1761,1757,1751,1746,1740,1735,1732,1731,1731,1729,1728,1729,1729,1728,1729,1731,1730,1728,1725,1722,1720,1715,1712,1710,1709,1708,1708,1709,1713,1716,1717,1717,1715,1714,1713,1709,1706,1706,1705,1703,1700,1697,1692,1686,1679,1676,1670,1663,1657,1649,1641,1631,1621,1613,1605,1600,1596,1592,1594,1599,1604,1617,1634,1654,1680,1710,1746,1785,1830,1877,1931,1991,2055,2124,2194,2264,2334,2399,2463,2523,2579,2627,2668,2702,2730,2759,2775,2783,2787,2787,2782,2777,2768,2754,2737,2719,2697,2673,2648,2622,2597,2569,2540,2512,2482,2454,2427,2404,2381,2363,2345,2326,2309,2292,2277,2263,2252,2240,2231,2223,2220,2215,2213,2211,2209,2210,2212,2214,2218,2220,2222,2222,2223,2225,2227,2227,2228,2229,2230,2231,2232,2234,2236,2240,2243,2245,2246,2245,2242,2242,2240,2238,2236,2233,2232,2231,2233,2235,2237,2237,2237,2236,2233,2230,2226,2219,2212,2204,2197,2188,2180,2170,2161,2152,2139,2125,2109,2093,2074,2052,2031,2009,1987,1966,1945,1928,1911,1895,1882,1869,1859,1852,1847,1844,1843,1843,1844,1844,1844,1845,1843,1843,1842,1844,1845,1847,1846,1845,1843,1834,1825,1815,1801,1785,1770,1757,1748,1739,1733,1730,1728,1727,1726,1726,1726,1727,1727,1729,1732,1735,1739,1743,1745,1748,1750,1751,1751,1750,1750,1745,1742,1737,1731,1723,1715,1706,1697,1689,1681,1677,1673,1668,1666,1662,1658,1651,1648,1644,1642,1641,1643,1643,1645,1645,1645,1646,1646,1647,1651,1657,1669,1682,1696,1714,1733,1755,1781,1809,1843,1884,1929,1980,2033,2091,2151,2212,2273,2332,2391,2449,2505,2559,2611,2661,2705,2745,2794,2825,2845,2861,2874,2885,2890,2892,2891,2883,2871,2853,2828,2804,2774,2742,2711,2681,2652,2625,2603,2578,2559,2539,2523,2507,2494,2481,2473,2465,2458,2452,2447,2442,2438,2435,2432,2427,2425,2421,2415,2409,2403,2396,2385,2372,2356,2337,2320,2304,2292,2283,2274,2266,2261,2256,2250,2246,2244,2243,2247,2249,2254,2260,2263,2267,2268,2268,2265,2262,2258,2255,2253,2251,2247,2244,2240,2233,2225,2217,2207,2199,2192,2183,2177,2170,2163,2155,2150,2142,2138,2132,2126,2117,2106,2090,2071,2051,2030,2009,1991,1973,1958,1945,1932,1920,1909,1901,1890,1882,1876,1870,1866,1864,1865,1868,1867,1866,1866,1864,1863,1862,1862,1861,1860,1857,1855,1850,1844,1835,1829,1822,1816,1813,1808,1803,1799,1794,1786,1777,1771,1763,1754,1747,1740,1732,1724,1717,1712,1710,1711,1713,1716,1721,1726,1732,1737,1744,1751,1757,1764,1770,1776,1781,1783,1785,1787,1786,1783,1780,1777,1770,1765,1761,1758,1755,1750,1745,1739,1733,1726,1717,1710,1706,1697,1691,1683,1675,1667,1661,1655,1649,1645,1640,1635,1632,1627,1622,1618,1616,1613,1610,1609,1606,1604,1606,1613,1626,1642,1668,1695,1728,1764,1807,1853,1905,1961,2023,2088,2156,2224,2292,2360,2424,2485,2543,2596,2644,2687,2725,2776,2808,2834,2852,2864,2869,2870,2864,2858,2846,2834,2820,2807,2792,2776,2759,2740,2720,2701,2684,2668,2653,2635,2621,2609,2594,2583,2571,2562,2557,2550,2547,2542,2538,2530,2518,2505,2493,2479,2465,2453,2441,2432,2423,2415,2408,2402,2396,2394,2393,2396,2397,2402,2407,2413,2421,2425,2429,2431,2428,2423,2417,2410,2403,2391,2381,2369,2357,2344,2329,2317,2307,2301,2295,2289,2285,2280,2276,2273,2270,2268,2264,2260,2254,2248,2239,2230,2221,2211,2200,2185,2169,2150,2131,2108,2085,2062,2041,2021,1999,1979,1960,1943,1926,1911,1898,1885,1874,1864,1858,1853,1846,1842,1838,1836,1832,1827,1821,1816,1806,1796,1786,1772,1760,1746,1734,1726,1719,1716,1714,1715,1718,1722,1728,1733,1737,1739,1738,1738,1737,1736,1737,1739,1742,1746,1748,1751,1754,1757,1761,1764,1765,1767,1766,1763,1756,1754,1748,1744,1743,1743,1746,1748,1751,1753,1754,1756,1754,1751,1750,1746,1745,1741,1739,1734,1729,1725,1722,1723,1721,1719,1714,1708,1700,1691,1683,1677,1671,1671,1675,1683,1694,1709,1726,1748,1775,1806,1841,1881,1924,1970,2019,2070,2122,2178,2232,2290,2348,2406,2462,2515,2564,2609,2649,2707,2740,2761,2777,2790,2797,2798,2795,2785,2776,2761,2746,2726,2703,2677,2649,2619,2591,2564,2541,2520,2501,2484,2469,2457,2446,2436,2428,2420,2413,2407,2404,2399,2398,2397,2399,2399,2399,2399,2399,2397,2397,2395,2391,2389,2383,2379,2371,2364,2355,2346,2336,2326,2317,2308,2300,2291,2287,2282,2278,2274,2268,2261,2255,2248,2242,2236,2231,2227,2222,2217,2214,2211,2209,2211,2212,2211,2207,2202,2194,2185,2177,2167,2160,2150,2144,2138,2134,2126,2120,2113,2106,2094,2081,2066,2050,2033,2014,1994,1974,1953,1932,1911,1894,1880,1868,1856,1846,1835,1824,1811,1797,1783,1770,1754,1742,1734,1728,1727,1727,1728,1731,1732,1735,1739,1742,1748,1751,1752,1754,1752,1749,1745,1740,1733,1726,1721,1718,1714,1711,1706,1700,1693,1686,1680,1676,1673,1672,1670,1669,1670,1672,1675,1678,1684,1692,1700,1709,1718,1727,1730,1735,1737,1736,1737,1734,1730,1726,1720,1715,1706,1700,1697,1694,1691,1688,1687,1689,1695,1705,1721,1745,1772,1807,1848,1896,1947,2002,2061,2123,2183,2247,2310,2371,2429,2481,2531,2575,2616,2654,2704,2741,2764,2782,2793,2800,2803,2798,2790,2779,2764,2745,2727,2708,2685,2665,2643,2623,2602,2579,2557,2533,2508,2486,2462,2442,2429,2418,2411,2407,2403,2402,2400,2399,2402,2401,2400,2397,2392,2387,2378,2368,2358,2349,2336,2324,2313,2303,2292,2281,2273,2264,2258,2254,2251,2249,2249,2253,2258,2264,2274,2283,2292,2301,2307,2313,2315,2315,2314,2310,2304,2298,2289,2277,2261,2242,2223,2205,2188,2174,2159,2146,2132,2118,2103,2088,2075,2059,2047,2031,2015,1999,1984,1969,1955,1939,1924,1909,1894,1878,1863,1847,1829,1812,1794,1776,1760,1743,1729,1717,1706,1699,1695,1690,1687,1684,1684,1684,1688,1693,1701,1710,1719,1729,1739,1749,1759,1766,1771,1774,1775,1774,1771,1768,1762,1759,1754,1751,1745,1739,1734,1728,1724,1718,1710,1705,1699,1693,1687,1682,1679,1675,1673,1672,1670,1667,1664,1662,1667,1671,1679,1689,1702,1721,1743,1769,1797,1829,1863,1900,1943,1988,2035,2084,2136,2190,2247,2302,2359,2414,2469,2523,2575,2622,2669,2711,2766,2801,2825,2843,2855,2861,2860,2853,2841,2824,2808,2789,2770,2746,2725,2702,2681,2660,2643,2627,2611,2597,2583,2570,2558,2546,2535,2526,2516,2510,2503,2500,2499,2497,2495,2492,2489,2485,2476,2466,2454,2440,2420,2399,2376,2353,2329,2310,2292,2280,2271,2265,2262,2261,2262,2262,2265,2269,2272,2273,2276,2277,2278,2279,2279,2276,2273,2268,2261,2253,2249,2244,2237,2233,2231,2228,2224,2220,2215,2211,2205,2200,2191,2186,2176,2166,2154,2139,2123,2107,2091,2076,2062,2051,2041,2033,2025,2014,2005,1996,1990,1982,1977,1973,1969,1965,1960,1953,1945,1933,1922,1909,1900,1893,1886,1882,1878,1875,1871,1865,1858,1852,1847,1842,1836,1833,1833,1831,1829,1826,1822,1817,1811,1803,1792,1781,1770,1761,1752,1745,1741,1738,1734,1734,1734,1730,1727,1724,1723,1719,1717,1715,1712,1710,1708,1709,1710,1711,1711,1711,1708,1702,1691,1680,1669,1657,1645,1633,1624,1614,1603,1593,1582,1574,1570,1568,1571,1582,1599,1621,1651,1685,1725,1769,1818,1870,1928,1991,2056,2123,2189,2255,2322,2383,2443,2497,2549,2597,2643,2699,2736,2759,2777,2788,2793,2793,2791,2782,2767,2754,2739,2723,2708,2690,2673,2654,2634,2610,2586,2561,2538,2518,2499,2484,2475,2466,2460,2454,2450,2444,2439,2432,2424,2415,2406,2398,2388,2382,2375,2368,2362,2356,2350,2343,2337,2336,2329,2326,2324,2322,2318,2313,2310,2302,2298,2293,2293,2294,2297,2298,2298,2295,2290,2283,2275,2268,2259,2252,2245,2235,2227,2217,2207,2201,2194,2190,2188,2189,2194,2196,2200,2203,2202,2196,2185,2172,2158,2140,2123,2102,2085,2066,2047,2030,2012,1996,1980,1964,1947,1930,1913,1896,1880,1862,1846,1829,1812,1800,1789,1781,1774,1767,1764,1760,1759,1758,1753,1751,1749,1745,1741,1740,1740,1744,1750,1760,1772,1781,1789,1796,1801,1804,1804,1803,1796,1790,1780,1769,1754,1740,1726,1710,1697,1688,1681,1676,1673,1671,1667,1662,1655,1648,1642,1634,1626,1620,1613,1608,1600,1590,1585,1579,1575,1574,1578,1582,1589,1599,1612,1630,1652,1679,1711,1754,1802,1856,1917,1982,2050,2118,2187,2256,2321,2385,2448,2506,2560,2610,2653,2693,2737,2765,2781,2794,2799,2801,2796,2787,2771,2751,2724,2696,2667,2636,2607,2580,2554,2528,2501,2476,2452,2427,2403,2378,2358,2337,2318,2300,2284,2267,2250,2235,2219,2206,2196,2187,2177,2172,2168,2164,2163,2160,2158,2154,2148,2142,2140,2137,2134,2134,2133,2135,2136,2135,2133,2132,2126,2127,2126,2129,2130,2133,2139,2145,2149,2153,2156,2158,2162,2163,2163,2164,2163,2160,2154,2148,2139,2130,2118,2109,2098,2089,2076,2064,2049,2035,2018,2001,1985,1968,1952,1932,1915,1896,1879,1859,1843,1827,1812,1798,1785,1775,1766,1754,1746,1737,1726,1714,1706,1698,1692,1685,1682,1677,1674,1668,1664,1659,1654,1646,1640,1632,1622,1612,1600,1588,1575,1561,1549,1538,1530,1520,1515,1511,1509,1509,1512,1518,1523,1527,1533,1536,1541,1542,1545,1547,1548,1545,1540,1531,1524,1516,1510,1506,1504,1504,1506,1510,1513,1516,1518,1520,1520,1519,1516,1515,1511,1507,1500,1495,1488,1481,1472,1462,1454,1446,1441,1439,1438,1439,1442,1444,1445,1443,1445,1444,1447,1450,1454,1457,1460,1466,1474,1485,1497,1511,1525,1542,1561,1584,1612,1643,1682,1729,1780,1837,1899,1965,2035,2106,2179,2250,2320,2385,2445,2500,2551,2593,2630,2664,2703,2727,2744,2758,2770,2778,2781,2780,2776,2764,2748,2729,2707,2683,2656,2632,2603,2574,2543,2511,2480,2447,2416,2383,2356,2332,2311,2293,2279,2265,2253,2240,2231,2223,2216,2211,2203,2199,2195,2191,2185,2181,2176,2171,2162,2150,2141,2127,2118,2108,2102,2097,2094,2092,2092,2093,2097,2101,2111,2118,2125,2130,2136,2136,2136,2134,2129,2124,2115,2104,2092,2077,2059,2044,2026,2012,1996,1984,1969,1956,1944,1934,1924,1916,1905,1899,1894,1888,1884,1879,1872,1863,1852,1842,1832,1822,1812,1801,1790,1779,1769,1761,1751,1741,1731,1724,1715,1707,1697,1690,1683,1677,1671,1666,1661,1655,1653,1648,1642,1634,1626,1620,1611,1604,1597,1589,1582,1576,1568,1560,1554,1547,1545,1538,1532,1526,1520,1513,1508,1500,1495,1490,1486,1485,1485,1486,1486,1486,1487,1490,1489,1486,1485,1483,1480,1475,1466,1460,1453,1448,1444,1447,1450,1455,1463,1472,1480,1490,1497,1502,1505,1505,1507,1505,1506,1504,1502,1499,1497,1496,1490,1489,1488,1489,1491,1493,1494,1493,1493,1491,1491,1493,1494,1498,1504,1507,1510,1512,1514,1512,1508,1503,1496,1487,1481,1474,1465,1461,1458,1454,1450,1444,1443,1441,1443,1447,1456,1471,1493,1517,1550,1587,1628,1674,1720,1771,1823,1880,1938,2001,2066,2130,2194,2253,2306,2353,2398,2437,2474,2520,2554,2577,2597,2612,2621,2626,2624,2621,2609,2597,2582,2563,2542,2518,2494,2469,2446,2420,2398,2375,2353,2331,2311,2289,2269,2247,2228,2213,2198,2186,2175,2168,2159,2153,2147,2143,2140,2136,2134,2133,2131,2129,2123,2118,2113,2106,2101,2093,2086,2082,2078,2077,2076,2076,2078,2074,2074,2072,2070,2066,2065,2060,2055,2053,2050,2049,2049,2052,2055,2057,2057,2057,2057,2054,2052,2049,2041,2030,2021,2010,2000,1989,1979,1969,1961,1954,1949,1943,1937,1931,1922,1915,1907,1897,1887,1879,1870,1862,1855,1850,1842,1837,1830,1827,1822,1815,1809,1801,1794,1786,1778,1769,1759,1747,1735,1724,1713,1702,1692,1684,1676,1668,1658,1647,1637,1626,1618,1608,1599,1592,1585,1577,1572,1566,1560,1554,1545,1537,1527,1516,1508,1503,1498,1501,1505,1511,1522,1535,1545,1559,1572,1585,1596,1608,1616,1623,1629,1631,1633,1633,1631,1625,1617,1609,1601,1594,1586,1580,1575,1569,1561,1555,1550,1547,1543,1542,1545,1549,1555,1563,1568,1573,1575,1576,1574,1574,1573,1571,1568,1569,1569,1570,1574,1581,1594,1608,1626,1647,1672,1699,1733,1769,1810,1854,1898,1944,1991,2038,2084,2131,2180,2225,2270,2310,2344,2375,2411,2431,2445,2454,2460,2463,2461,2459,2449,2439,2425,2408,2387,2367,2345,2321,2297,2273,2251,2228,2203,2181,2159,2137,2114,2091,2070,2049,2031,2014,1999,1986,1975,1966,1956,1948,1941,1938,1933,1931,1931,1929,1930,1929,1929,1930,1931,1931,1931,1933,1933,1934,1938,1946,1954,1964,1971,1979,1987,1993,1998,1998,1997,1994,1989,1982,1972,1964,1955,1945,1939,1934,1929,1927,1927,1927,1928,1929,1934,1933,1932,1929,1928,1924,1920,1915,1909,1902,1894,1885,1872,1858,1844,1829,1816,1799,1783,1769,1755,1741,1727,1713,1702,1694,1687,1683,1678,1676,1676,1676,1676,1677,1673,1672,1669,1664,1661,1660,1660,1663,1666,1672,1675,1676,1675,1672,1667,1658,1650,1642,1633,1625,1618,1611,1608,1605,1606,1606,1611,1615,1620,1622,1625,1624,1624,1621,1618,1614,1611,1609,1606,1601,1598,1592,1585,1577,1568,1558,1545,1535,1519,1507,1494,1484,1477,1474,1476,1481,1489,1500,1513,1525,1535,1546,1556,1562,1565,1566,1564,1560,1555,1549,1546,1542,1536,1530,1524,1518,1509,1504,1500,1495,1496,1498,1504,1516,1533,1555,1585,1620,1659,1701,1749,1801,1853,1905,1959,2013,2064,2114,2165,2213,2258,2301,2342,2383,2441,2484,2513,2539,2560,2576,2585,2590,2593,2588,2578,2567,2551,2536,2518,2499,2480,2460,2441,2422,2405,2388,2372,2355,2339,2323,2308,2293,2280,2268,2259,2254,2248,2244,2244,2241,2238,2232,2226,2217,2208,2201,2193,2189,2187,2184,2184,2183,2181,2179,2174,2169,2159,2147,2136,2125,2117,2110,2105,2099,2097,2093,2094,2095,2099,2102,2106,2110,2115,2116,2114,2111,2105,2096,2086,2077,2068,2057,2050,2044,2038,2034,2029,2025,2019,2015,2014,2010,2007,2005,2001,1994,1986,1980,1974,1965,1959,1951,1946,1940,1932,1927,1919,1908,1895,1882,1868,1853,1839,1829,1820,1810,1803,1800,1795,1791,1787,1784,1780,1779,1778,1776,1774,1770,1764,1761,1757,1753,1748,1744,1738,1736,1732,1730,1727,1724,1719,1715,1711,1708,1704,1702,1698,1698,1700,1704,1709,1714,1718,1723,1726,1726,1725,1723,1722,1722,1725,1728,1730,1730,1731,1732,1733,1734,1735,1736,1737,1736,1734,1729,1722,1716,1708,1702,1698,1693,1690,1689,1689,1691,1691,1692,1691,1691,1689,1689,1689,1689,1685,1683,1679,1672,1667,1658,1652,1647,1644,1641,1637,1633,1628,1621,1611,1601,1591,1584,1577,1568,1565,1561,1564,1569,1578,1589,1605,1626,1653,1679,1712,1747,1788,1833,1882,1934,1990,2049,2109,2171,2235,2298,2362,2425,2481,2535,2588,2632,2672,2718,2746,2761,2769,2772,2770,2762,2751,2734,2713,2688,2661,2632,2606,2577,2550,2521,2493,2466,2439,2412,2385,2361,2337,2314,2297,2280,2267,2255,2246,2238,2233,2229,2229,2226,2226,2225,2223,2219,2212,2208,2203,2200,2198,2197,2192,2186,2177,2167,2156,2145,2137,2129,2124,2119,2116,2117,2117,2121,2124,2128,2135,2143,2152,2164,2176,2188,2195,2205,2210,2214,2214,2212,2209,2204,2201,2195,2191,2185,2179,2172,2164,2156,2149,2139,2128,2119,2110,2097,2086,2076,2061,2049,2033,2020,2007,1991,1980,1966,1950,1937,1922,1910,1903,1891,1884,1875,1868,1860,1851,1846,1843,1839,1837,1835,1833,1833,1829,1825,1820,1815,1807,1798,1791,1781,1775,1767,1760,1753,1748,1743,1737,1731,1725,1723,1721,1722,1726,1734,1742,1753,1766,1778,1791,1801,1814,1822,1827,1830,1832,1834,1832,1826,1820,1813,1803,1796,1787,1782,1780,1776,1772,1769,1767,1764,1762,1759,1757,1751,1745,1741,1734,1727,1721,1716,1714,1711,1712,1714,1719,1726,1734,1740,1749,1757,1769,1779,1792,1807,1827,1849,1878,1913,1954,1994,2037,2082,2130,2178,2225,2276,2327,2376,2426,2471,2513,2555,2589,2623,2651,2683,2701,2713,2721,2724,2721,2712,2699,2681,2661,2640,2616,2591,2565,2538,2509,2479,2448,2421,2394,2367,2344,2326,2311,2295,2282,2269,2257,2247,2235,2225,2216,2207,2205,2200,2195,2188,2181,2170,2158,2147,2139,2132,2128,2127,2126,2125,2122,2121,2118,2116,2114,2110,2111,2109,2110,2109,2110,2110,2106,2107,2107,2112,2121,2132,2145,2159,2172,2184,2196,2204,2210,2214,2214,2215,2213,2212,2210,2206,2198,2191,2183,2174,2165,2156,2150,2139,2127,2113,2098,2084,2069,2054,2036,2019,2001,1985,1970,1956,1944,1930,1917,1905,1891,1877,1865,1853,1836,1819,1803,1784,1765,1747,1732,1723,1716,1713,1714,1719,1726,1731,1738,1747,1752,1756,1761,1764,1765,1767,1770,1773,1775,1775,1775,1772,1768,1763,1761,1754,1750,1747,1743,1739,1736,1734,1733,1730,1728,1727,1726,1727,1728,1731,1737,1743,1751,1759,1767,1773,1779,1785,1788,1791,1794,1792,1793,1791,1786,1779,1772,1764,1755,1747,1738,1731,1724,1718,1712,1708,1702,1696,1693,1689,1687,1685,1681,1683,1684,1687,1690,1696,1702,1708,1717,1725,1736,1746,1758,1772,1791,1814,1840,1871,1908,1947,1992,2040,2092,2149,2207,2267,2332,2396,2459,2521,2581,2636,2688,2734,2776,2812,2845,2883,2907,2921,2931,2938,2940,2938,2930,2917,2899,2877,2843,2817,2788,2759,2728,2697,2668,2641,2614,2587,2562,2540,2519,2501,2485,2471,2459,2449,2440,2433,2427,2423,2419,2415,2410,2404,2397,2388,2379,2370,2360,2348,2337,2326,2316,2306,2296,2288,2281,2274,2270,2269,2269,2269,2269,2268,2267,2265,2261,2258,2258,2259,2263,2267,2274,2280,2286,2289,2289,2286,2283,2280,2274,2271,2264,2258,2253,2247,2238,2230,2221,2216,2211,2209,2207,2205,2205,2203,2202,2200,2200,2196,2193,2190,2184,2178,2171,2160,2152,2145,2136,2128,2118,2109,2096,2085,2070,2054,2036,2018,2001,1984,1968,1957,1947,1940,1934,1930,1926,1923,1922,1921,1919,1918,1915,1913,1910,1906,1900,1893,1886,1873,1865,1855,1845,1836,1828,1821,1816,1813,1811,1808,1807,1806,1807,1812,1821,1829,1839,1851,1857,1862,1863,1866,1870,1872,1874,1875,1878,1879,1878,1877,1873,1869,1864,1859,1854,1847,1839,1826,1812,1801,1787,1774,1763,1754,1748,1746,1747,1752,1761,1769,1776,1784,1788,1792,1797,1804,1816,1831,1851,1875,1902,1933,1969,2004,2047,2090,2135,2181,2232,2285,2337,2389,2440,2489,2537,2582,2625,2669,2710,2749,2803,2842,2865,2883,2894,2896,2894,2885,2871,2853,2831,2804,2774,2740,2705,2666,2629,2592,2556,2522,2489,2459,2433,2406,2382,2360,2346,2332,2319,2309,2300,2293,2284,2277,2272,2268,2265,2262,2261,2260,2261,2258,2255,2249,2242,2231,2223,2217,2213,2207,2204,2203,2203,2205,2206,2207,2210,2212,2215,2220,2228,2239,2250,2261,2271,2278,2283,2286,2288,2288,2292,2295,2295,2298,2301,2301,2299,2294,2287,2280,2272,2266,2258,2250,2240,2228,2216,2204,2190,2176,2163,2150,2139,2129,2119,2113,2104,2097,2089,2083,2077,2070,2063,2056,2047,2036,2024,2009,1994,1977,1956,1932,1910,1886,1866,1847,1832,1817,1805,1791,1781,1768,1759,1752,1751,1749,1749,1749,1749,1750,1750,1748,1751,1753,1761,1766,1773,1780,1783,1786,1789,1791,1793,1794,1797,1798,1800,1800,1801,1800,1796,1791,1787,1786,1787,1791,1796,1802,1809,1815,1820,1823,1824,1827,1831,1832,1835,1835,1835,1834,1834,1839,1849,1862,1879,1903,1932,1965,2003,2045,2092,2145,2196,2251,2308,2369,2427,2488,2546,2603,2656,2703,2749,2791,2828,2875,2906,2924,2941,2951,2959,2962,2960,2949,2933,2913,2889,2862,2837,2810,2785,2759,2735,2710,2687,2663,2641,2622,2601,2585,2566,2549,2532,2515,2499,2486,2475,2466,2459,2453,2446,2440,2435,2426,2421,2413,2406,2400,2395,2391,2386,2383,2378,2374,2370,2365,2361,2358,2350,2344,2333,2322,2309,2297,2289,2283,2283,2285,2288,2296,2303,2313,2324,2332,2339,2346,2349,2350,2350,2349,2348,2346,2341,2337,2329,2318,2307,2292,2276,2260,2247,2235,2225,2216,2209,2204,2198,2196,2191,2190,2190,2186,2184,2179,2173,2163,2151,2131,2112,2091,2069,2047,2024,2004,1982,1961,1939,1920,1902,1885,1870,1857,1847,1838,1830,1823,1818,1814,1811,1808,1810,1811,1812,1814,1819,1823,1822,1823,1822,1818,1812,1807,1798,1788,1778,1766,1754,1742,1731,1724,1717,1714,1714,1715,1722,1729,1739,1748,1762,1774,1786,1797,1805,1814,1820,1824,1828,1828,1827,1820,1813,1805,1799,1792,1785,1779,1774,1772,1770,1768,1764,1758,1752,1742,1733,1728,1724,1723,1722,1723,1724,1724,1721,1720,1716,1712,1710,1708,1709,1713,1721,1735,1755,1781,1814,1855,1904,1958,2015,2077,2141,2206,2270,2337,2403,2471,2538,2603,2664,2723,2775,2824,2869,2926,2968,2997,3022,3043,3060,3071,3078,3077,3074,3066,3054,3043,3029,3013,2994,2975,2954,2934,2911,2887,2863,2842,2818,2798,2782,2768,2755,2745,2735,2726,2719,2714,2713,2714,2718,2718,2717,2714,2711,2706,2702,2697,2691,2682,2673,2661,2651,2639,2626,2613,2600,2587,2575,2562,2552,2542,2532,2526,2522,2519,2518,2519,2519,2521,2522,2524,2526,2530,2530,2533,2533,2530,2523,2517,2506,2494,2482,2470,2454,2438,2426,2412,2399,2383,2366,2351,2336,2317,2301,2285,2272,2258,2247,2237,2227,2220,2215,2209,2207,2201,2197,2192,2190,2186,2181,2176,2169,2162,2153,2143,2128,2110,2092,2071,2051,2031,2012,1997,1987,1977,1967,1957,1950,1942,1933,1927,1925,1921,1920,1920,1920,1921,1921,1919,1918,1915,1912,1910,1906,1901,1899,1896,1891,1887,1881,1876,1870,1867,1867,1869,1872,1875,1881,1886,1892,1895,1900,1908,1912,1919,1919,1921,1918,1914,1907,1900,1890,1881,1870,1859,1852,1844,1834,1824,1818,1809,1801,1793,1781,1773,1762,1754,1746,1741,1734,1727,1716,1708,1699,1688,1681,1674,1670,1665,1666,1672,1686,1700,1722,1746,1777,1814,1854,1902,1953,2007,2064,2122,2183,2243,2303,2363,2424,2482,2542,2601,2661,2722,2802,2859,2898,2931,2957,2976,2992,2999,3004,3002,2998,2990,2975,2958,2939,2916,2893,2867,2842,2818,2795,2772,2748,2725,2704,2685,2668,2653,2636,2620,2605,2592,2579,2567,2555,2543,2530,2514,2501,2485,2469,2456,2440,2424,2410,2398,2385,2374,2364,2354,2345,2335,2328,2322,2318,2312,2310,2307,2307,2305,2301,2299,2296,2293,2292,2290,2290,2294,2299,2304,2309,2314,2315,2314,2315,2315,2318,2320,2322,2325,2328,2332,2335,2338,2340,2341,2334,2327,2316,2304,2289,2271,2255,2241,2223,2207,2190,2173,2157,2140,2123,2107,2091,2072,2053,2033,2016,1997,1981,1964,1949,1932,1918,1905,1893,1882,1872,1865,1857,1850,1843,1836,1832,1827,1822,1819,1821,1823,1826,1830,1833,1835,1834,1831,1825,1817,1809,1801,1792,1786,1778,1772,1769,1766,1763,1760,1755,1751,1749,1745,1743,1741,1741,1738,1740,1739,1739,1737,1733,1728,1723,1718,1713,1708,1702,1695,1691,1686,1682,1678,1676,1675,1679,1683,1687,1692,1697,1702,1703,1703,1703,1699,1696,1693,1692,1690,1691,1691,1693,1697,1704,1714,1727,1744,1767,1794,1825,1862,1901,1943,1988,2038,2093,2151,2213,2278,2345,2413,2482,2549,2613,2680,2742,2802,2857,2908,2950,3003,3040,3067,3087,3102,3113,3116,3115,3106,3091,3069,3043,3010,2974,2933,2893,2853,2814,2779,2747,2718,2695,2678,2664,2652,2646,2638,2633,2629,2629,2630,2632,2636,2640,2642,2643,2643,2640,2638,2630,2621,2610,2597,2583,2564,2549,2533,2515,2501,2489,2477,2466,2458,2447,2439,2429,2422,2418,2412,2407,2402,2397,2393,2389,2385,2383,2382,2380,2382,2384,2387,2390,2395,2396,2395,2394,2390,2384,2380,2375,2367,2358,2349,2341,2330,2317,2302,2288,2272,2258,2245,2232,2219,2206,2188,2174,2156,2138,2121,2104,2086,2073,2060,2044,2030,2013,1997,1982,1964,1947,1928,1911,1896,1882,1868,1852,1838,1827,1812,1801,1791,1783,1777,1771,1769,1768,1769,1771,1773,1775,1781,1786,1790,1792,1792,1791,1785,1775,1763,1749,1733,1716,1701,1689,1681,1675,1669,1669,1669,1669,1672,1675,1681,1685,1693,1700,1707,1713,1717,1718,1720,1720,1720,1719,1716,1714,1708,1703,1696,1690,1680,1673,1667,1661,1658,1654,1651,1648,1644,1643,1640,1637,1637,1635,1633,1631,1629,1626,1625,1620,1614,1606,1597,1589,1581,1576,1571,1564,1558,1553,1548,1542,1540,1540,1543,1548,1555,1567,1588,1612,1644,1684,1730,1780,1838,1901,1964,2032,2101,2172,2245,2316,2386,2456,2526,2593,2659,2719,2777,2862,2914,2946,2973,2990,3002,3006,3004,2997,2983,2966,2945,2924,2899,2873,2844,2814,2784,2756,2731,2702,2683,2664,2647,2630,2610,2593,2576,2563,2548,2535,2524,2513,2504,2494,2484,2472,2461,2446,2430,2414,2395,2376,2358,2342,2327,2314,2304,2296,2289,2283,2282,2278,2278,2276,2278,2279,2285,2290,2298,2301,2306,2308,2311,2311,2306,2302,2296,2291,2285,2278,2274,2269,2266,2264,2261,2257,2253,2250,2243,2237,2228,2218,2207,2195,2184,2173,2164,2158,2147,2138,2129,2119,2110,2098,2086,2073,2056,2038,2021,2003,1987,1971,1955,1942,1927,1915,1901,1887,1875,1861,1848,1835,1823,1811,1801,1790,1780,1769,1756,1744,1732,1720,1710,1703,1695,1690,1685,1679,1670,1662,1653,1640,1628,1613,1600,1591,1583,1579,1581,1583,1587,1594,1603,1614,1628,1640,1654,1662,1671,1678,1682,1685,1685,1685,1684,1683,1682,1680,1677,1671,1661,1648,1635,1619,1602,1586,1571,1560,1550,1544,1538,1535,1532,1530,1527,1528,1528,1530,1531,1531,1530,1526,1525,1522,1522,1523,1522,1524,1523,1521,1519,1518,1517,1518,1520,1521,1523,1521,1522,1520,1516,1510,1505,1500,1493,1487,1481,1476,1473,1467,1468,1469,1475,1483,1498,1519,1543,1575,1615,1663,1719,1780,1846,1918,1990,2066,2140,2218,2294,2368,2440,2508,2569,2625,2673,2717,2767,2797,2815,2829,2837,2839,2837,2828,2814,2794,2772,2747,2718,2689,2657,2624,2590,2556,2519,2474,2439,2405,2376,2350,2326,2307,2287,2269,2256,2242,2230,2219,2212,2207,2204,2203,2201,2198,2194,2183,2174,2163,2153,2143,2137,2133,2133,2136,2139,2145,2149,2150,2149,2149,2148,2149,2151,2155,2163,2172,2183,2192,2201,2209,2215,2221,2226,2232,2237,2235,2234,2230,2229,2224,2219,2212,2205,2197,2188,2177,2165,2152,2137,2121,2106,2091,2073,2054,2033,2014,1992,1969,1949,1925,1903,1883,1864,1848,1834,1820,1807,1794,1783,1770,1759,1744,1731,1716,1704,1689,1678,1665,1653,1643,1636,1628,1623,1620,1618,1613,1615,1615,1617,1623,1627,1629,1632,1635,1636,1633,1629,1625,1622,1619,1617,1617,1617,1615,1616,1617,1620,1623,1626,1630,1633,1633,1632,1629,1627,1621,1614,1605,1596,1587,1578,1569,1564,1561,1559,1557,1557,1557,1560,1563,1568,1575,1582,1591,1600,1605,1608,1608,1604,1598,1592,1583,1573,1562,1551,1539,1529,1518,1513,1512,1515,1524,1540,1564,1593,1629,1672,1720,1772,1827,1886,1949,2012,2075,2140,2206,2276,2343,2410,2477,2541,2606,2665,2747,2802,2838,2867,2889,2905,2913,2915,2911,2902,2889,2870,2848,2821,2792,2758,2724,2690,2657,2623,2588,2556,2525,2497,2471,2449,2429,2412,2397,2383,2371,2357,2344,2332,2317,2304,2291,2281,2271,2262,2253,2244,2237,2231,2224,2220,2213,2206,2198,2193,2188,2185,2185,2185,2189,2195,2206,2216,2227,2235,2242,2249,2253,2256,2259,2260,2257,2254,2249,2242,2235,2226,2218,2212,2203,2196,2187,2180,2174,2166,2163,2160,2160,2161,2159,2157,2155,2152,2143,2135,2126,2113,2100,2086,2066,2047,2024,1998,1972,1944,1915,1890,1864,1841,1822,1805,1794,1785,1776,1768,1761,1756,1751,1744,1743,1741,1741,1740,1741,1742,1742,1741,1740,1740,1738,1732,1726,1719,1709,1699,1689,1676,1666,1657,1647,1640,1632,1627,1624,1624,1627,1630,1634,1639,1644,1650,1655,1656,1657,1656,1657,1656,1658,1661,1664,1665,1665,1663,1660,1654,1648,1643,1640,1636,1632,1629,1629,1629,1625,1625,1623,1625,1624,1622,1623,1623,1622,1620,1617,1616,1614,1613,1614,1619,1621,1624,1626,1626,1624,1624,1617,1610,1603,1593,1583,1576,1570,1568,1570,1579,1591,1610,1634,1666,1705,1750,1801,1858,1920,1988,2058,2131,2204,2279,2354,2431,2507,2581,2650,2714,2777,2833,2903,2951,2982,3007,3027,3037,3045,3047,3046,3038,3024,3005,2983,2959,2928,2898,2865,2832,2798,2765,2729,2695,2662,2631,2602,2578,2556,2536,2519,2501,2482,2463,2446,2430,2417,2406,2400,2398,2398,2400,2402,2405,2405,2405,2405,2404,2402,2400,2396,2394,2391,2388,2382,2375,2367,2358,2350,2341,2335,2332,2328,2324,2321,2320,2320,2322,2324,2329,2334,2339,2344,2348,2353,2354,2354,2354,2355,2353,2352,2350,2348,2341,2333,2324,2312,2298,2280,2259,2238,2217,2198,2174,2151,2130,2110,2091,2073,2057,2041,2028,2016,2005,1995,1984,1973,1961,1946,1929,1912,1894,1879,1864,1850,1839,1830,1823,1816,1809,1804,1801,1800,1799,1798,1799,1801,1801,1801,1800,1799,1797,1798,1801,1803,1803,1802,1799,1795,1787,1781,1771,1764,1755,1748,1741,1736,1730,1723,1717,1709,1701,1695,1689,1685,1682,1680,1677,1671,1667,1663,1659,1656,1655,1656,1658,1658,1659,1659,1655,1650,1646,1642,1638,1635,1632,1630,1626,1623,1617,1608,1599,1591,1581,1573,1567,1566,1566,1569,1577,1587,1601,1620,1641,1670,1701,1741,1788,1843,1904,1971,2042,2116,2189,2261,2336,2408,2479,2547,2613,2676,2732,2779,2821,2870,2900,2916,2926,2931,2933,2929,2923,2914,2899,2881,2857,2832,2802,2772,2740,2704,2672,2639,2607,2577,2550,2523,2496,2471,2443,2421,2396,2371,2350,2329,2312,2297,2284,2272,2261,2250,2239,2230,2222,2212,2205,2200,2193,2187,2184,2182,2180,2180,2178,2181,2187,2191,2202,2210,2219,2227,2236,2244,2249,2256,2259,2260,2262,2264,2263,2262,2261,2260,2258,2251,2245,2236,2225,2214,2205,2197,2191,2185,2181,2176,2173,2166,2158,2148,2136,2121,2105,2090,2073,2057,2043,2025,2008,1991,1973,1954,1935,1919,1903,1884,1866,1845,1825,1805,1786,1771,1757,1745,1735,1726,1718,1713,1708,1704,1703,1701,1698,1697,1699,1701,1703,1707,1710,1712,1717,1717,1720,1720,1721,1722,1724,1724,1726,1725,1723,1721,1720,1718,1717,1717,1715,1713,1709,1705,1700,1697,1693,1690,1685,1681,1676,1673,1667,1660,1656,1649,1648,1644,1644,1642,1641,1642,1641,1641,1638,1633,1630,1623,1615,1609,1599,1594,1586,1579,1575,1572,1565,1561,1557,1554,1553,1554,1558,1564,1575,1590,1611,1636,1668,1706,1747,1794,1842,1895,1952,2010,2076,2141,2213,2285,2358,2430,2499,2566,2630,2689,2745,2798,2867,2917,2951,2979,3002,3020,3028,3033,3032,3024,3013,2997,2979,2958,2935,2910,2880,2848,2815,2783,2754,2724,2701,2678,2662,2646,2632,2619,2606,2594,2583,2571,2559,2551,2542,2536,2529,2523,2518,2516,2509,2504,2500,2496,2491,2486,2480,2471,2461,2452,2441,2428,2414,2399,2388,2377,2367,2359,2353,2348,2343,2342,2341,2343,2347,2352,2356,2361,2366,2368,2372,2377,2376,2375,2371,2366,2359,2349,2336,2324,2313,2300,2292,2279,2271,2265,2257,2252,2248,2243,2237,2229,2218,2206,2190,2174,2158,2143,2132,2121,2110,2098,2088,2076,2063,2049,2035,2019,2004,1987,1971,1950,1928,1907,1882,1859,1837,1817,1798,1782,1767,1753,1740,1728,1716,1704,1694,1685,1682,1678,1677,1681,1687,1694,1700,1706,1711,1717,1722,1727,1733,1739,1745,1749,1752,1753,1748,1743,1739,1735,1729,1724,1722,1721,1720,1722,1724,1729,1734,1737,1741,1746,1752,1756,1761,1769,1772,1779,1781,1782,1781,1777,1770,1760,1750,1737,1719,1702,1687,1673,1661,1649,1641,1633,1628,1622,1616,1609,1601,1592,1582,1574,1567,1561,1558,1554,1554,1555,1559,1565,1573,1585,1597,1614,1634,1656,1684,1716,1757,1802,1855,1915,1982,2051,2125,2202,2279,2355,2431,2506,2580,2659,2734,2808,2877,2945,3003,3084,3139,3171,3195,3208,3210,3207,3195,3173,3150,3123,3093,3062,3028,2992,2956,2919,2882,2848,2817,2786,2759,2735,2713,2692,2674,2660,2649,2641,2632,2623,2616,2610,2600,2590,2574,2558,2539,2518,2500,2486,2471,2460,2448,2439,2431,2424,2417,2411,2407,2401,2395,2390,2384,2377,2372,2367,2365,2364,2367,2373,2382,2390,2398,2405,2410,2412,2411,2410,2410,2409,2412,2413,2414,2416,2418,2419,2421,2422,2421,2420,2417,2417,2414,2413,2411,2407,2403,2397,2387,2378,2366,2351,2335,2319,2300,2278,2256,2230,2205,2177,2148,2120,2090,2061,2033,2003,1978,1954,1929,1906,1883,1863,1847,1833,1818,1806,1795,1784,1772,1764,1758,1755,1754,1759,1765,1770,1776,1780,1784,1789,1791,1792,1792,1788,1786,1783,1780,1777,1777,1771,1770,1766,1762,1761,1760,1761,1761,1759,1759,1759,1761,1763,1765,1769,1774,1780,1787,1791,1795,1797,1795,1791,1784,1777,1769,1761,1750,1743,1734,1725,1715,1705,1698,1689,1682,1678,1675,1672,1673,1676,1684,1700,1720,1745,1774,1809,1850,1898,1950,2009,2070,2136,2207,2282,2358,2435,2515,2593,2669,2740,2808,2872,2928,2979,3038,3076,3096,3112,3121,3127,3127,3127,3125,3119,3110,3097,3081,3062,3043,3019,2995,2960,2928,2896,2859,2822,2784,2747,2712,2679,2648,2621,2593,2567,2545,2525,2504,2486,2468,2452,2438,2422,2413,2407,2401,2397,2393,2389,2387,2385,2383,2381,2377,2372,2367,2359,2353,2345,2337,2331,2324,2320,2317,2316,2314,2315,2315,2318,2321,2325,2329,2334,2338,2342,2343,2343,2342,2341,2337,2336,2332,2327,2320,2309,2294,2275,2256,2234,2210,2190,2173,2158,2144,2133,2123,2113,2103,2096,2087,2079,2071,2063,2055,2050,2041,2035,2023,2011,1999,1988,1973,1961,1946,1930,1912,1892,1870,1849,1824,1803,1782,1761,1743,1728,1717,1711,1710,1709,1709,1709,1706,1704,1701,1699,1692,1687,1681,1675,1671,1665,1662,1658,1656,1654,1653,1650,1648,1644,1638,1635,1631,1628,1626,1626,1629,1634,1642,1651,1661,1671,1678,1686,1690,1690,1688,1684,1677,1670,1661,1650,1642,1636,1632,1628,1625,1624,1622,1619,1614,1608,1604,1597,1592,1589,1588,1591,1594,1602,1611,1620,1627,1634,1640,1640,1638,1633,1628,1622,1615,1605,1597,1588,1580,1573,1568,1568,1571,1576,1585,1598,1612,1631,1654,1683,1719,1760,1805,1863,1925,1995,2069,2148,2232,2320,2410,2497,2585,2669,2750,2827,2899,2967,3030,3087,3164,3217,3254,3282,3305,3322,3330,3332,3327,3317,3299,3275,3246,3215,3182,3148,3113,3079,3045,3012,2981,2953,2927,2904,2884,2869,2855,2844,2833,2822,2810,2797,2786,2774,2762,2750,2736,2724,2710,2696,2682,2669,2662,2653,2648,2643,2639,2633,2629,2624,2621,2615,2615,2612,2609,2604,2599,2593,2588,2584,2581,2576,2571,2560,2554,2548,2543,2540,2536,2531,2525,2522,2515,2507,2500,2492,2485,2478,2470,2462,2456,2451,2443,2435,2426,2415,2404,2394,2383,2372,2358,2344,2327,2309,2292,2269,2247,2227,2209,2190,2173,2158,2145,2132,2116,2100,2082,2064,2042,2024,2005,1990,1974,1959,1947,1936,1925,1915,1906,1897,1889,1883,1880,1876,1873,1871,1865,1862,1858,1854,1847,1840,1830,1820,1809,1796,1784,1773,1764,1758,1754,1752,1752,1754,1757,1759,1764,1767,1770,1772,1775,1777,1783,1789,1793,1799,1805,1810,1818,1822,1827,1828,1828,1823,1816,1805,1793,1779,1765,1753,1744,1734,1727,1723,1718,1714,1711,1706,1705,1704,1702,1699,1695,1691,1684,1676,1669,1662,1655,1645,1634,1622,1607,1593,1575,1558,1544,1528,1517,1504,1498,1493,1494,1502,1520,1548,1582,1625,1676,1733,1798,1864,1938,2016,2096,2177,2263,2348,2434,2519,2600,2678,2754,2823,2888,2975,3037,3078,3111,3140,3159,3173,3177,3179,3175,3166,3154,3138,3121,3098,3076,3052,3025,2997,2971,2942,2918,2894,2870,2845,2821,2798,2774,2752,2729,2704,2678,2651,2627,2602,2581,2562,2548,2538,2527,2519,2511,2505,2495,2484,2474,2463,2454,2443,2431,2418,2411,2401,2393,2386,2379,2374,2369,2365,2362,2358,2356,2353,2351,2351,2351,2353,2353,2358,2361,2368,2375,2383,2390,2394,2397,2397,2395,2394,2389,2386,2378,2367,2354,2337,2320,2301,2281,2261,2242,2222,2201,2180,2162,2141,2120,2101,2079,2057,2034,2010,1985,1961,1940,1919,1901,1883,1867,1850,1836,1823,1809,1800,1785,1771,1755,1738,1724,1707,1693,1679,1667,1655,1645,1635,1625,1616,1609,1604,1601,1599,1600,1607,1616,1627,1640,1651,1662,1669,1675,1679,1681,1682,1682,1684,1688,1692,1695,1700,1705,1710,1711,1712,1710,1703,1692,1678,1662,1647,1631,1617,1605,1598,1593,1591,1592,1595,1600,1604,1608,1612,1614,1616,1617,1617,1618,1619,1620,1619,1619,1615,1611,1603,1595,1588,1582,1578,1578,1582,1591,1606,1627,1655,1685,1722,1765,1813,1871,1929,1997,2072,2151,2236,2322,2412,2504,2594,2681,2764,2845,2921,2990,3056,3115,3193,3246,3281,3307,3324,3329,3326,3314,3295,3270,3244,3216,3188,3157,3126,3094,3061,3028,2994,2961,2925,2888,2852,2817,2784,2756,2732,2711,2694,2678,2662,2647,2632,2621,2608,2596,2585,2576,2568,2562,2559,2556,2558,2559,2560,2562,2565,2566,2566,2563,2556,2548,2540,2534,2528,2523,2518,2510,2505,2502,2498,2498,2500,2503,2506,2510,2513,2514,2515,2511,2507,2499,2492,2480,2469,2459,2450,2440,2431,2425,2420,2411,2403,2392,2378,2361,2341,2319,2296,2272,2247,2223,2200,2179,2158,2138,2117,2099,2079,2059,2041,2024,2009,1995,1980,1967,1955,1943,1930,1919,1906,1894,1885,1877,1871,1866,1862,1859,1857,1852,1847,1843,1837,1832,1825,1819,1812,1804,1795,1785,1775,1762,1752,1739,1728,1717,1708,1700,1690,1685,1677,1671,1665,1659,1652,1645,1638,1634,1630,1628,1625,1623,1622,1622,1624,1627,1630,1634,1639,1642,1644,1646,1649,1652,1654,1656,1656,1652,1648,1643,1637,1630,1623,1617,1610,1604,1601,1596,1591,1584,1580,1574,1568,1563,1555,1547,1540,1532,1522,1512,1502,1493,1484,1475,1467,1460,1453,1449,1442,1438,1431,1421,1412,1404,1399,1395,1395,1402,1414,1432,1456,1490,1534,1587,1646,1713,1788,1873,1961,2052,2146,2239,2331,2424,2518,2610,2698,2786,2870,2952,3028,3128,3201,3250,3293,3327,3355,3373,3384,3385,3380,3368,3351,3332,3311,3289,3262,3233,3201,3165,3125,3081,3037,2993,2949,2906,2866,2830,2797,2767,2744,2722,2705,2691,2679,2669,2659,2650,2643,2636,2628,2623,2618,2611,2606,2598,2593,2587,2583,2580,2577,2576,2575,2572,2572,2569,2566,2562,2561,2559,2557,2557,2557,2556,2553,2549,2543,2535,2525,2519,2510,2502,2497,2493,2487,2485,2482,2478,2474,2471,2466,2460,2453,2441,2427,2410,2389,2369,2347,2326,2304,2285,2267,2252,2238,2224,2209,2196,2182,2165,2152,2141,2127,2114,2100,2090,2081,2069,2059,2048,2036,2020,2004,1984,1961,1935,1907,1880,1851,1822,1796,1774,1756,1740,1728,1719,1709,1698,1686,1676,1668,1660,1657,1654,1654,1653,1654,1653,1656,1658,1662,1663,1665,1666,1669,1670,1674,1676,1676,1675,1673,1674,1679,1685,1691,1698,1705,1709,1714,1715,1717,1716,1712,1709,1706,1703,1701,1699,1696,1691,1683,1677,1668,1662,1653,1645,1636,1625,1614,1602,1588,1572,1555,1536,1522,1510,1501,1497,1496,1499,1508,1522,1543,1569,1602,1639,1684,1736,1796,1861,1934,2010,2091,2173,2256,2337,2414,2491,2563,2631,2695,2757,2818,2897,2955,2994,3030,3058,3078,3092,3101,3101,3096,3086,3069,3048,3024,2997,2969,2939,2908,2875,2839,2803,2766,2730,2695,2659,2622,2587,2553,2518,2488,2457,2434,2411,2391,2372,2355,2336,2320,2306,2295,2283,2272,2262,2255,2250,2249,2247,2246,2245,2244,2239,2236,2230,2225,2221,2216,2213,2210,2209,2209,2208,2208,2208,2208,2211,2216,2221,2227,2233,2236,2239,2237,2232,2227,2223,2218,2214,2207,2201,2192,2180,2170,2158,2147,2133,2121,2109,2095,2078,2059,2040,2019,1998,1978,1958,1940,1925,1908,1891,1873,1851,1832,1808,1787,1766,1746,1727,1710,1696,1685,1675,1665,1657,1650,1643,1635,1628,1625,1621,1616,1610,1608,1603,1599,1596,1593,1593,1595,1601,1605,1614,1621,1627,1631,1633,1633,1633,1634,1633,1632,1631,1627,1622,1616,1609,1598,1588,1578,1569,1561,1557,1555,1552,1555,1555,1558,1562,1565,1570,1576,1583,1587,1593,1594,1595,1593,1592,1590,1588,1585,1582,1577,1571,1562,1550,1533,1514,1493,1473,1452,1434,1417,1405,1389,1378,1369,1361,1354,1349,1346,1348,1351,1359,1372,1388,1410,1436,1469,1508,1556,1607,1668,1736,1808,1886,1970,2055,2146,2237,2332,2426,2521,2610,2698,2783,2864,2942,3012,3076,3160,3218,3254,3283,3305,3321,3329,3332,3328,3322,3312,3298,3280,3258,3232,3200,3166,3129,3090,3048,3007,2967,2927,2890,2853,2817,2784,2752,2723,2696,2674,2654,2640,2626,2616,2609,2603,2598,2593,2588,2580,2572,2564,2557,2551,2544,2538,2532,2525,2516,2508,2500,2491,2486,2482,2481,2483,2482,2481,2481,2483,2483,2482,2481,2476,2472,2465,2457,2448,2437,2423,2409,2395,2381,2368,2355,2344,2333,2323,2313,2304,2295,2287,2278,2269,2262,2253,2241,2231,2219,2206,2194,2182,2167,2152,2135,2115,2095,2079,2061,2044,2025,2007,1990,1972,1952,1932,1911,1891,1873,1857,1842,1831,1816,1804,1790,1777,1764,1751,1739,1731,1721,1714,1708,1704,1699,1696,1692,1689,1685,1680,1676,1675,1674,1674,1673,1670,1666,1661,1655,1649,1642,1636,1631,1623,1616,1607,1600,1596,1594,1593,1594,1599,1605,1612,1617,1619,1622,1624,1626,1623,1620,1620,1615,1609,1602,1594,1584,1574,1565,1558,1549,1542,1537,1534,1536,1538,1545,1550,1559,1564,1567,1571,1572,1572,1569,1561,1552,1542,1530,1518,1506,1495,1487,1480,1469,1462,1453,1441,1427,1412,1397,1379,1363,1347,1338,1332,1330,1333,1345,1366,1398,1440,1494,1558,1632,1715,1805,1900,1997,2096,2198,2297,2396,2496,2594,2689,2781,2867,2948,3023,3121,3189,3237,3280,3318,3348,3372,3389,3400,3403,3401,3391,3378,3360,3336,3308,3276,3239,3200,3161,3123,3086,3050,3016,2984,2954,2924,2894,2866,2836,2805,2775,2748,2725,2702,2681,2664,2649,2635,2622,2609,2594,2580,2565,2550,2537,2527,2517,2510,2502,2496,2491,2486,2481,2479,2476,2474,2474,2473,2472,2473,2473,2474,2475,2478,2475,2476,2477,2477,2475,2475,2474,2474,2472,2470,2468,2468,2463,2459,2453,2448,2437,2427,2416,2403,2391,2378,2362,2345,2327,2305,2284,2263,2240,2219,2195,2174,2152,2129,2105,2082,2055,2028,2002,1977,1958,1937,1919,1899,1880,1866,1849,1835,1823,1812,1801,1789,1774,1759,1744,1729,1715,1703,1693,1685,1678,1673,1672,1671,1669,1672,1673,1673,1674,1676,1679,1682,1686,1688,1695,1700,1704,1707,1710,1710,1709,1706,1703,1695,1690,1682,1675,1669,1661,1653,1645,1636,1627,1619,1611,1605,1601,1598,1595,1596,1596,1596,1594,1592,1584,1575,1565,1551,1534,1522,1508,1493,1480,1466,1455,1444,1435,1429,1425,1427,1431,1439,1450,1465,1484,1509,1540,1575,1616,1664,1719,1779,1848,1920,1999,2081,2166,2254,2343,2430,2514,2596,2673,2752,2821,2886,2947,3023,3076,3109,3139,3161,3178,3190,3196,3196,3189,3177,3157,3131,3100,3063,3027,2989,2951,2909,2867,2823,2778,2736,2694,2652,2614,2577,2543,2511,2483,2458,2437,2419,2405,2392,2376,2363,2351,2339,2328,2318,2308,2301,2295,2289,2287,2285,2285,2285,2288,2289,2293,2295,2298,2300,2301,2303,2305,2308,2309,2313,2316,2322,2329,2335,2343,2350,2356,2362,2365,2367,2370,2367,2362,2352,2344,2331,2318,2303,2286,2268,2247,2224,2196,2167,2136,2104,2073,2042,2013,1984,1957,1929,1904,1880,1860,1841,1824,1805,1789,1775,1760,1744,1729,1714,1702,1693,1684,1679,1675,1671,1667,1663,1659,1653,1645,1638,1630,1623,1614,1607,1600,1596,1588,1583,1579,1578,1578,1578,1581,1584,1590,1593,1599,1605,1611,1616,1618,1620,1622,1623,1621,1617,1616,1613,1610,1605,1601,1595,1588,1578,1567,1558,1547,1537,1529,1523,1517,1511,1505,1500,1493,1484,1477,1466,1457,1449,1443,1440,1437,1438,1437,1435,1431,1426,1422,1418,1412,1408,1405,1399,1393,1390,1387,1384,1381,1379,1382,1382,1388,1396,1409,1429,1457,1495,1542,1599,1665,1740,1823,1914,2011,2112,2215,2321,2426,2529,2630,2728,2823,2918,3009,3094,3176,3283,3361,3415,3463,3501,3530,3549,3559,3558,3551,3538,3518,3493,3465,3434,3400,3362,3321,3275,3226,3175,3125,3076,3029,2986,2946,2911,2882,2856,2833,2814,2798,2785,2774,2763,2757,2752,2746,2743,2741,2737,2734,2728,2719,2708,2695,2680,2664,2648,2633,2619,2605,2592,2578,2565,2551,2536,2519,2502,2486,2469,2456,2446,2439,2433,2431,2430,2428,2426,2424,2421,2418,2411,2403,2395,2384,2371,2358,2346,2336,2327,2321,2315,2311,2308,2303,2302,2299,2295,2293,2286,2278,2266,2254,2237,2216,2194,2169,2145,2125,2103,2085,2064,2045,2023,2000,1974,1952,1928,1907,1886,1866,1845,1830,1813,1800,1792,1785,1781,1776,1771,1766,1760,1754,1745,1739,1732,1725,1717,1713,1710,1708,1707,1707,1708,1706,1704,1699,1693,1684,1675,1665,1654,1643,1630,1619,1608,1595,1581,1572,1559,1550,1545,1538,1536,1532,1531,1531,1530,1530,1527,1526,1525,1521,1517,1512,1508,1500,1490,1483,1473,1464,1455,1449,1443,1439,1434,1434,1430,1425,1425,1421,1416,1411,1408,1405,1404,1402,1405,1409,1415,1421,1426,1434,1441,1443,1443,1440,1437,1430,1418,1406,1399,1391,1387,1384,1386,1394,1407,1425,1449,1480,1520,1567,1623,1686,1756,1832,1915,2004,2103,2205,2313,2427,2541,2653,2762,2870,2969,3062,3148,3226,3296,3385,3446,3485,3515,3535,3547,3554,3555,3552,3542,3529,3510,3486,3459,3425,3390,3352,3312,3272,3233,3192,3151,3109,3068,3026,2984,2940,2901,2861,2825,2790,2760,2735,2712,2694,2678,2667,2660,2655,2650,2647,2641,2636,2628,2619,2610,2600,2593,2589,2583,2581,2579,2575,2573,2567,2558,2547,2536,2525,2513,2499,2486,2473,2460,2451,2444,2439,2439,2439,2441,2445,2449,2452,2455,2459,2462,2463,2464,2464,2464,2462,2458,2451,2439,2426,2408,2389,2368,2349,2330,2311,2289,2268,2245,2221,2198,2179,2159,2141,2123,2105,2090,2072,2054,2035,2015,1993,1971,1950,1929,1909,1890,1872,1853,1834,1812,1794,1773,1757,1740,1724,1713,1703,1694,1687,1681,1678,1675,1673,1671,1669,1666,1665,1663,1663,1663,1663,1662,1663,1663,1660,1658,1653,1649,1644,1638,1632,1629,1629,1630,1634,1638,1642,1648,1647,1648,1647,1643,1640,1636,1632,1627,1620,1614,1603,1593,1582,1570,1557,1547,1532,1517,1501,1487,1471,1454,1438,1421,1407,1391,1380,1372,1364,1358,1356,1355,1362,1373,1388,1411,1436,1469,1505,1547,1596,1648,1706,1771,1842,1917,1995,2075,2155,2238,2320,2400,2478,2553,2622,2690,2755,2815,2900,2963,3008,3049,3082,3111,3135,3150,3162,3162,3157,3147,3130,3109,3083,3055,3024,2990,2953,2912,2872,2831,2790,2751,2714,2678,2644,2609,2577,2544,2512,2481,2452,2426,2405,2385,2367,2352,2337,2323,2312,2300,2289,2278,2264,2254,2243,2232,2223,2214,2208,2202,2198,2193,2190,2188,2184,2182,2182,2183,2184,2188,2193,2200,2208,2215,2222,2231,2240,2250,2258,2266,2270,2274,2274,2272,2268,2258,2245,2230,2211,2195,2176,2157,2139,2119,2102,2085,2070,2053,2036,2017,1998,1980,1961,1941,1923,1908,1893,1878,1862,1849,1835,1821,1809,1795,1781,1768,1753,1736,1715,1696,1678,1660,1645,1630,1614,1601,1587,1574,1561,1548,1536,1525,1512,1498,1488,1481,1475,1472,1472,1474,1476,1480,1483,1486,1490,1489,1489,1492,1491,1490,1487,1482,1479,1471,1466,1460,1454,1450,1443,1438,1433,1430,1426,1420,1420,1418,1418,1417,1416,1418,1418,1421,1420,1425,1426,1424,1418,1411,1405,1399,1391,1388,1385,1381,1375,1369,1364,1357,1353,1346,1340,1334,1326,1320,1315,1310,1307,1308,1315,1328,1347,1374,1408,1451,1498,1551,1608,1674,1744,1821,1905,1993,2089,2190,2293,2397,2502,2603,2702,2798,2887,2969,3046,3117,3211,3274,3315,3348,3373,3388,3396,3395,3387,3372,3350,3322,3290,3253,3214,3174,3133,3096,3056,3017,2981,2944,2908,2872,2837,2802,2768,2734,2704,2675,2647,2622,2599,2578,2560,2545,2529,2515,2502,2489,2476,2466,2453,2441,2428,2413,2403,2393,2384,2375,2367,2362,2353,2347,2339,2332,2323,2313,2305,2301,2297,2293,2293,2291,2289,2286,2280,2272,2263,2253,2243,2231,2220,2210,2196,2183,2170,2158,2147,2135,2124,2114,2106,2098,2090,2083,2074,2065,2056,2044,2027,2010,1992,1974,1954,1933,1913,1893,1871,1851,1831,1809,1789,1766,1745,1725,1706,1688,1668,1651,1634,1617,1601,1583,1565,1545,1525,1507,1493,1479,1468,1455,1448,1441,1440,1442,1445,1447,1451,1450,1451,1452,1452,1454,1453,1453,1453,1454,1454,1453,1452,1452,1450,1449,1449,1448,1448,1448,1449,1451,1450,1448,1443,1439,1435,1431,1429,1426,1426,1425,1422,1417,1413,1413,1410,1408,1407,1408,1406,1409,1412,1417,1419,1420,1421,1420,1415,1410,1401,1396,1387,1377,1370,1362,1354,1347,1340,1331,1321,1311,1300,1289,1278,1268,1256,1247,1241,1234,1227,1226,1223,1225,1229,1237,1248,1263,1286,1313,1348,1388,1433,1483,1541,1604,1673,1745,1822,1904,1990,2077,2166,2258,2348,2436,2521,2600,2676,2747,2813,2899,2960,2999,3029,3055,3073,3084,3088,3085,3079,3067,3051,3033,3010,2986,2958,2925,2893,2857,2819,2779,2737,2695,2652,2611,2572,2540,2508,2479,2452,2428,2407,2392,2379,2370,2363,2360,2357,2358,2359,2361,2366,2367,2368,2367,2366,2360,2351,2340,2325,2310,2294,2279,2266,2253,2244,2237,2232,2229,2227,2226,2228,2227,2223,2222,2220,2214,2206,2200,2194,2189,2183,2177,2169,2161,2151,2139,2124,2107,2090,2074,2061,2047,2035,2023,2014,2005,1998,1991,1984,1977,1969,1958,1945,1929,1911,1887,1865,1841,1815,1789,1766,1740,1716,1693,1671,1646,1628,1612,1601,1595,1591,1589,1589,1585,1582,1578,1576,1571,1567,1562,1560,1555,1554,1553,1551,1549,1547,1547,1545,1540,1533,1524,1511,1499,1485,1471,1456,1442,1428,1418,1410,1404,1399,1396,1395,1396,1396,1396,1395,1396,1394,1389,1386,1384,1382,1381,1381,1382,1385,1385,1385,1384,1381,1375,1371,1366,1360,1353,1345,1334,1327,1316,1307,1298,1291,1285,1279,1275,1273,1269,1265,1260,1253,1244,1235,1227,1221,1217,1213,1211,1210,1210,1213,1218,1226,1240,1259,1281,1308,1339,1378,1423,1473,1527,1587,1653,1722,1796,1872,1949,2026,2099,2171,2241,2308,2373,2436,2496,2555,2629,2677,2705,2726,2739,2747,2748,2746,2738,2728,2711,2686,2661,2633,2605,2574,2540,2507,2475,2447,2418,2389,2362,2338,2314,2291,2270,2250,2233,2214,2200,2187,2171,2155,2137,2120,2105,2086,2070,2054,2041,2025,2012,1997,1985,1971,1961,1949,1940,1932,1925,1923,1920,1923,1928,1933,1939,1946,1953,1958,1964,1970,1977,1982,1989,1995,2002,2008,2013,2017,2022,2025,2027,2027,2025,2022,2019,2014,2008,2002,1995,1984,1973,1963,1951,1940,1929,1917,1903,1887,1871,1856,1839,1822,1807,1792,1776,1762,1746,1730,1712,1697,1680,1663,1650,1637,1626,1615,1606,1599,1592,1585,1580,1578,1573,1572,1571,1568,1565,1559,1554,1548,1540,1530,1518,1507,1494,1482,1467,1456,1442,1427,1417,1407,1398,1393,1388,1383,1381,1377,1376,1373,1370,1368,1363,1359,1356,1356,1354,1353,1352,1355,1355,1354,1354,1354,1353,1351,1352,1353,1356,1359,1363,1368,1375,1380,1384,1389,1392,1392,1393,1391,1385,1379,1371,1364,1354,1347,1336,1333,1330,1332,1339,1355,1377,1405,1442,1488,1536,1594,1655,1722,1793,1870,1949,2032,2116,2199,2282,2364,2440,2513,2582,2646,2704,2778,2831,2867,2893,2916,2932,2940,2943,2941,2934,2922,2907,2887,2862,2836,2806,2775,2743,2711,2680,2650,2622,2590,2560,2528,2495,2465,2436,2405,2378,2353,2328,2307,2287,2270,2255,2242,2228,2218,2205,2196,2185,2172,2165,2159,2156,2155,2156,2160,2162,2165,2170,2173,2176,2176,2175,2177,2173,2170,2165,2161,2156,2149,2145,2141,2135,2127,2119,2113,2107,2102,2097,2099,2100,2104,2106,2110,2113,2113,2112,2106,2096,2084,2072,2055,2038,2019,2003,1984,1967,1948,1931,1915,1899,1884,1870,1855,1837,1819,1801,1782,1764,1745,1727,1712,1696,1684,1673,1666,1661,1658,1656,1655,1653,1651,1648,1642,1639,1634,1630,1628,1623,1617,1610,1603,1591,1580,1569,1557,1547,1536,1528,1523,1520,1514,1511,1506,1500,1496,1490,1487,1483,1482,1480,1477,1477,1479,1477,1474,1470,1463,1456,1446,1438,1430,1421,1413,1408,1406,1404,1402,1403,1404,1407,1409,1411,1415,1419,1425,1430,1434,1435,1433,1431,1429,1426,1419,1415,1409,1403,1395,1388,1379,1369,1358,1345,1336,1324,1315,1307,1300,1292,1288,1282,1278,1272,1270,1269,1271,1279,1293,1314,1341,1375,1416,1460,1512,1566,1625,1689,1758,1831,1910,1992,2075,2161,2246,2333,2419,2502,2579,2655,2724,2786,2865,2913,2944,2967,2982,2990,2996,2995,2990,2980,2966,2947,2927,2903,2878,2852,2822,2793,2764,2734,2705,2676,2646,2615,2585,2554,2525,2498,2477,2458,2442,2426,2416,2406,2395,2386,2377,2368,2360,2353,2346,2340,2335,2332,2329,2326,2324,2322,2323,2323,2322,2319,2316,2312,2305,2299,2291,2282,2275,2270,2269,2270,2273,2278,2281,2282,2284,2280,2272,2265,2257,2248,2237,2229,2220,2210,2200,2191,2183,2174,2164,2152,2144,2136,2124,2115,2107,2099,2094,2087,2082,2074,2067,2058,2051,2044,2036,2027,2016,2008,1998,1987,1974,1962,1948,1932,1918,1903,1889,1873,1856,1840,1824,1807,1790,1771,1755,1739,1727,1717,1707,1700,1692,1685,1675,1666,1655,1642,1630,1616,1607,1597,1591,1584,1578,1572,1565,1556,1549,1539,1531,1524,1518,1514,1514,1515,1519,1525,1532,1539,1548,1556,1561,1564,1567,1568,1569,1567,1563,1559,1550,1537,1525,1516,1509,1503,1500,1495,1493,1490,1488,1485,1483,1483,1485,1488,1490,1495,1497,1502,1507,1511,1519,1527,1541,1559,1580,1612,1647,1694,1746,1804,1869,1938,2008,2083,2159,2236,2308,2377,2443,2505,2564,2620,2666,2709,2744,2785,2806,2815,2816,2811,2799,2781,2759,2735,2708,2679,2651,2621,2591,2563,2538,2512,2487,2463,2438,2414,2396,2375,2356,2339,2322,2301,2282,2266,2248,2230,2213,2197,2178,2162,2144,2127,2110,2095,2079,2069,2058,2051,2044,2041,2038,2036,2034,2034,2032,2032,2031,2030,2033,2038,2042,2048,2055,2063,2072,2080,2087,2093,2099,2102,2106,2105,2109,2112,2112,2113,2110,2108,2102,2094,2087,2080,2071,2058,2049,2039,2030,2019,2012,2002,1992,1980,1966,1949,1929,1909,1889,1866,1846,1825,1804,1783,1763,1743,1726,1708,1694,1681,1670,1660,1651,1642,1634,1625,1617,1611,1604,1599,1595,1590,1587,1581,1575,1568,1561,1553,1544,1536,1529,1523,1519,1517,1517,1515,1515,1516,1517,1519,1521,1523,1526,1528,1527,1526,1526,1527,1531,1534,1536,1538,1539,1539,1539,1539,1536,1532,1530,1527,1527,1527,1529,1532,1534,1534,1531,1527,1520,1510,1503,1491,1482,1470,1459,1451,1442,1435,1429,1423,1421,1426,1435,1448,1469,1496,1527,1565,1611,1661,1715,1775,1840,1913,1990,2068,2153,2236,2321,2403,2486,2564,2641,2714,2779,2838,2891,2960,3006,3031,3048,3057,3054,3044,3028,3005,2977,2945,2912,2879,2847,2815,2786,2757,2731,2706,2682,2662,2640,2622,2604,2587,2567,2547,2524,2503,2485,2472,2459,2449,2439,2431,2424,2413,2405,2392,2377,2363,2351,2340,2329,2321,2310,2300,2290,2279,2272,2265,2259,2256,2252,2250,2250,2247,2245,2245,2243,2244,2247,2250,2252,2253,2253,2251,2245,2238,2228,2216,2206,2197,2188,2180,2172,2165,2156,2146,2134,2119,2103,2083,2064,2047,2031,2015,2002,1989,1977,1967,1956,1948,1941,1935,1925,1916,1906,1893,1881,1866,1851,1837,1821,1804,1786,1769,1750,1732,1711,1688,1667,1648,1635,1624,1618,1613,1609,1607,1604,1600,1597,1591,1587,1582,1573,1565,1554,1543,1527,1514,1502,1491,1482,1472,1465,1460,1457,1455,1458,1462,1468,1475,1481,1489,1495,1502,1507,1513,1517,1519,1521,1520,1516,1513,1506,1499,1490,1480,1469,1457,1448,1438,1429,1419,1413,1407,1405,1404,1401,1400,1398,1394,1390,1386,1381,1378,1373,1369,1365,1360,1355,1351,1347,1346,1346,1347,1348,1349,1348,1348,1347,1347,1348,1349,1351,1354,1358,1365,1376,1393,1415,1438,1472,1509,1552,1599,1650,1707,1767,1829,1893,1964,2035,2109,2182,2259,2335,2408,2480,2550,2616,2676,2734,2814,2870,2908,2939,2963,2979,2989,2993,2992,2986,2973,2959,2940,2919,2897,2870,2844,2816,2787,2758,2731,2706,2683,2659,2637,2616,2597,2576,2556,2539,2521,2505,2487,2467,2449,2429,2409,2394,2380,2369,2356,2348,2342,2340,2336,2335,2334,2332,2332,2327,2325,2321,2314,2304,2295,2287,2279,2268,2259,2251,2242,2237,2232,2228,2228,2228,2228,2230,2231,2231,2232,2229,2225,2217,2210,2199,2185,2174,2159,2147,2136,2125,2114,2104,2095,2087,2078,2067,2056,2044,2034,2027,2015,2005,1993,1982,1970,1960,1951,1943,1936,1928,1920,1910,1899,1888,1874,1860,1843,1829,1814,1799,1786,1772,1758,1745,1732,1719,1706,1694,1682,1669,1655,1642,1628,1615,1597,1583,1568,1553,1541,1528,1516,1506,1496,1489,1490,1491,1496,1504,1509,1519,1529,1539,1550,1560,1571,1579,1587,1592,1596,1597,1593,1588,1581,1571,1562,1556,1550,1546,1541,1535,1530,1528,1521,1515,1511,1507,1503,1495,1490,1488,1486,1489,1489,1496,1502,1506,1508,1509,1506,1502,1498,1496,1497,1499,1503,1509,1519,1532,1548,1571,1601,1633,1671,1714,1766,1825,1888,1954,2025,2097,2170,2242,2313,2382,2448,2509,2565,2618,2663,2701,2747,2775,2792,2804,2812,2816,2813,2805,2792,2772,2751,2727,2698,2669,2636,2601,2566,2530,2492,2446,2409,2373,2340,2309,2282,2257,2235,2217,2200,2184,2169,2156,2143,2130,2119,2111,2105,2097,2093,2088,2084,2076,2070,2062,2057,2053,2049,2047,2044,2046,2047,2049,2050,2050,2051,2051,2053,2057,2062,2069,2081,2094,2105,2113,2124,2128,2131,2132,2130,2124,2118,2108,2101,2092,2088,2082,2078,2078,2077,2076,2073,2069,2061,2051,2035,2021,2007,1994,1983,1971,1960,1949,1937,1922,1909,1892,1872,1852,1831,1808,1786,1764,1743,1724,1708,1695,1682,1673,1664,1657,1649,1643,1633,1624,1612,1603,1596,1592,1588,1584,1581,1577,1573,1567,1563,1558,1554,1551,1551,1551,1553,1555,1557,1558,1560,1561,1560,1561,1561,1558,1555,1554,1552,1553,1555,1557,1561,1565,1566,1568,1571,1572,1570,1568,1564,1561,1554,1549,1542,1537,1534,1531,1528,1525,1520,1517,1510,1503,1499,1493,1488,1483,1476,1470,1461,1456,1452,1454,1458,1467,1481,1500,1524,1553,1587,1626,1669,1720,1776,1838,1904,1974,2049,2122,2198,2277,2356,2435,2512,2585,2656,2721,2782,2838,2909,2954,2983,3001,3012,3019,3021,3015,3008,2996,2980,2961,2940,2917,2891,2864,2836,2808,2779,2751,2721,2696,2670,2644,2620,2595,2572,2548,2527,2505,2488,2470,2456,2441,2430,2420,2416,2408,2403,2399,2393,2389,2384,2381,2375,2368,2363,2354,2345,2335,2326,2316,2308,2302,2294,2289,2285,2283,2278,2276,2279,2281,2282,2283,2284,2290,2290,2290,2290,2286,2282,2276,2270,2267,2263,2259,2256,2253,2249,2245,2239,2233,2223,2211,2202,2191,2179,2166,2155,2143,2134,2124,2114,2103,2090,2078,2063,2046,2026,2004,1980,1955,1934,1911,1895,1879,1869,1860,1851,1845,1836,1827,1817,1807,1797,1785,1775,1762,1751,1740,1729,1718,1707,1696,1684,1673,1661,1649,1635,1621,1608,1593,1579,1569,1559,1551,1545,1540,1538,1536,1535,1536,1538,1539,1541,1542,1544,1544,1547,1545,1546,1547,1551,1558,1565,1574,1580,1585,1587,1586,1579,1571,1562,1553,1543,1535,1531,1527,1525,1528,1531,1537,1539,1544,1546,1547,1549,1547,1546,1543,1540,1533,1526,1516,1505,1494,1482,1468,1460,1448,1436,1426,1417,1406,1395,1385,1379,1374,1374,1375,1378,1381,1386,1394,1401,1415,1433,1456,1484,1521,1564,1617,1676,1742,1815,1891,1970,2051,2132,2213,2293,2371,2449,2525,2598,2668,2736,2804,2891,2955,3000,3041,3073,3101,3120,3129,3132,3127,3114,3099,3079,3056,3029,3000,2972,2943,2913,2885,2856,2827,2798,2772,2747,2721,2698,2677,2658,2638,2622,2611,2605,2600,2599,2598,2600,2602,2603,2602,2602,2598,2593,2587,2580,2572,2562,2548,2533,2512,2491,2469,2446,2424,2404,2388,2375,2364,2355,2347,2341,2339,2339,2341,2345,2349,2352,2355,2356,2357,2360,2362,2364,2364,2365,2368,2368,2368,2363,2356,2345,2334,2320,2304,2283,2263,2241,2222,2204,2187,2169,2153,2137,2123,2109,2097,2086,2076,2066,2058,2051,2046,2040,2035,2031,2028,2022,2016,2007,1997,1983,1969,1952,1934,1914,1896,1878,1865,1853,1838,1826,1815,1802,1788,1772,1755,1743,1730,1719,1712,1703,1696,1688,1682,1680,1676,1674,1668,1663,1656,1648,1638,1629,1622,1614,1609,1605,1605,1603,1604,1605,1605,1605,1605,1607,1610,1612,1614,1612,1609,1604,1598,1591,1585,1582,1582,1585,1588,1591,1595,1595,1594,1592,1591,1589,1585,1583,1579,1579,1574,1569,1567,1563,1560,1560,1559,1560,1559,1557,1555,1551,1547,1538,1528,1518,1507,1498,1487,1479,1473,1467,1464,1465,1469,1475,1490,1507,1529,1559,1592,1632,1680,1735,1796,1864,1938,2015,2093,2174,2256,2335,2413,2481,2549,2612,2671,2725,2776,2846,2890,2920,2945,2961,2972,2977,2976,2973,2964,2950,2932,2912,2886,2860,2827,2794,2758,2723,2685,2650,2614,2579,2546,2515,2484,2456,2429,2405,2382,2359,2339,2317,2298,2278,2259,2240,2223,2209,2194,2179,2169,2157,2148,2141,2131,2129,2124,2122,2124,2127,2131,2135,2139,2147,2154,2160,2167,2175,2183,2194,2204,2215,2224,2230,2235,2238,2245,2249,2257,2263,2273,2281,2287,2291,2292,2291,2286,2280,2272,2262,2251,2237,2223,2209,2194,2181,2166,2151,2135,2119,2104,2089,2073,2053,2037,2019,2001,1984,1966,1946,1930,1912,1892,1873,1856,1838,1822,1806,1791,1779,1766,1754,1742,1730,1722,1712,1703,1698,1692,1688,1684,1680,1674,1668,1661,1656,1650,1645,1642,1639,1640,1641,1643,1642,1642,1638,1634,1630,1626,1623,1620,1617,1614,1611,1612,1612,1614,1618,1623,1631,1637,1642,1643,1642,1636,1627,1617,1604,1588,1574,1557,1546,1533,1521,1515,1514,1514,1516,1518,1520,1519,1518,1521,1523,1526,1529,1531,1540,1551,1564,1580,1599,1627,1660,1698,1742,1792,1845,1905,1966,2029,2097,2167,2240,2315,2394,2473,2552,2630,2705,2775,2839,2898,2950,3013,3057,3086,3109,3127,3140,3148,3148,3143,3132,3113,3087,3055,3018,2979,2939,2898,2855,2814,2772,2736,2700,2664,2636,2611,2589,2569,2548,2533,2519,2507,2498,2492,2489,2487,2484,2483,2480,2477,2471,2464,2456,2449,2440,2432,2426,2417,2409,2402,2394,2387,2382,2376,2372,2368,2363,2357,2351,2347,2341,2339,2338,2336,2339,2343,2346,2350,2352,2354,2353,2352,2347,2340,2330,2315,2298,2278,2255,2232,2211,2190,2170,2151,2135,2120,2108,2096,2087,2078,2068,2057,2047,2035,2023,2010,1997,1984,1970,1954,1937,1920,1902,1885,1869,1851,1835,1819,1805,1792,1781,1772,1765,1757,1755,1752,1748,1743,1740,1738,1735,1731,1726,1720,1711,1700,1688,1676,1664,1656,1651,1648,1644,1640,1635,1631,1629,1629,1626,1622,1617,1611,1602,1595,1587,1582,1577,1575,1573,1573,1572,1570,1567,1565,1560,1553,1549,1543,1538,1531,1526,1519,1515,1512,1509,1506,1503,1503,1500,1495,1489,1483,1474,1467,1462,1457,1452,1448,1447,1443,1443,1441,1441,1441,1441,1439,1438,1437,1433,1431,1429,1432,1439,1450,1463,1478,1496,1514,1537,1562,1593,1628,1671,1719,1777,1840,1909,1985,2066,2150,2237,2328,2418,2507,2596,2682,2766,2846,2921,2990,3053,3113,3188,3235,3264,3285,3298,3304,3303,3294,3280,3258,3231,3202,3168,3129,3091,3051,3012,2974,2937,2903,2870,2840,2810,2782,2756,2731,2706,2682,2662,2641,2620,2602,2583,2569,2556,2544,2532,2522,2511,2502,2489,2475,2462,2446,2432,2416,2403,2393,2384,2376,2370,2367,2366,2365,2366,2367,2368,2369,2372,2374,2378,2382,2388,2392,2399,2405,2410,2413,2418,2417,2415,2413,2409,2405,2398,2391,2382,2372,2361,2352,2344,2335,2324,2312,2298,2283,2266,2246,2228,2211,2194,2177,2160,2144,2128,2113,2095,2079,2060,2042,2023,2006,1987,1966,1944,1925,1905,1882,1857,1838,1821,1803,1789,1779,1772,1764,1757,1749,1743,1735,1729,1722,1718,1715,1711,1708,1705,1699,1696,1694,1693,1690,1690,1688,1685,1685,1682,1679,1676,1676,1676,1677,1675,1676,1677,1677,1676,1677,1677,1675,1673,1669,1662,1653,1641,1632,1622,1617,1613,1609,1606,1601,1596,1591,1584,1577,1567,1560,1554,1545,1538,1529,1523,1517,1513,1509,1502,1498,1495,1493,1491,1491,1494,1495,1497,1500,1503,1507,1510,1512,1515,1518,1522,1524,1528,1531,1538,1544,1554,1567,1581,1597,1619,1647,1681,1720,1768,1822,1881,1947,2016,2092,2166,2241,2313,2387,2459,2530,2599,2666,2731,2791,2843,2913,2963,2997,3023,3045,3059,3069,3072,3068,3059,3044,3023,3001,2974,2945,2915,2884,2850,2814,2780,2744,2708,2677,2644,2611,2579,2546,2515,2484,2454,2427,2400,2376,2354,2334,2316,2298,2281,2263,2247,2231,2214,2203,2193,2184,2177,2172,2172,2171,2174,2177,2185,2194,2205,2217,2231,2249,2263,2279,2292,2306,2318,2330,2341,2349,2352,2354,2352,2346,2342,2333,2323,2314,2305,2299,2294,2289,2284,2278,2272,2265,2256,2249,2240,2227,2214,2197,2180,2163,2145,2130,2116,2100,2084,2068,2047,2029,2012,1994,1976,1958,1940,1920,1902,1882,1864,1845,1829,1815,1799,1785,1774,1763,1748,1735,1722,1711,1701,1693,1684,1681,1679,1678,1676,1671,1666,1661,1652,1648,1642,1636,1629,1620,1614,1604,1597,1589,1581,1574,1567,1561,1558,1557,1558,1562,1566,1574,1581,1587,1592,1596,1601,1601,1601,1599,1601,1602,1603,1603,1601,1599,1593,1584,1574,1560,1546,1533,1518,1508,1496,1486,1482,1478,1477,1482,1489,1497,1507,1519,1536,1556,1582,1615,1657,1708,1767,1833,1906,1983,2065,2150,2237,2327,2418,2508,2595,2679,2760,2837,2906,2969,3028,3102,3152,3187,3213,3234,3251,3264,3274,3280,3280,3272,3255,3235,3209,3178,3144,3105,3063,3021,2979,2937,2896,2855,2816,2769,2734,2703,2674,2648,2624,2606,2587,2573,2558,2545,2528,2514,2499,2486,2473,2462,2453,2446,2440,2433,2427,2422,2417,2410,2400,2391,2382,2372,2362,2353,2344,2336,2330,2329,2329,2331,2337,2346,2356,2364,2370,2378,2386,2394,2398,2403,2405,2406,2406,2406,2404,2403,2399,2393,2386,2379,2368,2355,2339,2320,2298,2277,2254,2233,2210,2190,2169,2148,2129,2110,2093,2076,2062,2046,2030,2014,1999,1984,1969,1954,1939,1925,1911,1897,1884,1871,1861,1851,1840,1829,1819,1806,1796,1787,1775,1763,1752,1738,1729,1720,1711,1705,1699,1693,1687,1683,1680,1676,1672,1669,1665,1663,1659,1658,1655,1653,1647,1642,1631,1622,1612,1601,1594,1589,1584,1581,1581,1580,1580,1579,1575,1572,1567,1565,1562,1561,1561,1562,1565,1569,1573,1575,1577,1578,1580,1578,1574,1570,1564,1556,1547,1536,1528,1522,1517,1511,1507,1503,1496,1494,1490,1488,1487,1485,1484,1483,1488,1492,1501,1516,1538,1566,1602,1646,1698,1757,1820,1889,1968,2048,2134,2221,2314,2409,2508,2605,2703,2795,2881,2966,3045,3119,3185,3273,3337,3379,3415,3444,3466,3480,3485,3484,3480,3469,3454,3432,3406,3374,3340,3298,3256,3210,3163,3117,3071,3029,2987,2948,2910,2878,2849,2820,2795,2771,2751,2733,2718,2706,2695,2684,2674,2663,2654,2643,2632,2622,2611,2600,2591,2580,2570,2561,2552,2541,2533,2526,2519,2511,2505,2500,2496,2492,2489,2487,2485,2483,2483,2480,2480,2481,2480,2482,2482,2480,2478,2474,2471,2469,2466,2461,2455,2446,2432,2419,2401,2384,2367,2354,2341,2329,2317,2303,2288,2273,2258,2240,2222,2205,2186,2165,2144,2119,2097,2070,2045,2021,2000,1982,1965,1950,1939,1927,1914,1899,1882,1862,1843,1823,1805,1793,1780,1768,1758,1750,1744,1737,1731,1723,1716,1708,1697,1687,1677,1668,1660,1656,1652,1651,1648,1648,1648,1648,1646,1643,1638,1631,1622,1614,1605,1596,1585,1576,1570,1565,1562,1560,1557,1554,1550,1544,1540,1532,1529,1525,1519,1515,1514,1514,1513,1511,1512,1511,1512,1515,1518,1524,1528,1531,1529,1525,1518,1508,1499,1490,1481,1473,1464,1456,1448,1442,1435,1428,1420,1412,1407,1402,1397,1394,1395,1395,1401,1407,1411,1415,1421,1428,1432,1435,1443,1452,1459,1470,1484,1503,1528,1563,1604,1654,1710,1774,1845,1922,2007,2098,2191,2288,2387,2485,2586,2681,2777,2869,2956,3040,3117,3189,3285,3352,3399,3439,3469,3491,3506,3513,3513,3508,3495,3479,3459,3434,3407,3374,3337,3298,3256,3213,3171,3127,3087,3049,3013,2978,2944,2910,2875,2845,2816,2787,2762,2737,2712,2686,2662,2638,2614,2592,2572,2555,2534,2517,2502,2489,2477,2466,2459,2453,2451,2451,2452,2453,2457,2461,2463,2467,2472,2476,2480,2485,2492,2496,2500,2504,2510,2513,2515,2516,2515,2510,2504,2494,2484,2474,2462,2452,2442,2435,2426,2415,2403,2390,2374,2355,2333,2311,2289,2268,2249,2233,2218,2200,2183,2167,2151,2135,2119,2101,2086,2067,2052,2040,2029,2015,2002,1989,1976,1965,1949,1932,1913,1895,1875,1857,1837,1821,1805,1792,1781,1773,1766,1762,1759,1756,1750,1744,1733,1722,1711,1700,1688,1676,1666,1657,1649,1643,1637,1635,1635,1635,1638,1642,1646,1650,1653,1657,1660,1663,1663,1667,1668,1670,1671,1668,1664,1655,1645,1634,1626,1616,1603,1593,1583,1575,1565,1557,1550,1545,1537,1530,1525,1520,1515,1512,1506,1500,1496,1490,1488,1486,1486,1487,1489,1494,1501,1516,1535,1562,1596,1639,1687,1742,1803,1868,1938,2013,2098,2185,2275,2361,2446,2529,2607,2683,2753,2819,2877,2931,3000,3044,3069,3088,3098,3100,3095,3083,3064,3041,3016,2985,2950,2915,2877,2836,2794,2754,2711,2670,2632,2595,2559,2523,2488,2452,2418,2384,2350,2317,2287,2256,2230,2203,2181,2160,2141,2120,2102,2085,2071,2057,2051,2042,2039,2036,2033,2035,2038,2041,2043,2050,2057,2065,2073,2084,2095,2104,2115,2124,2133,2139,2148,2157,2167,2178,2189,2199,2208,2215,2220,2223,2223,2222,2216,2209,2199,2188,2173,2156,2139,2122,2103,2084,2065,2044,2021,1997,1972,1945,1918,1886,1855,1824,1795,1768,1739,1715,1691,1669,1650,1633,1619,1611,1606,1601,1595,1588,1579,1567,1553,1539,1521,1501,1483,1466,1451,1437,1423,1410,1401,1391,1385,1379,1377,1376,1373,1371,1366,1363,1354,1347,1344,1340,1339,1339,1340,1343,1342,1341,1340,1340,1339,1339,1338,1339,1338,1337,1334,1331,1329,1325,1326,1325,1326,1326,1330,1332,1337,1340,1346,1350,1355,1361,1368,1374,1379,1386,1394,1400,1406,1412,1417,1420,1426,1431,1441,1451,1465,1486,1512,1544,1587,1635,1694,1757,1830,1908,1991,2079,2172,2266,2363,2459,2553,2643,2733,2819,2899,2972,3035,3090,3156,3189,3206,3217,3218,3212,3201,3183,3161,3135,3105,3075,3042,3008,2974,2939,2905,2870,2833,2797,2758,2720,2683,2647,2613,2580,2547,2517,2492,2472,2455,2437,2423,2409,2397,2384,2371,2359,2347,2335,2324,2313,2303,2295,2291,2285,2280,2274,2270,2265,2260,2256,2254,2251,2248,2245,2240,2235,2229,2224,2218,2210,2202,2196,2187,2179,2170,2165,2158,2152,2150,2143,2136,2125,2115,2105,2095,2087,2080,2072,2063,2053,2043,2028,2012,1994,1975,1956,1939,1922,1907,1890,1875,1860,1846,1832,1820,1809,1797,1782,1770,1755,1740,1725,1711,1698,1684,1670,1657,1645,1637,1627,1621,1614,1606,1599,1588,1575,1562,1548,1535,1527,1518,1512,1508,1508,1508,1509,1510,1511,1514,1517,1518,1517,1515,1512,1507,1501,1498,1492,1489,1487,1484,1481,1478,1474,1469,1461,1454,1446,1435,1427,1420,1413,1407,1402,1402,1401,1404,1405,1407,1408,1407,1405,1403,1400,1395,1387,1381,1373,1368,1362,1355,1352,1347,1344,1345,1346,1349,1352,1350,1348,1346,1343,1338,1331,1324,1316,1308,1298,1289,1279,1268,1258,1254,1251,1257,1268,1288,1317,1352,1396,1446,1507,1573,1646,1727,1813,1902,1991,2081,2173,2266,2357,2448,2535,2620,2700,2772,2836,2919,2972,3004,3026,3039,3043,3042,3034,3020,3000,2975,2948,2915,2881,2845,2807,2770,2734,2696,2658,2621,2581,2540,2501,2464,2431,2402,2374,2349,2329,2310,2290,2273,2257,2243,2232,2222,2213,2206,2198,2191,2185,2180,2176,2171,2167,2165,2162,2159,2153,2149,2146,2143,2140,2141,2143,2148,2152,2156,2161,2161,2163,2162,2161,2159,2155,2150,2139,2130,2115,2103,2091,2082,2072,2064,2059,2057,2056,2056,2054,2052,2048,2041,2033,2026,2018,2007,1995,1984,1970,1957,1944,1931,1917,1901,1885,1866,1846,1825,1803,1782,1760,1737,1716,1693,1674,1656,1642,1627,1617,1606,1597,1585,1575,1562,1549,1533,1520,1508,1499,1489,1481,1476,1474,1474,1472,1475,1480,1483,1488,1492,1495,1495,1495,1489,1483,1479,1475,1469,1467,1463,1460,1461,1460,1462,1462,1463,1464,1465,1463,1461,1458,1458,1460,1464,1469,1474,1477,1478,1478,1478,1478,1477,1476,1473,1472,1469,1467,1467,1466,1466,1470,1473,1475,1478,1484,1492,1507,1525,1552,1584,1620,1664,1713,1765,1826,1889,1958,2029,2103,2177,2248,2318,2383,2447,2507,2564,2616,2664,2706,2760,2792,2811,2825,2832,2835,2828,2819,2803,2780,2753,2721,2687,2649,2611,2572,2533,2497,2463,2427,2393,2350,2317,2284,2254,2228,2204,2180,2163,2149,2138,2127,2116,2109,2103,2093,2084,2076,2066,2057,2048,2041,2035,2033,2032,2034,2038,2041,2040,2042,2040,2035,2027,2021,2012,2004,1995,1988,1983,1978,1976,1975,1978,1983,1990,1998,2007,2015,2022,2028,2033,2037,2039,2037,2034,2031,2029,2027,2024,2018,2010,2003,1992,1979,1965,1952,1936,1921,1906,1893,1880,1864,1848,1831,1813,1793,1773,1748,1723,1698,1669,1641,1613,1584,1557,1532,1507,1489,1474,1463,1456,1455,1452,1450,1449,1448,1444,1442,1439,1434,1425,1416,1407,1398,1388,1383,1382,1382,1381,1383,1384,1384,1385,1385,1386,1383,1384,1379,1378,1376,1375,1374,1375,1376,1379,1382,1388,1393,1398,1405,1413,1421,1433,1444,1455,1465,1475,1481,1485,1485,1486,1484,1482,1479,1477,1472,1467,1457,1447,1435,1423,1414,1400,1390,1383,1376,1370,1362,1354,1346,1336,1330,1325,1322,1325,1330,1339,1351,1370,1396,1426,1460,1501,1548,1600,1662,1729,1803,1878,1959,2044,2129,2212,2297,2378,2459,2539,2616,2689,2757,2817,2897,2954,2990,3018,3041,3056,3065,3067,3062,3053,3036,3016,2992,2966,2937,2906,2873,2837,2804,2768,2734,2699,2665,2631,2599,2564,2529,2494,2462,2430,2401,2377,2358,2343,2332,2323,2317,2312,2311,2311,2311,2312,2312,2309,2305,2298,2290,2283,2277,2274,2268,2267,2264,2259,2254,2250,2246,2243,2238,2234,2232,2228,2224,2221,2217,2215,2211,2208,2206,2205,2203,2198,2195,2187,2180,2171,2164,2157,2151,2144,2140,2139,2137,2138,2135,2132,2125,2115,2101,2085,2066,2046,2024,2004,1984,1962,1939,1918,1900,1879,1859,1838,1819,1800,1783,1767,1752,1740,1726,1713,1699,1689,1681,1674,1667,1662,1656,1650,1642,1633,1624,1615,1607,1601,1594,1588,1584,1577,1573,1568,1564,1559,1553,1548,1541,1536,1529,1524,1523,1520,1518,1516,1512,1506,1503,1497,1490,1482,1475,1466,1458,1448,1439,1428,1421,1416,1411,1408,1406,1407,1407,1407,1410,1413,1413,1413,1415,1416,1416,1416,1417,1418,1421,1423,1428,1435,1444,1455,1468,1481,1492,1502,1510,1513,1513,1512,1505,1500,1495,1489,1483,1477,1472,1467,1462,1456,1453,1446,1438,1431,1422,1413,1403,1398,1396,1399,1406,1420,1439,1465,1497,1533,1574,1620,1668,1719,1772,1830,1890,1951,2016,2086,2158,2231,2308,2385,2464,2538,2609,2679,2777,2851,2905,2954,2996,3030,3057,3073,3085,3091,3087,3075,3055,3033,3002,2966,2926,2885,2842,2800,2759,2718,2682,2647,2616,2585,2562,2537,2514,2493,2473,2453,2435,2420,2405,2392,2382,2372,2365,2358,2353,2349,2347,2346,2347,2347,2348,2347,2345,2342,2334,2328,2318,2308,2295,2284,2269,2256,2242,2227,2214,2199,2185,2172,2159,2147,2136,2128,2126,2127,2134,2143,2155,2170,2182,2194,2205,2213,2220,2224,2227,2229,2227,2225,2223,2221,2217,2212,2205,2196,2184,2170,2155,2141,2125,2110,2094,2077,2064,2048,2032,2015,1998,1982,1962,1942,1920,1900,1879,1857,1836,1816,1797,1779,1763,1749,1737,1728,1722,1716,1711,1706,1702,1698,1694,1688,1682,1675,1668,1660,1652,1644,1643,1641,1641,1644,1646,1648,1651,1654,1659,1662,1665,1669,1673,1677,1682,1685,1690,1693,1697,1703,1708,1712,1716,1716,1715,1715,1715,1713,1709,1702,1694,1685,1674,1660,1648,1636,1625,1617,1611,1608,1604,1600,1596,1592,1587,1582,1578,1573,1569,1565,1562,1560,1557,1557,1553,1549,1543,1538,1530,1524,1518,1512,1506,1499,1494,1488,1484,1485,1489,1495,1510,1526,1549,1577,1607,1645,1688,1737,1791,1849,1913,1981,2054,2128,2204,2281,2356,2429,2498,2563,2621,2673,2719,2760,2813,2850,2873,2892,2905,2914,2917,2915,2910,2899,2883,2863,2842,2814,2784,2750,2713,2673,2629,2584,2542,2502,2463,2425,2392,2360,2330,2301,2274,2253,2233,2215,2198,2182,2167,2152,2142,2134,2127,2124,2123,2123,2126,2127,2126,2124,2120,2114,2107,2102,2096,2091,2088,2086,2082,2081,2079,2077,2077,2077,2078,2079,2082,2085,2090,2096,2102,2110,2118,2124,2128,2133,2140,2145,2151,2157,2163,2169,2173,2176,2178,2178,2176,2172,2170,2165,2158,2152,2144,2133,2120,2103,2085,2062,2034,2003,1973,1939,1907,1874,1840,1810,1781,1754,1729,1710,1694,1684,1675,1667,1664,1661,1663,1666,1670,1671,1671,1667,1661,1657,1654,1651,1648,1645,1644,1645,1647,1649,1653,1657,1661,1665,1668,1670,1672,1672,1671,1669,1664,1660,1658,1655,1654,1654,1657,1661,1667,1673,1681,1687,1694,1698,1699,1699,1696,1690,1685,1679,1669,1658,1646,1635,1627,1616,1606,1596,1587,1579,1571,1566,1564,1564,1565,1567,1567,1567,1568,1567,1567,1566,1566,1565,1564,1567,1573,1581,1595,1614,1639,1667,1703,1743,1793,1847,1906,1969,2036,2103,2176,2250,2329,2407,2486,2564,2645,2719,2790,2856,2913,2964,3024,3058,3077,3086,3085,3076,3062,3041,3017,2994,2969,2943,2916,2889,2863,2835,2804,2773,2742,2708,2675,2644,2611,2583,2554,2527,2505,2486,2469,2456,2443,2432,2423,2416,2409,2403,2400,2397,2393,2387,2376,2365,2350,2337,2324,2311,2300,2292,2284,2277,2271,2266,2263,2262,2262,2264,2267,2271,2276,2278,2280,2280,2278,2276,2275,2274,2277,2277,2277,2275,2272,2268,2261,2256,2253,2249,2246,2243,2238,2233,2226,2217,2204,2191,2177,2161,2143,2126,2107,2089,2069,2048,2027,2003,1982,1964,1943,1926,1909,1893,1879,1867,1856,1845,1833,1822,1813,1804,1797,1788,1778,1769,1758,1747,1738,1731,1725,1721,1719,1716,1713,1712,1713,1714,1713,1713,1712,1710,1705,1703,1704,1704,1709,1710,1714,1717,1719,1719,1719,1717,1712,1702,1693,1685,1675,1666,1658,1651,1641,1633,1621,1612,1602,1592,1581,1573,1567,1564,1561,1565,1570,1575,1581,1585,1591,1595,1599,1603,1607,1611,1616,1619,1621,1626,1628,1626,1623,1615,1605,1593,1579,1567,1555,1540,1527,1509,1492,1474,1454,1441,1428,1417,1409,1403,1401,1401,1402,1407,1416,1427,1442,1458,1478,1503,1532,1566,1605,1654,1712,1773,1840,1915,1993,2074,2158,2244,2331,2417,2503,2586,2666,2740,2812,2879,2941,2999,3074,3122,3152,3175,3190,3199,3206,3204,3199,3190,3180,3166,3150,3133,3109,3086,3060,3032,3002,2971,2937,2902,2866,2829,2791,2752,2716,2682,2650,2618,2591,2569,2550,2532,2516,2503,2493,2485,2476,2468,2463,2459,2456,2452,2446,2438,2429,2416,2404,2393,2382,2373,2365,2360,2353,2350,2343,2338,2333,2328,2322,2317,2312,2305,2304,2303,2305,2309,2314,2320,2327,2334,2338,2345,2350,2352,2353,2349,2347,2343,2333,2324,2316,2308,2299,2288,2279,2266,2252,2241,2230,2220,2210,2201,2193,2185,2181,2175,2169,2161,2153,2144,2135,2123,2111,2094,2074,2052,2027,2002,1974,1950,1931,1915,1902,1893,1886,1881,1876,1870,1864,1862,1859,1853,1846,1841,1838,1837,1840,1842,1847,1851,1856,1859,1861,1860,1858,1855,1851,1845,1838,1831,1825,1818,1810,1802,1795,1786,1775,1765,1754,1742,1729,1718,1709,1699,1693,1686,1681,1675,1670,1666,1665,1661,1658,1654,1653,1653,1652,1650,1649,1649,1648,1645,1641,1634,1626,1617,1610,1599,1588,1574,1562,1551,1538,1530,1525,1522,1522,1523,1526,1530,1538,1545,1554,1565,1580,1598,1620,1645,1674,1707,1748,1793,1844,1900,1962,2028,2098,2173,2251,2330,2409,2485,2558,2627,2689,2746,2796,2843,2884,2936,2967,2985,2999,3007,3006,3000,2989,2976,2958,2938,2916,2890,2859,2828,2795,2761,2728,2697,2666,2638,2612,2587,2566,2547,2531,2516,2501,2484,2470,2453,2438,2423,2406,2388,2365,2341,2316,2290,2264,2242,2225,2208,2196,2186,2178,2173,2169,2168,2170,2174,2178,2185,2194,2205,2215,2226,2238,2251,2264,2276,2287,2298,2306,2312,2317,2322,2322,2322,2320,2318,2315,2310,2305,2300,2292,2285,2277,2271,2264,2254,2243,2234,2225,2213,2200,2187,2174,2162,2149,2134,2122,2103,2084,2064,2043,2024,2006,1991,1976,1964,1952,1940,1929,1917,1906,1894,1882,1865,1850,1833,1816,1801,1782,1767,1753,1740,1729,1720,1713,1707,1700,1691,1681,1671,1659,1648,1637,1628,1620,1615,1609,1603,1599,1593,1592,1589,1588,1588,1591,1591,1592,1592,1592,1592,1590,1586,1585,1581,1576,1572,1569,1564,1557,1552,1549,1547,1546,1546,1549,1549,1551,1555,1558,1562,1567,1573,1581,1589,1597,1605,1612,1619,1630,1641,1655,1675,1702,1733,1769,1811,1858,1912,1969,2030,2096,2165,2236,2309,2386,2464,2540,2614,2690,2763,2832,2899,2957,3011,3075,3115,3137,3155,3164,3167,3164,3156,3142,3124,3104,3085,3064,3041,3017,2991,2963,2934,2905,2874,2847,2817,2789,2760,2732,2704,2677,2651,2626,2606,2588,2573,2561,2552,2541,2533,2524,2514,2502,2490,2474,2460,2445,2431,2417,2403,2392,2382,2372,2362,2353,2346,2342,2337,2335,2334,2334,2333,2334,2334,2337,2343,2352,2361,2370,2377,2384,2390,2393,2391,2387,2380,2370,2363,2357,2351,2348,2341,2338,2333,2330,2324,2320,2314,2306,2293,2280,2263,2247,2227,2206,2184,2165,2146,2128,2109,2089,2070,2050,2031,2013,1993,1976,1961,1946,1933,1920,1905,1889,1874,1859,1842,1828,1814,1802,1787,1776,1763,1754,1742,1731,1725,1718,1715,1710,1707,1707,1707,1709,1710,1712,1713,1712,1711,1710,1707,1705,1701,1699,1695,1688,1680,1671,1663,1652,1640,1626,1612,1598,1585,1572,1565,1560,1557,1559,1561,1566,1571,1574,1578,1585,1591,1598,1604,1614,1622,1631,1642,1650,1658,1662,1668,1672,1674,1676,1676,1671,1665,1655,1643,1628,1613,1599,1584,1570,1563,1555,1551,1548,1549,1555,1565,1581,1605,1636,1676,1722,1774,1835,1905,1981,2061,2146,2235,2326,2419,2513,2609,2703,2794,2880,2960,3037,3104,3165,3240,3288,3315,3333,3343,3344,3339,3329,3316,3298,3277,3255,3233,3209,3187,3164,3139,3116,3093,3068,3042,3015,2988,2962,2937,2914,2893,2872,2851,2830,2807,2785,2758,2734,2706,2681,2656,2631,2611,2592,2578,2567,2560,2556,2553,2552,2552,2554,2552,2552,2547,2541,2532,2521,2510,2501,2492,2483,2473,2463,2453,2442,2433,2422,2411,2402,2394,2391,2391,2392,2397,2399,2404,2405,2408,2408,2406,2404,2401,2394,2385,2376,2363,2347,2332,2318,2301,2282,2263,2244,2225,2206,2187,2171,2156,2141,2126,2114,2103,2092,2081,2069,2057,2045,2034,2019,2005,1991,1974,1955,1937,1918,1897,1877,1859,1841,1826,1814,1802,1794,1785,1774,1763,1753,1742,1733,1726,1719,1710,1706,1701,1697,1695,1691,1689,1686,1684,1683,1684,1684,1691,1701,1712,1727,1741,1756,1769,1781,1792,1801,1805,1804,1799,1788,1777,1761,1745,1732,1717,1704,1689,1678,1666,1655,1645,1639,1631,1624,1616,1609,1606,1608,1612,1621,1634,1647,1663,1682,1708,1739,1777,1821,1874,1932,1997,2063,2137,2214,2293,2371,2448,2524,2600,2672,2739,2804,2865,2920,2970,3034,3079,3108,3130,3146,3155,3150,3138,3118,3094,3065,3031,2995,2957,2917,2875,2834,2795,2756,2715,2677,2641,2607,2573,2541,2509,2479,2450,2423,2396,2372,2350,2329,2308,2287,2267,2247,2227,2206,2186,2167,2150,2137,2126,2119,2112,2108,2107,2108,2109,2114,2121,2128,2136,2145,2152,2160,2169,2175,2185,2193,2202,2209,2218,2227,2237,2244,2250,2257,2264,2271,2275,2279,2282,2282,2282,2283,2283,2280,2277,2272,2262,2251,2233,2214,2193,2169,2145,2121,2097,2070,2045,2015,1984,1952,1919,1885,1853,1823,1792,1764,1740,1722,1703,1688,1678,1668,1659,1654,1649,1646,1643,1644,1641,1638,1636,1634,1633,1632,1632,1633,1636,1635,1636,1634,