2090,2089,2089,2088,2088,2088,2090,2090,2091,2092,2092,2092,2092,2091,2088,2086,2081,2076,2071,2063,2056,2049,2042,2038,2033,2032,2030,2031,2032,2035,2038,2039,2040,2041,2041,2042,2043,2043,2042,2042,2041,2039,2035,2031,2028,2022,2016,2010,2005,1999,1996,1992,1988,1983,1979,1975,1974,1973,1973,1976,1978,1982,1986,1991,1995,1998,2001,2003,2004,2006,2006,2006,2007,2006,2005,2004,2004,2001,1998,1993,1990,1986,1982,1979,1976,1974,1972,1970,1969,1969,1968,1966,1965,1963,1961,1958,1956,1955,1953,1952,1950,1948,1946,1946,1946,1946,1946,1947,1947,1949,1950,1950,1953,1954,1957,1960,1963,1967,1972,1978,1986,1996,2007,2020,2032,2047,2060,2076,2091,2107,2123,2139,2153,2166,2179,2191,2201,2212,2222,2233,2240,2242,2245,2247,2246,2243,2239,2234,2228,2220,2213,2204,2195,2186,2177,2169,2160,2152,2143,2135,2126,2118,2110,2103,2095,2090,2083,2077,2072,2068,2065,2063,2064,2066,2068,2072,2075,2080,2084,2086,2088,2091,2093,2095,2096,2098,2098,2098,2099,2097,2096,2096,2094,2092,2092,2093,2093,2095,2097,2098,2101,2104,2105,2107,2110,2111,2113,2113,2114,2114,2114,2114,2113,2110,2108,2105,2101,2098,2095,2092,2089,2086,2080,2076,2072,2068,2061,2055,2050,2043,2039,2033,2028,2024,2021,2017,2016,2014,2012,2012,2013,2014,2016,2019,2020,2022,2022,2022,2021,2020,2019,2017,2012,2009,2005,2001,1997,1993,1990,1986,1985,1982,1982,1982,1983,1985,1986,1986,1988,1989,1989,1990,1991,1990,1989,1987,1986,1983,1980,1976,1972,1967,1963,1960,1957,1956,1953,1951,1950,1947,1946,1945,1943,1942,1940,1939,1937,1936,1936,1934,1933,1930,1928,1923,1920,1917,1914,1911,1910,1908,1908,1907,1906,1907,1907,1906,1906,1907,1908,1909,1911,1914,1918,1926,1930,1938,1946,1955,1964,1977,1987,2000,2012,2027,2043,2060,2078,2097,2115,2133,2151,2168,2183,2196,2208,2219,2227,2235,2241,2245,2244,2243,2239,2235,2229,2222,2215,2208,2201,2193,2185,2177,2171,2165,2160,2157,2153,2150,2147,2145,2143,2141,2140,2139,2139,2138,2138,2136,2135,2132,2131,2129,2128,2126,2125,2124,2121,2119,2116,2113,2110,2107,2104,2101,2097,2094,2091,2088,2086,2083,2080,2077,2075,2072,2071,2070,2070,2070,2070,2069,2070,2070,2071,2071,2071,2073,2073,2073,2074,2073,2073,2071,2070,2068,2067,2064,2062,2058,2055,2054,2053,2051,2050,2048,2048,2047,2047,2048,2050,2049,2049,2049,2049,2047,2046,2044,2044,2041,2040,2036,2035,2032,2030,2028,2026,2024,2023,2020,2018,2015,2010,2006,2003,2001,1997,1994,1989,1986,1980,1975,1972,1968,1964,1962,1958,1956,1955,1953,1952,1950,1949,1947,1946,1946,1946,1948,1950,1953,1957,1960,1964,1967,1968,1970,1970,1971,1970,1971,1971,1972,1973,1975,1976,1977,1978,1979,1979,1978,1976,1974,1971,1966,1961,1959,1955,1951,1946,1940,1935,1930,1927,1924,1922,1921,1923,1925,1926,1929,1930,1933,1935,1939,1942,1946,1947,1949,1950,1949,1948,1948,1945,1944,1941,1939,1935,1931,1928,1923,1919,1914,1909,1904,1899,1898,1897,1897,1898,1904,1911,1920,1933,1945,1961,1977,1994,2013,2033,2055,2075,2099,2121,2142,2161,2181,2198,2213,2227,2237,2248,2253,2256,2257,2257,2256,2256,2253,2252,2249,2245,2240,2235,2231,2226,2222,2218,2214,2209,2203,2197,2191,2187,2183,2179,2176,2173,2171,2168,2166,2164,2161,2158,2154,2150,2146,2142,2142,2141,2140,2143,2145,2147,2149,2148,2146,2143,2139,2135,2131,2127,2123,2119,2115,2111,2108,2105,2103,2103,2104,2105,2106,2106,2107,2106,2106,2105,2103,2101,2099,2096,2094,2092,2091,2090,2090,2090,2090,2091,2092,2094,2093,2093,2094,2094,2094,2095,2096,2097,2098,2098,2099,2098,2097,2096,2094,2094,2091,2088,2084,2079,2076,2070,2065,2059,2053,2049,2045,2042,2038,2034,2030,2027,2022,2018,2015,2013,2013,2013,2014,2014,2015,2014,2015,2014,2013,2012,2011,2008,2005,2004,2001,1998,1994,1990,1985,1982,1978,1974,1973,1971,1969,1967,1967,1965,1964,1962,1961,1959,1960,1960,1962,1965,1969,1973,1975,1980,1982,1986,1990,1992,1994,1995,1995,1995,1993,1992,1988,1984,1977,1973,1968,1962,1958,1953,1949,1945,1940,1937,1933,1930,1929,1929,1927,1927,1928,1929,1928,1930,1931,1934,1937,1940,1943,1945,1949,1950,1951,1951,1948,1945,1941,1937,1935,1932,1932,1931,1930,1930,1931,1933,1936,1939,1941,1943,1945,1948,1949,1950,1951,1951,1949,1947,1944,1942,1939,1938,1934,1932,1929,1926,1923,1923,1925,1928,1935,1943,1955,1967,1982,1997,2014,2033,2050,2068,2086,2104,2120,2136,2150,2162,2172,2183,2192,2204,2211,2218,2225,2232,2236,2240,2244,2247,2249,2250,2252,2253,2253,2252,2250,2248,2245,2241,2236,2230,2225,2217,2210,2202,2197,2191,2185,2181,2176,2171,2167,2163,2164,2164,2165,2168,2170,2173,2174,2174,2172,2170,2165,2158,2151,2141,2134,2128,2124,2120,2119,2116,2114,2113,2112,2113,2114,2113,2115,2116,2119,2122,2124,2128,2130,2131,2132,2133,2133,2134,2133,2132,2130,2125,2120,2114,2108,2102,2096,2092,2088,2086,2083,2083,2082,2082,2082,2081,2082,2082,2082,2082,2084,2084,2086,2087,2086,2085,2084,2082,2079,2076,2072,2067,2062,2056,2051,2046,2043,2041,2040,2039,2038,2039,2038,2038,2036,2032,2030,2026,2023,2020,2018,2016,2014,2011,2006,2002,1998,1993,1990,1987,1987,1986,1986,1984,1982,1980,1976,1973,1970,1970,1969,1971,1973,1973,1975,1973,1972,1970,1966,1960,1954,1946,1940,1934,1930,1927,1926,1926,1926,1928,1930,1933,1937,1942,1946,1950,1954,1956,1956,1956,1957,1958,1959,1960,1961,1962,1962,1961,1958,1956,1951,1948,1943,1939,1935,1933,1929,1927,1921,1916,1911,1906,1901,1897,1894,1892,1890,1889,1888,1886,1885,1883,1881,1880,1881,1883,1886,1891,1898,1907,1919,1932,1947,1963,1980,1998,2017,2036,2055,2075,2095,2115,2136,2156,2174,2190,2205,2218,2234,2243,2247,2248,2248,2245,2242,2238,2233,2229,2223,2217,2211,2206,2203,2199,2194,2190,2188,2185,2181,2179,2176,2173,2169,2164,2160,2157,2151,2146,2141,2138,2133,2130,2128,2125,2121,2118,2113,2108,2103,2099,2094,2091,2088,2087,2086,2085,2084,2082,2079,2076,2073,2069,2066,2063,2060,2057,2054,2050,2047,2044,2041,2040,2039,2040,2041,2042,2044,2046,2048,2050,2052,2054,2056,2058,2061,2062,2066,2070,2075,2077,2079,2080,2081,2080,2077,2074,2072,2070,2068,2066,2066,2067,2068,2069,2068,2066,2064,2059,2053,2047,2040,2033,2025,2018,2010,2005,2001,1998,1997,1996,1995,1996,1997,1998,1999,2001,2003,2007,2009,2010,2012,2013,2012,2014,2015,2018,2020,2023,2025,2027,2028,2028,2024,2022,2017,2013,2009,2006,2002,1999,1996,1994,1989,1986,1982,1980,1977,1975,1973,1973,1973,1973,1972,1972,1971,1969,1969,1968,1968,1967,1968,1970,1971,1972,1973,1971,1969,1968,1966,1963,1962,1960,1959,1960,1959,1959,1958,1957,1954,1950,1947,1944,1939,1937,1935,1933,1932,1933,1935,1937,1940,1944,1947,1952,1955,1960,1966,1973,1979,1986,1995,2004,2016,2029,2044,2060,2076,2093,2109,2124,2139,2151,2163,2172,2180,2187,2194,2201,2212,2218,2224,2227,2229,2232,2233,2236,2238,2238,2238,2237,2236,2233,2230,2226,2223,2220,2216,2212,2206,2201,2195,2188,2184,2179,2177,2175,2172,2170,2167,2167,2166,2167,2167,2169,2170,2172,2172,2172,2171,2171,2170,2168,2165,2161,2156,2153,2149,2145,2140,2137,2133,2130,2127,2125,2121,2118,2115,2110,2106,2103,2101,2098,2096,2096,2097,2099,2100,2101,2104,2107,2109,2113,2113,2114,2114,2113,2112,2110,2107,2103,2098,2092,2086,2081,2075,2072,2066,2063,2056,2052,2048,2044,2039,2037,2033,2031,2029,2026,2024,2020,2018,2015,2012,2010,2009,2007,2005,2005,2005,2004,2003,2002,1999,1997,1994,1993,1992,1992,1991,1992,1992,1993,1992,1994,1995,1996,1998,1999,2000,2001,2002,2003,2005,2004,2004,2002,2000,1998,1995,1992,1989,1987,1985,1982,1978,1974,1971,1969,1968,1968,1966,1967,1967,1968,1970,1971,1972,1974,1973,1971,1970,1970,1969,1968,1967,1965,1962,1959,1956,1952,1951,1950,1950,1950,1950,1948,1948,1947,1944,1944,1943,1943,1941,1940,1940,1939,1938,1938,1939,1940,1940,1939,1939,1936,1934,1932,1929,1927,1922,1918,1914,1910,1908,1908,1906,1907,1906,1907,1905,1904,1902,1900,1898,1897,1897,1898,1900,1902,1904,1906,1907,1911,1915,1918,1923,1928,1933,1939,1944,1950,1957,1965,1973,1981,1992,2004,2017,2032,2046,2062,2078,2094,2109,2125,2141,2157,2173,2189,2205,2219,2232,2242,2252,2263,2271,2275,2279,2280,2279,2276,2274,2270,2265,2260,2253,2245,2236,2227,2219,2211,2203,2197,2189,2182,2176,2170,2164,2159,2155,2152,2149,2146,2145,2143,2142,2141,2142,2142,2142,2142,2143,2144,2146,2145,2144,2142,2140,2137,2134,2132,2130,2129,2129,2130,2131,2132,2133,2133,2133,2133,2133,2133,2134,2132,2132,2130,2129,2127,2126,2124,2124,2125,2124,2122,2121,2117,2113,2108,2105,2101,2098,2095,2092,2089,2087,2085,2082,2079,2075,2073,2068,2066,2062,2059,2057,2056,2055,2052,2052,2050,2050,2049,2048,2046,2041,2039,2035,2031,2028,2024,2021,2016,2011,2007,2002,1999,1997,1993,1992,1990,1991,1989,1987,1985,1983,1979,1975,1972,1969,1964,1962,1960,1961,1961,1962,1964,1966,1969,1972,1975,1978,1981,1983,1984,1985,1984,1981,1977,1973,1967,1961,1957,1952,1947,1943,1938,1933,1929,1924,1918,1913,1907,1902,1897,1894,1892,1891,1889,1888,1887,1885,1885,1885,1883,1886,1888,1889,1889,1890,1890,1888,1888,1887,1886,1886,1886,1887,1889,1891,1892,1895,1897,1897,1897,1898,1898,1898,1900,1900,1901,1902,1903,1904,1905,1905,1905,1903,1901,1902,1900,1897,1895,1894,1893,1893,1894,1895,1897,1900,1904,1907,1913,1919,1923,1930,1935,1940,1946,1951,1957,1964,1973,1985,1999,2014,2032,2050,2070,2089,2109,2127,2148,2165,2181,2197,2213,2225,2237,2248,2257,2267,2273,2276,2278,2279,2278,2275,2271,2265,2261,2255,2249,2241,2234,2226,2218,2211,2204,2196,2190,2185,2180,2175,2170,2168,2163,2160,2155,2151,2146,2142,2137,2134,2130,2129,2128,2128,2128,2129,2130,2129,2129,2128,2126,2124,2123,2122,2120,2118,2117,2114,2112,2110,2108,2105,2104,2102,2101,2101,2098,2099,2095,2094,2092,2091,2090,2088,2089,2091,2092,2095,2098,2102,2104,2107,2108,2108,2107,2108,2107,2105,2103,2102,2098,2095,2092,2088,2086,2082,2078,2074,2070,2066,2062,2058,2055,2050,2048,2046,2045,2045,2046,2045,2045,2045,2046,2047,2047,2043,2041,2038,2034,2030,2027,2023,2020,2016,2015,2014,2013,2012,2011,2010,2008,2006,2006,2006,2005,2006,2006,2007,2007,2009,2011,2014,2016,2019,2021,2023,2024,2024,2023,2023,2022,2020,2018,2016,2014,2010,2007,2003,1998,1993,1987,1984,1978,1974,1971,1968,1967,1967,1967,1968,1970,1972,1974,1974,1974,1973,1971,1970,1967,1963,1961,1955,1953,1949,1945,1943,1941,1938,1937,1935,1933,1930,1928,1926,1924,1922,1920,1918,1918,1917,1917,1921,1926,1932,1938,1948,1960,1972,1987,2003,2020,2039,2056,2075,2092,2112,2129,2146,2162,2177,2191,2205,2216,2231,2239,2244,2250,2254,2258,2260,2262,2261,2260,2258,2254,2253,2250,2246,2241,2234,2227,2221,2214,2208,2201,2196,2189,2185,2180,2175,2170,2165,2160,2156,2151,2146,2141,2136,2132,2128,2126,2124,2122,2120,2119,2118,2116,2114,2113,2111,2110,2109,2108,2105,2104,2104,2103,2102,2103,2103,2104,2103,2105,2105,2105,2103,2103,2104,2104,2105,2105,2105,2105,2104,2104,2104,2104,2105,2105,2102,2103,2102,2100,2101,2100,2099,2100,2101,2101,2101,2101,2100,2099,2098,2096,2095,2093,2090,2086,2082,2078,2074,2072,2068,2065,2062,2060,2058,2057,2055,2055,2055,2054,2056,2056,2056,2056,2057,2056,2055,2054,2050,2045,2040,2038,2035,2028,2026,2023,2018,2015,2011,2008,2004,2003,1999,1995,1991,1986,1981,1976,1970,1966,1962,1957,1953,1949,1948,1946,1946,1946,1948,1949,1951,1953,1954,1957,1959,1960,1962,1963,1965,1966,1967,1969,1969,1969,1970,1969,1968,1968,1967,1968,1968,1969,1969,1971,1969,1969,1968,1968,1969,1969,1969,1970,1970,1970,1967,1965,1964,1962,1960,1958,1957,1956,1956,1956,1956,1959,1959,1958,1958,1958,1957,1957,1958,1959,1962,1968,1975,1985,1996,2008,2023,2038,2053,2069,2085,2100,2116,2132,2149,2164,2182,2197,2211,2224,2235,2248,2258,2264,2269,2273,2274,2275,2273,2271,2266,2260,2254,2247,2241,2235,2230,2226,2221,2217,2212,2208,2204,2201,2198,2194,2189,2185,2181,2176,2172,2169,2166,2165,2165,2165,2166,2168,2170,2172,2173,2173,2172,2170,2167,2164,2160,2156,2151,2149,2145,2142,2139,2136,2134,2133,2132,2130,2127,2125,2123,2122,2120,2120,2119,2119,2119,2118,2119,2121,2123,2125,2128,2131,2134,2135,2134,2132,2128,2123,2116,2112,2106,2102,2099,2097,2097,2096,2095,2096,2096,2095,2097,2096,2095,2094,2094,2091,2090,2087,2084,2079,2074,2068,2061,2055,2050,2044,2041,2036,2031,2028,2025,2021,2020,2016,2014,2012,2009,2008,2006,2004,2003,2001,2001,2000,2001,1999,1997,1995,1994,1992,1991,1992,1993,1994,1997,1999,2002,2004,2007,2009,2009,2010,2008,2008,2006,2004,2002,2002,2002,2000,1998,1995,1994,1991,1989,1984,1983,1980,1978,1976,1973,1971,1968,1966,1962,1960,1958,1957,1956,1957,1958,1960,1960,1960,1961,1962,1961,1960,1958,1957,1956,1955,1955,1954,1952,1950,1946,1943,1940,1936,1933,1928,1924,1919,1916,1913,1911,1909,1910,1912,1915,1919,1921,1927,1932,1934,1937,1939,1941,1941,1941,1939,1936,1934,1931,1928,1925,1923,1923,1923,1926,1932,1939,1951,1963,1976,1992,2010,2028,2046,2065,2082,2100,2119,2138,2156,2173,2190,2206,2220,2234,2251,2261,2266,2268,2268,2267,2266,2263,2260,2255,2251,2246,2242,2235,2229,2222,2214,2207,2200,2191,2186,2182,2177,2173,2170,2167,2164,2161,2157,2154,2150,2147,2145,2142,2141,2139,2135,2132,2129,2127,2125,2124,2120,2119,2116,2113,2112,2111,2112,2113,2114,2115,2117,2116,2115,2114,2114,2110,2107,2103,2098,2094,2090,2086,2084,2081,2079,2078,2079,2081,2083,2084,2088,2090,2092,2093,2094,2096,2097,2097,2097,2096,2096,2095,2094,2093,2091,2089,2089,2089,2088,2089,2089,2089,2089,2087,2086,2085,2083,2080,2076,2074,2070,2067,2062,2057,2053,2050,2044,2040,2034,2028,2021,2012,2007,1999,1993,1986,1980,1975,1972,1967,1964,1962,1961,1961,1964,1966,1971,1974,1978,1984,1988,1991,1994,1994,1996,1995,1994,1991,1986,1980,1975,1971,1968,1964,1960,1958,1958,1956,1956,1957,1958,1960,1960,1960,1960,1961,1960,1959,1957,1955,1954,1952,1950,1951,1950,1950,1951,1949,1949,1946,1945,1942,1940,1938,1936,1934,1934,1934,1933,1931,1930,1930,1929,1925,1924,1924,1925,1924,1924,1923,1922,1921,1920,1920,1920,1920,1921,1922,1924,1927,1928,1930,1932,1935,1938,1943,1949,1957,1967,1976,1988,2001,2015,2029,2043,2058,2074,2089,2105,2120,2133,2146,2158,2168,2177,2186,2200,2209,2215,2221,2224,2227,2228,2228,2225,2221,2216,2209,2202,2197,2192,2188,2182,2176,2172,2167,2163,2161,2157,2154,2150,2145,2140,2134,2128,2121,2115,2107,2100,2093,2087,2081,2075,2071,2067,2067,2065,2064,2063,2063,2063,2063,2061,2062,2061,2060,2060,2057,2057,2057,2056,2055,2052,2050,2047,2046,2045,2044,2045,2046,2048,2051,2056,2060,2064,2068,2071,2075,2076,2080,2083,2084,2086,2086,2085,2082,2078,2076,2073,2071,2068,2068,2065,2064,2063,2063,2064,2064,2066,2067,2067,2068,2069,2069,2067,2065,2063,2060,2056,2052,2047,2041,2035,2029,2024,2017,2010,2005,1998,1993,1990,1988,1986,1985,1983,1984,1983,1983,1983,1984,1983,1982,1980,1980,1979,1979,1979,1980,1980,1981,1980,1978,1978,1977,1976,1974,1972,1970,1968,1964,1963,1961,1958,1955,1951,1949,1946,1945,1944,1942,1940,1938,1936,1932,1930,1928,1927,1927,1928,1932,1937,1942,1947,1951,1955,1957,1960,1962,1963,1962,1961,1957,1953,1949,1947,1943,1941,1939,1937,1936,1937,1938,1941,1943,1947,1950,1955,1961,1967,1975,1984,1996,2009,2024,2040,2056,2071,2088,2107,2123,2140,2156,2171,2186,2199,2210,2218,2226,2232,2237,2239,2242,2241,2241,2240,2238,2237,2235,2233,2231,2229,2225,2221,2214,2207,2197,2187,2177,2169,2161,2155,2149,2144,2140,2136,2132,2129,2125,2120,2115,2112,2108,2105,2104,2104,2103,2102,2103,2104,2106,2108,2112,2116,2121,2125,2127,2129,2130,2130,2130,2130,2129,2128,2127,2123,2120,2116,2111,2108,2104,2099,2094,2089,2084,2079,2075,2072,2070,2069,2068,2067,2066,2066,2064,2063,2063,2062,2062,2061,2060,2058,2057,2056,2055,2053,2052,2052,2051,2051,2052,2052,2052,2052,2049,2047,2042,2039,2037,2033,2031,2027,2024,2023,2021,2021,2021,2022,2023,2024,2026,2027,2027,2024,2022,2019,2014,2007,2002,1996,1989,1983,1976,1971,1967,1963,1961,1960,1960,1958,1959,1960,1963,1967,1971,1973,1977,1981,1983,1986,1988,1989,1989,1990,1992,1993,1996,1999,2003,2006,2010,2014,2017,2018,2018,2017,2014,2011,2006,2001,1996,1988,1983,1978,1973,1969,1966,1965,1965,1965,1965,1965,1965,1964,1962,1962,1961,1961,1961,1961,1960,1960,1960,1962,1963,1965,1967,1970,1973,1976,1977,1976,1976,1974,1972,1969,1967,1962,1957,1953,1949,1945,1942,1939,1936,1935,1937,1938,1942,1945,1950,1954,1960,1964,1969,1974,1978,1985,1993,2003,2013,2025,2039,2054,2070,2083,2104,2120,2135,2147,2159,2171,2180,2189,2198,2205,2212,2219,2223,2227,2230,2230,2231,2231,2231,2230,2229,2226,2222,2218,2215,2210,2207,2203,2198,2195,2191,2186,2181,2177,2172,2166,2163,2159,2157,2156,2154,2154,2154,2153,2152,2150,2150,2147,2147,2145,2144,2141,2139,2138,2136,2136,2136,2136,2137,2138,2139,2140,2140,2139,2138,2136,2133,2131,2129,2128,2128,2127,2126,2125,2125,2124,2123,2122,2122,2119,2116,2113,2110,2109,2108,2107,2108,2111,2114,2117,2120,2122,2123,2123,2122,2119,2114,2109,2107,2101,2096,2092,2090,2088,2085,2083,2080,2079,2079,2077,2078,2079,2080,2081,2082,2081,2080,2078,2077,2075,2072,2070,2067,2063,2059,2056,2052,2047,2042,2037,2029,2024,2019,2013,2007,2003,2000,1999,1998,1997,1996,1994,1992,1991,1988,1986,1982,1981,1979,1978,1976,1973,1969,1967,1964,1962,1961,1960,1960,1960,1961,1961,1962,1963,1964,1966,1969,1969,1970,1970,1971,1970,1969,1968,1967,1965,1965,1962,1962,1960,1959,1958,1959,1960,1960,1960,1961,1960,1961,1960,1960,1962,1963,1965,1965,1965,1964,1961,1960,1959,1958,1957,1958,1958,1959,1960,1961,1960,1962,1961,1961,1960,1958,1958,1957,1957,1956,1957,1958,1958,1957,1957,1955,1956,1955,1953,1952,1950,1950,1949,1949,1950,1952,1955,1958,1963,1969,1977,1986,1996,2009,2020,2031,2044,2058,2072,2086,2101,2116,2131,2145,2158,2173,2187,2199,2211,2227,2239,2247,2255,2260,2264,2266,2267,2268,2267,2268,2267,2267,2266,2263,2260,2258,2252,2246,2240,2233,2226,2219,2213,2205,2197,2189,2183,2177,2173,2170,2168,2167,2165,2163,2163,2162,2161,2158,2156,2153,2150,2146,2142,2138,2134,2130,2126,2124,2121,2118,2115,2111,2107,2102,2097,2095,2092,2092,2091,2091,2092,2092,2094,2096,2101,2105,2110,2116,2119,2123,2127,2129,2133,2136,2140,2144,2147,2148,2149,2148,2146,2142,2136,2129,2120,2110,2101,2093,2084,2078,2073,2068,2065,2062,2060,2060,2060,2059,2058,2057,2057,2056,2054,2052,2048,2045,2042,2042,2041,2041,2041,2040,2039,2039,2037,2036,2034,2030,2025,2021,2017,2014,2014,2013,2013,2014,2016,2017,2017,2019,2018,2018,2016,2013,2008,2003,1996,1991,1985,1982,1978,1975,1974,1973,1972,1970,1969,1969,1970,1971,1971,1972,1972,1972,1971,1969,1966,1963,1960,1958,1957,1956,1955,1953,1953,1952,1951,1950,1950,1951,1951,1951,1951,1948,1945,1942,1940,1938,1936,1935,1936,1936,1938,1938,1939,1939,1939,1935,1931,1927,1921,1916,1911,1908,1907,1906,1907,1908,1911,1913,1919,1924,1932,1940,1948,1958,1969,1981,1995,2010,2026,2042,2061,2078,2095,2114,2131,2148,2163,2179,2192,2205,2220,2232,2239,2243,2246,2247,2247,2245,2241,2235,2229,2223,2216,2209,2201,2192,2184,2173,2164,2155,2147,2139,2133,2128,2122,2118,2116,2112,2110,2108,2107,2106,2106,2106,2107,2107,2108,2107,2107,2105,2104,2102,2099,2097,2091,2085,2078,2071,2065,2058,2054,2050,2048,2047,2049,2050,2055,2058,2064,2069,2075,2080,2083,2085,2087,2088,2089,2089,2088,2088,2089,2090,2089,2090,2088,2086,2084,2079,2075,2070,2064,2058,2054,2051,2048,2045,2044,2042,2039,2037,2034,2032,2030,2030,2028,2030,2030,2032,2032,2033,2032,2030,2027,2024,2021,2019,2015,2011,2006,2002,1997,1991,1986,1982,1978,1976,1975,1974,1973,1973,1974,1975,1976,1975,1977,1979,1979,1981,1982,1984,1984,1986,1988,1988,1991,1991,1993,1993,1992,1990,1988,1985,1982,1979,1977,1976,1975,1973,1972,1972,1970,1968,1967,1963,1961,1958,1956,1952,1949,1946,1942,1936,1932,1928,1923,1922,1922,1923,1925,1928,1930,1932,1934,1935,1935,1936,1935,1934,1934,1934,1934,1936,1940,1945,1952,1964,1975,1989,2005,2023,2041,2055,2071,2085,2097,2109,2120,2131,2142,2154,2165,2174,2187,2197,2202,2209,2214,2219,2224,2228,2231,2231,2232,2234,2233,2234,2233,2233,2233,2233,2231,2230,2228,2223,2219,2214,2208,2203,2197,2193,2189,2185,2182,2178,2174,2169,2165,2159,2152,2146,2140,2136,2132,2128,2127,2126,2124,2123,2122,2121,2118,2115,2113,2111,2108,2105,2102,2097,2093,2089,2084,2083,2080,2080,2081,2081,2082,2082,2082,2081,2080,2081,2081,2083,2083,2083,2084,2084,2083,2083,2083,2084,2085,2086,2088,2092,2094,2097,2097,2098,2095,2094,2092,2089,2086,2084,2081,2079,2075,2070,2066,2062,2057,2050,2045,2039,2034,2029,2026,2023,2019,2018,2015,2013,2010,2007,2005,2004,2004,2004,2003,2003,2002,2003,2001,1998,1994,1988,1984,1982,1977,1974,1973,1974,1974,1974,1974,1977,1977,1978,1981,1983,1986,1990,1993,1995,1997,1998,1996,1995,1993,1991,1987,1985,1981,1979,1977,1975,1974,1972,1971,1970,1969,1969,1967,1965,1965,1962,1961,1959,1957,1955,1952,1950,1948,1944,1941,1940,1938,1937,1936,1935,1937,1939,1943,1946,1951,1954,1957,1957,1957,1955,1954,1953,1952,1950,1951,1951,1951,1952,1952,1952,1951,1949,1946,1944,1943,1941,1940,1940,1942,1946,1953,1960,1968,1977,1989,2001,2014,2029,2046,2064,2084,2105,2127,2150,2171,2190,2208,2225,2238,2250,2259,2266,2272,2274,2273,2272,2271,2269,2267,2263,2261,2259,2256,2254,2252,2250,2248,2246,2245,2245,2245,2245,2245,2244,2244,2244,2241,2237,2235,2230,2224,2219,2213,2208,2203,2195,2190,2185,2179,2173,2169,2166,2161,2158,2157,2155,2154,2153,2152,2151,2149,2148,2146,2147,2149,2151,2154,2158,2161,2165,2168,2170,2172,2172,2171,2169,2165,2161,2154,2148,2143,2135,2130,2125,2121,2118,2117,2116,2118,2120,2121,2121,2122,2122,2122,2123,2123,2123,2125,2124,2124,2125,2126,2127,2127,2126,2125,2122,2119,2113,2107,2100,2092,2084,2077,2068,2060,2053,2047,2041,2036,2033,2030,2027,2027,2026,2026,2026,2025,2023,2022,2020,2019,2020,2019,2020,2020,2020,2018,2019,2016,2015,2013,2012,2012,2012,2012,2012,2012,2013,2013,2014,2014,2013,2013,2012,2010,2008,2005,2003,2002,2000,1999,1998,1997,1996,1993,1993,1990,1989,1987,1986,1985,1983,1983,1982,1981,1981,1981,1981,1979,1978,1975,1973,1970,1969,1966,1963,1961,1958,1954,1951,1949,1947,1942,1938,1933,1930,1926,1922,1920,1918,1918,1918,1919,1922,1923,1925,1929,1933,1935,1938,1940,1941,1943,1943,1942,1941,1940,1938,1937,1936,1935,1936,1937,1939,1941,1944,1948,1950,1953,1954,1954,1953,1951,1949,1944,1940,1936,1932,1930,1927,1928,1928,1930,1931,1935,1938,1941,1948,1956,1967,1978,1991,2006,2023,2042,2059,2078,2097,2116,2134,2151,2169,2184,2199,2213,2225,2236,2251,2259,2264,2267,2268,2269,2267,2264,2262,2257,2251,2246,2240,2235,2229,2221,2216,2208,2201,2196,2191,2188,2184,2179,2176,2172,2170,2168,2167,2167,2167,2169,2173,2176,2181,2185,2188,2191,2192,2191,2191,2189,2188,2187,2185,2185,2185,2186,2187,2188,2188,2188,2189,2190,2190,2187,2185,2183,2178,2175,2170,2166,2165,2161,2158,2156,2153,2151,2149,2147,2146,2143,2142,2141,2141,2141,2142,2144,2145,2146,2148,2148,2146,2144,2141,2138,2134,2129,2123,2119,2113,2107,2102,2097,2092,2089,2085,2083,2079,2075,2070,2065,2061,2055,2052,2048,2042,2039,2035,2031,2028,2026,2022,2020,2019,2016,2016,2017,2019,2022,2024,2026,2030,2033,2037,2039,2041,2042,2044,2043,2043,2041,2035,2029,2023,2017,2011,2006,2002,1998,1998,1998,1997,1998,2000,2000,2000,2000,2000,1999,1997,1996,1996,1993,1993,1993,1991,1990,1988,1987,1986,1984,1982,1980,1978,1975,1971,1968,1966,1966,1965,1965,1965,1967,1968,1970,1971,1971,1971,1971,1969,1967,1964,1963,1960,1957,1955,1952,1950,1948,1946,1943,1942,1939,1938,1935,1932,1929,1927,1925,1923,1922,1921,1921,1922,1922,1922,1923,1923,1924,1924,1924,1922,1920,1916,1912,1908,1905,1902,1901,1902,1902,1905,1907,1910,1915,1919,1922,1925,1927,1929,1932,1935,1939,1945,1953,1961,1973,1986,2001,2016,2032,2049,2066,2084,2103,2122,2141,2159,2177,2194,2209,2222,2235,2246,2254,2263,2268,2272,2273,2273,2270,2266,2260,2253,2244,2236,2227,2217,2207,2198,2191,2186,2179,2173,2169,2165,2163,2162,2160,2160,2158,2158,2156,2156,2154,2154,2155,2155,2154,2152,2150,2146,2143,2138,2133,2128,2122,2116,2112,2107,2105,2102,2101,2101,2102,2105,2110,2113,2118,2123,2127,2130,2133,2135,2136,2137,2137,2138,2139,2140,2140,2140,2140,2141,2138,2137,2133,2131,2129,2126,2123,2119,2114,2110,2105,2100,2096,2092,2089,2086,2083,2082,2081,2078,2076,2075,2072,2069,2066,2060,2056,2050,2045,2038,2033,2028,2023,2019,2017,2013,2011,2010,2008,2008,2009,2010,2010,2010,2008,2006,2004,2002,1998,1994,1990,1985,1980,1976,1973,1970,1969,1966,1966,1964,1963,1963,1964,1965,1966,1967,1967,1966,1965,1965,1966,1965,1966,1964,1963,1963,1961,1960,1958,1956,1955,1955,1954,1954,1952,1952,1950,1947,1945,1941,1937,1934,1930,1926,1924,1922,1921,1922,1923,1923,1924,1923,1923,1923,1923,1922,1924,1925,1927,1929,1932,1935,1938,1938,1938,1937,1934,1933,1930,1928,1926,1923,1921,1919,1917,1919,1920,1921,1924,1926,1930,1933,1937,1939,1941,1944,1947,1952,1957,1965,1974,1985,1996,2006,2020,2033,2047,2064,2078,2093,2110,2126,2143,2160,2175,2189,2202,2213,2223,2231,2238,2240,2240,2240,2238,2235,2234,2231,2230,2229,2227,2226,2222,2219,2214,2211,2208,2202,2197,2191,2185,2178,2170,2164,2157,2150,2142,2138,2132,2127,2121,2116,2113,2108,2104,2101,2098,2096,2095,2094,2093,2095,2097,2098,2100,2103,2105,2108,2110,2110,2111,2112,2112,2113,2114,2114,2115,2117,2116,2117,2117,2116,2116,2114,2110,2107,2103,2099,2096,2093,2092,2093,2094,2095,2096,2098,2098,2097,2097,2097,2097,2097,2096,2095,2093,2093,2091,2089,2088,2086,2084,2081,2075,2072,2066,2061,2056,2052,2047,2041,2033,2028,2020,2014,2007,2000,1993,1987,1982,1977,1975,1974,1971,1970,1969,1967,1965,1965,1962,1961,1959,1958,1956,1956,1957,1957,1958,1961,1963,1966,1968,1968,1969,1969,1969,1969,1968,1967,1968,1970,1970,1972,1970,1970,1968,1966,1964,1961,1960,1957,1956,1953,1951,1948,1946,1944,1944,1945,1945,1946,1947,1947,1948,1947,1947,1946,1946,1946,1948,1949,1950,1951,1953,1954,1955,1956,1955,1955,1954,1955,1953,1953,1952,1952,1951,1953,1953,1956,1958,1960,1962,1962,1960,1957,1954,1949,1944,1939,1935,1929,1924,1920,1916,1913,1910,1907,1903,1903,1904,1905,1909,1913,1921,1929,1939,1951,1964,1977,1993,2007,2023,2039,2053,2068,2084,2096,2109,2121,2133,2145,2161,2175,2185,2194,2203,2212,2219,2227,2233,2239,2243,2247,2250,2253,2254,2253,2251,2249,2245,2242,2238,2234,2231,2227,2222,2217,2210,2203,2196,2189,2183,2178,2174,2171,2169,2168,2167,2167,2167,2168,2169,2171,2173,2175,2176,2178,2179,2178,2177,2175,2172,2170,2168,2165,2161,2156,2153,2150,2145,2141,2136,2133,2129,2128,2125,2124,2124,2124,2124,2126,2128,2131,2134,2137,2140,2142,2144,2146,2147,2149,2148,2148,2147,2147,2146,2142,2140,2137,2136,2134,2130,2126,2123,2119,2116,2111,2109,2105,2102,2100,2098,2097,2096,2095,2094,2091,2088,2086,2082,2079,2077,2073,2071,2069,2069,2068,2070,2070,2071,2072,2073,2073,2072,2071,2068,2064,2058,2051,2045,2039,2032,2026,2021,2017,2012,2009,2006,2003,2001,1999,1998,1996,1994,1994,1992,1991,1988,1986,1984,1982,1980,1978,1976,1972,1970,1968,1966,1966,1968,1968,1969,1971,1972,1973,1972,1972,1970,1968,1966,1964,1961,1960,1959,1958,1959,1958,1957,1959,1960,1960,1959,1959,1957,1955,1951,1947,1945,1941,1939,1937,1935,1937,1937,1936,1938,1937,1937,1938,1940,1941,1941,1943,1945,1945,1945,1945,1944,1943,1941,1939,1936,1934,1933,1932,1929,1928,1927,1924,1921,1919,1916,1915,1914,1913,1913,1914,1913,1915,1916,1920,1923,1928,1935,1940,1946,1952,1961,1970,1981,1992,2006,2022,2039,2056,2075,2095,2116,2138,2158,2176,2193,2209,2222,2233,2244,2254,2263,2274,2280,2283,2284,2282,2282,2280,2278,2277,2277,2276,2276,2275,2272,2271,2268,2265,2262,2259,2255,2249,2244,2237,2229,2221,2214,2207,2201,2196,2192,2189,2187,2186,2183,2181,2177,2174,2170,2167,2163,2161,2158,2155,2154,2152,2149,2150,2149,2151,2152,2153,2154,2157,2158,2160,2162,2165,2168,2170,2173,2175,2179,2181,2183,2185,2186,2187,2185,2184,2181,2178,2175,2172,2168,2165,2161,2158,2155,2153,2152,2150,2149,2148,2147,2143,2140,2136,2132,2128,2123,2117,2110,2106,2099,2095,2092,2090,2091,2093,2094,2097,2101,2101,2102,2100,2097,2094,2089,2085,2079,2074,2070,2066,2062,2057,2051,2045,2040,2035,2032,2031,2029,2029,2031,2031,2032,2032,2032,2030,2027,2024,2021,2016,2012,2010,2008,2005,2003,2001,2001,1999,1998,1998,1997,1997,1996,1996,1993,1992,1989,1987,1985,1983,1982,1981,1982,1982,1984,1986,1990,1994,1997,2001,2003,2006,2006,2004,2003,2000,1996,1993,1990,1988,1986,1985,1984,1984,1984,1983,1983,1981,1979,1978,1976,1975,1974,1974,1975,1975,1976,1976,1975,1973,1972,1970,1968,1968,1966,1965,1964,1962,1962,1962,1961,1959,1959,1958,1957,1957,1957,1958,1959,1962,1966,1972,1980,1991,2004,2021,2038,2056,2075,2093,2112,2129,2145,2160,2175,2189,2202,2214,2226,2238,2252,2264,2273,2280,2286,2291,2293,2294,2294,2292,2289,2287,2283,2277,2271,2265,2258,2250,2243,2234,2225,2215,2205,2194,2186,2177,2170,2163,2156,2151,2147,2143,2140,2138,2138,2138,2138,2139,2140,2141,2144,2147,2150,2153,2155,2157,2157,2157,2157,2157,2155,2152,2149,2146,2143,2139,2135,2130,2127,2124,2122,2121,2121,2125,2129,2132,2136,2138,2139,2139,2138,2136,2134,2133,2134,2134,2137,2140,2144,2147,2150,2152,2154,2155,2156,2156,2155,2154,2153,2150,2148,2145,2141,2135,2130,2125,2119,2113,2108,2101,2095,2090,2083,2079,2073,2070,2065,2061,2057,2055,2053,2051,2050,2049,2048,2046,2045,2042,2041,2038,2036,2033,2032,2030,2029,2029,2030,2031,2033,2033,2035,2037,2040,2040,2042,2042,2042,2041,2038,2034,2029,2025,2018,2011,2004,1997,1992,1987,1984,1982,1980,1979,1979,1982,1983,1986,1988,1990,1992,1993,1997,1997,1997,1999,2000,2000,2000,1999,1993,1989,1984,1978,1971,1966,1959,1952,1946,1940,1933,1927,1923,1920,1920,1922,1927,1936,1945,1958,1971,1984,1998,2013,2028,2044,2062,2078,2097,2117,2139,2161,2184,2206,2228,2259,2285,2304,2322,2339,2353,2364,2374,2381,2385,2388,2387,2385,2381,2376,2370,2364,2358,2350,2343,2335,2327,2319,2312,2305,2298,2291,2283,2275,2266,2259,2252,2246,2240,2234,2230,2225,2222,2219,2216,2215,2215,2215,2215,2216,2215,2215,2213,2212,2208,2204,2199,2195,2191,2189,2188,2186,2186,2185,2185,2184,2184,2184,2183,2182,2182,2182,2181,2180,2180,2179,2177,2175,2174,2173,2172,2172,2171,2173,2173,2173,2173,2173,2173,2174,2172,2171,2169,2167,2163,2157,2153,2147,2141,2136,2130,2124,2118,2111,2105,2099,2093,2089,2085,2081,2080,2078,2075,2075,2072,2070,2068,2064,2060,2056,2052,2050,2045,2045,2046,2045,2047,2048,2050,2051,2052,2054,2054,2054,2055,2055,2055,2055,2054,2052,2050,2046,2042,2038,2032,2028,2023,2017,2012,2008,2003,1999,1996,1994,1993,1993,1994,1995,1997,2000,2000,2001,2002,2000,1999,1998,1998,1997,1996,1995,1993,1991,1990,1989,1987,1985,1983,1981,1980,1979,1977,1975,1973,1972,1970,1968,1966,1965,1965,1963,1961,1960,1958,1956,1953,1950,1946,1942,1938,1935,1932,1928,1925,1923,1923,1925,1925,1928,1930,1934,1938,1943,1949,1956,1966,1976,1988,2003,2018,2034,2054,2072,2094,2115,2138,2161,2183,2204,2224,2244,2262,2278,2294,2307,2320,2335,2343,2347,2348,2347,2345,2341,2336,2331,2324,2317,2311,2304,2298,2293,2289,2286,2284,2281,2279,2278,2275,2273,2272,2271,2269,2267,2268,2269,2270,2271,2271,2270,2268,2265,2264,2261,2259,2256,2254,2251,2250,2249,2248,2249,2249,2249,2250,2249,2247,2245,2242,2239,2235,2232,2227,2222,2218,2216,2212,2209,2206,2204,2203,2201,2203,2202,2201,2202,2201,2200,2199,2199,2198,2198,2199,2199,2199,2196,2194,2190,2186,2180,2173,2167,2159,2152,2146,2141,2135,2130,2126,2122,2117,2113,2108,2103,2099,2094,2088,2083,2075,2068,2062,2055,2050,2046,2041,2039,2037,2036,2036,2035,2034,2033,2031,2029,2031,2032,2034,2034,2035,2032,2029,2025,2019,2014,2010,2006,2002,1998,1993,1988,1983,1978,1972,1968,1965,1962,1962,1963,1965,1968,1971,1974,1977,1979,1980,1982,1982,1982,1982,1982,1982,1979,1978,1976,1974,1973,1972,1970,1970,1968,1966,1965,1965,1964,1965,1966,1966,1967,1968,1968,1968,1968,1966,1966,1965,1964,1964,1963,1963,1962,1959,1957,1952,1947,1942,1938,1933,1931,1928,1927,1925,1925,1925,1924,1923,1921,1919,1916,1913,1911,1909,1908,1906,1906,1906,1906,1907,1908,1907,1905,1902,1900,1895,1893,1891,1891,1893,1894,1899,1904,1913,1922,1933,1948,1964,1983,2004,2026,2050,2073,2095,2117,2139,2159,2178,2196,2212,2228,2243,2257,2274,2287,2296,2301,2305,2308,2312,2312,2314,2312,2313,2311,2307,2302,2296,2290,2282,2274,2266,2258,2251,2243,2236,2230,2226,2222,2219,2215,2213,2211,2209,2209,2207,2208,2208,2210,2213,2215,2217,2220,2222,2224,2226,2227,2228,2229,2227,2225,2221,2218,2213,2209,2204,2201,2198,2196,2195,2195,2195,2193,2191,2190,2189,2189,2189,2188,2187,2188,2187,2189,2189,2190,2188,2186,2184,2179,2174,2169,2163,2158,2154,2149,2144,2142,2139,2136,2134,2131,2127,2122,2117,2110,2101,2095,2089,2082,2078,2074,2070,2067,2063,2060,2058,2057,2058,2060,2063,2065,2066,2068,2069,2068,2069,2068,2068,2067,2066,2064,2061,2058,2055,2048,2041,2033,2028,2021,2015,2011,2008,2006,2005,2003,2001,2001,2001,2001,2002,2003,2001,2001,1998,1996,1992,1988,1984,1980,1978,1974,1972,1969,1965,1962,1957,1953,1946,1942,1936,1933,1930,1929,1930,1931,1932,1933,1933,1933,1932,1931,1929,1927,1927,1925,1924,1921,1920,1919,1918,1916,1914,1913,1912,1913,1912,1912,1911,1911,1911,1909,1908,1906,1903,1900,1896,1893,1892,1890,1890,1889,1891,1892,1894,1898,1903,1908,1916,1923,1934,1944,1956,1968,1983,2000,2016,2033,2050,2068,2083,2100,2116,2131,2145,2159,2171,2182,2196,2208,2218,2226,2234,2243,2251,2258,2263,2267,2269,2270,2269,2267,2265,2262,2257,2252,2245,2236,2225,2217,2206,2196,2188,2180,2175,2169,2164,2162,2161,2160,2160,2161,2163,2164,2167,2169,2170,2172,2172,2173,2173,2172,2172,2172,2169,2167,2166,2163,2161,2159,2155,2152,2149,2145,2142,2141,2139,2137,2136,2135,2134,2135,2135,2136,2138,2140,2143,2145,2149,2150,2154,2155,2158,2159,2160,2159,2157,2155,2150,2146,2141,2136,2131,2124,2118,2113,2106,2100,2094,2088,2080,2073,2067,2060,2056,2050,2045,2041,2038,2034,2032,2029,2028,2026,2025,2024,2023,2023,2021,2019,2016,2014,2008,2004,1999,1995,1992,1988,1985,1982,1981,1978,1977,1974,1972,1968,1966,1960,1956,1951,1948,1944,1942,1942,1942,1943,1945,1944,1944,1943,1942,1941,1940,1938,1939,1940,1941,1943,1944,1944,1943,1942,1939,1936,1933,1931,1930,1929,1927,1925,1923,1922,1921,1920,1918,1918,1918,1918,1920,1920,1920,1920,1919,1918,1917,1915,1915,1914,1913,1911,1909,1907,1905,1901,1900,1900,1901,1901,1902,1904,1906,1908,1912,1918,1925,1934,1943,1954,1966,1980,1996,2012,2028,2047,2063,2082,2099,2115,2131,2147,2163,2180,2196,2214,2239,2260,2274,2286,2297,2304,2311,2314,2315,2315,2312,2310,2307,2303,2299,2296,2290,2284,2275,2267,2256,2245,2234,2224,2215,2209,2205,2201,2201,2201,2203,2206,2208,2211,2214,2216,2218,2220,2221,2222,2221,2221,2220,2218,2217,2215,2215,2213,2211,2210,2209,2207,2203,2200,2197,2192,2187,2182,2177,2170,2163,2156,2149,2140,2131,2126,2119,2114,2110,2105,2104,2103,2105,2108,2110,2114,2115,2118,2117,2116,2114,2112,2109,2105,2102,2100,2098,2095,2090,2085,2081,2076,2071,2065,2059,2054,2049,2045,2041,2037,2032,2028,2024,2020,2017,2014,2011,2008,2005,1999,1992,1986,1980,1973,1966,1961,1955,1952,1949,1946,1943,1941,1939,1939,1939,1937,1935,1933,1931,1928,1926,1924,1922,1920,1920,1922,1926,1930,1933,1936,1938,1938,1937,1937,1936,1935,1935,1936,1940,1941,1944,1946,1946,1946,1947,1946,1946,1944,1943,1941,1939,1936,1933,1929,1926,1922,1919,1917,1915,1912,1912,1909,1906,1904,1902,1898,1896,1893,1891,1889,1887,1886,1886,1886,1887,1888,1888,1888,1889,1890,1891,1892,1892,1892,1889,1886,1883,1880,1878,1875,1873,1873,1871,1870,1867,1866,1864,1862,1862,1862,1862,1861,1861,1860,1859,1858,1857,1858,1858,1860,1863,1865,1867,1870,1872,1877,1880,1887,1894,1905,1916,1929,1944,1959,1975,1993,2012,2030,2047,2066,2082,2101,2121,2140,2159,2178,2194,2210,2231,2247,2258,2269,2278,2287,2295,2301,2305,2307,2308,2307,2306,2301,2295,2288,2279,2269,2259,2250,2241,2233,2225,2218,2213,2209,2206,2205,2205,2206,2206,2208,2210,2214,2215,2217,2218,2219,2219,2220,2219,2218,2216,2212,2207,2201,2193,2185,2176,2167,2157,2148,2139,2132,2127,2122,2119,2115,2114,2111,2110,2110,2111,2112,2112,2113,2115,2117,2118,2122,2126,2131,2135,2140,2145,2149,2152,2153,2154,2154,2153,2151,2148,2145,2141,2136,2130,2123,2115,2106,2097,2089,2082,2075,2068,2063,2059,2055,2050,2047,2041,2037,2033,2027,2023,2017,2013,2010,2008,2005,2004,2002,2001,2000,1998,1998,1999,2002,2001,2002,2001,2002,2001,1999,1998,1995,1993,1990,1986,1982,1978,1973,1969,1966,1962,1961,1959,1958,1959,1959,1960,1960,1959,1956,1953,1949,1945,1943,1938,1934,1930,1928,1925,1923,1920,1918,1916,1914,1913,1912,1912,1911,1911,1910,1908,1907,1906,1905,1904,1903,1902,1899,1896,1893,1888,1884,1881,1878,1876,1872,1870,1866,1863,1860,1856,1854,1853,1853,1854,1856,1858,1860,1862,1863,1864,1866,1868,1870,1871,1871,1872,1872,1873,1874,1875,1877,1877,1878,1879,1879,1879,1879,1879,1878,1878,1877,1876,1874,1872,1871,1869,1867,1864,1862,1860,1859,1859,1862,1866,1873,1882,1893,1905,1920,1936,1953,1971,1990,2010,2034,2056,2080,2105,2128,2151,2172,2191,2209,2225,2239,2256,2267,2271,2274,2275,2274,2273,2273,2271,2269,2269,2267,2267,2262,2259,2252,2245,2236,2228,2221,2213,2208,2203,2198,2196,2192,2188,2184,2179,2173,2169,2166,2163,2160,2156,2154,2150,2145,2140,2136,2132,2128,2125,2121,2118,2113,2109,2107,2103,2101,2100,2098,2098,2097,2097,2097,2098,2099,2100,2100,2101,2101,2103,2104,2105,2107,2109,2111,2116,2116,2118,2119,2118,2116,2114,2111,2107,2104,2101,2098,2093,2090,2086,2082,2078,2075,2072,2069,2067,2064,2061,2059,2056,2054,2053,2052,2051,2053,2051,2050,2049,2046,2042,2039,2035,2031,2026,2020,2013,2006,1998,1992,1987,1980,1976,1973,1970,1966,1962,1959,1954,1951,1951,1950,1948,1948,1946,1944,1943,1943,1944,1945,1947,1947,1949,1951,1951,1953,1953,1951,1948,1942,1938,1933,1927,1922,1916,1911,1907,1903,1900,1898,1897,1896,1896,1896,1896,1894,1893,1893,1892,1891,1890,1889,1889,1889,1890,1890,1892,1895,1896,1899,1899,1899,1896,1893,1890,1887,1882,1879,1876,1875,1872,1871,1870,1870,1872,1874,1877,1880,1885,1889,1894,1900,1908,1918,1929,1942,1955,1970,1986,2001,2016,2032,2049,2066,2083,2102,2121,2138,2154,2172,2188,2201,2221,2236,2247,2257,2268,2274,2281,2286,2287,2287,2285,2279,2272,2264,2257,2248,2239,2229,2218,2207,2196,2184,2174,2163,2152,2143,2134,2126,2120,2115,2109,2106,2103,2101,2100,2099,2100,2101,2101,2102,2103,2104,2105,2107,2107,2108,2109,2107,2106,2103,2097,2091,2085,2077,2072,2068,2065,2065,2065,2064,2066,2067,2068,2069,2070,2071,2071,2072,2074,2074,2075,2076,2076,2075,2074,2072,2071,2069,2066,2065,2061,2058,2054,2049,2045,2040,2035,2031,2025,2020,2017,2013,2010,2008,2007,2004,1999,1996,1992,1989,1984,1980,1977,1972,1970,1968,1965,1962,1959,1954,1950,1944,1939,1935,1931,1929,1927,1923,1922,1921,1920,1920,1920,1919,1920,1920,1919,1920,1920,1921,1922,1924,1926,1927,1929,1930,1931,1930,1930,1928,1927,1922,1919,1915,1910,1904,1900,1893,1889,1885,1882,1881,1879,1880,1880,1881,1882,1884,1887,1890,1893,1895,1897,1898,1901,1903,1905,1908,1910,1910,1911,1910,1908,1907,1904,1900,1895,1890,1884,1877,1872,1866,1859,1853,1848,1842,1839,1835,1833,1831,1831,1831,1833,1836,1839,1842,1846,1849,1852,1856,1858,1860,1862,1865,1866,1869,1875,1881,1889,1899,1911,1924,1940,1956,1974,1993,2012,2030,2049,2068,2088,2107,2123,2139,2155,2168,2180,2191,2207,2216,2223,2228,2231,2234,2236,2238,2238,2238,2236,2235,2231,2227,2223,2219,2214,2209,2205,2201,2197,2192,2186,2181,2175,2170,2165,2159,2155,2150,2146,2144,2140,2137,2134,2132,2131,2130,2129,2131,2132,2131,2130,2128,2127,2125,2124,2122,2121,2120,2120,2119,2117,2116,2115,2114,2113,2113,2111,2110,2108,2106,2103,2101,2101,2101,2103,2103,2105,2106,2108,2110,2113,2113,2112,2113,2113,2112,2112,2112,2111,2111,2109,2106,2103,2098,2094,2089,2086,2081,2076,2073,2072,2069,2067,2063,2061,2059,2057,2055,2054,2052,2050,2046,2041,2038,2032,2024,2018,2013,2007,2001,1996,1991,1987,1983,1980,1977,1976,1974,1973,1972,1971,1967,1966,1960,1956,1953,1949,1946,1945,1943,1941,1940,1940,1938,1937,1936,1932,1929,1927,1925,1922,1922,1921,1920,1921,1920,1918,1917,1916,1915,1914,1914,1915,1916,1916,1918,1919,1921,1925,1929,1934,1937,1941,1945,1944,1943,1941,1936,1930,1925,1918,1913,1909,1906,1904,1903,1903,1902,1902,1901,1899,1899,1896,1896,1894,1892,1889,1888,1887,1887,1887,1887,1889,1890,1891,1891,1891,1891,1891,1890,1889,1887,1885,1883,1881,1878,1876,1874,1872,1871,1868,1866,1865,1863,1861,1860,1859,1859,1858,1858,1859,1860,1861,1864,1870,1877,1886,1897,1910,1923,1938,1953,1969,1985,2005,2025,2047,2067,2088,2109,2129,2149,2168,2185,2200,2214,2233,2245,2255,2263,2271,2277,2283,2287,2290,2293,2294,2294,2291,2288,2285,2282,2278,2273,2270,2266,2263,2261,2258,2254,2253,2251,2249,2247,2244,2242,2238,2238,2236,2235,2234,2234,2233,2231,2229,2225,2221,2218,2213,2209,2204,2198,2190,2182,2172,2162,2153,2144,2135,2128,2122,2117,2114,2112,2110,2111,2113,2117,2121,2125,2130,2132,2134,2135,2134,2133,2130,2128,2126,2124,2124,2122,2121,2120,2117,2113,2110,2107,2105,2103,2101,2099,2098,2096,2095,2093,2092,2091,2089,2086,2083,2078,2074,2067,2061,2055,2048,2043,2039,2033,2029,2023,2018,2014,2009,2007,2004,2001,1999,1997,1994,1992,1990,1988,1987,1984,1982,1980,1979,1977,1977,1977,1978,1979,1981,1983,1985,1986,1986,1986,1985,1982,1977,1971,1965,1959,1952,1949,1944,1940,1935,1932,1927,1923,1919,1916,1914,1911,1908,1906,1905,1903,1902,1900,1901,1901,1902,1903,1904,1906,1906,1908,1911,1913,1916,1918,1920,1922,1922,1922,1919,1917,1915,1913,1910,1911,1910,1909,1909,1909,1909,1910,1910,1908,1907,1906,1904,1903,1902,1901,1899,1899,1896,1893,1891,1887,1886,1885,1881,1880,1877,1875,1872,1870,1867,1865,1865,1864,1866,1868,1874,1880,1888,1898,1910,1923,1936,1952,1969,1988,2007,2027,2046,2065,2084,2104,2122,2140,2157,2174,2189,2209,2226,2235,2245,2252,2258,2264,2268,2271,2274,2275,2274,2273,2271,2267,2263,2257,2253,2248,2242,2238,2235,2231,2227,2223,2217,2211,2204,2197,2192,2185,2180,2172,2167,2161,2155,2148,2140,2134,2129,2124,2121,2119,2118,2117,2117,2118,2120,2124,2127,2132,2135,2139,2142,2145,2147,2148,2147,2144,2143,2140,2137,2136,2133,2131,2129,2127,2126,2127,2128,2129,2131,2134,2137,2138,2137,2137,2136,2135,2133,2131,2127,2124,2121,2117,2115,2111,2108,2104,2100,2095,2093,2091,2090,2089,2087,2085,2083,2081,2078,2074,2070,2065,2060,2054,2048,2042,2038,2033,2029,2026,2023,2020,2019,2017,2016,2014,2012,2011,2009,2008,2006,2006,2003,2002,1998,1994,1989,1982,1977,1971,1966,1960,1955,1950,1944,1938,1935,1930,1927,1925,1923,1922,1922,1922,1923,1924,1926,1927,1929,1931,1931,1931,1933,1933,1934,1936,1936,1938,1940,1941,1940,1940,1939,1938,1936,1934,1933,1931,1929,1927,1926,1924,1923,1922,1921,1921,1920,1919,1920,1921,1919,1920,1920,1921,1922,1921,1923,1926,1929,1934,1938,1941,1946,1950,1956,1963,1971,1982,1993,2006,2020,2037,2053,2068,2086,2102,2121,2139,2158,2176,2193,2207,2221,2234,2244,2253,2266,2274,2278,2279,2281,2279,2276,2271,2265,2259,2254,2250,2247,2245,2244,2243,2241,2240,2239,2235,2232,2229,2225,2221,2216,2213,2209,2204,2199,2195,2191,2188,2186,2184,2182,2179,2175,2171,2168,2164,2160,2155,2151,2148,2144,2141,2138,2137,2135,2134,2132,2131,2130,2129,2128,2129,2127,2128,2127,2126,2125,2127,2128,2129,2130,2132,2133,2134,2134,2134,2133,2131,2128,2125,2123,2120,2118,2115,2114,2111,2108,2104,2101,2096,2093,2091,2087,2086,2088,2089,2090,2090,2091,2092,2091,2089,2087,2085,2084,2082,2080,2077,2074,2068,2061,2054,2049,2043,2039,2035,2029,2026,2023,2020,2017,2016,2014,2014,2013,2013,2014,2013,2013,2012,2011,2010,2007,2006,2003,1999,1993,1986,1978,1973,1966,1960,1956,1954,1951,1952,1952,1953,1956,1957,1958,1958,1960,1960,1962,1964,1965,1966,1967,1969,1970,1971,1970,1970,1970,1969,1967,1962,1958,1952,1947,1940,1935,1929,1924,1920,1916,1913,1910,1911,1910,1911,1912,1915,1915,1917,1918,1919,1919,1921,1922,1923,1924,1923,1922,1922,1920,1920,1919,1919,1920,1918,1918,1914,1912,1910,1909,1908,1909,1910,1913,1914,1917,1923,1930,1942,1955,1969,1987,2006,2024,2044,2064,2083,2103,2123,2142,2163,2182,2200,2217,2232,2245,2264,2279,2289,2298,2305,2308,2312,2314,2316,2318,2319,2321,2321,2321,2320,2318,2315,2313,2309,2306,2304,2301,2298,2293,2289,2283,2278,2272,2267,2262,2256,2252,2247,2243,2237,2233,2229,2226,2221,2219,2218,2217,2216,2216,2216,2215,2215,2216,2216,2218,2219,2220,2221,2222,2224,2225,2227,2229,2229,2229,2226,2223,2218,2215,2210,2205,2202,2200,2199,2198,2199,2199,2199,2197,2196,2195,2193,2192,2189,2187,2184,2181,2177,2174,2171,2168,2164,2160,2155,2151,2146,2142,2135,2128,2121,2114,2108,2101,2096,2092,2091,2089,2088,2088,2087,2087,2087,2088,2089,2088,2089,2090,2089,2087,2084,2081,2076,2072,2068,2062,2055,2047,2039,2031,2023,2015,2006,1998,1990,1985,1981,1978,1975,1974,1974,1974,1972,1972,1969,1968,1965,1964,1963,1963,1965,1967,1971,1976,1981,1986,1990,1995,1999,2000,2001,2000,1997,1993,1988,1983,1978,1975,1974,1970,1970,1970,1971,1971,1972,1972,1970,1968,1966,1963,1961,1959,1959,1958,1960,1962,1960,1961,1960,1960,1959,1956,1952,1947,1942,1935,1928,1922,1915,1909,1905,1902,1900,1898,1898,1899,1900,1903,1907,1911,1918,1925,1931,1938,1944,1949,1952,1955,1956,1957,1958,1958,1958,1957,1956,1954,1953,1952,1953,1954,1957,1962,1969,1978,1990,2003,2018,2037,2057,2078,2101,2125,2147,2169,2190,2209,2228,2244,2258,2272,2284,2295,2310,2322,2329,2336,2342,2345,2347,2347,2347,2345,2344,2342,2338,2336,2331,2327,2323,2319,2315,2311,2308,2305,2303,2302,2300,2297,2296,2291,2289,2287,2283,2280,2278,2272,2269,2263,2259,2256,2253,2252,2250,2250,2250,2249,2248,2246,2243,2239,2235,2229,2225,2221,2216,2213,2211,2208,2205,2201,2197,2195,2193,2190,2188,2187,2187,2185,2184,2183,2183,2183,2182,2181,2180,2179,2178,2175,2173,2173,2170,2170,2170,2171,2174,2175,2176,2174,2170,2165,2159,2152,2146,2139,2133,2128,2124,2120,2119,2118,2117,2117,2116,2117,2118,2119,2120,2120,2119,2117,2113,2109,2105,2098,2092,2086,2080,2074,2070,2066,2064,2060,2057,2053,2051,2047,2044,2041,2039,2038,2036,2033,2030,2027,2026,2023,2021,2020,2017,2016,2014,2009,2005,2000,1995,1990,1985,1979,1974,1970,1965,1961,1959,1955,1952,1950,1949,1948,1948,1949,1950,1951,1950,1948,1945,1941,1936,1931,1927,1924,1923,1922,1923,1926,1928,1931,1934,1938,1942,1944,1945,1946,1946,1948,1948,1950,1950,1948,1947,1945,1944,1941,1938,1938,1936,1934,1931,1929,1927,1928,1926,1924,1924,1925,1928,1931,1937,1944,1955,1967,1980,1995,2012,2030,2051,2072,2093,2113,2134,2154,2172,2191,2209,2225,2239,2252,2266,2272,2275,2276,2275,2275,2274,2273,2273,2272,2270,2267,2266,2263,2260,2257,2253,2251,2246,2242,2237,2231,2226,2220,2213,2208,2201,2195,2188,2183,2179,2175,2172,2170,2168,2165,2163,2160,2159,2157,2157,2157,2157,2158,2159,2159,2158,2157,2156,2153,2150,2146,2144,2141,2138,2136,2132,2128,2126,2121,2119,2114,2112,2110,2109,2109,2108,2108,2108,2110,2111,2114,2118,2121,2123,2123,2122,2122,2119,2116,2114,2112,2109,2105,2104,2102,2100,2098,2095,2091,2086,2078,2072,2065,2057,2051,2045,2040,2033,2026,2020,2012,2006,2001,1997,1993,1990,1988,1986,1986,1984,1984,1981,1978,1976,1973,1969,1963,1958,1951,1945,1938,1934,1928,1924,1921,1917,1914,1910,1907,1907,1906,1909,1913,1916,1919,1921,1924,1927,1928,1929,1930,1931,1932,1934,1936,1938,1941,1941,1941,1939,1937,1933,1928,1922,1918,1913,1910,1908,1906,1905,1903,1900,1898,1895,1891,1889,1885,1884,1883,1882,1882,1882,1881,1881,1882,1882,1883,1883,1885,1887,1889,1892,1894,1899,1904,1910,1919,1929,1941,1954,1967,1982,1996,2013,2033,2053,2072,2090,2109,2128,2146,2162,2178,2194,2209,2223,2240,2251,2260,2267,2270,2271,2270,2267,2263,2259,2256,2252,2246,2239,2231,2223,2215,2208,2202,2196,2192,2188,2185,2183,2183,2182,2181,2181,2180,2178,2176,2174,2172,2170,2168,2166,2165,2163,2161,2160,2158,2158,2156,2156,2156,2154,2155,2154,2154,2152,2150,2146,2142,2138,2132,2125,2120,2114,2109,2104,2101,2100,2099,2098,2099,2099,2100,2101,2102,2103,2104,2105,2105,2105,2103,2101,2098,2095,2092,2090,2089,2086,2088,2086,2086,2087,2086,2084,2082,2079,2076,2073,2069,2066,2062,2057,2051,2042,2034,2025,2013,2004,1994,1984,1976,1968,1962,1955,1950,1946,1943,1940,1938,1936,1934,1933,1933,1935,1936,1937,1939,1941,1942,1943,1942,1944,1944,1945,1945,1945,1943,1940,1938,1933,1929,1922,1917,1913,1909,1906,1905,1905,1907,1909,1912,1914,1915,1914,1912,1910,1907,1903,1900,1898,1897,1895,1892,1890,1886,1881,1877,1872,1869,1869,1869,1872,1874,1876,1879,1883,1886,1887,1887,1885,1884,1883,1883,1885,1888,1891,1894,1897,1898,1898,1897,1895,1891,1887,1884,1880,1876,1874,1872,1871,1869,1867,1868,1869,1870,1872,1872,1871,1870,1866,1864,1858,1857,1855,1856,1858,1862,1868,1875,1883,1892,1903,1914,1928,1942,1956,1972,1989,2006,2025,2043,2063,2081,2102,2121,2140,2160,2177,2191,2210,2221,2229,2234,2238,2241,2244,2246,2247,2249,2251,2253,2254,2255,2252,2252,2250,2247,2245,2242,2238,2234,2228,2222,2217,2213,2207,2203,2198,2196,2194,2191,2191,2191,2191,2193,2196,2201,2206,2212,2216,2221,2225,2227,2228,2225,2220,2215,2206,2197,2189,2180,2173,2166,2161,2157,2154,2154,2152,2150,2151,2151,2152,2151,2152,2150,2148,2146,2143,2138,2134,2128,2122,2116,2110,2106,2105,2104,2100,2099,2096,2094,2090,2087,2084,2080,2076,2074,2071,2069,2067,2064,2059,2056,2053,2049,2046,2044,2043,2042,2044,2045,2047,2048,2050,2052,2053,2052,2052,2051,2049,2048,2044,2042,2040,2038,2036,2032,2028,2024,2020,2015,2008,2003,1998,1993,1989,1983,1979,1976,1972,1970,1971,1972,1973,1976,1977,1977,1974,1969,1963,1955,1949,1943,1938,1935,1931,1928,1927,1926,1926,1926,1927,1927,1927,1929,1932,1935,1938,1942,1947,1950,1953,1957,1959,1959,1959,1958,1956,1954,1951,1948,1945,1940,1937,1932,1928,1923,1917,1912,1907,1904,1901,1899,1898,1898,1898,1897,1894,1890,1885,1881,1877,1874,1874,1874,1876,1877,1877,1876,1875,1873,1870,1867,1866,1864,1862,1863,1863,1865,1866,1867,1866,1864,1861,1860,1858,1858,1858,1860,1863,1867,1871,1875,1878,1881,1884,1888,1891,1897,1904,1912,1920,1929,1938,1948,1959,1969,1980,1993,2005,2019,2036,2054,2072,2093,2114,2135,2155,2174,2192,2207,2220,2232,2239,2245,2248,2249,2249,2249,2248,2245,2243,2240,2235,2231,2225,2218,2212,2206,2201,2196,2193,2192,2191,2192,2191,2191,2191,2190,2189,2189,2188,2185,2183,2180,2177,2173,2168,2163,2158,2154,2149,2146,2143,2142,2141,2141,2142,2142,2144,2144,2144,2143,2139,2137,2135,2133,2130,2129,2126,2124,2123,2122,2123,2124,2124,2125,2126,2125,2123,2121,2119,2116,2114,2113,2113,2114,2116,2117,2118,2117,2116,2114,2110,2104,2101,2096,2092,2089,2086,2086,2082,2081,2078,2077,2076,2077,2076,2077,2073,2069,2063,2056,2048,2041,2035,2029,2022,2018,2015,2013,2011,2008,2007,2004,2001,1998,1997,1995,1994,1993,1993,1992,1991,1991,1990,1988,1987,1987,1984,1981,1977,1972,1965,1958,1953,1945,1938,1929,1923,1917,1913,1912,1913,1916,1920,1925,1930,1935,1938,1940,1938,1937,1934,1932,1930,1928,1926,1924,1919,1916,1913,1910,1907,1904,1901,1899,1898,1896,1895,1895,1895,1894,1895,1896,1897,1899,1900,1901,1901,1898,1896,1893,1888,1884,1882,1880,1879,1877,1874,1870,1866,1862,1858,1856,1855,1855,1857,1862,1869,1878,1887,1898,1910,1924,1938,1954,1969,1984,1999,2012,2026,2039,2054,2068,2083,2100,2123,2141,2155,2168,2181,2193,2202,2211,2219,2224,2229,2232,2234,2234,2235,2235,2236,2237,2237,2238,2237,2236,2234,2232,2227,2223,2218,2211,2206,2199,2193,2188,2182,2179,2174,2167,2163,2158,2151,2145,2140,2133,2129,2126,2122,2119,2116,2114,2112,2110,2109,2108,2110,2112,2115,2119,2122,2127,2131,2134,2137,2138,2137,2136,2132,2128,2123,2121,2117,2112,2111,2108,2107,2106,2107,2103,2101,2099,2098,2097,2095,2094,2090,2088,2085,2083,2082,2081,2081,2080,2079,2077,2074,2072,2068,2065,2062,2058,2055,2050,2047,2043,2039,2034,2030,2025,2024,2024,2024,2026,2026,2027,2026,2026,2026,2025,2024,2023,2020,2016,2014,2009,2007,2003,1999,1997,1994,1991,1987,1985,1981,1979,1974,1972,1967,1962,1956,1949,1943,1939,1933,1931,1931,1930,1931,1933,1935,1938,1941,1944,1946,1946,1946,1943,1939,1935,1932,1928,1925,1924,1925,1927,1929,1930,1931,1933,1935,1936,1939,1942,1942,1941,1940,1935,1932,1929,1925,1921,1917,1913,1909,1904,1900,1898,1896,1893,1890,1887,1883,1879,1875,1871,1868,1865,1864,1864,1864,1866,1871,1877,1884,1894,1905,1918,1934,1950,1967,1986,2005,2025,2044,2064,2082,2098,2114,2129,2144,2158,2172,2193,2210,2224,2236,2250,2262,2275,2285,2293,2300,2304,2306,2305,2302,2298,2292,2285,2278,2270,2261,2252,2244,2238,2233,2228,2223,2219,2214,2210,2204,2199,2195,2191,2186,2184,2181,2177,2175,2171,2169,2167,2167,2167,2168,2169,2172,2175,2178,2181,2182,2184,2184,2184,2181,2179,2176,2174,2169,2166,2163,2159,2155,2151,2148,2146,2146,2147,2150,2152,2155,2157,2159,2160,2163,2164,2165,2167,2167,2165,2163,2158,2154,2148,2142,2135,2127,2121,2114,2108,2105,2101,2099,2098,2097,2095,2092,2091,2089,2087,2084,2081,2076,2071,2063,2059,2053,2048,2044,2039,2033,2028,2023,2020,2018,2015,2013,2010,2007,2003,2000,1997,1994,1992,1988,1984,1980,1978,1975,1972,1969,1966,1964,1963,1963,1962,1962,1964,1966,1968,1971,1973,1975,1978,1978,1979,1979,1980,1980,1979,1978,1976,1974,1971,1969,1966,1964,1964,1963,1962,1960,1961,1961,1964,1966,1968,1971,1973,1975,1978,1980,1980,1980,1980,1977,1974,1970,1965,1959,1955,1950,1947,1943,1938,1936,1935,1936,1938,1939,1940,1941,1940,1939,1936,1935,1933,1931,1929,1925,1923,1918,1915,1910,1906,1900,1895,1891,1885,1881,1878,1876,1874,1874,1872,1871,1869,1869,1866,1866,1866,1868,1869,1873,1878,1884,1894,1904,1918,1933,1949,1967,1986,2004,2025,2045,2068,2088,2110,2130,2149,2167,2184,2199,2214,2237,2256,2270,2284,2299,2313,2324,2335,2345,2353,2359,2362,2364,2364,2361,2356,2351,2342,2334,2326,2318,2308,2300,2290,2280,2271,2262,2253,2244,2236,2228,2221,2214,2210,2206,2203,2201,2200,2201,2204,2204,2208,2210,2214,2218,2218,2219,2218,2217,2213,2208,2203,2198,2194,2190,2188,2186,2185,2183,2184,2184,2187,2190,2192,2192,2192,2191,2189,2187,2183,2181,2178,2174,2171,2166,2163,2159,2157,2155,2154,2152,2150,2146,2144,2139,2135,2130,2126,2123,2121,2118,2115,2115,2113,2114,2116,2120,2121,2125,2128,2129,2131,2132,2131,2128,2125,2120,2112,2105,2096,2086,2077,2067,2059,2052,2044,2040,2034,2027,2022,2015,2009,2003,1997,1992,1987,1984,1982,1980,1981,1981,1983,1984,1985,1985,1983,1980,1976,1971,1965,1959,1955,1951,1949,1948,1947,1947,1947,1948,1947,1945,1943,1940,1938,1935,1933,1932,1931,1931,1932,1934,1939,1942,1947,1950,1949,1947,1945,1940,1936,1932,1931,1928,1926,1925,1924,1922,1920,1919,1918,1917,1919,1920,1920,1918,1916,1912,1908,1902,1898,1894,1892,1890,1888,1884,1880,1877,1873,1872,1870,1869,1869,1870,1870,1870,1869,1868,1866,1867,1867,1868,1869,1873,1876,1880,1885,1890,1895,1899,1905,1910,1917,1924,1933,1943,1957,1971,1986,2002,2018,2037,2054,2072,2088,2104,2121,2137,2154,2170,2188,2205,2222,2239,2264,2282,2293,2303,2309,2312,2315,2314,2311,2308,2304,2299,2294,2287,2281,2273,2265,2258,2249,2239,2231,2222,2214,2207,2202,2197,2192,2188,2186,2183,2181,2182,2183,2182,2182,2182,2180,2179,2177,2178,2177,2176,2175,2172,2167,2163,2158,2152,2146,2139,2132,2126,2121,2117,2113,2109,2106,2104,2105,2107,2112,2115,2121,2125,2129,2132,2135,2138,2139,2140,2140,2137,2134,2131,2127,2122,2120,2117,2116,2113,2112,2110,2106,2101,2096,2093,2089,2085,2083,2081,2079,2078,2078,2077,2074,2074,2072,2070,2067,2062,2054,2046,2037,2029,2023,2017,2012,2009,2007,2004,2002,1999,1996,1992,1988,1986,1983,1981,1978,1975,1973,1971,1971,1969,1968,1967,1966,1966,1964,1962,1959,1957,1953,1949,1945,1942,1939,1938,1938,1936,1937,1937,1939,1939,1942,1942,1942,1941,1940,1937,1936,1933,1931,1928,1925,1923,1918,1916,1916,1914,1913,1914,1914,1914,1915,1915,1913,1911,1908,1907,1906,1905,1905,1905,1905,1905,1905,1906,1907,1908,1910,1911,1913,1913,1913,1913,1913,1916,1921,1927,1934,1941,1951,1960,1970,1981,1993,2008,2021,2037,2055,2074,2095,2116,2134,2151,2166,2182,2195,2207,2219,2228,2238,2248,2253,2255,2258,2260,2259,2259,2259,2256,2254,2251,2247,2242,2237,2231,2224,2218,2213,2207,2203,2198,2191,2184,2176,2169,2163,2159,2155,2153,2151,2149,2146,2141,2136,2130,2124,2119,2114,2111,2110,2108,2109,2110,2109,2109,2108,2107,2105,2104,2104,2101,2099,2095,2092,2090,2088,2087,2087,2088,2090,2091,2092,2094,2097,2098,2100,2100,2101,2101,2101,2101,2100,2098,2098,2097,2095,2092,2088,2085,2082,2078,2075,2071,2068,2065,2062,2059,2058,2056,2055,2052,2050,2047,2047,2044,2041,2038,2036,2032,2028,2024,2020,2016,2013,2009,2005,2000,1995,1991,1989,1987,1986,1984,1983,1982,1980,1978,1978,1978,1977,1976,1974,1972,1971,1969,1967,1964,1960,1956,1951,1946,1941,1937,1932,1928,1924,1919,1916,1913,1910,1907,1906,1905,1904,1904,1904,1905,1906,1907,1909,1909,1909,1911,1910,1908,1908,1905,1904,1901,1898,1896,1893,1892,1891,1892,1892,1891,1892,1895,1898,1901,1903,1905,1907,1909,1909,1908,1907,1905,1903,1902,1899,1899,1897,1896,1895,1896,1898,1901,1906,1914,1924,1935,1947,1962,1977,1995,2013,2032,2052,2070,2089,2108,2128,2146,2163,2180,2198,2215,2230,2251,2265,2275,2284,2293,2301,2309,2317,2322,2326,2329,2329,2327,2324,2320,2316,2309,2303,2297,2289,2284,2275,2268,2261,2253,2245,2239,2232,2226,2220,2214,2209,2205,2202,2200,2200,2201,2203,2203,2205,2207,2209,2211,2213,2214,2212,2211,2209,2206,2202,2199,2194,2189,2185,2179,2174,2169,2164,2161,2157,2154,2152,2151,2149,2149,2150,2150,2151,2151,2151,2150,2150,2149,2148,2145,2141,2137,2131,2126,2120,2114,2107,2101,2095,2089,2084,2079,2076,2072,2069,2066,2064,2062,2059,2058,2056,2056,2055,2054,2050,2048,2044,2040,2036,2031,2027,2022,2016,2010,2005,2002,1997,1996,1992,1990,1985,1979,1975,1970,1966,1963,1961,1960,1960,1960,1962,1963,1965,1967,1969,1973,1976,1978,1980,1982,1980,1976,1972,1967,1962,1959,1956,1952,1949,1945,1941,1937,1934,1930,1928,1925,1924,1923,1923,1924,1926,1928,1931,1935,1938,1942,1946,1950,1952,1954,1952,1951,1947,1943,1940,1935,1930,1927,1923,1918,1913,1908,1903,1900,1896,1894,1894,1893,1893,1896,1897,1898,1900,1903,1904,1907,1908,1909,1909,1908,1907,1905,1905,1905,1904,1904,1905,1908,1910,1912,1917,1922,1929,1937,1947,1959,1972,1987,2005,2023,2044,2065,2090,2114,2140,2165,2188,2211,2232,2249,2267,2283,2295,2307,2321,2327,2332,2334,2336,2336,2335,2335,2334,2334,2333,2333,2332,2330,2328,2326,2321,2317,2312,2307,2301,2293,2286,2278,2271,2263,2256,2251,2247,2244,2242,2240,2237,2234,2230,2225,2221,2218,2217,2216,2218,2221,2225,2228,2230,2230,2230,2228,2225,2219,2214,2210,2207,2205,2204,2204,2205,2207,2210,2213,2214,2216,2215,2213,2209,2205,2200,2193,2189,2183,2179,2175,2171,2165,2161,2157,2151,2147,2144,2140,2138,2136,2135,2136,2136,2137,2137,2138,2139,2141,2142,2143,2143,2143,2143,2141,2137,2132,2127,2119,2109,2100,2090,2082,2075,2068,2063,2059,2057,2055,2052,2051,2048,2047,2046,2044,2041,2038,2034,2029,2024,2022,2018,2015,2012,2009,2006,2002,1997,1991,1985,1979,1972,1969,1967,1966,1966,1966,1968,1969,1969,1970,1969,1969,1968,1968,1966,1965,1961,1958,1956,1951,1948,1944,1940,1938,1935,1933,1928,1924,1920,1917,1913,1909,1905,1900,1896,1893,1891,1891,1892,1893,1895,1899,1901,1905,1911,1915,1919,1921,1921,1921,1918,1915,1914,1911,1909,1908,1907,1907,1907,1907,1907,1909,1910,1913,1916,1918,1921,1922,1920,1918,1915,1913,1909,1905,1902,1899,1898,1897,1896,1894,1892,1891,1888,1885,1882,1879,1875,1873,1871,1870,1871,1872,1874,1877,1883,1892,1906,1922,1939,1957,1978,1998,2021,2045,2070,2093,2115,2136,2157,2176,2193,2210,2227,2240,2260,2273,2282,2290,2298,2304,2311,2317,2320,2324,2326,2328,2329,2329,2329,2326,2325,2320,2316,2311,2305,2298,2287,2278,2267,2257,2248,2240,2234,2226,2221,2214,2208,2204,2199,2197,2194,2192,2189,2187,2187,2189,2189,2190,2192,2192,2191,2190,2190,2189,2190,2190,2192,2192,2190,2189,2187,2185,2185,2184,2183,2182,2183,2183,2182,2184,2185,2185,2185,2186,2187,2188,2189,2189,2188,2188,2186,2186,2183,2181,2179,2177,2173,2170,2165,2161,2156,2152,2148,2145,2142,2139,2135,2133,2132,2132,2131,2132,2132,2132,2131,2131,2129,2127,2122,2116,2109,2103,2095,2086,2076,2065,2056,2047,2038,2029,2022,2015,2007,2002,1996,1991,1988,1985,1983,1980,1979,1979,1980,1980,1981,1983,1985,1986,1987,1988,1987,1986,1986,1983,1982,1979,1977,1974,1971,1966,1962,1958,1954,1948,1943,1938,1933,1929,1926,1923,1921,1918,1918,1918,1918,1919,1919,1920,1921,1922,1922,1925,1926,1927,1929,1930,1932,1933,1935,1935,1934,1932,1929,1928,1925,1922,1920,1916,1911,1907,1902,1898,1895,1892,1892,1890,1890,1891,1895,1899,1904,1912,1923,1937,1950,1965,1980,1997,2014,2032,2052,2072,2092,2113,2132,2153,2173,2193,2214,2231,2256,2272,2285,2296,2305,2313,2319,2323,2327,2329,2330,2331,2330,2327,2324,2321,2314,2309,2302,2295,2289,2284,2279,2273,2270,2267,2265,2264,2262,2261,2259,2256,2254,2251,2248,2242,2239,2236,2231,2227,2222,2216,2209,2203,2196,2190,2185,2181,2175,2169,2164,2157,2153,2148,2145,2141,2141,2141,2143,2146,2148,2151,2156,2159,2164,2168,2174,2179,2184,2187,2189,2189,2189,2188,2185,2182,2178,2172,2166,2159,2152,2146,2141,2136,2131,2128,2125,2124,2122,2119,2117,2115,2113,2111,2106,2101,2096,2090,2083,2077,2071,2065,2060,2055,2048,2042,2037,2031,2024,2018,2012,2006,2000,1995,1989,1986,1982,1979,1975,1971,1967,1964,1961,1959,1959,1957,1956,1956,1955,1954,1954,1955,1954,1953,1951,1951,1949,1946,1943,1941,1938,1936,1934,1933,1932,1931,1932,1932,1934,1935,1935,1936,1938,1940,1942,1944,1946,1946,1946,1946,1946,1945,1943,1942,1939,1937,1935,1933,1931,1928,1926,1923,1921,1920,1919,1918,1921,1922,1926,1929,1931,1935,1938,1941,1944,1947,1951,1955,1961,1968,1976,1986,1996,2007,2018,2033,2047,2061,2077,2093,2110,2127,2144,2163,2181,2202,2222,2241,2260,2276,2291,2306,2322,2332,2337,2340,2343,2345,2343,2342,2339,2336,2330,2325,2320,2314,2310,2304,2301,2296,2293,2289,2287,2285,2283,2282,2282,2281,2279,2278,2276,2275,2272,2270,2267,2267,2266,2266,2266,2265,2263,2261,2257,2252,2246,2240,2233,2226,2219,2213,2206,2202,2200,2198,2196,2194,2192,2189,2187,2184,2181,2179,2176,2174,2174,2174,2175,2175,2176,2176,2176,2174,2172,2171,2169,2167,2165,2165,2162,2160,2158,2153,2152,2150,2148,2148,2145,2145,2143,2140,2135,2130,2124,2115,2107,2097,2088,2078,2070,2063,2057,2052,2047,2046,2043,2042,2039,2039,2037,2035,2033,2032,2031,2030,2029,2026,2025,2023,2021,2018,2019,2017,2017,2015,2013,2010,2007,2002,1999,1997,1995,1994,1991,1990,1987,1987,1986,1984,1984,1983,1982,1981,1982,1981,1980,1979,1977,1973,1969,1962,1958,1952,1946,1941,1939,1935,1933,1932,1933,1934,1934,1936,1939,1937,1938,1936,1934,1932,1929,1925,1921,1916,1911,1907,1904,1901,1897,1895,1892,1889,1886,1883,1881,1880,1879,1878,1877,1877,1875,1873,1872,1869,1868,1867,1866,1866,1866,1867,1869,1871,1874,1878,1884,1891,1900,1910,1922,1938,1956,1975,1997,2021,2047,2072,2097,2123,2148,2172,2194,2216,2236,2254,2272,2289,2311,2325,2335,2344,2353,2360,2365,2369,2373,2375,2376,2377,2377,2375,2373,2370,2366,2361,2354,2349,2343,2337,2333,2329,2326,2322,2320,2317,2316,2314,2310,2308,2302,2300,2296,2293,2290,2288,2284,2280,2277,2275,2271,2268,2267,2265,2264,2263,2262,2261,2261,2261,2260,2259,2259,2258,2259,2258,2256,2255,2253,2250,2247,2244,2238,2233,2227,2220,2213,2207,2201,2196,2192,2190,2188,2188,2187,2186,2184,2181,2180,2176,2173,2171,2168,2166,2164,2163,2162,2161,2160,2159,2157,2154,2149,2145,2138,2132,2125,2119,2115,2110,2105,2101,2098,2095,2094,2092,2091,2090,2088,2086,2083,2080,2077,2072,2066,2059,2050,2041,2034,2024,2015,2007,1999,1992,1985,1979,1973,1969,1964,1962,1960,1958,1959,1959,1961,1963,1966,1968,1970,1972,1974,1976,1976,1974,1970,1966,1961,1955,1949,1942,1935,1929,1922,1917,1914,1912,1912,1912,1913,1913,1914,1916,1916,1915,1915,1914,1914,1915,1916,1917,1920,1924,1929,1935,1940,1947,1951,1953,1952,1949,1944,1937,1929,1923,1915,1909,1904,1898,1895,1893,1891,1889,1887,1884,1880,1875,1870,1866,1862,1857,1854,1851,1850,1847,1847,1845,1846,1846,1848,1851,1854,1857,1859,1860,1862,1863,1866,1872,1879,1889,1902,1915,1932,1950,1972,1995,2018,2042,2066,2088,2110,2131,2153,2174,2193,2212,2230,2248,2270,2285,2295,2304,2310,2313,2317,2316,2316,2315,2313,2312,2307,2306,2302,2300,2298,2294,2289,2285,2280,2276,2271,2267,2265,2264,2262,2260,2258,2255,2253,2249,2247,2244,2241,2240,2239,2238,2236,2232,2228,2222,2217,2210,2205,2200,2194,2190,2185,2180,2176,2173,2172,2173,2175,2176,2179,2183,2188,2190,2194,2197,2198,2198,2195,2193,2189,2185,2180,2176,2171,2166,2160,2154,2148,2141,2135,2128,2121,2114,2109,2104,2100,2097,2095,2093,2093,2093,2092,2092,2093,2093,2092,2090,2087,2083,2078,2073,2070,2064,2056,2050,2043,2036,2031,2024,2019,2013,2009,2007,2004,2001,1997,1994,1990,1986,1984,1981,1980,1980,1979,1976,1972,1967,1961,1954,1946,1938,1931,1925,1920,1917,1915,1913,1913,1914,1913,1913,1913,1914,1915,1915,1915,1913,1912,1910,1908,1907,1906,1904,1904,1902,1902,1901,1899,1897,1894,1892,1889,1888,1886,1884,1881,1880,1876,1874,1873,1872,1871,1869,1868,1867,1864,1863,1861,1857,1856,1854,1853,1852,1853,1855,1857,1858,1858,1856,1854,1852,1849,1846,1843,1839,1835,1831,1828,1825,1824,1824,1826,1829,1835,1843,1850,1859,1870,1884,1899,1918,1936,1956,1976,1995,2014,2034,2052,2071,2088,2107,2122,2138,2150,2169,2184,2196,2208,2220,2231,2240,2248,2254,2260,2263,2264,2263,2262,2260,2258,2255,2253,2250,2249,2246,2242,2238,2231,2224,2215,2207,2198,2192,2187,2183,2182,2183,2183,2182,2183,2183,2183,2181,2180,2178,2174,2171,2167,2162,2155,2148,2140,2132,2123,2116,2108,2102,2097,2092,2086,2083,2077,2074,2071,2071,2069,2070,2070,2072,2074,2078,2082,2087,2093,2099,2105,2108,2111,2115,2116,2118,2118,2117,2116,2115,2113,2111,2109,2107,2103,2099,2094,2090,2084,2077,2071,2063,2056,2051,2046,2041,2036,2032,2030,2029,2025,2022,2018,2013,2007,2001,1994,1988,1982,1979,1976,1973,1970,1967,1961,1957,1951,1945,1939,1935,1930,1928,1926,1924,1924,1921,1920,1918,1916,1915,1913,1912,1909,1906,1902,1898,1895,1893,1891,1889,1889,1889,1891,1893,1895,1898,1902,1903,1906,1906,1909,1908,1907,1909,1907,1906,1903,1901,1898,1897,1896,1895,1895,1896,1898,1900,1904,1908,1912,1915,1919,1922,1923,1923,1921,1917,1911,1905,1899,1895,1890,1886,1882,1878,1874,1870,1868,1864,1862,1860,1859,1858,1860,1863,1866,1870,1876,1882,1889,1897,1906,1917,1928,1941,1957,1973,1991,2010,2030,2051,2070,2089,2110,2127,2147,2166,2185,2206,2225,2244,2268,2286,2298,2308,2316,2323,2330,2335,2340,2344,2348,2351,2352,2351,2348,2342,2335,2328,2317,2308,2296,2287,2277,2269,2262,2257,2253,2250,2248,2246,2244,2243,2241,2241,2241,2241,2242,2241,2241,2238,2235,2230,2225,2221,2216,2212,2207,2204,2199,2197,2193,2191,2188,2185,2180,2175,2171,2165,2158,2151,2145,2140,2134,2129,2123,2120,2118,2115,2115,2116,2117,2118,2119,2120,2120,2119,2117,2116,2112,2110,2108,2109,2111,2114,2117,2121,2124,2128,2132,2132,2133,2131,2128,2124,2119,2112,2107,2099,2092,2084,2076,2069,2061,2052,2042,2031,2020,2009,1998,1988,1978,1971,1965,1959,1957,1954,1952,1951,1951,1951,1949,1949,1948,1946,1946,1944,1944,1944,1942,1941,1941,1942,1942,1943,1944,1945,1945,1946,1946,1946,1945,1946,1945,1942,1941,1939,1939,1938,1939,1938,1938,1936,1935,1931,1928,1923,1917,1913,1907,1902,1898,1894,1891,1889,1886,1884,1880,1878,1874,1871,1869,1869,1869,1869,1870,1871,1871,1872,1873,1874,1875,1876,1877,1879,1880,1880,1880,1878,1876,1875,1874,1872,1870,1868,1865,1861,1856,1850,1846,1840,1836,1834,1831,1829,1829,1828,1828,1827,1827,1826,1824,1824,1824,1826,1828,1832,1837,1841,1846,1852,1857,1864,1870,1876,1883,1892,1900,1909,1919,1931,1944,1959,1976,1993,2013,2034,2056,2078,2101,2124,2147,2169,2190,2211,2231,2249,2265,2281,2296,2315,2329,2339,2347,2356,2362,2366,2369,2369,2368,2363,2359,2353,2345,2338,2328,2319,2310,2298,2288,2277,2267,2258,2250,2243,2237,2232,2228,2225,2223,2220,2217,2214,2213,2211,2210,2209,2210,2210,2211,2211,2212,2213,2213,2213,2213,2212,2210,2207,2204,2200,2196,2194,2191,2190,2187,2186,2185,2185,2184,2185,2184,2185,2184,2183,2181,2179,2179,2177,2175,2172,2171,2169,2166,2165,2162,2161,2158,2154,2149,2145,2141,2136,2133,2128,2125,2123,2120,2118,2117,2115,2113,2112,2111,2105,2103,2099,2094,2084,2076,2066,2056,2045,2034,2025,2017,2010,2003,1998,1991,1987,1981,1977,1974,1971,1968,1966,1963,1961,1960,1958,1956,1955,1955,1952,1951,1949,1948,1944,1941,1938,1934,1931,1930,1928,1927,1926,1923,1923,1920,1918,1916,1913,1913,1911,1909,1908,1907,1904,1901,1898,1895,1894,1893,1891,1890,1887,1886,1883,1882,1882,1885,1890,1894,1900,1904,1908,1910,1913,1912,1913,1912,1910,1908,1906,1904,1903,1901,1899,1895,1891,1885,1881,1876,1873,1870,1869,1868,1868,1868,1869,1870,1872,1873,1874,1874,1874,1875,1874,1873,1870,1865,1862,1856,1851,1847,1844,1842,1842,1845,1848,1852,1859,1867,1877,1887,1900,1914,1930,1946,1964,1984,2004,2024,2046,2068,2092,2116,2138,2160,2183,2203,2222,2247,2263,2275,2284,2290,2296,2302,2307,2311,2313,2315,2315,2314,2313,2308,2303,2297,2292,2287,2279,2273,2265,2259,2253,2246,2241,2235,2230,2224,2217,2210,2204,2197,2190,2185,2180,2176,2172,2169,2168,2167,2166,2164,2162,2159,2155,2152,2147,2145,2141,2137,2134,2131,2130,2130,2132,2135,2138,2142,2148,2154,2160,2165,2169,2172,2175,2179,2181,2182,2183,2183,2181,2179,2176,2172,2167,2163,2157,2151,2144,2138,2131,2123,2116,2108,2101,2093,2086,2079,2073,2067,2061,2056,2052,2050,2047,2045,2044,2044,2043,2043,2042,2042,2041,2038,2034,2028,2023,2017,2010,2005,1999,1993,1986,1981,1975,1969,1965,1961,1957,1955,1954,1952,1953,1952,1952,1952,1952,1953,1952,1952,1952,1952,1949,1948,1946,1944,1941,1937,1932,1927,1924,1919,1916,1915,1912,1911,1910,1911,1911,1913,1913,1912,1912,1911,1911,1911,1912,1911,1910,1909,1909,1908,1906,1905,1904,1902,1900,1896,1890,1885,1880,1875,1871,1867,1864,1861,1860,1860,1860,1861,1863,1865,1867,1870,1872,1873,1878,1879,1881,1885,1888,1891,1896,1904,1912,1921,1930,1940,1951,1962,1974,1988,2004,2022,2041,2061,2079,2098,2116,2132,2146,2160,2172,2186,2196,2208,2224,2235,2244,2251,2257,2262,2265,2265,2265,2263,2259,2252,2245,2235,2227,2220,2213,2208,2205,2201,2199,2197,2194,2191,2189,2188,2185,2184,2180,2178,2174,2172,2169,2168,2164,2161,2156,2151,2147,2143,2136,2129,2121,2115,2108,2102,2096,2092,2090,2088,2087,2087,2086,2084,2083,2084,2085,2086,2089,2093,2096,2102,2105,2110,2114,2117,2119,2119,2120,2118,2116,2112,2109,2105,2101,2094,2088,2081,2075,2071,2068,2065,2061,2059,2058,2056,2053,2049,2045,2040,2035,2030,2024,2018,2011,2004,1997,1992,1986,1980,1976,1972,1968,1962,1958,1952,1946,1941,1937,1933,1930,1930,1929,1929,1928,1929,1930,1930,1931,1931,1931,1931,1930,1931,1930,1928,1927,1925,1923,1919,1916,1913,1910,1905,1902,1898,1894,1890,1886,1885,1885,1885,1886,1889,1892,1894,1895,1897,1899,1900,1900,1899,1899,1897,1895,1893,1889,1888,1886,1884,1884,1884,1884,1884,1883,1881,1878,1875,1871,1868,1863,1860,1856,1854,1853,1853,1853,1853,1854,1854,1853,1854,1855,1857,1860,1862,1865,1868,1873,1879,1885,1894,1902,1914,1927,1943,1960,1977,1995,2015,2035,2054,2075,2095,2118,2140,2162,2184,2204,2222,2240,2256,2278,2290,2299,2305,2310,2313,2315,2314,2311,2307,2303,2298,2290,2284,2278,2273,2270,2266,2264,2262,2259,2257,2255,2252,2248,2245,2241,2237,2233,2227,2222,2215,2209,2205,2200,2196,2191,2186,2182,2175,2169,2162,2154,2144,2135,2126,2120,2115,2112,2109,2107,2105,2104,2104,2103,2103,2103,2103,2104,2107,2109,2111,2114,2115,2117,2119,2120,2123,2124,2125,2125,2124,2123,2121,2119,2116,2114,2110,2107,2104,2098,2095,2090,2082,2077,2070,2063,2058,2053,2047,2041,2035,2030,2024,2020,2015,2011,2009,2007,2004,2003,2000,1998,1996,1994,1993,1989,1986,1984,1979,1978,1975,1974,1973,1970,1968,1965,1962,1960,1957,1955,1953,1952,1951,1951,1951,1953,1956,1958,1959,1959,1959,1960,1959,1959,1957,1957,1955,1953,1950,1947,1944,1939,1935,1931,1927,1924,1922,1919,1917,1916,1914,1910,1907,1903,1898,1891,1885,1879,1871,1866,1862,1859,1858,1857,1859,1862,1865,1869,1874,1878,1883,1889,1894,1898,1903,1906,1908,1909,1908,1907,1906,1905,1904,1902,1897,1894,1892,1888,1885,1881,1876,1871,1865,1858,1854,1851,1848,1845,1845,1844,1845,1845,1847,1849,1851,1851,1853,1854,1855,1857,1860,1863,1867,1871,1877,1883,1888,1894,1898,1902,1904,1907,1909,1915,1922,1933,1946,1961,1980,1999,2020,2042,2065,2090,2114,2137,2161,2184,2207,2229,2248,2266,2283,2297,2310,2324,2332,2336,2337,2336,2335,2333,2330,2326,2321,2314,2306,2299,2291,2283,2276,2271,2267,2264,2261,2260,2258,2256,2255,2253,2250,2247,2245,2241,2238,2235,2231,2228,2227,2224,2218,2215,2212,2207,2204,2202,2200,2200,2200,2199,2199,2198,2197,2196,2194,2192,2188,2186,2182,2178,2175,2172,2169,2166,2163,2160,2158,2155,2153,2150,2148,2147,2147,2148,2148,2149,2149,2150,2150,2151,2152,2153,2153,2154,2153,2154,2152,2151,2151,2148,2146,2142,2140,2136,2134,2128,2123,2116,2109,2100,2090,2080,2072,2065,2058,2052,2046,2041,2037,2033,2028,2025,2020,2016,2011,2007,2003,2000,1996,1993,1989,1986,1982,1981,1979,1976,1973,1970,1966,1962,1959,1955,1953,1949,1948,1946,1943,1943,1942,1942,1942,1942,1940,1940,1939,1938,1939,1940,1939,1941,1943,1945,1948,1948,1949,1950,1950,1949,1945,1940,1936,1929,1922,1914,1907,1901,1896,1890,1888,1886,1885,1886,1886,1886,1885,1885,1885,1883,1881,1880,1879,1877,1876,1876,1875,1876,1876,1876,1876,1876,1874,1871,1869,1866,1864,1863,1864,1863,1862,1863,1862,1863,1863,1863,1862,1862,1860,1860,1858,1859,1859,1861,1862,1866,1870,1874,1877,1879,1880,1879,1876,1873,1869,1865,1861,1857,1854,1852,1851,1852,1855,1858,1862,1867,1872,1880,1889,1900,1911,1925,1939,1954,1972,1990,2008,2026,2045,2065,2085,2104,2124,2145,2165,2184,2204,2230,2250,2264,2277,2288,2297,2306,2312,2317,2320,2322,2322,2322,2320,2319,2317,2315,2312,2309,2303,2297,2289,2282,2275,2267,2259,2253,2248,2242,2239,2237,2238,2239,2242,2244,2247,2250,2252,2253,2253,2253,2252,2250,2248,2245,2242,2238,2234,2230,2226,2223,2219,2215,2208,2203,2198,2194,2191,2188,2185,2182,2177,2174,2170,2168,2167,2165,2165,2164,2164,2163,2164,2164,2164,2164,2164,2164,2166,2167,2167,2167,2167,2165,2163,2159,2156,2152,2148,2145,2142,2139,2138,2137,2136,2135,2134,2130,2127,2125,2122,2118,2115,2110,2104,2099,2093,2085,2076,2066,2055,2043,2031,2021,2011,2002,1993,1986,1981,1977,1975,1971,1969,1967,1965,1965,1965,1968,1969,1970,1973,1976,1976,1977,1975,1973,1969,1964,1959,1951,1945,1937,1929,1921,1915,1909,1905,1902,1900,1900,1901,1903,1907,1911,1913,1914,1916,1915,1914,1912,1909,1906,1903,1901,1900,1899,1898,1897,1893,1891,1888,1885,1881,1879,1877,1876,1874,1874,1874,1874,1875,1876,1877,1878,1880,1883,1886,1890,1893,1897,1900,1901,1902,1901,1899,1897,1893,1889,1884,1879,1874,1870,1866,1862,1858,1857,1855,1854,1855,1856,1858,1861,1864,1867,1870,1874,1876,1879,1884,1889,1898,1906,1915,1926,1939,1954,1970,1987,2006,2025,2045,2066,2088,2110,2133,2155,2177,2196,2214,2228,2239,2249,2258,2269,2278,2285,2289,2295,2297,2299,2300,2299,2296,2293,2290,2285,2279,2270,2262,2252,2243,2235,2226,2219,2211,2204,2198,2193,2190,2186,2184,2182,2179,2175,2171,2167,2162,2157,2154,2151,2149,2147,2146,2146,2145,2144,2144,2143,2142,2141,2140,2138,2135,2133,2131,2130,2130,2131,2132,2133,2135,2137,2137,2139,2140,2142,2143,2143,2145,2144,2144,2142,2141,2137,2134,2130,2127,2123,2121,2117,2115,2113,2110,2108,2104,2102,2098,2096,2095,2092,2089,2084,2078,2073,2066,2058,2051,2044,2038,2032,2026,2023,2018,2015,2012,2008,2004,2002,1999,1995,1993,1989,1987,1984,1982,1980,1978,1976,1974,1971,1968,1964,1960,1956,1954,1953,1951,1951,1950,1949,1946,1943,1940,1937,1933,1928,1922,1918,1912,1906,1901,1896,1893,1890,1888,1889,1889,1891,1892,1894,1896,1897,1899,1899,1901,1902,1902,1902,1902,1900,1901,1899,1898,1895,1892,1889,1885,1884,1881,1880,1878,1878,1878,1878,1880,1881,1884,1886,1888,1892,1895,1898,1900,1900,1902,1903,1903,1906,1910,1912,1917,1924,1932,1941,1951,1962,1977,1993,2012,2031,2052,2074,2094,2116,2137,2158,2176,2196,2213,2231,2249,2266,2281,2301,2314,2323,2331,2337,2342,2346,2348,2349,2348,2348,2347,2345,2341,2336,2329,2321,2312,2303,2294,2285,2278,2272,2267,2260,2254,2249,2243,2238,2231,2227,2221,2216,2211,2207,2201,2197,2190,2186,2182,2176,2173,2167,2163,2159,2155,2149,2146,2141,2136,2132,2127,2124,2122,2120,2121,2121,2124,2128,2131,2135,2138,2142,2144,2147,2148,2150,2151,2153,2153,2151,2149,2147,2144,2143,2139,2139,2139,2141,2141,2141,2141,2137,2134,2129,2122,2116,2108,2102,2094,2089,2084,2077,2074,2069,2063,2059,2054,2050,2046,2040,2035,2030,2023,2019,2013,2006,2003,1998,1995,1992,1991,1990,1988,1986,1983,1981,1979,1975,1973,1969,1965,1959,1955,1950,1945,1939,1935,1932,1929,1927,1925,1924,1923,1922,1923,1925,1928,1931,1933,1935,1936,1937,1937,1937,1937,1937,1936,1936,1936,1936,1935,1934,1932,1930,1928,1925,1924,1923,1922,1922,1923,1922,1923,1924,1926,1927,1929,1932,1932,1934,1935,1936,1936,1936,1935,1933,1929,1924,1918,1911,1903,1896,1888,1882,1877,1873,1869,1867,1864,1861,1859,1856,1855,1853,1850,1849,1847,1847,1849,1847,1848,1848,1849,1851,1854,1860,1866,1872,1880,1890,1901,1914,1930,1948,1966,1988,2009,2033,2058,2083,2107,2133,2158,2183,2206,2229,2253,2273,2294,2313,2338,2355,2366,2375,2381,2387,2392,2397,2400,2404,2405,2405,2405,2402,2398,2392,2385,2377,2369,2360,2351,2340,2329,2318,2309,2299,2289,2281,2276,2271,2268,2265,2264,2265,2266,2268,2269,2269,2269,2268,2267,2265,2262,2259,2256,2253,2251,2249,2246,2242,2240,2237,2236,2234,2231,2230,2227,2224,2220,2216,2212,2209,2205,2205,2204,2203,2202,2202,2200,2199,2199,2197,2196,2195,2194,2193,2192,2190,2188,2187,2186,2185,2182,2179,2176,2172,2167,2162,2158,2152,2146,2140,2135,2129,2124,2118,2112,2107,2099,2094,2087,2080,2074,2068,2062,2057,2053,2046,2041,2036,2031,2028,2026,2026,2027,2028,2030,2031,2032,2032,2030,2031,2028,2027,2024,2021,2017,2014,2009,2005,1998,1991,1983,1978,1970,1966,1965,1963,1965,1966,1967,1967,1967,1965,1965,1962,1960,1959,1958,1957,1956,1953,1952,1949,1949,1947,1946,1944,1943,1942,1943,1943,1944,1945,1946,1945,1945,1941,1938,1936,1935,1933,1931,1932,1934,1935,1939,1941,1942,1942,1941,1939,1936,1932,1930,1925,1923,1921,1918,1917,1917,1916,1916,1915,1914,1911,1908,1904,1899,1895,1891,1888,1885,1883,1882,1881,1881,1883,1884,1885,1887,1888,1889,1889,1890,1894,1898,1903,1912,1921,1934,1948,1964,1981,2001,2021,2041,2063,2085,2109,2132,2157,2181,2206,2231,2254,2277,2298,2318,2337,2362,2378,2391,2400,2408,2416,2421,2423,2424,2423,2422,2419,2416,2412,2408,2403,2396,2391,2387,2381,2374,2368,2363,2359,2354,2350,2343,2336,2330,2322,2314,2309,2302,2297,2291,2285,2278,2272,2267,2260,2256,2252,2249,2245,2242,2241,2238,2237,2236,2235,2236,2235,2236,2236,2237,2236,2236,2235,2233,2230,2226,2225,2221,2219,2217,2216,2214,2213,2212,2212,2212,2213,2213,2213,2213,2213,2213,2215,2214,2213,2212,2210,2206,2203,2199,2197,2192,2186,2180,2174,2167,2161,2154,2148,2142,2136,2132,2128,2125,2121,2116,2113,2108,2106,2104,2102,2099,2096,2091,2087,2082,2077,2074,2070,2065,2061,2056,2051,2043,2037,2031,2027,2019,2014,2008,2002,1996,1993,1988,1983,1979,1975,1971,1968,1964,1959,1955,1952,1949,1947,1947,1946,1946,1949,1950,1952,1954,1956,1957,1956,1955,1953,1948,1945,1940,1937,1934,1933,1932,1932,1933,1934,1936,1938,1942,1944,1945,1947,1948,1947,1948,1948,1947,1945,1942,1938,1935,1931,1927,1922,1918,1914,1910,1907,1905,1902,1899,1897,1896,1895,1895,1895,1896,1898,1899,1900,1901,1902,1903,1902,1902,1901,1899,1898,1895,1894,1891,1890,1887,1887,1888,1891,1898,1906,1919,1932,1948,1965,1983,2002,2022,2042,2062,2084,2105,2126,2147,2168,2188,2206,2223,2238,2258,2270,2278,2284,2289,2292,2295,2296,2296,2294,2292,2289,2286,2284,2282,2278,2276,2273,2270,2266,2263,2260,2259,2255,2253,2251,2247,2242,2238,2233,2227,2223,2216,2211,2203,2197,2187,2180,2172,2164,2156,2149,2143,2136,2130,2123,2117,2112,2109,2107,2105,2105,2107,2108,2112,2115,2120,2126,2132,2138,2142,2144,2144,2144,2144,2142,2139,2139,2137,2136,2136,2135,2135,2134,2132,2129,2126,2123,2118,2115,2111,2109,2108,2106,2106,2105,2107,2106,2105,2103,2100,2097,2092,2087,2082,2078,2073,2069,2064,2060,2056,2051,2045,2040,2037,2032,2027,2023,2019,2016,2014,2011,2010,2009,2008,2006,2004,2003,1997,1989,1983,1975,1969,1961,1956,1953,1951,1949,1948,1946,1944,1940,1937,1933,1929,1925,1922,1919,1918,1917,1916,1916,1916,1916,1917,1917,1916,1915,1914,1914,1913,1913,1912,1913,1913,1911,1910,1907,1907,1907,1907,1908,1910,1910,1912,1913,1914,1916,1918,1920,1921,1921,1921,1921,1920,1917,1914,1912,1908,1903,1897,1891,1883,1876,1870,1866,1863,1862,1864,1869,1877,1886,1896,1911,1926,1943,1963,1983,2006,2029,2050,2073,2094,2116,2137,2157,2176,2194,2209,2234,2251,2264,2278,2289,2299,2309,2316,2324,2330,2337,2342,2345,2345,2344,2342,2337,2333,2327,2321,2314,2308,2302,2295,2289,2283,2275,2267,2258,2249,2242,2234,2230,2223,2221,2219,2215,2214,2213,2213,2212,2211,2210,2211,2213,2213,2216,2217,2219,2219,2219,2218,2216,2213,2210,2207,2201,2196,2191,2186,2181,2175,2169,2166,2162,2160,2158,2157,2157,2156,2156,2156,2156,2157,2159,2162,2166,2169,2171,2173,2173,2173,2171,2168,2164,2160,2155,2151,2144,2137,2131,2124,2117,2110,2104,2097,2091,2086,2081,2077,2073,2067,2060,2054,2047,2041,2034,2028,2021,2016,2012,2007,2001,1995,1989,1981,1974,1967,1962,1957,1952,1949,1947,1946,1945,1945,1946,1945,1945,1945,1946,1949,1950,1951,1953,1954,1954,1955,1956,1957,1956,1953,1951,1949,1945,1939,1935,1932,1929,1927,1927,1926,1925,1924,1921,1918,1915,1911,1909,1908,1907,1906,1906,1906,1910,1912,1916,1921,1926,1932,1937,1941,1944,1945,1944,1941,1937,1933,1928,1922,1918,1913,1907,1902,1897,1893,1890,1886,1883,1882,1881,1880,1881,1881,1882,1882,1882,1880,1880,1878,1878,1876,1875,1874,1874,1873,1871,1868,1866,1865,1862,1863,1865,1868,1874,1882,1892,1904,1916,1931,1946,1962,1977,1995,2014,2035,2055,2075,2096,2117,2138,2158,2178,2197,2217,2246,2268,2284,2298,2310,2321,2333,2343,2352,2361,2368,2372,2375,2376,2376,2375,2371,2367,2361,2354,2348,2340,2333,2326,2317,2310,2301,2294,2286,2280,2273,2269,2265,2263,2261,2260,2258,2257,2256,2256,2255,2255,2254,2254,2252,2251,2251,2249,2248,2248,2246,2244,2241,2237,2234,2232,2230,2227,2224,2219,2214,2209,2203,2196,2189,2182,2174,2169,2163,2157,2153,2150,2148,2145,2143,2142,2140,2138,2136,2132,2129,2125,2121,2117,2114,2111,2108,2105,2102,2101,2100,2098,2098,2097,2094,2092,2088,2082,2079,2075,2073,2070,2066,2063,2059,2056,2050,2045,2039,2035,2028,2025,2019,2015,2011,2007,2003,2000,1997,1995,1992,1988,1984,1980,1977,1976,1975,1976,1977,1981,1984,1986,1987,1990,1990,1989,1987,1985,1982,1977,1971,1963,1957,1951,1945,1940,1935,1930,1925,1919,1915,1911,1908,1906,1906,1906,1908,1909,1911,1914,1915,1918,1920,1922,1922,1921,1919,1919,1915,1913,1908,1904,1899,1895,1892,1890,1889,1888,1887,1885,1886,1884,1881,1878,1874,1868,1864,1860,1856,1854,1852,1852,1851,1852,1853,1856,1858,1860,1862,1864,1865,1867,1866,1867,1865,1863,1860,1856,1853,1850,1848,1846,1844,1841,1842,1840,1841,1843,1845,1847,1848,1848,1848,1849,1850,1848,1846,1845,1843,1844,1845,1847,1852,1860,1870,1882,1895,1913,1932,1952,1975,1999,2025,2052,2079,2107,2133,2158,2182,2204,2225,2243,2259,2274,2291,2302,2309,2316,2322,2328,2331,2337,2339,2341,2343,2344,2344,2341,2338,2332,2326,2320,2313,2307,2302,2295,2289,2283,2278,2273,2269,2265,2262,2259,2256,2253,2249,2244,2238,2233,2228,2224,2221,2218,2216,2211,2208,2205,2201,2196,2192,2188,2184,2183,2180,2177,2174,2172,2168,2164,2161,2158,2155,2152,2152,2152,2154,2156,2159,2164,2169,2176,2183,2191,2196,2200,2203,2203,2202,2200,2198,2196,2193,2190,2188,2185,2182,2178,2175,2170,2165,2161,2155,2150,2145,2142,2138,2134,2128,2123,2115,2108,2099,2093,2086,2080,2076,2071,2064,2059,2055,2048,2042,2036,2029,2024,2017,2011,2005,1999,1993,1989,1984,1981,1978,1974,1971,1967,1963,1960,1957,1954,1951,1947,1943,1938,1934,1931,1928,1927,1926,1924,1922,1919,1916,1913,1908,1905,1901,1899,1897,1896,1895,1897,1898,1899,1900,1901,1900,1899,1897,1896,1896,1896,1896,1895,1898,1900,1900,1902,1904,1907,1909,1910,1911,1911,1912,1912,1912,1910,1908,1904,1900,1894,1887,1880,1873,1866,1861,1856,1852,1848,1846,1846,1847,1850,1854,1861,1869,1881,1894,1908,1922,1938,1956,1975,1994,2013,2032,2052,2073,2095,2117,2141,2162,2184,2215,2238,2253,2267,2279,2289,2298,2307,2315,2322,2326,2329,2331,2331,2332,2332,2330,2328,2326,2323,2319,2315,2310,2303,2299,2292,2287,2281,2276,2269,2262,2254,2245,2237,2229,2222,2216,2212,2208,2204,2199,2196,2192,2189,2186,2184,2183,2182,2181,2180,2178,2176,2175,2173,2172,2172,2171,2171,2172,2170,2170,2169,2167,2168,2167,2166,2165,2163,2162,2157,2152,2144,2137,2129,2122,2116,2110,2105,2101,2098,2095,2094,2093,2093,2095,2097,2100,2103,2107,2110,2112,2113,2111,2109,2104,2099,2092,2086,2079,2071,2064,2059,2055,2049,2045,2041,2034,2028,2020,2015,2010,2005,2000,1996,1992,1987,1984,1981,1979,1977,1975,1975,1973,1970,1966,1960,1954,1948,1941,1935,1929,1925,1920,1916,1913,1909,1906,1905,1902,1902,1902,1902,1904,1907,1908,1912,1914,1916,1918,1918,1919,1917,1915,1913,1909,1906,1901,1896,1891,1886,1882,1880,1877,1873,1873,1870,1870,1869,1868,1867,1868,1869,1869,1869,1869,1868,1868,1868,1867,1868,1868,1868,1867,1866,1863,1860,1857,1855,1855,1854,1856,1858,1863,1866,1872,1877,1883,1891,1898,1906,1914,1923,1931,1941,1950,1961,1975,1989,2006,2024,2043,2064,2085,2106,2127,2146,2166,2186,2204,2222,2240,2258,2275,2290,2304,2324,2338,2346,2353,2359,2365,2369,2373,2375,2377,2378,2376,2373,2367,2361,2354,2347,2339,2332,2325,2317,2311,2304,2298,2292,2287,2282,2278,2273,2268,2264,2259,2255,2252,2250,2248,2246,2246,2247,2249,2250,2250,2249,2248,2245,2242,2239,2236,2232,2229,2224,2219,2216,2213,2208,2203,2200,2196,2193,2190,2191,2191,2192,2196,2198,2201,2202,2202,2201,2200,2197,2194,2191,2186,2180,2174,2168,2163,2157,2152,2148,2144,2141,2139,2136,2133,2130,2127,2123,2122,2120,2118,2117,2114,2111,2106,2102,2096,2090,2085,2077,2068,2057,2046,2037,2029,2022,2016,2011,2006,2004,2001,1997,1994,1992,1988,1983,1978,1975,1974,1971,1969,1969,1969,1967,1967,1967,1970,1971,1975,1976,1978,1980,1980,1977,1976,1972,1968,1963,1959,1955,1949,1944,1938,1934,1930,1927,1924,1922,1921,1919,1918,1917,1918,1920,1923,1926,1931,1931,1933,1933,1931,1928,1924,1920,1916,1911,1904,1900,1894,1890,1885,1881,1876,1872,1869,1864,1860,1857,1855,1853,1854,1855,1858,1863,1868,1873,1877,1882,1887,1890,1894,1898,1901,1904,1907,1908,1910,1910,1909,1906,1902,1897,1892,1886,1881,1877,1873,1870,1869,1868,1870,1874,1879,1886,1895,1905,1918,1931,1947,1962,1978,1995,2013,2031,2052,2073,2095,2117,2141,2165,2188,2209,2228,2256,2277,2291,2305,2316,2326,2335,2342,2348,2353,2358,2361,2364,2365,2366,2365,2363,2360,2356,2353,2348,2343,2338,2333,2329,2325,2323,2321,2319,2317,2314,2312,2310,2308,2307,2305,2306,2307,2307,2306,2305,2303,2297,2292,2286,2282,2277,2275,2271,2268,2264,2262,2258,2253,2246,2239,2232,2224,2218,2214,2212,2209,2207,2206,2203,2202,2198,2196,2193,2190,2185,2180,2175,2170,2164,2159,2154,2149,2145,2142,2138,2134,2130,2126,2121,2118,2114,2112,2110,2108,2107,2106,2106,2107,2108,2108,2107,2107,2106,2105,2103,2101,2098,2095,2091,2088,2083,2077,2069,2063,2056,2048,2041,2035,2028,2024,2019,2016,2012,2009,2008,2006,2004,2002,2001,1998,1994,1991,1986,1980,1976,1970,1963,1958,1951,1946,1942,1937,1932,1930,1927,1927,1927,1928,1930,1931,1933,1934,1934,1935,1935,1934,1934,1935,1935,1934,1932,1929,1925,1922,1916,1912,1906,1902,1896,1892,1888,1885,1882,1881,1880,1880,1882,1884,1886,1888,1889,1890,1890,1890,1889,1888,1888,1886,1887,1884,1883,1882,1881,1880,1878,1877,1875,1871,1869,1865,1862,1859,1855,1852,1847,1844,1840,1837,1835,1836,1837,1843,1848,1857,1867,1878,1892,1906,1922,1939,1956,1977,1995,2015,2036,2057,2079,2102,2124,2145,2165,2182,2206,2224,2236,2247,2256,2265,2272,2278,2283,2287,2290,2291,2292,2290,2290,2286,2281,2276,2269,2262,2255,2249,2242,2236,2229,2223,2217,2211,2204,2199,2196,2193,2191,2191,2192,2193,2194,2195,2194,2192,2190,2185,2181,2176,2173,2168,2163,2158,2153,2148,2141,2135,2128,2120,2115,2109,2105,2102,2099,2098,2098,2100,2102,2104,2107,2112,2115,2119,2122,2125,2127,2128,2131,2132,2132,2132,2130,2128,2125,2119,2115,2111,2109,2105,2103,2102,2101,2096,2092,2087,2081,2076,2069,2065,2059,2054,2047,2042,2038,2032,2028,2025,2023,2018,2014,2008,2003,1995,1986,1978,1970,1963,1956,1951,1946,1942,1938,1933,1929,1925,1923,1919,1917,1912,1908,1903,1899,1895,1893,1889,1888,1887,1885,1885,1885,1883,1882,1879,1879,1878,1878,1878,1880,1881,1883,1885,1888,1890,1891,1894,1895,1897,1900,1901,1904,1905,1907,1909,1909,1910,1910,1908,1907,1906,1905,1903,1902,1900,1898,1895,1890,1886,1881,1875,1868,1862,1855,1849,1843,1839,1834,1831,1829,1829,1832,1836,1844,1853,1865,1880,1895,1911,1929,1948,1967,1986,2007,2028,2049,2067,2087,2106,2125,2142,2159,2180,2197,2208,2220,2231,2240,2249,2258,2267,2273,2276,2280,2283,2285,2284,2283,2280,2276,2270,2264,2259,2254,2250,2245,2242,2238,2235,2234,2232,2231,2231,2232,2232,2233,2233,2233,2233,2232,2229,2226,2222,2218,2215,2210,2206,2202,2198,2193,2190,2186,2182,2178,2174,2167,2163,2159,2154,2150,2146,2142,2140,2138,2135,2133,2132,2130,2128,2127,2124,2123,2121,2119,2118,2116,2112,2109,2106,2101,2097,2093,2088,2084,2081,2079,2076,2075,2075,2074,2074,2074,2074,2074,2074,2073,2072,2071,2070,2068,2065,2061,2056,2052,2045,2039,2030,2020,2009,1997,1985,1971,1961,1950,1940,1933,1927,1922,1920,1919,1921,1924,1929,1934,1938,1945,1950,1954,1955,1957,1957,1959,1958,1957,1956,1953,1951,1947,1944,1941,1938,1935,1931,1928,1924,1921,1918,1915,1910,1905,1902,1899,1896,1893,1891,1889,1889,1889,1888,1889,1889,1890,1889,1888,1888,1888,1887,1887,1886,1885,1886,1885,1886,1886,1887,1887,1886,1884,1881,1876,1870,1864,1857,1850,1844,1838,1833,1828,1824,1820,1819,1819,1822,1825,1829,1833,1834,1838,1840,1846,1852,1858,1865,1874,1883,1893,1904,1914,1925,1936,1948,1961,1975,1990,2005,2023,2041,2058,2078,2097,2117,2135,2153,2173,2191,2207,2223,2236,2249,2259,2273,2282,2288,2294,2300,2304,2308,2309,2309,2309,2307,2304,2301,2297,2292,2286,2280,2275,2269,2264,2258,2254,2251,2247,2243,2240,2238,2235,2232,2230,2227,2225,2222,2220,2218,2215,2214,2214,2211,2208,2206,2204,2201,2199,2198,2196,2195,2194,2193,2191,2190,2188,2185,2184,2182,2181,2180,2179,2178,2177,2177,2176,2175,2175,2174,2172,2170,2167,2165,2161,2158,2155,2150,2147,2143,2137,2132,2127,2123,2119,2116,2113,2110,2107,2104,2098,2095,2092,2086,2081,2077,2073,2067,2063,2058,2053,2050,2046,2042,2041,2038,2036,2034,2033,2032,2031,2030,2028,2025,2022,2018,2013,2008,2003,1997,1991,1984,1977,1971,1966,1960,1955,1951,1949,1946,1946,1945,1942,1941,1940,1940,1940,1939,1940,1941,1941,1940,1939,1939,1937,1936,1935,1934,1933,1931,1930,1927,1923,1920,1917,1917,1917,1916,1916,1917,1917,1917,1919,1920,1922,1923,1925,1927,1928,1929,1929,1928,1927,1926,1923,1920,1918,1914,1909,1904,1898,1889,1879,1869,1857,1847,1837,1828,1820,1814,1809,1806,1803,1803,1802,1803,1803,1806,1809,1812,1815,1819,1820,1824,1826,1828,1830,1831,1833,1834,1834,1834,1833,1831,1829,1827,1825,1827,1830,1834,1842,1851,1864,1877,1895,1912,1931,1950,1970,1991,2012,2033,2056,2077,2098,2119,2140,2161,2181,2203,2223,2243,2262,2282,2298,2313,2326,2337,2346,2351,2355,2357,2355,2353,2347,2341,2332,2321,2311,2299,2289,2280,2272,2265,2260,2257,2256,2255,2253,2252,2252,2250,2250,2249,2249,2249,2251,2253,2254,2256,2257,2258,2259,2255,2252,2248,2244,2240,2236,2232,2228,2223,2220,2215,2212,2208,2204,2199,2194,2189,2183,2178,2172,2167,2165,2162,2160,2159,2157,2157,2158,2159,2161,2162,2164,2166,2170,2173,2175,2175,2174,2173,2170,2165,2161,2156,2150,2142,2136,2129,2122,2115,2110,2105,2100,2095,2088,2085,2081,2076,2073,2069,2066,2062,2058,2055,2052,2049,2045,2041,2036,2030,2024,2019,2014,2009,2002,1998,1991,1984,1976,1969,1962,1955,1949,1944,1938,1934,1931,1927,1925,1922,1921,1919,1919,1919,1920,1921,1922,1922,1923,1925,1926,1925,1926,1925,1924,1922,1919,1916,1912,1909,1905,1901,1896,1893,1889,1884,1880,1877,1873,1871,1870,1869,1869,1869,1871,1874,1877,1880,1883,1889,1891,1893,1894,1894,1892,1890,1889,1884,1879,1873,1867,1861,1856,1852,1849,1846,1844,1843,1843,1843,1843,1844,1844,1844,1843,1841,1840,1838,1836,1834,1833,1831,1829,1828,1826,1827,1826,1826,1828,1831,1834,1840,1847,1855,1865,1875,1886,1898,1910,1922,1938,1950,1966,1981,1996,2012,2029,2046,2063,2080,2097,2125,2146,2162,2178,2192,2206,2218,2229,2240,2249,2256,2262,2265,2270,2270,2269,2268,2264,2259,2251,2243,2233,2225,2217,2208,2200,2194,2186,2180,2176,2172,2171,2169,2168,2166,2165,2163,2163,2164,2163,2162,2161,2159,2157,2155,2153,2149,2144,2140,2133,2127,2120,2115,2108,2103,2099,2096,2094,2092,2091,2091,2092,2093,2094,2093,2092,2088,2085,2080,2077,2073,2073,2072,2071,2073,2074,2077,2076,2079,2080,2082,2083,2081,2080,2076,2072,2066,2060,2055,2050,2044,2039,2035,2029,2025,2019,2013,2006,1997,1990,1984,1977,1971,1966,1959,1954,1949,1944,1941,1939,1936,1937,1938,1940,1941,1942,1943,1943,1941,1939,1939,1936,1933,1930,1925,1921,1915,1911,1906,1902,1900,1897,1896,1893,1891,1889,1887,1885,1887,1887,1888,1890,1890,1893,1894,1896,1896,1897,1896,1895,1892,1889,1885,1881,1877,1872,1869,1862,1860,1855,1851,1848,1845,1844,1842,1841,1839,1839,1838,1837,1835,1833,1832,1830,1829,1828,1828,1829,1830,1830,1830,1829,1829,1826,1824,1820,1818,1815,1813,1811,1809,1809,1812,1815,1823,1833,1846,1861,1877,1895,1911,1929,1946,1964,1983,2003,2024,2044,2066,2087,2106,2127,2145,2170,2188,2201,2212,2221,2231,2239,2245,2249,2253,2254,2254,2252,2249,2246,2242,2239,2234,2230,2224,2217,2211,2204,2198,2194,2188,2186,2185,2183,2181,2178,2173,2169,2163,2159,2154,2150,2146,2144,2142,2141,2141,2143,2145,2147,2150,2151,2153,2154,2155,2154,2152,2149,2147,2141,2137,2130,2124,2115,2108,2102,2096,2092,2089,2086,2086,2085,2086,2087,2089,2090,2092,2093,2095,2097,2099,2101,2104,2109,2111,2114,2115,2115,2114,2112,2109,2106,2101,2097,2091,2085,2080,2074,2069,2063,2059,2054,2049,2044,2040,2035,2029,2023,2017,2009,2000,1991,1983,1973,1966,1957,1950,1945,1941,1936,1933,1932,1931,1931,1930,1929,1931,1929,1928,1926,1922,1918,1915,1912,1908,1907,1903,1902,1899,1897,1895,1896,1893,1892,1892,1890,1889,1889,1888,1886,1886,1884,1883,1881,1880,1877,1873,1869,1867,1866,1865,1863,1861,1860,1860,1860,1860,1859,1860,1859,1860,1861,1864,1868,1871,1876,1879,1883,1885,1888,1889,1889,1890,1889,1886,1884,1881,1876,1872,1867,1864,1858,1853,1848,1843,1840,1837,1836,1837,1837,1838,1841,1843,1846,1849,1852,1854,1858,1860,1864,1869,1874,1881,1890,1900,1909,1921,1933,1946,1960,1975,1991,2007,2025,2045,2065,2085,2105,2126,2146,2166,2185,2204,2221,2235,2249,2260,2275,2282,2286,2290,2288,2287,2284,2280,2273,2264,2255,2247,2238,2230,2225,2221,2217,2213,2209,2204,2199,2193,2187,2182,2177,2174,2170,2169,2167,2168,2168,2168,2167,2168,2167,2165,2164,2163,2160,2157,2154,2152,2149,2147,2144,2143,2143,2143,2142,2142,2141,2139,2138,2136,2134,2134,2132,2133,2132,2133,2132,2132,2131,2128,2125,2120,2115,2111,2106,2101,2096,2092,2088,2084,2080,2078,2074,2073,2070,2067,2065,2062,2058,2056,2056,2055,2054,2054,2052,2051,2049,2049,2047,2046,2044,2041,2035,2028,2022,2015,2006,1999,1993,1986,1981,1979,1977,1976,1975,1975,1974,1973,1970,1966,1963,1961,1959,1956,1954,1951,1948,1945,1943,1942,1941,1941,1940,1940,1940,1939,1939,1939,1939,1939,1938,1939,1939,1938,1936,1934,1928,1924,1918,1912,1908,1902,1898,1894,1891,1888,1887,1885,1886,1887,1891,1895,1900,1904,1908,1912,1914,1916,1917,1918,1919,1919,1919,1917,1917,1916,1915,1912,1910,1907,1902,1899,1897,1894,1891,1889,1886,1883,1882,1881,1881,1881,1880,1880,1878,1876,1875,1875,1874,1874,1874,1875,1876,1877,1877,1877,1876,1875,1872,1868,1863,1857,1851,1845,1840,1836,1833,1831,1829,1828,1828,1828,1829,1832,1834,1838,1843,1846,1853,1860,1869,1881,1892,1906,1921,1940,1957,1976,1996,2016,2039,2058,2079,2100,2120,2138,2157,2176,2195,2212,2237,2258,2271,2283,2292,2298,2303,2306,2308,2309,2310,2309,2307,2306,2302,2298,2295,2291,2286,2281,2274,2266,2260,2253,2245,2239,2235,2229,2225,2222,2219,2216,2216,2214,2213,2212,2210,2206,2203,2199,2194,2190,2186,2182,2179,2178,2178,2178,2179,2181,2180,2182,2182,2183,2183,2183,2183,2182,2180,2178,2174,2171,2165,2159,2151,2143,2135,2129,2124,2121,2119,2119,2120,2121,2124,2127,2130,2133,2134,2133,2134,2134,2132,2130,2129,2127,2124,2122,2120,2117,2115,2112,2107,2100,2094,2087,2079,2072,2065,2057,2051,2045,2040,2037,2035,2033,2030,2027,2023,2020,2015,2012,2008,2004,2004,2002,2002,2002,2002,2001,2003,2004,2002,1999,1995,1992,1986,1980,1977,1973,1969,1965,1962,1960,1956,1953,1949,1945,1942,1939,1937,1933,1930,1928,1925,1922,1920,1917,1915,1913,1913,1911,1911,1911,1911,1911,1910,1909,1909,1911,1911,1911,1912,1914,1915,1915,1917,1919,1920,1921,1922,1924,1922,1922,1921,1921,1922,1922,1923,1923,1923,1922,1918,1915,1912,1907,1903,1899,1896,1893,1889,1885,1882,1879,1878,1876,1874,1873,1872,1870,1868,1867,1866,1865,1865,1865,1868,1872,1878,1885,1893,1902,1913,1926,1941,1956,1973,1990,2008,2027,2046,2065,2084,2103,2119,2137,2153,2170,2185,2207,2223,2235,2245,2253,2261,2265,2268,2271,2271,2270,2267,2264,2261,2255,2249,2245,2239,2232,2225,2218,2209,2204,2199,2195,2192,2188,2184,2180,2175,2169,2163,2158,2153,2149,2147,2143,2141,2136,2131,2126,2121,2114,2110,2104,2101,2098,2096,2095,2094,2094,2093,2093,2094,2096,2098,2100,2101,2101,2103,2104,2107,2109,2112,2113,2115,2117,2117,2118,2116,2112,2108,2103,2097,2092,2086,2081,2076,2070,2068,2065,2063,2061,2060,2057,2054,2053,2051,2048,2044,2041,2037,2032,2028,2025,2023,2022,2021,2020,2019,2016,2013,2008,2004,1999,1996,1991,1988,1987,1983,1981,1980,1978,1978,1977,1975,1975,1971,1970,1967,1966,1964,1964,1962,1961,1960,1958,1957,1955,1953,1948,1943,1938,1932,1926,1919,1913,1907,1904,1900,1899,1898,1899,1901,1904,1908,1912,1916,1919,1921,1922,1922,1920,1917,1913,1911,1906,1903,1901,1899,1899,1898,1900,1902,1903,1905,1906,1907,1909,1911,1911,1912,1912,1912,1913,1911,1913,1914,1914,1915,1916,1917,1919,1923,1928,1934,1942,1950,1957,1967,1976,1988,2000,2014,2029,2045,2061,2077,2093,2109,2127,2143,2160,2175,2189,2202,2216,2232,2244,2252,2260,2267,2272,2278,2282,2287,2292,2295,2296,2297,2295,2291,2289,2285,2282,2279,2275,2271,2268,2264,2261,2258,2255,2251,2248,2245,2241,2236,2232,2226,2219,2212,2206,2198,2191,2183,2175,2168,2160,2153,2146,2140,2134,2131,2128,2125,2124,2123,2124,2124,2124,2125,2126,2128,2129,2132,2135,2139,2142,2145,2148,2149,2150,2150,2151,2149,2148,2146,2143,2140,2136,2134,2130,2125,2122,2119,2117,2117,2116,2115,2114,2114,2114,2113,2111,2111,2107,2104,2100,2097,2092,2088,2082,2077,2070,2065,2059,2053,2046,2038,2030,2023,2016,2009,2003,2000,1996,1993,1991,1989,1988,1988,1988,1989,1990,1991,1996,1998,2000,2003,2002,2001,2000,1997,1993,1986,1978,1971,1964,1957,1951,1947,1940,1938,1935,1933,1932,1933,1933,1934,1934,1936,1936,1937,1938,1940,1941,1941,1941,1941,1940,1939,1938,1938,1937,1936,1935,1935,1933,1932,1930,1927,1926,1923,1920,1918,1918,1918,1919,1921,1926,1929,1933,1937,1940,1943,1945,1946,1947,1946,1946,1944,1944,1943,1941,1938,1934,1930,1925,1919,1913,1906,1899,1891,1884,1880,1876,1875,1875,1876,1883,1891,1900,1913,1927,1942,1958,1974,1991,2008,2027,2045,2067,2088,2110,2134,2157,2179,2198,2223,2242,2255,2268,2280,2291,2300,2309,2317,2324,2331,2335,2338,2341,2342,2340,2337,2334,2328,2320,2313,2305,2297,2289,2282,2274,2268,2261,2254,2250,2246,2243,2242,2241,2241,2240,2243,2243,2244,2245,2247,2249,2251,2252,2251,2250,2248,2244,2240,2236,2232,2227,2223,2217,2215,2211,2208,2205,2201,2198,2197,2195,2194,2192,2192,2191,2190,2189,2187,2185,2182,2181,2176,2173,2170,2166,2164,2162,2162,2163,2163,2164,2166,2166,2166,2165,2164,2163,2162,2160,2160,2157,2154,2152,2149,2144,2140,2135,2130,2125,2120,2115,2109,2104,2098,2092,2084,2078,2071,2065,2061,2058,2056,2054,2053,2051,2051,2050,2050,2048,2047,2044,2040,2036,2030,2025,2021,2016,2012,2009,2004,2000,1998,1997,1995,1993,1990,1990,1988,1987,1986,1984,1984,1983,1982,1980,1979,1976,1973,1969,1966,1963,1962,1960,1959,1958,1958,1956,1954,1952,1951,1949,1945,1944,1943,1941,1941,1941,1941,1942,1943,1944,1945,1944,1942,1940,1937,1935,1931,1928,1925,1921,1917,1913,1910,1906,1902,1900,1896,1891,1888,1885,1883,1880,1879,1879,1879,1881,1880,1882,1883,1883,1884,1886,1884,1884,1883,1880,1878,1876,1874,1875,1877,1881,1885,1893,1901,1909,1919,1929,1940,1953,1968,1983,2000,2017,2037,2056,2077,2098,2121,2143,2166,2188,2209,2229,2248,2265,2282,2303,2319,2330,2339,2347,2354,2359,2363,2365,2365,2366,2365,2364,2362,2361,2357,2354,2347,2342,2335,2328,2321,2314,2307,2301,2295,2288,2282,2275,2269,2261,2255,2250,2243,2238,2234,2230,2226,2224,2223,2222,2221,2220,2217,2215,2212,2209,2205,2202,2197,2194,2192,2190,2188,2186,2184,2180,2174,2169,2164,2160,2156,2154,2152,2151,2151,2149,2148,2147,2147,2147,2149,2151,2153,2157,2160,2162,2163,2163,2162,2159,2155,2149,2145,2139,2132,2124,2118,2111,2105,2100,2094,2088,2082,2076,2072,2067,2062,2057,2054,2048,2043,2039,2034,2030,2026,2023,2021,2018,2016,2015,2013,2012,2010,2006,2005,2003,2001,2001,1998,1997,1995,1992,1989,1986,1984,1980,1975,1971,1966,1962,1958,1955,1954,1954,1952,1952,1951,1950,1948,1947,1946,1945,1942,1938,1934,1928,1922,1913,1905,1898,1889,1884,1880,1876,1875,1875,1875,1876,1877,1879,1882,1882,1884,1884,1883,1882,1880,1878,1875,1872,1869,1866,1865,1863,1862,1861,1860,1859,1857,1857,1856,1855,1855,1856,1857,1858,1858,1858,1857,1857,1857,1860,1863,1866,1871,1877,1884,1889,1897,1905,1914,1922,1931,1941,1949,1958,1968,1979,1991,2005,2020,2037,2055,2073,2090,2108,2125,2141,2157,2171,2186,2199,2211,2222,2231,2239,2249,2255,2258,2259,2258,2257,2252,2247,2243,2237,2232,2226,2221,2216,2211,2205,2199,2193,2186,2181,2175,2168,2164,2158,2154,2150,2146,2142,2139,2135,2133,2129,2127,2122,2120,2117,2114,2111,2106,2103,2097,2093,2088,2085,2082,2081,2080,2080,2080,2080,2082,2085,2086,2089,2091,2092,2095,2097,2098,2101,2103,2104,2105,2106,2105,2107,2106,2103,2100,2097,2094,2092,2090,2088,2085,2082,2078,2074,2070,2066,2063,2062,2062,2061,2060,2060,2057,2055,2054,2052,2050,2047,2043,2039,2034,2028,2021,2015,2007,2000,1995,1989,1985,1981,1977,1973,1970,1967,1964,1961,1956,1953,1949,1946,1942,1937,1933,1929,1927,1924,1923,1923,1925,1927,1929,1930,1931,1931,1928,1924,1919,1914,1909,1904,1900,1896,1892,1890,1888,1885,1884,1884,1883,1882,1881,1878,1876,1874,1873,1873,1874,1876,1878,1881,1884,1887,1888,1889,1890,1891,1892,1893,1895,1896,1898,1901,1902,1903,1903,1902,1901,1899,1897,1895,1893,1892,1893,1894,1898,1902,1909,1917,1929,1942,1956,1972,1989,2007,2026,2044,2063,2082,2099,2118,2134,2150,2164,2176,2189,2205,2217,2226,2234,2240,2245,2251,2255,2256,2261,2263,2266,2267,2268,2267,2266,2264,2259,2254,2248,2243,2238,2235,2231,2228,2226,2223,2221,2218,2215,2212,2211,2209,2208,2208,2207,2204,2200,2197,2193,2188,2184,2180,2176,2172,2168,2166,2162,2159,2155,2153,2148,2145,2141,2136,2133,2129,2125,2122,2118,2114,2111,2108,2105,2102,2101,2100,2100,2101,2104,2107,2110,2113,2114,2114,2113,2113,2111,2108,2104,2098,2091,2084,2078,2070,2063,2057,2050,2043,2038,2033,2031,2028,2027,2026,2024,2024,2025,2027,2027,2025,2026,2026,2026,2028,2028,2027,2026,2024,2021,2020,2017,2015,2012,2010,2009,2006,2003,2001,1999,1997,1996,1993,1989,1985,1980,1974,1967,1960,1953,1947,1941,1937,1935,1934,1933,1934,1935,1937,1937,1937,1935,1933,1930,1927,1924,1921,1918,1914,1912,1911,1908,1909,1909,1909,1911,1913,1915,1919,1920,1922,1925,1927,1928,1930,1930,1930,1929,1928,1927,1924,1920,1916,1911,1905,1900,1896,1890,1886,1881,1876,1871,1867,1864,1861,1859,1857,1858,1861,1864,1868,1872,1877,1881,1886,1890,1893,1895,1895,1895,1894,1894,1896,1898,1901,1903,1908,1915,1923,1932,1941,1952,1964,1975,1989,2001,2015,2030,2047,2062,2077,2094,2113,2131,2151,2171,2193,2212,2231,2257,2275,2287,2296,2302,2306,2307,2305,2303,2300,2297,2292,2288,2284,2280,2277,2274,2271,2268,2264,2259,2254,2249,2244,2240,2234,2232,2229,2226,2224,2223,2221,2220,2218,2218,2217,2216,2217,2216,2213,2213,2211,2208,2205,2199,2194,2188,2181,2175,2171,2167,2165,2163,2163,2162,2162,2162,2163,2164,2165,2165,2165,2164,2163,2160,2157,2152,2148,2146,2144,2141,2139,2138,2137,2137,2136,2136,2135,2135,2132,2130,2126,2123,2120,2117,2116,2115,2113,2112,2110,2107,2104,2099,2094,2088,2084,2078,2075,2071,2069,2066,2064,2063,2059,2056,2051,2046,2040,2032,2026,2017,2012,2004,2000,1994,1992,1989,1988,1987,1986,1984,1984,1983,1981,1979,1976,1975,1974,1974,1973,1974,1974,1972,1973,1972,1971,1971,1969,1969,1969,1968,1968,1968,1967,1967,1965,1964,1963,1960,1959,1957,1954,1951,1947,1943,1939,1933,1927,1920,1912,1905,1898,1892,1889,1883,1881,1880,1880,1882,1886,1892,1898,1905,1911,1918,1926,1931,1937,1941,1943,1945,1946,1944,1943,1939,1933,1928,1924,1920,1917,1913,1912,1909,1909,1908,1910,1910,1911,1912,1911,1910,1908,1905,1900,1896,1891,1887,1882,1878,1873,1869,1865,1862,1860,1859,1858,1859,1861,1865,1870,1876,1882,1890,1899,1910,1922,1936,1955,1971,1987,2006,2023,2041,2059,2078,2094,2112,2131,2148,2165,2183,2201,2219,2236,2253,2267,2280,2291,2300,2307,2312,2314,2316,2317,2316,2314,2312,2308,2303,2296,2289,2282,2273,2266,2258,2251,2243,2233,2225,2215,2207,2199,2192,2186,2181,2176,2172,2168,2168,2166,2168,2168,2170,2171,2173,2175,2176,2177,2178,2178,2179,2179,2180,2180,2181,2179,2177,2177,2175,2174,2172,2170,2168,2165,2161,2155,2150,2142,2134,2127,2121,2116,2109,2103,2097,2095,2092,2092,2092,2093,2096,2097,2100,2104,2108,2111,2113,2115,2115,2115,2112,2110,2107,2102,2097,2092,2087,2081,2075,2069,2063,2058,2053,2049,2047,2045,2044,2042,2042,2042,2041,2039,2035,2030,2023,2017,2011,2006,2000,1994,1990,1988,1986,1984,1982,1979,1977,1975,1971,1969,1964,1960,1956,1951,1946,1940,1932,1926,1919,1914,1909,1904,1900,1897,1894,1893,1893,1893,1894,1896,1898,1902,1906,1910,1914,1918,1923,1927,1931,1934,1939,1942,1946,1948,1951,1953,1954,1955,1954,1954,1951,1950,1947,1944,1942,1938,1935,1932,1930,1929,1928,1927,1928,1931,1934,1938,1941,1944,1945,1946,1945,1944,1940,1936,1931,1922,1915,1907,1898,1891,1886,1880,1879,1878,1881,1884,1890,1896,1902,1911,1920,1932,1944,1957,1969,1985,1999,2016,2033,2052,2072,2090,2108,2128,2147,2179,2200,2215,2227,2237,2247,2253,2258,2261,2262,2262,2260,2258,2254,2249,2244,2239,2234,2227,2222,2217,2211,2203,2196,2189,2183,2176,2171,2166,2162,2159,2156,2154,2153,2150,2148,2146,2144,2141,2138,2135,2133,2130,2129,2127,2125,2122,2120,2117,2114,2112,2109,2106,2103,2101,2097,2096,2095,2093,2095,2095,2096,2097,2097,2097,2097,2097,2096,2094,2092,2090,2088,2085,2084,2081,2080,2078,2078,2079,2080,2082,2084,2085,2085,2083,2081,2078,2074,2071,2065,2060,2055,2048,2042,2037,2031,2026,2022,2018,2015,2014,2013,2013,2011,2011,2011,2010,2010,2010,2010,2009,2008,2008,2007,2006,2005,2004,2003,2003,2002,2000,1996,1992,1987,1982,1976,1971,1965,1960,1953,1944,1936,1928,1919,1912,1904,1900,1895,1893,1890,1890,1889,1888,1888,1887,1886,1885,1885,1885,1886,1886,1888,1890,1893,1896,1899,1902,1904,1907,1909,1909,1909,1910,1910,1912,1914,1915,1914,1913,1913,1912,1911,1909,1907,1905,1903,1900,1897,1895,1893,1891,1891,1890,1889,1888,1886,1886,1887,1888,1890,1894,1899,1905,1912,1922,1934,1948,1963,1982,2004,2024,2046,2069,2092,2115,2137,2159,2181,2201,2220,2237,2251,2263,2277,2287,2292,2297,2302,2305,2306,2306,2306,2303,2299,2293,2286,2278,2270,2261,2252,2244,2237,2232,2226,2223,2219,2215,2211,2208,2204,2199,2197,2193,2190,2188,2187,2186,2186,2186,2185,2185,2183,2183,2183,2182,2179,2175,2170,2162,2155,2148,2142,2135,2129,2125,2121,2120,2119,2118,2120,2121,2123,2126,2129,2134,2138,2140,2144,2146,2147,2148,2148,2149,2151,2152,2152,2151,2147,2145,2140,2134,2128,2120,2114,2108,2103,2098,2094,2089,2086,2084,2083,2081,2082,2080,2080,2079,2077,2077,2076,2076,2075,2071,2068,2063,2059,2055,2052,2050,2048,2047,2045,2043,2042,2041,2040,2040,2036,2031,2027,2023,2017,2011,2007,2004,2002,1999,1996,1996,1995,1994,1993,1992,1991,1991,1988,1988,1985,1984,1980,1979,1978,1977,1979,1977,1976,1976,1977,1978,1979,1980,1979,1976,1974,1972,1969,1965,1962,1958,1954,1948,1944,1939,1933,1928,1922,1918,1915,1914,1912,1911,1911,1912,1912,1913,1915,1916,1917,1917,1917,1916,1915,1912,1911,1908,1907,1903,1900,1897,1893,1889,1884,1879,1874,1869,1868,1866,1866,1867,1867,1869,1872,1873,1876,1880,1884,1890,1896,1905,1914,1925,1936,1950,1965,1980,1997,2012,2030,2048,2066,2084,2103,2124,2144,2165,2184,2204,2223,2240,2263,2281,2293,2303,2313,2320,2328,2333,2336,2336,2337,2334,2333,2328,2322,2315,2308,2298,2289,2279,2269,2260,2251,2241,2234,2227,2223,2221,2221,2222,2225,2227,2230,2232,2235,2237,2240,2241,2242,2242,2240,2237,2234,2229,2225,2220,2214,2210,2206,2204,2201,2201,2201,2202,2201,2201,2201,2201,2200,2199,2198,2199,2198,2198,2199,2198,2197,2195,2193,2190,2187,2184,2182,2179,2177,2173,2169,2165,2161,2156,2150,2145,2141,2139,2138,2137,2137,2137,2138,2135,2134,2129,2126,2121,2118,2115,2110,2104,2099,2093,2088,2083,2077,2072,2068,2064,2061,2057,2054,2050,2046,2042,2038,2031,2026,2020,2014,2010,2006,2002,1999,1994,1991,1990,1989,1988,1987,1988,1988,1988,1989,1989,1991,1992,1993,1994,1995,1995,1994,1994,1990,1986,1982,1974,1967,1960,1953,1946,1940,1935,1930,1926,1923,1922,1920,1919,1918,1919,1920,1919,1918,1917,1916,1917,1919,1921,1923,1926,1928,1929,1930,1932,1932,1932,1930,1928,1925,1922,1920,1920,1920,1920,1922,1924,1928,1932,1937,1942,1946,1950,1951,1951,1949,1945,1941,1934,1927,1921,1916,1910,1905,1900,1895,1892,1889,1888,1888,1890,1894,1898,1903,1910,1919,1929,1942,1956,1973,1990,2009,2030,2053,2074,2095,2117,2136,2156,2174,2191,2207,2220,2234,2255,2271,2284,2295,2304,2313,2319,2324,2325,2327,2327,2325,2322,2317,2311,2301,2294,2288,2282,2277,2273,2269,2268,2265,2264,2261,2260,2260,2260,2259,2260,2259,2259,2258,2256,2253,2249,2245,2241,2236,2229,2223,2216,2208,2200,2191,2184,2175,2166,2157,2149,2141,2136,2133,2130,2129,2128,2128,2128,2129,2128,2130,2131,2133,2134,2136,2138,2140,2141,2142,2143,2143,2142,2142,2139,2138,2133,2129,2125,2121,2118,2117,2115,2114,2115,2116,2116,2119,2119,2120,2118,2117,2113,2110,2105,2100,2095,2089,2082,2077,2072,2066,2060,2055,2050,2046,2042,2040,2037,2032,2029,2025,2020,2016,2012,2009,2006,2005,2003,2002,2001,2002,2000,2000,1999,1998,1996,1997,1995,1995,1993,1992,1991,1989,1986,1983,1979,1975,1972,1967,1962,1957,1952,1946,1941,1936,1931,1928,1927,1928,1931,1933,1936,1942,1947,1953,1957,1963,1968,1969,1969,1970,1970,1969,1966,1964,1959,1954,1950,1945,1940,1936,1931,1927,1923,1919,1917,1916,1916,1916,1916,1917,1917,1918,1920,1922,1924,1928,1932,1936,1941,1949,1956,1967,1977,1990,2003,2018,2033,2046,2061,2077,2092,2108,2123,2137,2149,2162,2172,2182,2198,2214,2227,2240,2251,2263,2272,2282,2290,2296,2301,2304,2306,2306,2302,2297,2290,2281,2273,2263,2255,2247,2237,2229,2221,2214,2206,2199,2190,2183,2174,2169,2163,2157,2153,2150,2145,2142,2137,2134,2131,2126,2121,2116,2111,2108,2103,2100,2097,2094,2092,2089,2086,2085,2084,2083,2082,2083,2083,2084,2085,2087,2089,2090,2094,2097,2100,2103,2107,2109,2112,2115,2118,2119,2121,2123,2123,2123,2123,2123,2122,2119,2118,2115,2114,2112,2111,2108,2107,2104,2101,2097,2092,2086,2079,2073,2065,2058,2052,2047,2042,2040,2036,2033,2031,2028,2025,2021,2018,2013,2007,2005,2000,1995,1991,1983,1976,1971,1966,1962,1958,1957,1955,1954,1954,1955,1958,1960,1964,1965,1967,1968,1968,1966,1963,1960,1958,1955,1953,1949,1947,1943,1939,1939,1938,1937,1937,1938,1938,1939,1940,1941,1943,1944,1946,1947,1949,1952,1953,1955,1954,1954,1953,1950,1948,1946,1943,1941,1940,1940,1940,1939,1937,1937,1935,1932,1929,1928,1928,1928,1930,1932,1935,1938,1943,1950,1958,1966,1977,1990,2004,2017,2032,2049,2065,2083,2100,2119,2139,2157,2176,2194,2212,2229,2245,2260,2279,2293,2304,2312,2319,2324,2328,2328,2328,2326,2323,2318,2315,2312,2308,2304,2300,2296,2292,2287,2282,2278,2271,2267,2260,2255,2249,2246,2242,2238,2236,2234,2231,2229,2228,2227,2228,2224,2220,2216,2211,2207,2202,2198,2195,2191,2187,2184,2185,2182,2183,2183,2182,2182,2179,2176,2172,2169,2164,2162,2160,2158,2158,2158,2158,2159,2159,2160,2160,2161,2161,2161,2161,2162,2164,2164,2166,2167,2167,2166,2166,2164,2163,2159,2155,2150,2145,2139,2133,2128,2123,2119,2113,2108,2102,2097,2093,2087,2083,2079,2074,2069,2063,2059,2055,2049,2043,2038,2030,2023,2016,2011,2006,2001,1997,1993,1990,1987,1984,1982,1980,1979,1978,1977,1974,1974,1972,1969,1969,1968,1967,1967,1966,1967,1968,1970,1973,1976,1978,1982,1984,1987,1991,1992,1993,1992,1991,1989,1988,1985,1982,1979,1974,1971,1968,1965,1965,1963,1964,1964,1964,1964,1964,1963,1962,1961,1961,1961,1960,1961,1961,1961,1961,1962,1962,1962,1961,1960,1958,1957,1954,1952,1947,1944,1937,1930,1922,1915,1910,1905,1899,1898,1895,1896,1900,1904,1911,1919,1928,1939,1950,1966,1981,2001,2023,2047,2072,2098,2125,2153,2180,2204,2229,2252,2274,2293,2308,2322,2337,2347,2353,2357,2361,2363,2363,2366,2366,2366,2366,2367,2366,2366,2366,2367,2368,2369,2369,2371,2373,2374,2375,2373,2373,2372,2371,2371,2370,2368,2365,2360,2354,2347,2339,2332,2324,2317,2309,2302,2295,2288,2280,2270,2262,2257,2249,2244,2240,2236,2234,2234,2231,2231,2231,2231,2231,2232,2231,2232,2232,2233,2235,2235,2235,2233,2230,2227,2222,2218,2210,2205,2198,2192,2186,2180,2175,2169,2163,2158,2151,2147,2142,2138,2135,2133,2129,2127,2125,2123,2121,2119,2118,2117,2116,2114,2113,2112,2110,2107,2103,2100,2095,2089,2083,2078,2073,2068,2064,2060,2057,2056,2056,2055,2055,2054,2053,2052,2052,2051,2052,2052,2051,2051,2051,2049,2048,2046,2042,2038,2033,2027,2021,2014,2006,1998,1990,1982,1973,1967,1961,1957,1952,1950,1948,1946,1944,1943,1942,1943,1945,1946,1945,1946,1943,1942,1941,1942,1943,1946,1948,1952,1955,1958,1960,1962,1963,1962,1960,1959,1958,1956,1956,1955,1955,1954,1952,1950,1948,1947,1945,1942,1940,1938,1933,1928,1924,1919,1915,1912,1909,1908,1908,1907,1906,1907,1907,1907,1909,1911,1913,1917,1921,1926,1931,1939,1947,1957,1967,1980,1994,2011,2028,2048,2067,2087,2108,2130,2152,2175,2199,2223,2245,2267,2287,2304,2320,2334,2351,2361,2367,2369,2370,2368,2364,2358,2350,2340,2329,2317,2305,2293,2281,2271,2263,2255,2250,2245,2239,2234,2228,2223,2219,2216,2213,2210,2210,2210,2209,2209,2209,2210,2211,2210,2209,2208,2206,2202,2198,2191,2185,2178,2169,2163,2158,2153,2150,2148,2146,2146,2147,2149,2152,2156,2160,2166,2170,2174,2174,2175,2175,2174,2174,2174,2173,2173,2172,2171,2170,2166,2162,2158,2153,2148,2144,2141,2137,2134,2131,2129,2127,2123,2120,2115,2110,2105,2100,2094,2088,2082,2075,2069,2062,2055,2049,2042,2038,2034,2031,2030,2026,2026,2024,2022,2020,2017,2013,2008,2000,1992,1986,1979,1973,1969,1967,1967,1968,1969,1970,1970,1970,1970,1967,1965,1963,1960,1957,1954,1951,1949,1948,1946,1943,1940,1936,1931,1927,1922,1916,1910,1904,1898,1894,1892,1892,1892,1892,1895,1895,1896,1897,1899,1898,1898,1898,1900,1899,1900,1900,1900,1901,1899,1898,1896,1896,1895,1895,1895,1894,1895,1895,1894,1892,1890,1888,1884,1882,1880,1879,1880,1881,1882,1884,1885,1889,1894,1899,1907,1914,1925,1937,1949,1964,1979,1995,2013,2029,2046,2064,2082,2102,2122,2142,2163,2182,2199,2217,2230,2250,2262,2268,2272,2275,2276,2275,2273,2269,2264,2259,2253,2247,2241,2235,2231,2227,2223,2222,2219,2217,2214,2210,2207,2204,2200,2197,2195,2193,2192,2189,2188,2185,2183,2179,2174,2169,2165,2160,2156,2154,2151,2150,2150,2149,2148,2147,2147,2147,2149,2149,2151,2151,2150,2148,2144,2138,2131,2125,2119,2113,2107,2104,2102,2101,2101,2102,2104,2104,2106,2107,2107,2107,2105,2104,2104,2104,2106,2107,2108,2108,2107,2105,2103,2098,2093,2086,2080,2072,2064,2055,2046,2038,2028,2019,2012,2005,1999,1993,1989,1985,1980,1975,1970,1965,1960,1955,1952,1948,1946,1946,1948,1948,1949,1953,1957,1960,1964,1968,1970,1969,1968,1966,1962,1957,1953,1951,1948,1946,1945,1944,1944,1943,1941,1939,1938,1934,1931,1927,1920,1915,1908,1902,1896,1891,1888,1886,1885,1885,1886,1886,1887,1888,1888,1888,1888,1889,1891,1893,1895,1898,1899,1899,1899,1900,1901,1901,1900,1900,1900,1898,1895,1890,1885,1877,1870,1861,1852,1846,1839,1835,1834,1835,1837,1842,1848,1855,1865,1876,1888,1902,1918,1936,1953,1972,1989,2007,2024,2042,2063,2081,2099,2118,2136,2162,2179,2192,2205,2216,2226,2236,2245,2253,2261,2265,2268,2268,2268,2266,2264,2261,2257,2252,2247,2240,2231,2223,2214,2207,2200,2195,2190,2187,2185,2183,2184,2184,2187,2190,2193,2196,2199,2202,2204,2206,2206,2207,2206,2203,2200,2196,2191,2186,2182,2178,2174,2171,2167,2164,2164,2163,2162,2162,2161,2160,2158,2158,2157,2156,2155,2154,2152,2150,2147,2144,2140,2136,2133,2129,2126,2125,2124,2123,2123,2122,2123,2122,2120,2116,2113,2108,2104,2101,2096,2092,2087,2082,2078,2074,2070,2067,2064,2062,2060,2059,2057,2055,2053,2050,2044,2040,2035,2028,2022,2018,2013,2008,2005,2002,1999,1996,1993,1990,1986,1983,1979,1976,1973,1968,1966,1961,1955,1951,1944,1939,1935,1931,1927,1924,1921,1919,1916,1914,1912,1909,1907,1902,1899,1895,1893,1892,1893,1893,1896,1898,1902,1907,1911,1914,1916,1917,1917,1915,1915,1913,1913,1913,1914,1915,1916,1916,1917,1916,1916,1916,1915,1914,1913,1915,1915,1915,1914,1912,1907,1901,1896,1889,1883,1877,1871,1868,1865,1863,1862,1862,1863,1862,1862,1862,1864,1864,1865,1864,1862,1860,1858,1854,1849,1845,1842,1839,1837,1836,1836,1837,1840,1841,1845,1848,1854,1860,1868,1875,1885,1895,1907,1919,1931,1945,1959,1974,1990,2008,2027,2046,2067,2088,2108,2129,2148,2167,2185,2202,2218,2234,2246,2264,2275,2281,2287,2291,2294,2295,2295,2293,2289,2283,2276,2269,2261,2253,2243,2236,2227,2220,2214,2209,2204,2201,2200,2198,2197,2197,2198,2200,2200,2201,2201,2202,2202,2202,2204,2205,2206,2207,2206,2202,2198,2193,2185,2176,2168,2162,2154,2148,2143,2140,2136,2135,2133,2131,2131,2131,2130,2130,2130,2129,2129,2129,2129,2128,2127,2126,2126,2124,2122,2120,2118,2116,2114,2111,2108,2102,2097,2092,2084,2078,2073,2069,2064,2059,2056,2054,2050,2048,2045,2044,2041,2038,2035,2032,2029,2025,2023,2020,2016,2013,2009,2006,2002,1998,1994,1990,1986,1982,1975,1968,1962,1955,1950,1943,1938,1932,1930,1927,1925,1923,1922,1922,1922,1921,1923,1924,1926,1927,1929,1931,1933,1934,1935,1935,1934,1933,1934,1934,1937,1938,1940,1941,1941,1942,1940,1939,1935,1932,1927,1923,1918,1914,1911,1908,1907,1906,1906,1904,1904,1903,1902,1900,1898,1898,1897,1898,1898,1898,1900,1899,1899,1899,1899,1899,1898,1897,1896,1895,1892,1891,1887,1884,1882,1877,1873,1869,1864,1858,1852,1849,1842,1836,1833,1829,1826,1825,1823,1822,1822,1823,1823,1823,1824,1825,1825,1826,1827,1827,1827,1827,1829,1833,1836,1841,1846,1851,1856,1860,1866,1874,1883,1894,1906,1918,1931,1944,1959,1974,1992,2012,2031,2052,2072,2092,2113,2132,2152,2170,2188,2203,2214,2224,2233,2235,2234,2231,2228,2224,2221,2218,2215,2211,2207,2202,2196,2190,2184,2179,2172,2167,2163,2158,2155,2151,2149,2148,2145,2144,2144,2146,2146,2147,2148,2149,2148,2146,2144,2139,2134,2127,2119,2112,2104,2100,2095,2093,2090,2088,2084,2082,2078,2075,2073,2070,2067,2064,2063,2064,2063,2067,2068,2069,2073,2076,2079,2084,2088,2090,2092,2094,2091,2090,2085,2082,2077,2074,2071,2069,2067,2065,2063,2062,2060,2058,2055,2053,2049,2042,2036,2030,2022,2014,2006,1998,1989,1983,1977,1970,1966,1961,1957,1954,1951,1948,1945,1943,1943,1941,1939,1939,1937,1936,1933,1932,1931,1929,1927,1925,1924,1924,1924,1923,1920,1918,1917,1915,1913,1910,1908,1905,1904,1902,1900,1898,1895,1894,1892,1890,1889,1885,1883,1881,1880,1879,1876,1876,1877,1877,1878,1880,1881,1882,1884,1886,1887,1886,1886,1883,1880,1875,1868,1862,1856,1849,1844,1839,1838,1836,1837,1839,1843,1846,1849,1854,1860,1865,1871,1877,1881,1885,1888,1889,1891,1891,1892,1892,1891,1894,1898,1902,1905,1911,1915,1920,1927,1937,1948,1962,1978,1994,2013,2032,2052,2072,2093,2114,2134,2153,2169,2184,2198,2209,2219,2228,2238,2244,2246,2247,2245,2243,2239,2235,2231,2225,2222,2217,2211,2205,2199,2192,2185,2179,2173,2167,2160,2152,2145,2138,2131,2125,2119,2115,2112,2110,2109,2111,2110,2112,2113,2115,2116,2119,2119,2119,2119,2119,2117,2116,2114,2112,2110,2107,2103,2099,2094,2088,2081,2074,2068,2063,2059,2056,2056,2056,2057,2059,2062,2064,2068,2071,2074,2078,2081,2084,2088,2091,2095,2099,2103,2105,2104,2104,2102,2100,2096,2093,2088,2083,2078,2072,2065,2057,2049,2040,2032,2022,2014,2007,1999,1992,1987,1982,1979,1976,1977,1976,1975,1976,1977,1977,1979,1980,1981,1981,1978,1976,1973,1971,1968,1966,1963,1961,1959,1957,1954,1952,1950,1949,1947,1945,1943,1941,1940,1938,1938,1936,1935,1934,1933,1932,1930,1928,1927,1926,1926,1926,1927,1926,1926,1924,1923,1923,1922,1921,1920,1919,1918,1917,1916,1915,1915,1916,1916,1918,1921,1923,1924,1926,1927,1925,1925,1922,1923,1920,1918,1916,1915,1914,1915,1914,1914,1915,1915,1915,1914,1914,1914,1912,1910,1908,1905,1903,1903,1902,1902,1902,1905,1909,1913,1920,1929,1939,1951,1965,1981,2000,2019,2040,2063,2085,2108,2129,2150,2169,2189,2208,2226,2242,2257,2269,2284,2295,2302,2305,2308,2307,2307,2304,2302,2300,2295,2290,2283,2276,2268,2261,2252,2245,2236,2231,2224,2218,2213,2208,2203,2199,2196,2191,2188,2185,2183,2181,2180,2177,2176,2177,2176,2174,2172,2170,2167,2165,2163,2161,2161,2162,2165,2166,2168,2168,2167,2165,2160,2156,2153,2145,2138,2132,2127,2123,2120,2118,2118,2118,2119,2120,2121,2122,2122,2123,2123,2122,2123,2122,2121,2119,2117,2115,2112,2110,2109,2107,2104,2103,2101,2098,2094,2090,2085,2080,2075,2072,2069,2067,2065,2064,2062,2058,2056,2052,2049,2047,2044,2041,2037,2033,2031,2026,2022,2017,2012,2004,1996,1989,1982,1975,1969,1963,1957,1950,1942,1935,1930,1925,1921,1917,1916,1914,1913,1912,1913,1915,1918,1921,1925,1929,1932,1934,1937,1939,1941,1943,1945,1947,1947,1948,1948,1949,1949,1949,1949,1950,1950,1950,1947,1946,1944,1940,1937,1931,1926,1919,1912,1907,1902,1898,1895,1893,1893,1894,1896,1896,1898,1899,1901,1902,1902,1902,1902,1902,1904,1904,1905,1905,1906,1905,1906,1907,1909,1909,1910,1909,1907,1905,1902,1897,1892,1889,1885,1881,1880,1878,1877,1878,1878,1878,1879,1882,1884,1887,1892,1898,1906,1915,1928,1942,1957,1973,1990,2009,2029,2050,2072,2093,2115,2135,2153,2167,2181,2196,2209,2220,2237,2249,2258,2267,2272,2279,2285,2290,2293,2297,2301,2303,2304,2306,2305,2303,2300,2297,2297,2296,2295,2292,2291,2287,2284,2280,2277,2274,2269,2266,2261,2256,2252,2249,2246,2244,2243,2240,2237,2234,2229,2225,2220,2215,2210,2206,2202,2198,2194,2192,2188,2185,2184,2180,2181,2179,2177,2175,2173,2171,2170,2169,2167,2168,2168,2167,2165,2164,2162,2160,2158,2155,2155,2156,2158,2159,2161,2163,2166,2168,2169,2171,2171,2170,2167,2165,2162,2158,2152,2147,2140,2135,2129,2124,2120,2116,2111,2105,2102,2098,2093,2088,2083,2077,2072,2066,2060,2055,2052,2046,2041,2038,2035,2028,2025,2022,2018,2014,2011,2006,2003,1999,1997,1995,1994,1993,1991,1989,1988,1986,1987,1986,1987,1988,1989,1988,1989,1989,1987,1986,1983,1982,1978,1974,1972,1969,1965,1962,1959,1956,1953,1950,1948,1946,1944,1943,1942,1942,1943,1945,1946,1948,1952,1955,1958,1959,1962,1963,1965,1965,1965,1966,1964,1963,1960,1956,1954,1949,1946,1943,1941,1939,1937,1935,1933,1929,1926,1923,1921,1917,1914,1912,1912,1912,1914,1919,1923,1928,1934,1942,1951,1962,1974,1988,2001,2017,2033,2049,2066,2084,2100,2116,2130,2142,2155,2167,2179,2197,2210,2221,2231,2241,2251,2258,2266,2272,2277,2283,2288,2293,2296,2297,2298,2296,2293,2290,2285,2280,2274,2267,2260,2255,2250,2246,2240,2236,2230,2225,2220,2216,2212,2208,2204,2202,2200,2198,2195,2193,2188,2184,2179,2176,2170,2166,2162,2156,2152,2148,2145,2141,2140,2138,2139,2139,2140,2141,2143,2145,2146,2148,2149,2150,2152,2154,2154,2154,2154,2155,2155,2154,2155,2155,2155,2154,2154,2153,2152,2148,2145,2141,2137,2132,2127,2121,2114,2108,2105,2100,2098,2097,2094,2095,2094,2093,2093,2091,2090,2086,2083,2077,2074,2069,2066,2061,2058,2055,2051,2048,2044,2041,2036,2030,2023,2015,2007,2001,1994,