1882,1883,1884,1884,1886,1889,1892,1893,1896,1899,1901,1903,1904,1906,1906,1907,1907,1906,1907,1907,1907,1906,1905,1904,1904,1905,1907,1910,1912,1914,1917,1919,1922,1922,1922,1923,1922,1921,1923,1925,1930,1938,1949,1963,1982,2003,2026,2054,2083,2113,2142,2172,2201,2230,2257,2284,2309,2331,2349,2366,2380,2395,2403,2405,2405,2403,2396,2387,2377,2363,2347,2333,2317,2301,2287,2272,2257,2242,2227,2212,2198,2184,2171,2158,2146,2137,2127,2118,2112,2105,2099,2095,2091,2089,2088,2085,2083,2081,2081,2078,2077,2075,2072,2072,2070,2070,2070,2069,2069,2069,2069,2066,2064,2059,2055,2048,2043,2040,2038,2035,2036,2037,2038,2039,2042,2044,2048,2051,2053,2057,2061,2063,2064,2065,2064,2064,2061,2058,2054,2048,2042,2037,2030,2022,2016,2012,2009,2005,2001,1998,1994,1989,1983,1977,1969,1962,1954,1947,1941,1935,1931,1928,1927,1927,1926,1926,1924,1924,1922,1921,1920,1917,1916,1914,1911,1909,1908,1907,1904,1902,1901,1902,1902,1902,1905,1906,1905,1904,1903,1901,1900,1899,1897,1896,1897,1897,1896,1894,1891,1890,1885,1882,1878,1874,1871,1869,1865,1862,1858,1857,1856,1854,1855,1856,1857,1860,1861,1864,1867,1869,1871,1871,1872,1871,1870,1867,1865,1861,1857,1851,1843,1838,1831,1826,1821,1818,1816,1815,1815,1817,1821,1827,1832,1837,1842,1847,1853,1861,1870,1881,1895,1910,1925,1944,1963,1983,2005,2028,2053,2077,2101,2128,2156,2182,2209,2235,2260,2283,2304,2323,2336,2353,2361,2362,2361,2357,2349,2340,2327,2313,2296,2278,2260,2241,2223,2207,2191,2176,2160,2145,2128,2114,2099,2088,2075,2066,2056,2047,2038,2032,2029,2027,2026,2027,2026,2028,2029,2032,2033,2036,2035,2036,2034,2032,2029,2025,2021,2018,2013,2010,2008,2005,2004,2006,2006,2008,2010,2013,2016,2020,2025,2028,2032,2036,2038,2040,2041,2041,2043,2042,2041,2041,2040,2038,2037,2037,2037,2035,2034,2034,2032,2028,2024,2018,2013,2007,1999,1991,1983,1973,1964,1957,1951,1945,1940,1935,1932,1931,1928,1927,1927,1926,1926,1924,1924,1923,1921,1918,1914,1910,1906,1904,1902,1900,1899,1898,1894,1893,1893,1892,1891,1889,1886,1885,1882,1879,1879,1879,1880,1880,1881,1881,1882,1882,1883,1884,1882,1883,1884,1885,1887,1891,1891,1894,1897,1900,1900,1901,1901,1901,1901,1900,1899,1897,1894,1894,1892,1891,1893,1895,1898,1900,1903,1905,1908,1910,1911,1912,1913,1910,1909,1907,1906,1904,1905,1905,1905,1904,1901,1900,1898,1897,1895,1897,1900,1904,1911,1921,1931,1946,1962,1982,2003,2026,2052,2079,2108,2138,2168,2198,2229,2257,2284,2308,2330,2349,2366,2379,2393,2399,2402,2402,2400,2397,2391,2384,2375,2365,2353,2341,2327,2313,2298,2283,2267,2250,2234,2217,2200,2184,2170,2156,2144,2133,2125,2120,2117,2115,2114,2113,2113,2113,2112,2112,2112,2109,2107,2104,2100,2098,2094,2093,2091,2089,2089,2087,2086,2086,2084,2084,2084,2082,2083,2083,2084,2085,2086,2085,2085,2086,2088,2089,2091,2092,2092,2092,2091,2091,2090,2089,2089,2087,2086,2085,2083,2081,2078,2074,2069,2063,2057,2052,2045,2039,2033,2029,2024,2022,2020,2018,2018,2017,2014,2013,2010,2008,2005,2002,1996,1991,1984,1977,1969,1960,1950,1940,1932,1922,1914,1908,1904,1903,1901,1903,1905,1906,1907,1910,1911,1913,1915,1917,1918,1920,1921,1922,1923,1924,1925,1926,1928,1929,1930,1929,1928,1927,1927,1927,1926,1926,1927,1926,1926,1924,1924,1923,1924,1926,1929,1933,1938,1942,1946,1950,1955,1960,1964,1967,1970,1972,1972,1971,1970,1968,1964,1959,1955,1951,1946,1944,1942,1940,1937,1935,1931,1929,1927,1928,1926,1924,1924,1924,1923,1924,1928,1932,1938,1947,1959,1972,1987,2005,2024,2042,2063,2085,2107,2130,2153,2179,2203,2230,2257,2282,2307,2330,2350,2371,2396,2413,2423,2430,2432,2431,2428,2424,2418,2412,2406,2400,2392,2384,2374,2365,2353,2341,2326,2310,2293,2275,2257,2240,2224,2210,2199,2187,2177,2170,2162,2157,2153,2149,2147,2144,2142,2139,2136,2132,2130,2128,2123,2119,2114,2109,2104,2100,2095,2092,2088,2083,2081,2078,2076,2076,2075,2075,2076,2077,2078,2080,2082,2083,2086,2088,2091,2093,2096,2097,2099,2100,2101,2103,2102,2103,2102,2100,2099,2096,2093,2088,2081,2072,2063,2054,2043,2034,2024,2016,2008,2001,1992,1987,1982,1977,1973,1970,1966,1962,1958,1954,1951,1947,1944,1940,1937,1937,1937,1937,1938,1938,1937,1936,1936,1935,1933,1931,1928,1924,1920,1915,1909,1904,1900,1895,1891,1886,1882,1878,1876,1875,1874,1875,1875,1876,1877,1881,1884,1888,1894,1898,1905,1909,1915,1919,1921,1924,1925,1925,1926,1925,1924,1923,1921,1919,1917,1913,1911,1910,1908,1906,1905,1903,1901,1899,1896,1893,1892,1891,1890,1890,1891,1892,1894,1896,1898,1900,1901,1902,1902,1903,1904,1904,1905,1908,1910,1914,1920,1925,1932,1940,1951,1965,1981,1999,2019,2041,2066,2091,2119,2146,2174,2203,2231,2257,2283,2307,2326,2344,2357,2368,2379,2382,2382,2380,2376,2369,2362,2354,2346,2336,2327,2320,2311,2301,2291,2279,2267,2253,2235,2220,2207,2193,2181,2170,2159,2148,2138,2129,2119,2111,2103,2096,2091,2085,2080,2075,2069,2064,2059,2054,2049,2047,2044,2042,2041,2041,2041,2042,2044,2047,2048,2051,2054,2057,2061,2064,2066,2066,2067,2066,2067,2066,2067,2069,2070,2071,2072,2073,2073,2073,2073,2072,2068,2066,2062,2057,2054,2050,2047,2043,2041,2036,2031,2027,2022,2017,2014,2011,2009,2005,2002,1999,1995,1990,1986,1980,1973,1969,1964,1960,1956,1952,1950,1946,1944,1942,1939,1936,1933,1931,1928,1926,1925,1924,1923,1921,1920,1919,1918,1918,1916,1917,1917,1917,1918,1919,1919,1919,1920,1922,1924,1928,1930,1933,1937,1942,1946,1951,1956,1958,1963,1965,1968,1968,1969,1969,1968,1967,1963,1959,1954,1950,1945,1940,1935,1929,1922,1916,1910,1905,1902,1899,1897,1895,1894,1891,1891,1891,1890,1891,1891,1892,1893,1894,1895,1893,1893,1890,1888,1886,1884,1882,1879,1879,1879,1879,1881,1884,1887,1892,1899,1909,1921,1937,1954,1974,1996,2021,2048,2077,2107,2139,2171,2205,2236,2264,2291,2313,2335,2354,2369,2382,2396,2402,2405,2405,2403,2399,2392,2383,2373,2361,2348,2333,2315,2297,2278,2259,2240,2221,2205,2188,2174,2161,2149,2139,2129,2121,2112,2104,2096,2089,2081,2074,2068,2063,2060,2056,2055,2055,2054,2053,2052,2050,2047,2043,2039,2035,2032,2030,2026,2023,2021,2018,2017,2018,2019,2022,2024,2029,2032,2036,2041,2046,2050,2054,2056,2057,2058,2059,2059,2062,2062,2062,2061,2059,2058,2055,2051,2047,2041,2037,2032,2026,2020,2014,2009,2002,1998,1994,1990,1986,1982,1978,1974,1969,1964,1958,1951,1945,1938,1932,1928,1924,1922,1919,1917,1915,1915,1915,1914,1913,1914,1915,1915,1916,1918,1920,1923,1926,1930,1933,1937,1942,1946,1949,1952,1953,1955,1955,1955,1953,1951,1950,1947,1944,1942,1939,1935,1929,1923,1916,1909,1902,1896,1892,1889,1886,1885,1884,1883,1882,1881,1882,1883,1886,1889,1893,1896,1901,1905,1910,1914,1917,1920,1920,1921,1921,1920,1918,1915,1911,1904,1900,1894,1890,1885,1880,1876,1873,1870,1868,1866,1865,1865,1866,1868,1873,1880,1890,1904,1920,1941,1963,1988,2014,2041,2069,2100,2129,2158,2186,2213,2240,2263,2284,2302,2319,2340,2351,2358,2362,2365,2367,2367,2365,2360,2355,2350,2343,2335,2326,2315,2304,2290,2276,2263,2249,2237,2223,2209,2197,2181,2166,2151,2138,2126,2113,2100,2088,2076,2067,2058,2052,2046,2042,2039,2037,2033,2032,2031,2031,2031,2032,2034,2036,2040,2042,2046,2052,2056,2063,2068,2074,2080,2085,2089,2094,2098,2102,2104,2106,2109,2110,2112,2112,2112,2109,2107,2103,2101,2099,2098,2095,2094,2092,2090,2086,2083,2080,2077,2073,2071,2068,2067,2064,2059,2056,2053,2049,2044,2042,2037,2032,2025,2019,2012,2006,2002,1996,1992,1986,1982,1978,1976,1974,1973,1973,1974,1975,1978,1980,1982,1985,1988,1991,1994,1996,2000,2001,2003,2007,2011,2013,2016,2017,2017,2016,2013,2010,2006,2003,1999,1997,1993,1990,1987,1983,1981,1979,1977,1973,1971,1968,1965,1963,1962,1962,1962,1962,1964,1967,1970,1972,1976,1978,1981,1983,1984,1985,1984,1982,1979,1975,1971,1967,1960,1954,1948,1943,1938,1935,1931,1928,1927,1927,1927,1929,1929,1930,1931,1930,1931,1933,1937,1945,1953,1965,1979,1996,2016,2041,2065,2093,2123,2153,2183,2213,2242,2268,2292,2314,2338,2359,2376,2393,2414,2427,2436,2441,2445,2444,2441,2437,2428,2417,2404,2390,2374,2358,2341,2324,2306,2288,2269,2252,2233,2215,2198,2181,2164,2147,2131,2117,2102,2092,2083,2076,2072,2068,2066,2065,2065,2065,2067,2068,2069,2071,2073,2075,2075,2075,2075,2075,2074,2074,2071,2069,2067,2065,2063,2061,2061,2060,2060,2063,2064,2067,2069,2071,2073,2076,2078,2080,2082,2085,2086,2086,2086,2085,2084,2081,2077,2073,2070,2068,2067,2069,2068,2070,2070,2068,2066,2062,2056,2051,2044,2039,2034,2028,2025,2021,2018,2012,2008,2003,1997,1991,1985,1978,1971,1965,1960,1956,1954,1953,1952,1951,1952,1952,1953,1954,1954,1954,1952,1950,1948,1946,1945,1943,1943,1941,1939,1937,1936,1935,1934,1936,1939,1941,1944,1945,1947,1949,1950,1950,1948,1945,1942,1938,1936,1931,1930,1929,1929,1931,1933,1936,1937,1939,1938,1937,1938,1938,1938,1938,1937,1938,1938,1937,1935,1936,1935,1935,1935,1935,1934,1935,1935,1935,1935,1935,1934,1933,1933,1932,1931,1930,1931,1930,1932,1932,1932,1935,1937,1940,1944,1951,1960,1972,1986,2002,2022,2043,2067,2093,2121,2148,2175,2203,2230,2257,2281,2305,2326,2344,2361,2373,2391,2402,2408,2410,2411,2411,2408,2402,2395,2387,2378,2367,2355,2344,2330,2315,2300,2285,2271,2256,2243,2230,2216,2203,2190,2177,2164,2149,2136,2123,2111,2098,2088,2079,2074,2070,2068,2068,2068,2068,2071,2072,2073,2076,2079,2080,2082,2083,2085,2084,2085,2086,2086,2089,2089,2091,2090,2090,2091,2092,2093,2094,2096,2098,2100,2103,2104,2106,2109,2111,2113,2113,2113,2111,2109,2103,2100,2095,2090,2085,2081,2079,2077,2075,2073,2070,2068,2065,2062,2058,2054,2050,2043,2039,2033,2029,2024,2020,2013,2008,2001,1995,1988,1983,1978,1972,1967,1963,1957,1952,1946,1941,1936,1932,1926,1921,1916,1911,1905,1901,1897,1894,1890,1886,1883,1880,1879,1877,1878,1879,1881,1884,1889,1893,1896,1900,1902,1905,1908,1911,1912,1912,1914,1913,1913,1915,1915,1915,1914,1911,1910,1907,1905,1900,1897,1895,1892,1890,1887,1885,1884,1882,1880,1878,1875,1876,1875,1875,1876,1877,1877,1880,1882,1883,1885,1888,1888,1889,1888,1885,1881,1875,1870,1864,1860,1858,1856,1855,1857,1860,1865,1872,1882,1894,1910,1928,1948,1973,1997,2024,2050,2078,2107,2136,2166,2196,2226,2255,2282,2305,2325,2342,2362,2373,2379,2383,2384,2383,2379,2372,2363,2354,2341,2328,2314,2300,2284,2269,2254,2239,2224,2211,2196,2183,2171,2160,2149,2139,2129,2120,2111,2101,2091,2082,2072,2063,2055,2046,2038,2030,2025,2022,2020,2019,2021,2023,2026,2027,2030,2032,2034,2038,2041,2044,2048,2054,2057,2060,2064,2066,2067,2067,2066,2064,2060,2057,2054,2050,2047,2043,2041,2041,2042,2041,2042,2045,2047,2049,2050,2052,2053,2054,2054,2055,2053,2055,2055,2052,2050,2046,2040,2034,2026,2019,2011,2003,1996,1989,1982,1975,1969,1962,1954,1948,1942,1937,1932,1928,1926,1924,1923,1924,1925,1925,1927,1928,1931,1932,1934,1937,1939,1941,1944,1945,1948,1951,1955,1957,1960,1961,1959,1956,1951,1945,1938,1931,1925,1918,1913,1910,1908,1910,1911,1915,1919,1924,1928,1931,1934,1935,1936,1935,1933,1931,1930,1928,1927,1927,1925,1925,1923,1920,1917,1914,1911,1908,1907,1905,1904,1904,1904,1903,1904,1905,1906,1908,1909,1911,1912,1914,1917,1921,1926,1932,1940,1949,1963,1978,1996,2018,2041,2067,2096,2124,2153,2184,2213,2240,2266,2291,2313,2332,2351,2365,2377,2391,2398,2401,2402,2402,2399,2396,2391,2385,2377,2369,2359,2349,2335,2320,2305,2289,2274,2261,2250,2241,2231,2223,2213,2203,2192,2181,2170,2161,2151,2142,2133,2124,2114,2105,2097,2090,2085,2080,2075,2072,2068,2066,2065,2065,2066,2069,2073,2078,2083,2089,2095,2103,2111,2119,2127,2135,2144,2151,2157,2162,2165,2166,2167,2167,2165,2165,2164,2163,2163,2163,2163,2163,2162,2161,2159,2158,2156,2154,2150,2144,2138,2132,2126,2118,2110,2102,2094,2085,2076,2066,2056,2047,2038,2029,2021,2011,2003,1993,1984,1976,1968,1961,1955,1948,1942,1936,1931,1927,1924,1923,1920,1920,1920,1921,1923,1925,1928,1930,1932,1934,1938,1942,1945,1947,1951,1952,1954,1953,1953,1951,1950,1948,1944,1940,1936,1932,1926,1923,1918,1915,1914,1914,1914,1914,1915,1919,1921,1926,1930,1935,1942,1946,1952,1958,1963,1968,1972,1976,1979,1980,1981,1979,1976,1974,1969,1964,1959,1954,1949,1946,1943,1942,1939,1938,1936,1933,1931,1930,1927,1925,1923,1923,1924,1929,1936,1948,1960,1974,1990,2011,2031,2054,2076,2101,2126,2151,2178,2202,2226,2251,2276,2297,2319,2339,2357,2381,2397,2407,2416,2422,2425,2427,2426,2423,2419,2412,2406,2396,2385,2373,2361,2347,2334,2319,2301,2285,2265,2247,2229,2212,2194,2176,2158,2142,2127,2114,2103,2095,2089,2088,2086,2089,2090,2092,2095,2098,2101,2103,2104,2107,2111,2115,2119,2124,2127,2131,2136,2140,2143,2142,2143,2143,2141,2139,2137,2135,2133,2130,2128,2126,2125,2122,2122,2123,2123,2124,2123,2122,2120,2118,2116,2113,2110,2106,2103,2101,2099,2099,2100,2101,2101,2102,2101,2098,2094,2091,2086,2080,2075,2068,2060,2054,2047,2041,2036,2031,2028,2026,2023,2022,2020,2019,2015,2012,2009,2006,2002,2000,1998,1995,1994,1992,1988,1986,1982,1980,1977,1972,1967,1964,1958,1954,1949,1946,1944,1942,1940,1941,1941,1941,1942,1943,1943,1946,1947,1948,1952,1953,1955,1959,1963,1967,1969,1971,1973,1977,1978,1979,1978,1977,1975,1970,1966,1960,1954,1948,1942,1937,1931,1926,1924,1921,1921,1920,1921,1922,1925,1928,1931,1935,1939,1943,1947,1951,1956,1962,1965,1968,1971,1972,1974,1973,1972,1969,1966,1960,1955,1949,1942,1935,1928,1922,1919,1916,1917,1921,1928,1937,1951,1968,1988,2010,2035,2064,2094,2127,2159,2193,2224,2255,2283,2311,2335,2358,2380,2399,2424,2440,2446,2449,2452,2449,2444,2438,2430,2421,2412,2403,2392,2383,2372,2361,2349,2337,2325,2312,2300,2288,2272,2261,2250,2240,2231,2221,2212,2205,2197,2189,2182,2176,2171,2165,2160,2155,2152,2150,2150,2149,2148,2148,2148,2149,2151,2152,2151,2150,2150,2146,2144,2140,2138,2134,2130,2127,2122,2117,2112,2107,2101,2099,2096,2094,2092,2092,2093,2094,2096,2098,2099,2101,2101,2103,2103,2103,2102,2100,2097,2093,2088,2081,2074,2066,2058,2050,2044,2038,2030,2025,2019,2014,2012,2010,2009,2007,2006,2005,2003,2003,2003,2001,1999,1996,1992,1988,1982,1978,1973,1968,1963,1960,1956,1956,1953,1953,1954,1955,1956,1958,1960,1963,1966,1968,1972,1974,1978,1982,1984,1987,1990,1993,1998,2001,2005,2008,2012,2012,2010,2009,2007,2006,2003,1999,1997,1993,1992,1991,1988,1988,1987,1985,1983,1980,1976,1972,1968,1963,1961,1960,1959,1958,1957,1957,1957,1956,1955,1954,1951,1949,1945,1941,1935,1931,1926,1920,1917,1914,1911,1908,1907,1906,1904,1903,1903,1903,1904,1905,1906,1908,1909,1912,1915,1921,1927,1936,1947,1959,1974,1990,2007,2026,2045,2066,2088,2111,2135,2161,2187,2213,2238,2263,2287,2308,2329,2349,2366,2387,2400,2409,2415,2419,2421,2422,2419,2414,2409,2402,2394,2386,2375,2362,2349,2335,2320,2304,2286,2270,2252,2235,2219,2204,2190,2177,2167,2158,2150,2144,2138,2133,2129,2125,2122,2121,2120,2119,2121,2122,2122,2122,2122,2119,2117,2113,2110,2108,2104,2101,2100,2099,2099,2100,2101,2104,2110,2116,2123,2130,2136,2143,2149,2154,2159,2164,2167,2168,2170,2170,2170,2169,2169,2167,2164,2161,2157,2154,2151,2146,2141,2134,2127,2119,2110,2101,2089,2079,2068,2057,2047,2037,2028,2019,2012,2006,2001,1996,1990,1987,1982,1979,1975,1973,1974,1973,1973,1972,1972,1969,1966,1962,1959,1957,1955,1953,1951,1950,1950,1949,1950,1951,1952,1952,1951,1949,1948,1946,1944,1943,1943,1942,1942,1942,1943,1944,1946,1947,1948,1949,1950,1952,1953,1954,1956,1958,1961,1964,1967,1969,1971,1974,1975,1976,1976,1976,1974,1972,1970,1968,1963,1960,1955,1951,1947,1943,1938,1932,1928,1922,1917,1914,1909,1907,1905,1902,1902,1902,1902,1904,1907,1909,1912,1916,1921,1926,1932,1936,1939,1944,1950,1958,1969,1983,2000,2021,2046,2071,2097,2125,2154,2182,2211,2240,2267,2291,2314,2334,2351,2367,2379,2389,2400,2404,2406,2407,2407,2405,2401,2395,2388,2379,2370,2360,2347,2336,2324,2312,2298,2284,2272,2259,2247,2233,2221,2211,2199,2187,2176,2166,2157,2148,2142,2137,2133,2128,2124,2121,2119,2116,2114,2112,2111,2111,2113,2114,2116,2120,2123,2126,2128,2131,2135,2138,2141,2144,2148,2150,2155,2159,2164,2166,2167,2169,2170,2170,2168,2166,2164,2162,2161,2162,2161,2161,2163,2166,2168,2170,2173,2174,2175,2175,2172,2168,2161,2153,2145,2137,2129,2122,2115,2109,2104,2101,2098,2096,2094,2092,2091,2089,2088,2086,2083,2079,2075,2070,2067,2064,2061,2058,2056,2054,2051,2049,2046,2044,2039,2034,2030,2026,2022,2020,2018,2017,2018,2020,2021,2023,2025,2028,2028,2027,2026,2024,2023,2023,2023,2023,2026,2030,2034,2037,2041,2042,2045,2047,2049,2049,2047,2043,2036,2030,2024,2017,2010,2004,1997,1993,1987,1983,1979,1976,1972,1971,1969,1967,1967,1965,1965,1965,1965,1965,1965,1965,1965,1964,1962,1962,1961,1962,1962,1965,1970,1976,1982,1989,1999,2010,2022,2038,2056,2076,2099,2122,2146,2172,2198,2223,2247,2272,2295,2320,2342,2363,2382,2400,2420,2435,2443,2448,2451,2450,2446,2440,2436,2428,2420,2412,2402,2392,2381,2369,2357,2346,2333,2318,2304,2288,2272,2258,2244,2233,2223,2214,2208,2201,2199,2196,2194,2193,2192,2192,2192,2191,2190,2189,2189,2186,2183,2178,2172,2166,2159,2152,2146,2141,2137,2135,2135,2137,2139,2144,2150,2155,2161,2168,2173,2178,2181,2183,2183,2186,2186,2184,2184,2183,2181,2178,2176,2173,2171,2167,2162,2158,2153,2152,2150,2147,2145,2142,2140,2135,2131,2125,2122,2117,2113,2108,2103,2099,2093,2087,2083,2078,2075,2073,2071,2069,2068,2068,2066,2066,2066,2065,2064,2062,2060,2058,2056,2054,2048,2042,2036,2026,2018,2009,2000,1990,1978,1969,1960,1955,1950,1947,1944,1942,1941,1940,1942,1946,1951,1957,1963,1968,1973,1978,1981,1983,1983,1982,1980,1978,1975,1973,1973,1971,1972,1973,1971,1970,1967,1965,1964,1962,1961,1961,1961,1963,1964,1964,1966,1966,1966,1964,1962,1958,1955,1954,1951,1948,1944,1941,1936,1931,1927,1923,1920,1916,1914,1913,1914,1918,1924,1934,1944,1957,1974,1991,2009,2030,2053,2078,2105,2135,2166,2196,2227,2256,2285,2311,2336,2357,2377,2393,2411,2421,2425,2427,2427,2425,2423,2421,2418,2415,2409,2402,2393,2384,2373,2360,2347,2332,2318,2303,2289,2276,2262,2249,2238,2228,2219,2210,2202,2196,2191,2187,2186,2185,2184,2185,2189,2191,2194,2196,2198,2197,2196,2193,2191,2188,2183,2177,2172,2163,2157,2151,2146,2141,2136,2134,2132,2132,2133,2135,2138,2142,2145,2148,2152,2153,2155,2158,2160,2163,2166,2166,2167,2167,2164,2159,2154,2146,2137,2128,2119,2111,2106,2099,2095,2090,2084,2079,2073,2068,2063,2057,2053,2048,2044,2041,2038,2036,2034,2031,2029,2028,2027,2024,2022,2019,2016,2012,2008,2005,2001,1998,1996,1992,1990,1986,1985,1981,1979,1977,1976,1975,1974,1974,1974,1974,1973,1973,1971,1969,1964,1960,1955,1952,1946,1942,1937,1933,1929,1925,1920,1917,1915,1914,1913,1913,1912,1911,1909,1905,1900,1897,1895,1894,1893,1892,1892,1891,1891,1889,1888,1887,1888,1888,1888,1889,1891,1892,1893,1894,1896,1896,1898,1897,1896,1893,1890,1885,1880,1873,1869,1863,1859,1855,1852,1850,1848,1849,1848,1847,1845,1843,1841,1841,1842,1845,1851,1861,1871,1886,1905,1926,1951,1978,2008,2039,2072,2106,2138,2171,2201,2229,2255,2278,2297,2313,2325,2337,2342,2344,2343,2338,2332,2324,2314,2303,2293,2281,2268,2256,2245,2236,2226,2217,2207,2197,2186,2173,2162,2149,2138,2127,2116,2106,2096,2087,2080,2075,2070,2065,2060,2055,2051,2045,2041,2036,2033,2028,2024,2023,2024,2026,2029,2031,2034,2035,2037,2039,2040,2041,2042,2042,2041,2039,2038,2036,2033,2034,2032,2033,2034,2036,2038,2040,2041,2043,2046,2047,2047,2045,2041,2035,2031,2026,2023,2019,2016,2014,2012,2009,2006,2003,1998,1993,1990,1986,1982,1980,1976,1975,1974,1973,1972,1971,1970,1971,1970,1970,1971,1971,1969,1968,1964,1961,1956,1953,1948,1944,1940,1935,1932,1928,1925,1921,1917,1910,1903,1896,1890,1883,1879,1873,1870,1866,1864,1862,1860,1859,1859,1861,1862,1865,1869,1873,1877,1880,1883,1884,1885,1885,1884,1884,1881,1880,1878,1878,1878,1880,1882,1885,1887,1891,1894,1897,1896,1894,1893,1891,1887,1883,1880,1876,1874,1868,1866,1862,1860,1858,1857,1856,1855,1856,1858,1860,1862,1864,1868,1871,1876,1880,1885,1892,1897,1904,1911,1922,1933,1947,1962,1980,1999,2022,2044,2070,2095,2120,2145,2167,2190,2210,2230,2247,2264,2279,2293,2310,2322,2331,2337,2341,2343,2342,2340,2335,2328,2320,2309,2296,2286,2273,2259,2245,2231,2217,2203,2187,2173,2159,2145,2133,2121,2110,2101,2094,2088,2083,2079,2078,2075,2075,2073,2072,2071,2068,2065,2063,2061,2061,2061,2063,2063,2063,2063,2063,2061,2060,2058,2056,2054,2052,2049,2047,2044,2042,2040,2038,2037,2037,2038,2040,2043,2046,2050,2056,2060,2064,2066,2068,2070,2071,2072,2072,2072,2070,2069,2065,2064,2060,2057,2054,2050,2047,2043,2041,2036,2032,2029,2024,2020,2015,2010,2004,1998,1991,1983,1975,1969,1963,1957,1952,1948,1946,1946,1945,1947,1951,1955,1961,1966,1972,1977,1983,1986,1989,1989,1988,1985,1981,1977,1973,1968,1962,1957,1951,1945,1939,1935,1930,1926,1921,1918,1917,1914,1914,1912,1911,1910,1910,1911,1912,1914,1917,1923,1928,1931,1936,1937,1938,1939,1940,1940,1941,1939,1938,1937,1935,1934,1933,1932,1932,1931,1931,1932,1930,1931,1930,1928,1927,1925,1924,1921,1919,1916,1912,1909,1906,1902,1900,1897,1896,1894,1893,1891,1891,1890,1892,1896,1903,1914,1926,1941,1958,1978,2000,2024,2049,2076,2102,2131,2160,2189,2219,2247,2273,2300,2323,2344,2362,2386,2401,2409,2414,2414,2411,2407,2399,2390,2379,2366,2353,2340,2324,2309,2295,2280,2264,2249,2232,2217,2203,2190,2180,2171,2165,2160,2155,2151,2147,2145,2143,2142,2142,2141,2141,2140,2137,2135,2132,2127,2122,2117,2110,2103,2097,2091,2084,2081,2078,2078,2079,2082,2084,2086,2089,2091,2094,2095,2097,2099,2101,2102,2102,2101,2098,2096,2091,2087,2082,2076,2071,2067,2063,2059,2056,2056,2056,2056,2056,2056,2057,2056,2053,2050,2048,2043,2040,2034,2030,2024,2017,2009,2002,1995,1986,1980,1974,1970,1965,1960,1955,1950,1947,1943,1940,1936,1934,1931,1928,1926,1923,1920,1917,1914,1912,1911,1911,1911,1911,1912,1913,1913,1914,1917,1918,1920,1920,1921,1921,1920,1918,1916,1913,1909,1905,1902,1899,1898,1895,1894,1894,1895,1898,1902,1907,1912,1917,1922,1927,1932,1938,1942,1945,1948,1949,1952,1951,1951,1949,1946,1942,1937,1933,1926,1920,1914,1907,1902,1897,1892,1888,1886,1883,1880,1876,1873,1870,1869,1867,1867,1866,1866,1862,1861,1857,1856,1855,1855,1855,1855,1857,1858,1860,1864,1869,1874,1881,1886,1894,1903,1914,1927,1944,1961,1981,2002,2024,2048,2073,2098,2122,2147,2174,2199,2224,2247,2269,2290,2308,2326,2348,2363,2371,2376,2379,2377,2375,2369,2361,2351,2339,2324,2309,2292,2274,2255,2236,2217,2198,2180,2163,2147,2133,2117,2104,2093,2082,2073,2064,2058,2052,2049,2046,2045,2046,2046,2047,2047,2046,2046,2043,2042,2040,2037,2032,2028,2022,2015,2009,2002,1996,1991,1987,1984,1982,1980,1981,1982,1984,1990,1996,2003,2012,2022,2031,2040,2045,2051,2054,2057,2057,2057,2056,2055,2051,2048,2044,2039,2035,2031,2027,2024,2020,2016,2013,2010,2007,2004,2001,1995,1989,1982,1975,1969,1962,1956,1948,1943,1937,1932,1928,1924,1919,1915,1909,1904,1900,1896,1892,1888,1885,1882,1880,1880,1879,1881,1880,1880,1882,1884,1885,1887,1890,1894,1898,1902,1906,1909,1913,1915,1916,1917,1917,1917,1917,1917,1916,1917,1918,1920,1922,1924,1927,1930,1931,1933,1933,1935,1934,1933,1931,1928,1925,1919,1915,1912,1907,1905,1902,1900,1899,1899,1900,1900,1903,1906,1908,1910,1912,1912,1914,1915,1915,1914,1913,1911,1909,1906,1903,1900,1899,1897,1897,1896,1894,1891,1889,1887,1884,1882,1879,1877,1875,1874,1872,1871,1872,1873,1876,1882,1890,1901,1914,1932,1952,1975,2001,2029,2058,2091,2124,2158,2190,2220,2251,2279,2306,2329,2350,2367,2381,2396,2403,2405,2403,2399,2392,2384,2373,2362,2349,2334,2319,2304,2290,2276,2263,2251,2239,2226,2215,2202,2191,2181,2169,2159,2150,2144,2137,2131,2129,2125,2125,2124,2123,2122,2120,2117,2112,2108,2102,2097,2090,2085,2079,2075,2073,2071,2069,2067,2064,2062,2060,2058,2059,2060,2063,2066,2070,2075,2079,2082,2086,2089,2092,2094,2094,2093,2093,2094,2094,2094,2093,2093,2093,2091,2091,2091,2092,2091,2090,2088,2084,2081,2078,2073,2067,2062,2056,2053,2049,2044,2038,2032,2024,2017,2010,2002,1993,1986,1979,1972,1968,1965,1962,1961,1960,1960,1960,1960,1961,1962,1964,1966,1969,1971,1973,1975,1977,1978,1980,1981,1982,1983,1984,1981,1980,1977,1973,1968,1965,1961,1958,1955,1953,1951,1951,1953,1957,1960,1966,1971,1976,1982,1987,1989,1993,1994,1994,1994,1995,1993,1991,1989,1987,1985,1984,1985,1986,1988,1991,1992,1993,1995,1997,1996,1996,1996,1995,1994,1993,1990,1989,1984,1981,1975,1969,1963,1957,1949,1943,1937,1932,1928,1926,1925,1925,1926,1930,1934,1939,1945,1951,1955,1961,1964,1967,1970,1970,1972,1972,1971,1971,1971,1973,1977,1981,1988,1996,2008,2023,2041,2060,2082,2105,2129,2154,2179,2206,2232,2257,2281,2305,2327,2348,2365,2382,2397,2416,2430,2437,2443,2446,2446,2445,2442,2439,2431,2423,2415,2404,2392,2379,2365,2347,2331,2312,2294,2274,2255,2237,2219,2202,2188,2175,2164,2157,2152,2147,2145,2143,2142,2139,2138,2137,2135,2134,2132,2130,2130,2128,2128,2126,2127,2125,2125,2124,2122,2120,2119,2116,2116,2115,2115,2115,2115,2113,2111,2110,2107,2105,2103,2099,2097,2097,2097,2095,2093,2094,2094,2093,2092,2092,2093,2093,2094,2094,2093,2090,2088,2082,2078,2071,2064,2057,2052,2048,2041,2036,2029,2023,2016,2009,2003,1998,1993,1986,1982,1977,1974,1969,1966,1962,1959,1957,1955,1954,1952,1950,1948,1946,1947,1947,1948,1947,1946,1945,1945,1944,1945,1945,1946,1948,1949,1949,1949,1948,1946,1944,1942,1940,1938,1937,1936,1935,1935,1935,1935,1936,1935,1935,1934,1932,1930,1928,1927,1926,1924,1923,1923,1924,1925,1927,1929,1934,1938,1941,1943,1942,1942,1941,1937,1933,1929,1926,1922,1918,1916,1914,1911,1909,1906,1903,1899,1897,1894,1892,1890,1889,1889,1890,1890,1892,1895,1897,1901,1906,1911,1917,1921,1924,1925,1925,1926,1924,1922,1920,1919,1918,1918,1920,1925,1933,1944,1958,1976,1997,2019,2043,2069,2094,2119,2146,2172,2197,2223,2248,2273,2294,2315,2334,2349,2367,2378,2384,2385,2387,2383,2378,2369,2360,2348,2335,2319,2302,2286,2269,2251,2235,2220,2205,2191,2176,2163,2150,2138,2127,2116,2106,2097,2089,2082,2078,2075,2074,2072,2070,2068,2065,2063,2059,2056,2054,2053,2049,2050,2049,2051,2052,2055,2056,2057,2059,2061,2065,2067,2070,2073,2076,2078,2079,2080,2081,2080,2080,2078,2075,2074,2075,2074,2073,2070,2068,2065,2063,2060,2057,2053,2049,2046,2041,2037,2033,2030,2026,2022,2017,2015,2011,2009,2006,2003,1999,1994,1991,1986,1982,1977,1972,1965,1959,1953,1946,1939,1933,1927,1920,1913,1907,1902,1897,1894,1891,1888,1885,1883,1880,1879,1877,1877,1878,1880,1882,1884,1887,1890,1893,1895,1900,1903,1906,1907,1911,1912,1913,1915,1917,1919,1922,1926,1928,1932,1935,1940,1941,1943,1943,1942,1939,1934,1927,1919,1912,1904,1899,1893,1890,1887,1885,1883,1884,1883,1883,1883,1883,1884,1884,1883,1881,1880,1878,1878,1877,1879,1880,1882,1885,1886,1889,1890,1891,1893,1892,1890,1889,1888,1886,1886,1889,1890,1894,1899,1905,1909,1915,1919,1922,1926,1929,1930,1932,1934,1935,1938,1940,1945,1952,1961,1971,1986,2001,2020,2041,2064,2089,2116,2144,2172,2201,2228,2254,2278,2299,2320,2338,2354,2368,2380,2393,2399,2402,2401,2398,2392,2385,2375,2364,2351,2338,2323,2309,2295,2281,2267,2253,2237,2222,2207,2190,2175,2160,2147,2133,2121,2109,2099,2088,2077,2068,2059,2052,2045,2038,2034,2030,2028,2026,2024,2024,2024,2024,2025,2027,2028,2031,2034,2038,2043,2050,2054,2061,2070,2076,2085,2094,2102,2109,2115,2120,2124,2128,2131,2133,2136,2139,2141,2142,2141,2140,2137,2134,2130,2125,2119,2114,2109,2105,2101,2099,2097,2095,2094,2093,2092,2092,2092,2093,2092,2090,2088,2086,2080,2076,2069,2064,2055,2048,2040,2032,2024,2015,2008,2001,1995,1991,1986,1981,1978,1974,1971,1971,1970,1972,1974,1976,1978,1981,1983,1985,1986,1988,1989,1990,1991,1992,1994,1995,1996,1999,1999,1999,1999,2000,2002,2002,2005,2009,2012,2015,2019,2021,2025,2026,2025,2025,2024,2022,2019,2013,2009,2004,1999,1993,1987,1983,1978,1974,1970,1967,1965,1963,1959,1956,1954,1952,1952,1951,1953,1951,1951,1952,1952,1952,1953,1954,1955,1957,1958,1961,1963,1964,1965,1964,1964,1963,1963,1961,1959,1958,1954,1954,1952,1950,1948,1948,1948,1949,1950,1955,1960,1969,1980,1995,2014,2035,2059,2085,2112,2139,2168,2198,2228,2259,2288,2316,2343,2367,2391,2412,2431,2455,2470,2479,2487,2493,2497,2498,2497,2493,2488,2479,2469,2458,2448,2435,2419,2405,2393,2379,2365,2349,2335,2319,2303,2288,2273,2259,2247,2235,2225,2215,2207,2199,2192,2186,2181,2178,2176,2175,2174,2173,2172,2170,2166,2163,2160,2155,2152,2150,2147,2145,2143,2140,2139,2138,2138,2137,2139,2141,2145,2147,2151,2154,2155,2156,2156,2156,2156,2155,2154,2152,2151,2150,2148,2148,2146,2143,2140,2137,2134,2130,2127,2123,2121,2118,2116,2111,2109,2104,2099,2095,2090,2085,2081,2075,2072,2067,2062,2057,2051,2047,2042,2037,2030,2026,2024,2019,2018,2016,2013,2013,2012,2011,2009,2006,2004,2003,2000,1997,1994,1993,1991,1988,1987,1986,1986,1986,1987,1989,1990,1991,1992,1994,1994,1993,1992,1989,1988,1988,1988,1988,1987,1987,1984,1982,1979,1977,1975,1972,1969,1967,1964,1964,1964,1963,1961,1961,1959,1958,1959,1958,1959,1960,1962,1964,1967,1966,1967,1965,1963,1957,1953,1946,1940,1933,1927,1920,1915,1911,1908,1907,1906,1906,1907,1911,1913,1917,1920,1923,1925,1928,1931,1933,1935,1935,1936,1936,1938,1938,1940,1939,1937,1933,1928,1921,1914,1908,1903,1898,1896,1898,1902,1907,1917,1928,1942,1957,1973,1992,2015,2041,2070,2100,2133,2165,2195,2225,2253,2280,2303,2325,2345,2362,2377,2397,2411,2420,2429,2435,2438,2439,2439,2434,2429,2423,2416,2406,2396,2385,2372,2359,2346,2329,2314,2299,2284,2270,2256,2241,2229,2218,2207,2198,2191,2184,2178,2173,2168,2165,2161,2158,2155,2153,2151,2148,2147,2147,2148,2150,2152,2153,2154,2155,2157,2158,2158,2160,2160,2162,2163,2165,2167,2169,2171,2173,2178,2182,2185,2189,2192,2196,2200,2204,2209,2213,2216,2219,2220,2222,2221,2219,2215,2210,2202,2194,2183,2174,2163,2152,2141,2132,2123,2112,2101,2090,2079,2067,2056,2047,2038,2030,2023,2018,2012,2008,2002,1998,1995,1991,1988,1986,1983,1980,1977,1976,1975,1975,1973,1971,1971,1968,1967,1966,1965,1965,1965,1965,1965,1965,1964,1964,1962,1962,1960,1959,1958,1958,1957,1958,1958,1957,1957,1958,1958,1960,1961,1963,1964,1966,1967,1966,1964,1962,1959,1956,1951,1946,1941,1934,1927,1921,1916,1912,1908,1904,1900,1898,1896,1893,1893,1892,1893,1894,1894,1894,1894,1894,1892,1891,1887,1883,1879,1874,1871,1866,1863,1861,1859,1859,1857,1858,1859,1858,1859,1860,1861,1861,1862,1863,1865,1867,1870,1872,1875,1878,1880,1881,1882,1883,1883,1881,1878,1875,1872,1869,1869,1868,1871,1875,1881,1891,1903,1917,1935,1954,1975,1998,2024,2050,2079,2108,2137,2166,2195,2223,2251,2277,2304,2327,2348,2365,2385,2394,2397,2398,2397,2393,2387,2380,2372,2363,2351,2341,2328,2318,2305,2292,2278,2264,2249,2234,2219,2203,2188,2172,2157,2141,2128,2115,2105,2097,2090,2084,2080,2078,2075,2073,2072,2070,2069,2067,2067,2066,2068,2071,2075,2078,2083,2087,2091,2095,2098,2101,2104,2105,2106,2108,2111,2114,2118,2121,2124,2127,2129,2130,2132,2132,2133,2131,2130,2129,2128,2127,2124,2122,2120,2119,2119,2117,2118,2118,2117,2115,2111,2108,2103,2097,2092,2084,2077,2071,2061,2052,2041,2031,2021,2011,2003,1994,1987,1980,1974,1969,1963,1958,1953,1949,1946,1942,1940,1938,1937,1935,1934,1932,1932,1932,1932,1933,1935,1936,1936,1935,1933,1933,1933,1934,1935,1937,1939,1941,1944,1946,1950,1952,1955,1956,1957,1955,1954,1951,1949,1946,1944,1941,1938,1934,1931,1928,1925,1922,1920,1920,1921,1923,1924,1925,1928,1928,1930,1930,1929,1929,1929,1930,1931,1933,1935,1937,1938,1938,1938,1936,1935,1934,1933,1931,1930,1931,1930,1930,1928,1928,1927,1925,1924,1923,1924,1924,1923,1924,1922,1923,1924,1926,1930,1936,1944,1955,1966,1982,1999,2018,2041,2066,2092,2119,2146,2175,2204,2232,2258,2283,2305,2325,2344,2360,2376,2393,2405,2412,2418,2421,2422,2422,2417,2411,2401,2388,2374,2359,2343,2326,2309,2291,2273,2256,2239,2223,2209,2196,2185,2176,2165,2157,2151,2146,2142,2139,2137,2135,2134,2132,2131,2129,2128,2125,2120,2116,2113,2108,2102,2099,2094,2091,2091,2090,2090,2093,2095,2100,2106,2111,2117,2124,2131,2138,2144,2149,2153,2158,2161,2165,2167,2170,2171,2172,2173,2174,2176,2176,2176,2175,2173,2169,2166,2160,2153,2147,2139,2134,2128,2124,2120,2118,2115,2112,2110,2105,2099,2093,2086,2078,2072,2067,2063,2056,2050,2043,2036,2029,2025,2020,2016,2014,2011,2010,2008,2007,2005,2002,1998,1995,1991,1988,1985,1984,1983,1984,1984,1987,1988,1989,1989,1993,1994,1995,1995,1999,2001,2004,2006,2009,2009,2006,2004,2002,2000,1998,1995,1996,1998,1999,1998,1997,1996,1995,1991,1990,1991,1992,1993,1996,1999,2001,2003,2003,2005,2004,2003,2001,2000,1999,1997,1997,1998,1998,2001,2002,2003,2004,2004,2004,2003,2002,1999,1995,1990,1984,1979,1972,1966,1959,1953,1948,1944,1942,1944,1948,1954,1963,1976,1992,2011,2034,2060,2088,2117,2148,2178,2208,2237,2264,2292,2317,2340,2361,2379,2395,2415,2426,2433,2436,2436,2435,2433,2427,2420,2411,2403,2394,2385,2376,2367,2358,2351,2343,2334,2326,2317,2307,2297,2286,2275,2267,2259,2250,2242,2236,2231,2227,2223,2221,2218,2216,2213,2209,2206,2203,2202,2203,2204,2206,2209,2211,2211,2212,2212,2210,2208,2205,2204,2201,2198,2196,2194,2191,2189,2187,2187,2185,2183,2180,2178,2175,2174,2173,2173,2172,2173,2173,2172,2171,2170,2170,2169,2168,2167,2165,2163,2158,2154,2149,2143,2138,2132,2126,2122,2116,2112,2107,2101,2097,2093,2087,2081,2075,2068,2063,2056,2052,2049,2044,2039,2035,2031,2026,2022,2018,2016,2013,2013,2013,2014,2015,2014,2014,2012,2012,2008,2004,2000,1995,1989,1984,1979,1976,1975,1975,1974,1975,1977,1978,1980,1981,1981,1981,1978,1978,1975,1973,1971,1972,1971,1971,1970,1968,1966,1966,1966,1965,1966,1965,1964,1963,1961,1959,1956,1953,1950,1947,1946,1945,1944,1941,1940,1937,1934,1931,1929,1925,1923,1920,1916,1914,1913,1915,1916,1920,1923,1927,1932,1935,1939,1942,1945,1946,1945,1943,1941,1937,1933,1932,1931,1931,1932,1936,1939,1946,1953,1963,1975,1988,2001,2018,2035,2054,2075,2098,2124,2150,2178,2205,2234,2262,2288,2314,2338,2360,2380,2397,2410,2427,2436,2441,2445,2448,2447,2444,2439,2430,2420,2409,2396,2381,2366,2353,2337,2322,2307,2291,2276,2259,2245,2231,2219,2208,2196,2190,2186,2183,2181,2180,2181,2182,2184,2186,2189,2191,2192,2192,2192,2190,2188,2185,2181,2179,2176,2174,2171,2168,2166,2163,2160,2157,2152,2150,2147,2145,2143,2143,2143,2143,2144,2142,2142,2143,2145,2146,2149,2151,2155,2156,2157,2158,2157,2154,2151,2149,2147,2145,2141,2137,2132,2127,2123,2116,2110,2103,2098,2090,2082,2076,2069,2063,2056,2052,2049,2047,2046,2044,2042,2039,2034,2031,2027,2023,2018,2014,2010,2005,2000,1994,1987,1981,1974,1965,1960,1953,1949,1944,1941,1938,1935,1932,1930,1928,1929,1930,1934,1939,1946,1952,1960,1968,1976,1984,1991,1999,2005,2010,2014,2016,2017,2015,2013,2011,2007,2003,1999,1995,1991,1987,1984,1979,1973,1967,1962,1956,1951,1947,1941,1935,1930,1926,1924,1923,1924,1923,1925,1924,1925,1926,1926,1924,1925,1924,1923,1922,1920,1919,1918,1918,1919,1921,1923,1925,1928,1930,1930,1930,1928,1925,1922,1919,1918,1916,1914,1913,1913,1912,1911,1913,1914,1914,1916,1917,1918,1920,1925,1931,1938,1948,1961,1976,1993,2013,2035,2057,2080,2103,2130,2155,2181,2205,2230,2255,2275,2295,2313,2328,2341,2358,2369,2376,2381,2385,2387,2387,2382,2375,2367,2355,2342,2330,2316,2301,2285,2270,2255,2240,2223,2210,2194,2181,2168,2155,2145,2134,2126,2118,2110,2102,2094,2088,2083,2077,2075,2072,2068,2067,2067,2067,2068,2070,2075,2078,2083,2086,2089,2092,2091,2091,2091,2091,2091,2092,2093,2094,2095,2096,2094,2093,2091,2090,2087,2086,2083,2081,2078,2075,2073,2069,2067,2065,2063,2060,2057,2054,2051,2047,2044,2041,2038,2036,2033,2031,2029,2030,2027,2027,2027,2026,2024,2022,2021,2020,2017,2013,2007,1999,1991,1981,1970,1960,1952,1946,1941,1938,1936,1935,1934,1933,1931,1930,1929,1927,1925,1923,1921,1920,1920,1918,1917,1917,1917,1918,1919,1919,1918,1918,1918,1919,1918,1917,1916,1914,1912,1910,1908,1906,1904,1903,1904,1905,1906,1908,1911,1915,1917,1919,1920,1921,1921,1922,1922,1924,1927,1930,1931,1932,1933,1934,1934,1934,1934,1931,1929,1926,1922,1920,1917,1916,1915,1915,1916,1916,1918,1919,1919,1918,1917,1913,1910,1904,1900,1895,1891,1885,1881,1876,1872,1869,1867,1866,1867,1867,1867,1865,1863,1862,1858,1857,1856,1854,1855,1855,1857,1859,1861,1863,1865,1869,1875,1882,1893,1905,1920,1938,1959,1982,2007,2034,2063,2093,2124,2155,2185,2214,2239,2264,2284,2303,2320,2333,2348,2355,2355,2351,2346,2339,2332,2322,2313,2303,2293,2281,2270,2258,2247,2235,2222,2211,2200,2189,2179,2167,2157,2148,2140,2133,2128,2125,2122,2120,2119,2118,2117,2114,2111,2108,2103,2098,2094,2090,2086,2082,2080,2078,2078,2077,2079,2080,2081,2083,2083,2083,2082,2082,2082,2083,2086,2090,2095,2102,2109,2115,2119,2123,2126,2127,2127,2125,2122,2119,2114,2109,2104,2100,2097,2094,2092,2090,2089,2086,2083,2081,2077,2073,2068,2065,2059,2053,2048,2041,2033,2025,2019,2011,2004,1997,1990,1983,1975,1966,1959,1950,1943,1934,1926,1919,1914,1910,1907,1906,1908,1909,1914,1917,1922,1928,1931,1934,1938,1942,1944,1947,1948,1950,1950,1950,1951,1952,1955,1959,1961,1965,1968,1971,1973,1974,1974,1974,1973,1972,1971,1972,1972,1973,1973,1973,1973,1972,1971,1971,1969,1968,1967,1967,1964,1961,1958,1955,1952,1949,1947,1944,1940,1937,1933,1929,1925,1921,1919,1915,1914,1912,1912,1911,1910,1910,1911,1912,1913,1915,1917,1921,1924,1925,1928,1931,1932,1933,1933,1931,1931,1928,1926,1924,1922,1921,1918,1915,1913,1909,1904,1900,1898,1895,1893,1890,1887,1885,1886,1889,1894,1903,1915,1931,1948,1971,1995,2023,2053,2083,2114,2147,2177,2207,2235,2262,2287,2310,2331,2349,2364,2384,2397,2405,2410,2413,2415,2415,2411,2405,2396,2387,2376,2364,2351,2339,2328,2317,2307,2297,2286,2275,2263,2252,2241,2231,2222,2212,2204,2195,2187,2181,2177,2173,2172,2172,2172,2172,2173,2175,2174,2174,2175,2173,2174,2172,2171,2170,2170,2169,2167,2167,2165,2162,2160,2157,2155,2152,2151,2151,2152,2153,2155,2156,2158,2156,2156,2156,2156,2157,2157,2156,2154,2152,2149,2144,2141,2137,2133,2129,2126,2126,2124,2124,2124,2125,2125,2125,2122,2120,2117,2112,2108,2104,2100,2097,2096,2095,2092,2092,2089,2087,2084,2079,2075,2068,2060,2053,2045,2039,2032,2025,2017,2011,2007,2002,1996,1992,1990,1987,1985,1983,1980,1980,1978,1977,1976,1974,1975,1976,1977,1977,1977,1978,1980,1980,1979,1979,1979,1978,1978,1978,1978,1976,1974,1972,1969,1966,1963,1959,1955,1952,1949,1948,1947,1946,1944,1944,1944,1945,1945,1946,1948,1950,1952,1956,1957,1960,1960,1959,1957,1957,1955,1952,1949,1944,1940,1934,1927,1920,1913,1905,1898,1892,1887,1883,1880,1879,1878,1879,1882,1883,1884,1885,1886,1886,1887,1888,1887,1884,1882,1881,1880,1879,1877,1875,1872,1869,1867,1865,1863,1861,1860,1859,1859,1860,1863,1868,1876,1888,1901,1918,1938,1961,1987,2015,2043,2074,2105,2134,2165,2193,2221,2248,2274,2299,2322,2343,2361,2382,2395,2399,2404,2406,2404,2401,2397,2389,2378,2366,2353,2340,2326,2312,2299,2286,2274,2260,2248,2234,2220,2208,2194,2182,2172,2161,2151,2144,2139,2135,2130,2128,2126,2124,2124,2123,2123,2125,2129,2133,2137,2142,2147,2152,2157,2163,2166,2170,2173,2176,2178,2178,2176,2174,2171,2167,2165,2160,2158,2156,2153,2150,2148,2147,2145,2143,2141,2138,2137,2133,2129,2126,2122,2119,2115,2111,2108,2105,2099,2096,2091,2087,2079,2072,2069,2064,2060,2057,2055,2052,2048,2042,2041,2039,2038,2036,2035,2032,2029,2025,2021,2016,2011,2004,1997,1991,1984,1979,1973,1968,1964,1961,1958,1957,1957,1956,1957,1956,1957,1958,1959,1961,1964,1964,1964,1963,1961,1959,1956,1953,1949,1945,1942,1938,1936,1935,1937,1938,1940,1944,1947,1951,1954,1957,1960,1960,1960,1959,1959,1956,1954,1949,1946,1942,1938,1936,1933,1930,1928,1925,1924,1922,1921,1918,1917,1914,1912,1909,1907,1905,1903,1902,1899,1897,1895,1895,1894,1894,1894,1895,1896,1896,1899,1900,1902,1903,1903,1901,1900,1898,1894,1891,1887,1885,1882,1880,1877,1874,1871,1868,1864,1859,1851,1845,1840,1835,1833,1831,1830,1831,1835,1839,1846,1854,1863,1876,1890,1908,1926,1948,1974,1999,2026,2054,2082,2110,2136,2161,2185,2208,2232,2253,2271,2288,2308,2320,2329,2337,2343,2348,2349,2349,2346,2341,2334,2326,2316,2305,2292,2281,2268,2256,2244,2230,2215,2199,2184,2166,2151,2135,2121,2106,2093,2081,2067,2056,2045,2039,2031,2025,2020,2018,2016,2015,2015,2015,2015,2016,2017,2017,2016,2015,2013,2013,2012,2012,2013,2014,2018,2021,2023,2026,2028,2028,2027,2025,2023,2023,2022,2021,2023,2023,2025,2028,2031,2035,2038,2042,2044,2047,2050,2055,2058,2062,2063,2065,2066,2064,2063,2059,2054,2049,2042,2036,2028,2021,2013,2005,1998,1991,1984,1977,1970,1963,1957,1950,1943,1938,1933,1928,1923,1919,1916,1914,1911,1908,1907,1906,1904,1902,1900,1898,1896,1892,1888,1885,1882,1880,1878,1877,1876,1878,1879,1878,1879,1878,1877,1876,1874,1871,1868,1866,1864,1864,1864,1863,1863,1865,1869,1870,1873,1874,1875,1875,1874,1874,1874,1873,1872,1872,1872,1872,1873,1874,1878,1879,1881,1881,1881,1880,1878,1875,1873,1871,1869,1867,1865,1862,1862,1860,1857,1858,1857,1857,1855,1855,1854,1853,1853,1853,1853,1853,1856,1858,1861,1865,1870,1874,1879,1884,1886,1887,1889,1888,1887,1885,1882,1881,1880,1880,1882,1886,1892,1900,1909,1920,1934,1951,1970,1993,2018,2043,2070,2097,2124,2153,2180,2206,2232,2256,2277,2296,2312,2326,2340,2348,2353,2355,2355,2353,2349,2344,2337,2329,2321,2310,2298,2285,2273,2259,2244,2230,2216,2204,2193,2183,2173,2163,2154,2145,2134,2125,2114,2106,2097,2090,2082,2076,2071,2067,2064,2061,2059,2059,2058,2061,2062,2062,2062,2063,2062,2061,2061,2061,2062,2064,2064,2066,2068,2070,2073,2076,2081,2086,2089,2094,2097,2100,2103,2106,2108,2110,2111,2111,2111,2107,2106,2101,2099,2094,2090,2084,2081,2076,2074,2071,2068,2064,2061,2056,2053,2051,2050,2048,2046,2044,2041,2037,2030,2023,2018,2009,2001,1993,1984,1975,1968,1960,1954,1950,1944,1940,1937,1935,1934,1934,1934,1936,1939,1943,1946,1951,1954,1956,1957,1958,1959,1959,1958,1956,1954,1951,1949,1947,1945,1945,1945,1945,1946,1946,1947,1946,1945,1947,1946,1947,1948,1949,1952,1954,1956,1958,1960,1960,1960,1959,1958,1955,1953,1949,1945,1941,1936,1931,1927,1923,1920,1919,1918,1918,1921,1922,1926,1928,1932,1934,1936,1940,1943,1943,1946,1947,1948,1948,1948,1946,1946,1945,1945,1945,1945,1944,1942,1940,1939,1936,1935,1935,1937,1941,1946,1954,1965,1975,1989,2004,2021,2041,2062,2085,2109,2134,2161,2188,2213,2237,2263,2286,2308,2326,2343,2358,2376,2388,2394,2399,2401,2403,2402,2401,2399,2395,2391,2386,2378,2371,2362,2351,2338,2325,2312,2298,2286,2274,2263,2252,2241,2231,2221,2213,2204,2195,2188,2181,2175,2169,2164,2159,2155,2152,2149,2148,2146,2145,2146,2145,2144,2143,2142,2142,2142,2142,2143,2145,2148,2152,2155,2157,2158,2159,2156,2154,2151,2146,2141,2135,2130,2124,2118,2113,2108,2104,2101,2095,2092,2088,2085,2081,2078,2074,2071,2068,2066,2063,2061,2058,2057,2057,2056,2056,2055,2054,2053,2052,2050,2049,2048,2047,2046,2043,2040,2035,2028,2019,2010,2000,1989,1980,1972,1965,1959,1954,1951,1949,1948,1948,1948,1947,1948,1947,1947,1948,1947,1947,1948,1947,1947,1947,1945,1942,1940,1937,1934,1932,1931,1931,1932,1933,1934,1938,1942,1945,1949,1952,1955,1958,1960,1961,1961,1961,1961,1962,1961,1962,1961,1962,1961,1962,1961,1962,1963,1964,1966,1967,1968,1968,1968,1966,1965,1962,1960,1957,1953,1950,1948,1944,1941,1938,1935,1933,1930,1928,1927,1925,1923,1920,1919,1918,1916,1916,1917,1920,1923,1928,1933,1939,1946,1955,1963,1975,1988,2000,2016,2034,2055,2078,2102,2128,2156,2184,2214,2241,2270,2296,2321,2346,2369,2391,2410,2426,2446,2456,2460,2461,2457,2451,2443,2430,2416,2400,2380,2361,2341,2320,2301,2280,2263,2245,2231,2218,2205,2194,2185,2176,2169,2159,2152,2147,2142,2141,2141,2142,2144,2145,2145,2147,2146,2144,2141,2139,2135,2132,2131,2128,2127,2126,2123,2123,2120,2118,2118,2118,2116,2116,2116,2118,2116,2115,2114,2113,2112,2114,2115,2117,2119,2122,2125,2129,2132,2134,2135,2135,2133,2131,2128,2125,2121,2116,2113,2106,2101,2095,2089,2083,2079,2076,2072,2068,2064,2059,2056,2049,2043,2038,2033,2029,2026,2022,2019,2015,2012,2007,2000,1993,1986,1980,1974,1969,1964,1961,1956,1952,1949,1946,1944,1941,1939,1937,1935,1931,1929,1925,1921,1918,1915,1913,1910,1908,1906,1905,1903,1902,1900,1899,1898,1897,1897,1897,1897,1897,1896,1895,1895,1894,1893,1893,1893,1895,1896,1899,1900,1903,1904,1905,1906,1906,1904,1900,1897,1893,1889,1886,1883,1880,1876,1873,1870,1869,1867,1865,1863,1860,1860,1859,1858,1857,1856,1856,1854,1852,1853,1853,1854,1856,1857,1857,1857,1857,1855,1855,1856,1859,1862,1866,1871,1877,1884,1894,1905,1919,1937,1957,1978,2003,2028,2055,2081,2107,2133,2160,2184,2207,2231,2252,2273,2291,2306,2323,2333,2338,2339,2339,2336,2330,2323,2313,2303,2291,2279,2268,2257,2244,2234,2225,2216,2207,2201,2195,2188,2181,2171,2164,2157,2150,2142,2136,2130,2125,2119,2113,2108,2102,2097,2094,2089,2084,2080,2075,2070,2061,2056,2051,2047,2045,2045,2046,2048,2051,2053,2057,2059,2062,2064,2067,2069,2070,2070,2069,2067,2064,2062,2060,2057,2057,2056,2054,2052,2048,2045,2041,2037,2032,2028,2024,2023,2021,2019,2019,2019,2019,2018,2017,2016,2013,2010,2008,2004,2002,1999,1995,1991,1985,1978,1972,1964,1956,1949,1942,1935,1930,1926,1922,1919,1917,1914,1913,1911,1911,1910,1909,1908,1908,1906,1905,1902,1899,1897,1895,1893,1890,1891,1891,1890,1889,1890,1891,1891,1893,1895,1897,1899,1901,1905,1908,1911,1916,1920,1923,1925,1926,1927,1929,1928,1928,1925,1922,1918,1914,1907,1901,1895,1890,1884,1881,1877,1876,1873,1871,1870,1867,1865,1865,1863,1862,1860,1860,1859,1859,1858,1858,1859,1862,1864,1864,1867,1869,1871,1874,1877,1881,1885,1889,1892,1895,1898,1901,1906,1910,1917,1926,1939,1952,1970,1988,2009,2031,2054,2078,2103,2128,2154,2181,2207,2232,2256,2278,2298,2315,2332,2344,2359,2366,2368,2370,2370,2368,2363,2357,2351,2343,2335,2327,2316,2305,2293,2280,2268,2254,2242,2229,2217,2204,2193,2181,2169,2160,2150,2145,2139,2135,2132,2130,2128,2128,2126,2124,2123,2123,2123,2124,2125,2126,2130,2131,2131,2131,2128,2127,2126,2124,2124,2123,2123,2124,2124,2124,2122,2120,2119,2116,2115,2113,2112,2112,2113,2115,2118,2121,2125,2129,2130,2133,2136,2137,2139,2139,2139,2138,2136,2133,2129,2123,2118,2111,2105,2101,2095,2091,2088,2084,2080,2076,2073,2069,2066,2063,2060,2059,2059,2057,2056,2055,2053,2050,2047,2043,2042,2040,2036,2033,2030,2027,2022,2018,2013,2008,2004,2000,1998,1995,1993,1989,1987,1985,1983,1982,1981,1980,1978,1976,1974,1973,1972,1973,1973,1977,1980,1984,1990,1995,1999,2002,2005,2007,2008,2008,2007,2008,2008,2009,2009,2011,2015,2016,2017,2017,2016,2015,2012,2008,2004,1999,1996,1992,1990,1988,1985,1983,1979,1976,1973,1970,1969,1966,1964,1963,1960,1958,1956,1954,1954,1954,1953,1953,1953,1954,1957,1962,1970,1979,1990,2004,2020,2036,2057,2081,2109,2138,2169,2200,2233,2264,2294,2324,2353,2379,2405,2427,2448,2465,2485,2497,2503,2504,2504,2500,2494,2486,2476,2465,2453,2439,2424,2410,2393,2376,2359,2342,2326,2310,2295,2282,2272,2262,2256,2250,2246,2243,2240,2238,2235,2233,2230,2227,2224,2221,2218,2215,2212,2208,2205,2205,2203,2204,2205,2207,2209,2210,2213,2216,2219,2223,2228,2232,2236,2239,2242,2245,2247,2247,2248,2250,2252,2254,2257,2257,2259,2262,2263,2266,2268,2269,2269,2268,2266,2262,2258,2253,2246,2239,2230,2221,2212,2205,2195,2186,2176,2167,2158,2149,2140,2133,2125,2116,2107,2099,2089,2082,2073,2066,2058,2052,2047,2042,2039,2037,2037,2036,2035,2036,2035,2037,2037,2037,2038,2037,2036,2032,2029,2023,2018,2012,2005,1998,1992,1989,1987,1984,1983,1983,1984,1986,1988,1993,1995,1996,1997,1997,1998,1995,1994,1993,1992,1989,1987,1985,1983,1982,1979,1976,1972,1968,1964,1958,1954,1950,1948,1948,1949,1953,1958,1964,1970,1977,1982,1988,1992,1994,1996,1997,1995,1992,1987,1981,1973,1966,1958,1951,1944,1939,1934,1932,1928,1925,1922,1919,1916,1913,1913,1914,1918,1924,1932,1943,1958,1973,1991,2012,2033,2057,2081,2106,2132,2159,2187,2214,2242,2267,2290,2311,2331,2350,2375,2393,2406,2416,2424,2431,2437,2440,2442,2443,2441,2438,2433,2425,2418,2410,2402,2394,2386,2377,2367,2357,2344,2332,2320,2307,2294,2281,2269,2256,2244,2233,2224,2214,2205,2198,2192,2188,2186,2185,2185,2187,2188,2190,2192,2194,2194,2195,2196,2195,2194,2194,2193,2191,2189,2187,2184,2184,2182,2180,2178,2176,2176,2175,2174,2174,2174,2173,2173,2172,2172,2171,2170,2169,2167,2166,2162,2158,2155,2152,2151,2150,2148,2148,2147,2145,2142,2138,2134,2127,2121,2113,2106,2096,2089,2080,2072,2063,2056,2050,2044,2039,2033,2028,2024,2021,2018,2018,2018,2018,2020,2020,2022,2024,2023,2024,2023,2024,2022,2021,2019,2018,2017,2016,2016,2016,2015,2014,2015,2013,2011,2008,2004,2001,1999,1996,1993,1989,1986,1982,1979,1977,1976,1975,1976,1976,1978,1980,1982,1985,1988,1989,1991,1991,1990,1988,1986,1982,1977,1973,1968,1964,1961,1959,1955,1953,1951,1949,1946,1944,1941,1939,1936,1933,1931,1930,1931,1933,1934,1938,1939,1941,1943,1942,1942,1938,1934,1929,1921,1913,1906,1897,1890,1883,1877,1875,1875,1877,1885,1896,1911,1929,1951,1977,2003,2031,2058,2086,2112,2138,2165,2192,2219,2243,2267,2286,2305,2324,2336,2340,2340,2340,2337,2333,2327,2320,2312,2304,2294,2285,2274,2263,2252,2241,2231,2220,2212,2202,2195,2187,2181,2175,2168,2162,2156,2149,2143,2136,2129,2122,2115,2107,2101,2096,2091,2086,2081,2076,2073,2071,2070,2071,2071,2072,2070,2071,2069,2068,2066,2065,2062,2061,2059,2057,2055,2052,2051,2048,2045,2041,2036,2032,2028,2025,2021,2020,2019,2019,2021,2020,2020,2020,2021,2024,2025,2026,2028,2029,2030,2031,2032,2034,2033,2032,2030,2026,2022,2015,2008,1999,1990,1981,1973,1966,1959,1953,1947,1944,1939,1933,1929,1923,1917,1911,1905,1899,1893,1887,1883,1878,1874,1870,1866,1860,1858,1855,1854,1852,1850,1848,1849,1848,1850,1853,1855,1858,1860,1861,1863,1866,1869,1871,1872,1873,1876,1878,1881,1882,1885,1885,1887,1887,1886,1885,1885,1884,1885,1886,1887,1888,1888,1888,1887,1887,1884,1883,1881,1880,1879,1877,1877,1877,1875,1875,1875,1874,1871,1869,1865,1860,1854,1849,1841,1833,1827,1821,1815,1811,1808,1804,1803,1801,1800,1800,1802,1804,1810,1816,1825,1837,1851,1868,1887,1908,1931,1958,1983,2011,2040,2069,2098,2126,2155,2183,2209,2233,2254,2275,2291,2311,2321,2325,2325,2320,2311,2300,2285,2271,2255,2239,2224,2209,2195,2181,2169,2159,2147,2135,2127,2118,2109,2100,2095,2090,2086,2084,2084,2084,2086,2087,2088,2088,2088,2087,2084,2082,2079,2076,2073,2071,2070,2068,2066,2064,2064,2063,2064,2065,2068,2074,2079,2087,2094,2100,2106,2110,2113,2114,2114,2114,2113,2113,2110,2106,2101,2097,2091,2085,2077,2073,2066,2061,2054,2046,2041,2033,2028,2023,2019,2015,2011,2009,2008,2007,2006,2004,2002,2001,1998,1995,1992,1987,1983,1977,1972,1967,1962,1958,1953,1949,1944,1938,1935,1932,1929,1927,1925,1924,1924,1924,1924,1924,1924,1925,1926,1927,1929,1931,1933,1935,1937,1939,1941,1942,1945,1946,1947,1948,1948,1948,1946,1946,1946,1949,1950,1952,1954,1956,1959,1961,1963,1965,1966,1968,1969,1970,1970,1971,1972,1974,1976,1977,1979,1978,1976,1974,1971,1968,1965,1963,1960,1958,1956,1953,1951,1949,1949,1949,1951,1951,1952,1954,1957,1959,1963,1968,1972,1976,1979,1983,1986,1988,1989,1991,1994,1997,2000,2005,2011,2019,2028,2039,2052,2067,2084,2103,2125,2147,2171,2196,2221,2247,2272,2298,2323,2346,2368,2387,2402,2415,2421,2426,2425,2422,2417,2410,2400,2387,2374,2359,2343,2326,2309,2292,2277,2262,2250,2239,2229,2221,2213,2206,2199,2193,2188,2180,2174,2167,2159,2151,2146,2141,2136,2134,2133,2133,2133,2134,2136,2139,2143,2147,2150,2153,2155,2157,2160,2163,2166,2166,2165,2166,2166,2164,2165,2164,2162,2158,2157,2155,2154,2152,2148,2144,2140,2136,2131,2126,2121,2116,2111,2107,2102,2097,2095,2094,2092,2092,2091,2090,2090,2087,2085,2083,2080,2078,2074,2071,2067,2062,2057,2052,2046,2041,2035,2028,2021,2013,2007,1999,1990,1983,1975,1969,1964,1961,1961,1961,1964,1966,1969,1970,1973,1977,1980,1984,1986,1989,1992,1995,1995,1997,1998,1998,1997,1995,1991,1987,1983,1979,1974,1969,1965,1962,1956,1952,1946,1942,1938,1936,1936,1936,1939,1942,1946,1949,1952,1955,1957,1960,1961,1962,1962,1963,1961,1960,1958,1956,1955,1953,1951,1950,1949,1949,1948,1950,1951,1951,1951,1953,1954,1954,1954,1953,1954,1955,1954,1955,1955,1957,1958,1958,1958,1957,1955,1954,1953,1951,1950,1949,1949,1950,1951,1956,1963,1972,1985,2000,2017,2039,2063,2087,2113,2140,2169,2196,2224,2250,2277,2301,2324,2343,2364,2380,2393,2407,2413,2414,2412,2406,2396,2385,2372,2358,2342,2328,2313,2295,2280,2263,2247,2230,2215,2200,2186,2172,2160,2150,2139,2132,2125,2119,2113,2109,2105,2103,2102,2102,2103,2105,2107,2112,2118,2124,2130,2136,2143,2147,2149,2151,2151,2150,2150,2147,2144,2141,2136,2132,2125,2119,2114,2109,2104,2102,2099,2096,2094,2091,2088,2087,2086,2084,2083,2080,2077,2073,2069,2065,2064,2062,2060,2058,2058,2057,2055,2054,2052,2051,2049,2045,2041,2038,2034,2029,2022,2016,2010,2005,1999,1995,1990,1986,1979,1975,1970,1966,1963,1961,1961,1963,1964,1966,1966,1966,1964,1961,1957,1954,1948,1942,1938,1932,1927,1922,1918,1915,1913,1910,1909,1908,1906,1905,1905,1905,1905,1905,1907,1909,1912,1916,1919,1919,1920,1919,1920,1920,1918,1914,1910,1905,1900,1896,1892,1890,1889,1888,1888,1888,1887,1888,1887,1885,1884,1883,1880,1878,1877,1876,1876,1876,1876,1877,1877,1878,1879,1880,1881,1882,1883,1885,1885,1885,1886,1886,1887,1887,1887,1888,1888,1890,1890,1890,1890,1889,1890,1891,1892,1895,1898,1901,1903,1904,1904,1904,1905,1903,1904,1905,1907,1909,1913,1921,1930,1941,1956,1977,1999,2024,2051,2078,2107,2136,2165,2193,2220,2246,2270,2292,2312,2329,2343,2354,2364,2368,2368,2366,2362,2356,2347,2337,2325,2312,2299,2285,2271,2257,2243,2229,2214,2202,2189,2178,2169,2161,2153,2147,2140,2134,2130,2125,2121,2118,2116,2115,2114,2113,2113,2113,2112,2113,2114,2115,2114,2115,2115,2112,2110,2107,2103,2101,2099,2097,2096,2096,2099,2101,2103,2107,2110,2112,2115,2117,2119,2120,2121,2122,2124,2124,2125,2126,2124,2122,2119,2113,2108,2100,2093,2084,2075,2069,2061,2054,2049,2044,2041,2039,2039,2038,2037,2035,2034,2031,2028,2023,2020,2017,2015,2010,2007,2003,2002,2000,1997,1993,1989,1986,1982,1980,1978,1976,1975,1975,1974,1971,1969,1966,1962,1960,1957,1954,1951,1948,1945,1943,1943,1944,1946,1949,1953,1956,1959,1961,1964,1965,1966,1966,1967,1967,1966,1968,1969,1971,1973,1976,1978,1980,1981,1980,1980,1979,1978,1977,1977,1977,1977,1977,1978,1978,1977,1976,1975,1973,1970,1966,1962,1956,1950,1944,1938,1931,1929,1926,1924,1924,1924,1924,1925,1926,1926,1927,1928,1930,1931,1930,1932,1931,1932,1931,1931,1931,1931,1931,1930,1929,1927,1926,1923,1923,1922,1922,1923,1926,1931,1938,1948,1963,1979,1999,2022,2048,2074,2102,2131,2160,2190,2218,2247,2274,2301,2325,2348,2366,2382,2395,2409,2416,2418,2416,2414,2409,2401,2391,2377,2363,2346,2329,2310,2292,2273,2256,2238,2222,2204,2188,2173,2158,2145,2133,2121,2113,2105,2097,2089,2083,2078,2073,2072,2070,2071,2069,2070,2068,2068,2067,2066,2064,2062,2059,2056,2055,2053,2053,2052,2054,2055,2059,2063,2067,2071,2073,2073,2073,2071,2069,2067,2062,2059,2054,2049,2045,2039,2034,2029,2026,2023,2022,2021,2021,2021,2022,2021,2019,2018,2015,2012,2008,2006,2004,2001,2000,1998,1997,1997,1997,1995,1993,1991,1989,1984,1979,1977,1972,1966,1961,1954,1946,1939,1932,1927,1922,1918,1915,1911,1908,1904,1898,1894,1890,1886,1880,1876,1870,1863,1857,1852,1848,1846,1845,1846,1849,1853,1858,1864,1870,1874,1876,1878,1878,1880,1880,1880,1879,1878,1876,1875,1872,1871,1870,1869,1869,1868,1868,1868,1869,1868,1868,1866,1864,1860,1857,1853,1850,1848,1846,1841,1837,1831,1825,1820,1814,1807,1804,1801,1800,1799,1801,1802,1804,1807,1809,1811,1815,1817,1816,1817,1817,1816,1814,1813,1811,1809,1807,1806,1804,1804,1805,1805,1807,1812,1817,1823,1831,1843,1857,1874,1894,1917,1942,1968,1996,2028,2061,2093,2126,2157,2186,2213,2235,2255,2271,2284,2295,2305,2311,2314,2314,2313,2309,2303,2294,2286,2274,2263,2251,2238,2225,2211,2197,2184,2170,2158,2146,2135,2124,2112,2101,2090,2081,2073,2066,2061,2056,2051,2047,2043,2039,2035,2030,2028,2027,2027,2027,2028,2028,2030,2030,2031,2033,2034,2037,2041,2044,2048,2051,2053,2056,2061,2065,2068,2073,2074,2077,2077,2078,2079,2079,2081,2082,2084,2085,2088,2088,2088,2088,2087,2085,2082,2080,2076,2073,2068,2064,2058,2054,2050,2048,2046,2042,2041,2039,2037,2034,2029,2024,2019,2013,2007,2000,1994,1989,1985,1981,1977,1971,1967,1963,1961,1958,1955,1953,1950,1947,1944,1940,1937,1932,1929,1927,1924,1924,1924,1926,1928,1930,1934,1937,1941,1945,1950,1954,1957,1960,1963,1964,1964,1964,1962,1962,1962,1962,1964,1965,1967,1970,1971,1973,1975,1977,1979,1983,1987,1988,1989,1991,1992,1994,1995,1995,1994,1992,1989,1987,1986,1986,1988,1990,1994,1996,1997,1999,1999,2000,2000,2000,2000,1999,1998,1996,1995,1994,1993,1993,1994,1995,1998,2003,2008,2016,2024,2035,2046,2060,2077,2095,2116,2138,2163,2188,2212,2238,2260,2283,2304,2325,2345,2362,2377,2389,2402,2407,2410,2410,2409,2403,2396,2386,2375,2362,2348,2334,2320,2304,2290,2276,2264,2252,2242,2233,2223,2216,2208,2198,2189,2181,2172,2163,2153,2145,2136,2127,2119,2112,2106,2102,2099,2096,2095,2094,2096,2095,2095,2093,2092,2090,2090,2090,2091,2091,2093,2091,2090,2089,2088,2086,2085,2082,2080,2078,2075,2073,2069,2065,2062,2058,2054,2051,2048,2045,2042,2043,2041,2040,2038,2036,2034,2032,2029,2028,2026,2024,2025,2025,2023,2021,2019,2013,2009,2003,1996,1988,1980,1973,1966,1960,1956,1955,1953,1952,1954,1955,1957,1959,1958,1958,1957,1955,1954,1950,1948,1945,1941,1938,1936,1934,1933,1931,1930,1929,1927,1927,1926,1925,1924,1921,1919,1918,1917,1916,1917,1919,1921,1924,1926,1926,1926,1926,1925,1923,1921,1919,1917,1916,1914,1912,1911,1911,1911,1912,1912,1913,1915,1916,1919,1923,1927,1932,1937,1940,1944,1948,1950,1951,1952,1952,1950,1947,1945,1943,1940,1939,1940,1941,1946,1952,1961,1971,1985,2001,2021,2041,2065,2090,2114,2140,2164,2188,2212,2235,2256,2276,2295,2312,2327,2344,2354,2359,2362,2362,2361,2357,2354,2346,2338,2329,2318,2308,2298,2287,2276,2267,2257,2248,2239,2230,2221,2212,2205,2197,2187,2177,2169,2161,2155,2148,2144,2139,2138,2136,2133,2132,2128,2126,2122,2120,2119,2120,2120,2120,2119,2119,2120,2122,2123,2124,2125,2126,2128,2127,2129,2131,2133,2136,2137,2139,2139,2139,2138,2137,2136,2135,2133,2132,2128,2123,2120,2114,2109,2103,2098,2093,2090,2086,2082,2077,2075,2070,2065,2060,2055,2046,2040,2032,2025,2018,2013,2010,2008,2008,2008,2008,2009,2008,2008,2008,2008,2007,2008,2008,2008,2008,2007,2005,2003,2001,2000,1999,1998,1996,1995,1993,1993,1992,1990,1988,1989,1990,1991,1992,1997,2000,2003,2004,2005,2004,2004,2002,1999,1998,1995,1992,1988,1984,1982,1978,1977,1976,1975,1974,1975,1975,1977,1978,1979,1979,1979,1979,1980,1981,1982,1983,1985,1988,1989,1993,1995,1999,2001,2005,2009,2013,2018,2022,2024,2023,2021,2020,2018,2018,2018,2020,2024,2031,2042,2054,2069,2083,2100,2120,2141,2164,2189,2214,2239,2262,2284,2303,2321,2338,2352,2365,2377,2392,2400,2406,2409,2409,2406,2401,2394,2384,2373,2360,2347,2333,2316,2297,2277,2257,2237,2221,2204,2189,2178,2168,2159,2151,2144,2137,2133,2130,2128,2128,2128,2129,2130,2130,2131,2129,2127,2127,2126,2125,2125,2124,2122,2119,2115,2110,2106,2101,2096,2092,2089,2087,2086,2086,2088,2089,2091,2092,2093,2095,2097,2098,2100,2102,2102,2101,2100,2100,2099,2099,2098,2098,2099,2099,2098,2098,2095,2092,2088,2085,2081,2078,2075,2071,2067,2062,2056,2050,2044,2040,2035,2031,2026,2022,2019,2016,2012,2008,2003,1999,1993,1988,1983,1979,1975,1971,1969,1967,1964,1960,1957,1954,1950,1945,1942,1939,1938,1938,1938,1938,1940,1941,1941,1942,1941,1942,1942,1943,1942,1944,1945,1945,1949,1950,1953,1956,1959,1964,1968,1972,1975,1978,1979,1978,1975,1973,1970,1965,1961,1957,1956,1953,1951,1950,1949,1948,1947,1946,1943,1941,1937,1934,1934,1931,1931,1931,1932,1932,1932,1931,1932,1930,1931,1933,1937,1942,1949,1957,1968,1982,1998,2016,2035,2058,2082,2106,2132,2157,2183,2209,2231,2255,2275,2295,2312,2329,2343,2362,2372,2380,2384,2384,2380,2375,2364,2353,2340,2323,2309,2292,2276,2260,2246,2230,2215,2201,2188,2175,2163,2151,2141,2131,2122,2115,2109,2105,2101,2100,2098,2098,2099,2099,2101,2102,2101,2100,2097,2094,2088,2084,2079,2072,2067,2064,2059,2057,2057,2058,2059,2059,2059,2060,2060,2059,2060,2060,2060,2060,2059,2057,2056,2056,2055,2056,2055,2056,2055,2054,2050,2048,2043,2040,2038,2035,2034,2033,2030,2027,2025,2022,2017,2012,2007,2001,1994,1987,1980,1972,1964,1957,1949,1944,1937,1933,1929,1924,1920,1917,1913,1910,1907,1906,1905,1905,1906,1907,1909,1909,1909,1908,1908,1907,1906,1905,1902,1900,1896,1894,1890,1887,1883,1880,1878,1878,1877,1879,1880,1882,1886,1890,1893,1897,1901,1905,1908,1911,1912,1912,1912,1911,1910,1908,1906,1903,1900,1899,1898,1896,1894,1893,1891,1889,1885,1882,1878,1875,1872,1870,1866,1862,1859,1855,1851,1847,1842,1837,1832,1826,1821,1818,1816,1816,1817,1821,1826,1832,1842,1854,1869,1886,1907,1929,1953,1977,2002,2026,2052,2077,2100,2123,2144,2164,2181,2197,2211,2228,2238,2245,2250,2251,2251,2250,2247,2245,2240,2235,2229,2220,2212,2201,2190,2178,2166,2152,2140,2127,2116,2105,2092,2081,2071,2062,2054,2046,2040,2035,2030,2024,2019,2012,2007,2000,1994,1989,1983,1978,1974,1971,1969,1967,1967,1968,1968,1970,1972,1973,1974,1976,1976,1978,1978,1980,1981,1983,1986,1989,1992,1993,1996,1997,1999,2001,2003,2005,2005,2005,2004,2003,2001,1998,1995,1993,1990,1986,1984,1983,1982,1982,1980,1979,1978,1978,1980,1980,1980,1981,1980,1980,1978,1973,1967,1959,1951,1943,1936,1926,1917,1906,1897,1888,1879,1874,1869,1866,1863,1863,1864,1866,1869,1871,1873,1873,1873,1874,1874,1873,1874,1875,1877,1880,1881,1884,1886,1888,1889,1891,1893,1895,1897,1900,1901,1904,1906,1908,1909,1909,1910,1910,1908,1906,1906,1904,1900,1898,1896,1893,1890,1888,1886,1884,1884,1882,1881,1879,1878,1876,1877,1879,1882,1887,1891,1896,1901,1905,1911,1918,1928,1939,1953,1970,1989,2012,2036,2061,2089,2117,2143,2169,2196,2221,2248,2273,2294,2315,2332,2345,2355,2363,2365,2363,2360,2353,2345,2333,2317,2303,2288,2274,2257,2242,2228,2212,2198,2184,2173,2160,2150,2142,2134,2125,2117,2111,2104,2099,2094,2089,2084,2080,2076,2074,2072,2073,2071,2069,2069,2068,2070,2071,2073,2077,2079,2082,2084,2086,2086,2085,2086,2084,2084,2082,2077,2076,2074,2073,2073,2073,2074,2075,2076,2078,2081,2083,2085,2088,2091,2093,2095,2097,2099,2101,2102,2102,2103,2103,2104,2101,2097,2094,2091,2084,2076,2067,2056,2047,2036,2027,2019,2012,2006,2000,1994,1991,1988,1988,1989,1990,1992,1996,1997,1998,1999,1998,2000,2001,2003,2004,2007,2006,2006,2003,2000,1994,1989,1983,1976,1970,1966,1960,1955,1951,1948,1945,1942,1941,1940,1940,1942,1944,1949,1955,1960,1967,1972,1979,1983,1988,1990,1993,1994,1992,1992,1990,1988,1988,1987,1987,1985,1985,1983,1981,1980,1979,1977,1976,1975,1974,1972,1969,1966,1963,1960,1958,1955,1954,1952,1953,1955,1959,1965,1975,1988,2003,2020,2039,2060,2084,2107,2133,2159,2186,2212,2238,2261,2283,2304,2320,2334,2347,2360,2368,2370,2370,2369,2366,2361,2354,2345,2333,2322,2309,2295,2281,2267,2254,2242,2230,2220,2212,2203,2196,2188,2179,2172,2164,2155,2146,2138,2129,2124,2119,2118,2116,2116,2117,2119,2123,2127,2132,2135,2141,2146,2152,2156,2160,2162,2164,2164,2163,2160,2155,2148,2141,2134,2128,2121,2114,2108,2103,2096,2091,2084,2079,2074,2070,2066,2065,2065,2066,2068,2074,2077,2081,2086,2088,2090,2090,2089,2088,2085,2083,2080,2075,2071,2066,2059,2053,2047,2041,2037,2033,2029,2027,2026,2024,2023,2023,2023,2023,2023,2022,2020,2019,2017,2016,2015,2015,2014,2014,2013,2015,2016,2016,2017,2017,2014,2012,2008,2002,1996,1989,1982,1974,1968,1963,1958,1955,1953,1953,1953,1954,1954,1955,1957,1955,1955,1956,1955,1956,1957,1958,1960,1963,1965,1967,1969,1969,1969,1969,1967,1967,1966,1967,1968,1969,1970,1971,1974,1975,1975,1976,1975,1972,1969,1965,1961,1958,1955,1953,1951,1948,1944,1941,1939,1936,1933,1931,1927,1924,1921,1920,1923,1927,1934,1944,1955,1970,1988,2008,2029,2053,2078,2105,2135,2165,2196,2225,2254,2282,2309,2333,2356,2377,2395,2415,2424,2427,2427,2425,2419,2411,2403,2393,2382,2367,2353,2339,2324,2309,2290,2275,2261,2247,2233,2220,2208,2197,2185,2177,2168,2161,2156,2152,2150,2148,2148,2148,2149,2150,2149,2150,2150,2148,2146,2144,2140,2135,2130,2125,2120,2116,2111,2107,2103,2100,2096,2092,2091,2089,2088,2087,2087,2087,2089,2091,2092,2095,2097,2098,2097,2099,2097,2097,2096,2095,2093,2090,2087,2083,2078,2073,2069,2064,2059,2054,2051,2048,2046,2044,2044,2042,2041,2039,2036,2035,2034,2030,2027,2023,2020,2016,2013,2009,2005,2001,1998,1994,1989,1986,1984,1982,1979,1978,1979,1979,1981,1982,1984,1984,1985,1984,1983,1981,1978,1977,1975,1973,1970,1967,1963,1959,1954,1949,1943,1938,1934,1930,1926,1923,1922,1923,1923,1925,1928,1930,1932,1935,1936,1937,1935,1933,1932,1932,1930,1929,1930,1929,1928,1928,1927,1926,1924,1923,1920,1915,1910,1906,1900,1896,1893,1890,1889,1890,1891,1893,1895,1896,1898,1900,1902,1905,1909,1914,1918,1921,1923,1923,1921,1919,1916,1911,1907,1901,1896,1894,1892,1893,1896,1901,1908,1920,1933,1950,1969,1990,2015,2039,2063,2089,2114,2140,2164,2189,2212,2231,2249,2263,2274,2287,2292,2291,2290,2284,2277,2269,2258,2248,2235,2223,2209,2195,2181,2168,2154,2141,2128,2115,2104,2092,2083,2075,2068,2064,2059,2055,2052,2052,2052,2052,2054,2054,2055,2054,2052,2050,2048,2046,2042,2041,2036,2030,2027,2023,2018,2013,2007,2001,1995,1988,1984,1980,1979,1977,1980,1981,1982,1985,1987,1989,1988,1990,1990,1989,1989,1987,1987,1986,1985,1985,1984,1983,1982,1979,1976,1973,1972,1971,1969,1968,1967,1966,1966,1967,1967,1967,1966,1964,1961,1958,1955,1951,1947,1942,1938,1933,1929,1924,1921,1919,1917,1915,1913,1911,1909,1908,1908,1908,1909,1912,1915,1916,1917,1918,1917,1916,1915,1914,1913,1911,1909,1907,1906,1905,1904,1905,1904,1905,1906,1906,1907,1906,1909,1912,1915,1919,1924,1929,1932,1936,1937,1940,1942,1944,1945,1948,1950,1951,1951,1950,1948,1944,1939,1935,1933,1931,1932,1934,1937,1940,1943,1945,1947,1949,1947,1947,1945,1942,1939,1938,1936,1933,1930,1924,1918,1912,1905,1898,1890,1882,1877,1872,1870,1871,1874,1881,1892,1907,1924,1945,1968,1993,2020,2050,2079,2111,2142,2174,2203,2231,2257,2280,2301,2321,2337,2357,2368,2373,2374,2374,2368,2361,2352,2342,2331,2319,2308,2296,2284,2273,2262,2251,2240,2230,2220,2211,2202,2193,2183,2175,2166,2159,2152,2147,2141,2136,2130,2125,2122,2117,2112,2108,2105,2102,2100,2099,2099,2100,2100,2103,2105,2107,2111,2115,2120,2125,2130,2135,2140,2146,2151,2158,2162,2164,2166,2167,2168,2166,2165,2163,2161,2160,2159,2159,2158,2157,2155,2153,2149,2146,2142,2139,2135,2131,2125,2120,2115,2108,2103,2098,2095,2092,2090,2086,2083,2080,2076,2070,2065,2059,2055,2049,2045,2041,2036,2033,2032,2029,2028,2026,2026,2024,2023,2022,2021,2021,2020,2020,2021,2022,2024,2026,2028,2030,2032,2035,2037,2038,2038,2035,2032,2027,2022,2017,2012,2007,2002,1997,1993,1989,1985,1982,1980,1978,1977,1978,1979,1981,1982,1982,1983,1982,1980,1978,1977,1977,1976,1974,1973,1972,1971,1970,1969,1969,1969,1968,1969,1971,1972,1975,1978,1979,1981,1981,1982,1982,1979,1976,1972,1969,1966,1963,1963,1961,1961,1960,1958,1960,1964,1967,1971,1977,1983,1991,1999,2008,2020,2030,2043,2061,2079,2099,2122,2147,2173,2199,2225,2250,2274,2297,2319,2339,2356,2371,2384,2395,2407,2413,2415,2414,2410,2404,2397,2387,2375,2363,2349,2334,2318,2303,2285,2269,2252,2236,2219,2203,2189,2175,2162,2151,2139,2130,2120,2111,2103,2094,2088,2083,2078,2073,2069,2065,2062,2060,2057,2056,2054,2054,2055,2056,2059,2062,2068,2071,2075,2078,2082,2085,2088,2090,2093,2095,2099,2099,2100,2101,2102,2102,2102,2104,2104,2106,2105,2105,2105,2105,2106,2106,2106,2106,2104,2103,2102,2099,2096,2092,2085,2080,2074,2069,2063,2057,2052,2047,2042,2039,2034,2029,2024,2019,2012,2006,2001,1996,1993,1990,1990,1991,1991,1994,1994,1994,1993,1992,1988,1985,1981,1977,1973,1968,1961,1955,1949,1943,1936,1932,1930,1929,1930,1930,1933,1938,1942,1945,1949,1953,1956,1958,1961,1961,1962,1962,1961,1960,1958,1957,1956,1956,1958,1956,1955,1955,1955,1955,1952,1953,1951,1948,1948,1947,1947,1946,1945,1944,1944,1943,1943,1942,1942,1942,1943,1943,1944,1944,1945,1944,1944,1943,1943,1942,1942,1942,1941,1940,1938,1936,1933,1931,1927,1924,1920,1918,1915,1913,1913,1915,1918,1924,1932,1944,1959,1977,1997,2021,2045,2073,2101,2131,2160,2187,2214,2239,2260,2279,2296,2310,2323,2337,2345,2347,2347,2345,2340,2332,2322,2309,2295,2279,2261,2243,2226,2209,2192,2177,2161,2146,2133,2121,2110,2101,2092,2086,2078,2072,2067,2062,2057,2054,2052,2049,2047,2047,2046,2044,2043,2043,2041,2040,2040,2037,2036,2036,2036,2035,2035,2033,2033,2032,2031,2031,2031,2031,2031,2032,2034,2037,2039,2041,2043,2046,2049,2052,2055,2057,2059,2059,2059,2057,2055,2052,2049,2044,2041,2037,2033,2029,2023,2016,2009,2001,1991,1982,1973,1964,1956,1948,1942,1937,1932,1928,1924,1921,1919,1918,1916,1915,1913,1911,1909,1908,1907,1905,1903,1901,1900,1898,1896,1894,1890,1885,1880,1874,1869,1864,1860,1855,1851,1847,1844,1843,1843,1843,1845,1845,1845,1847,1847,1847,1848,1849,1850,1850,1850,1850,1849,1851,1854,1858,1860,1864,1867,1869,1871,1873,1874,1875,1875,1876,1876,1875,1874,1874,1873,1874,1874,1874,1875,1876,1876,1875,1873,1872,1870,1868,1867,1867,1866,1866,1867,1870,1872,1873,1877,1878,1881,1885,1890,1900,1911,1924,1940,1958,1978,1999,2020,2042,2065,2088,2113,2135,2157,2179,2198,2216,2231,2245,2258,2275,2285,2291,2294,2294,2293,2290,2285,2276,2266,2255,2242,2228,2213,2198,2183,2166,2150,2134,2120,2107,2095,2082,2071,2059,2048,2039,2031,2024,2016,2012,2006,2002,1997,1993,1991,1987,1985,1983,1983,1985,1989,1993,1998,2003,2008,2012,2018,2024,2030,2035,2041,2046,2052,2056,2060,2064,2066,2069,2072,2073,2076,2075,2073,2071,2069,2066,2063,2059,2057,2056,2053,2051,2048,2046,2043,2041,2040,2037,2037,2033,2031,2028,2026,2023,2020,2019,2015,2011,2006,1999,1991,1984,1977,1971,1967,1964,1961,1959,1959,1959,1960,1959,1957,1956,1954,1950,1947,1945,1942,1940,1938,1935,1933,1932,1931,1931,1929,1930,1930,1933,1936,1941,1946,1952,1959,1964,1968,1972,1976,1977,1980,1983,1986,1988,1991,1995,1997,1998,2000,2000,2000,1999,1999,2000,1999,1999,2000,1999,1998,1996,1993,1989,1986,1983,1979,1976,1972,1968,1965,1963,1961,1961,1962,1964,1967,1974,1983,1994,2007,2023,2041,2062,2085,2110,2136,2163,2191,2218,2244,2269,2293,2316,2335,2353,2368,2381,2395,2404,2408,2409,2410,2408,2405,2400,2393,2385,2376,2366,2354,2344,2333,2321,2310,2300,2289,2280,2270,2261,2252,2243,2233,2223,2212,2202,2193,2182,2174,2166,2159,2153,2146,2140,2136,2131,2126,2122,2118,2115,2113,2112,2114,2117,2119,2123,2127,2132,2135,2138,2139,2140,2139,2138,2137,2135,2134,2132,2129,2128,2126,2124,2122,2123,2124,2126,2129,2131,2134,2137,2139,2139,2140,2141,2140,2139,2139,2138,2138,2138,2139,2138,2137,2134,2132,2127,2121,2113,2105,2098,2091,2083,2075,2068,2060,2054,2047,2040,2034,2028,2023,2018,2016,2014,2012,2010,2007,2006,2004,2002,1999,1997,1998,1997,1997,1999,2001,2003,2005,2007,2008,2009,2009,2009,2008,2005,2002,2000,1999,1999,1999,2001,2000,2001,2002,2003,2004,2005,2005,2003,2002,2002,2002,2002,2001,2001,2000,1999,1998,1995,1994,1992,1992,1992,1994,1996,2000,2003,2008,2012,2016,2020,2024,2029,2033,2038,2044,2052,2061,2073,2083,2096,2109,2124,2143,2164,2187,2209,2232,2254,2275,2296,2315,2333,2349,2364,2376,2388,2397,2406,2409,2409,2407,2401,2394,2387,2377,2367,2354,2340,2326,2312,2298,2286,2274,2264,2254,2245,2238,2230,2223,2218,2213,2207,2202,2198,2195,2191,2189,2187,2186,2185,2184,2182,2180,2179,2177,2174,2173,2170,2169,2169,2168,2168,2168,2167,2166,2163,2160,2156,2153,2150,2146,2144,2143,2140,2137,2135,2131,2127,2123,2118,2114,2111,2109,2106,2105,2105,2105,2105,2103,2102,2100,2098,2095,2094,2092,2091,2092,2092,2090,2091,2091,2089,2089,2089,2087,2085,2080,2077,2074,2072,2069,2066,2062,2057,2052,2046,2040,2034,2028,2022,2017,2013,2009,2006,2004,2001,2000,1999,1998,1998,1999,2001,2002,2004,2006,2008,2011,2014,2015,2018,2020,2022,2022,2022,2022,2019,2017,2014,2012,2008,2004,2002,2001,1997,1995,1994,1991,1988,1985,1982,1980,1978,1974,1973,1971,1971,1971,1970,1970,1970,1970,1971,1972,1973,1975,1975,1979,1982,1984,1988,1990,1993,1994,1994,1996,1998,2002,2008,2016,2028,2043,2059,2079,2099,2122,2144,2170,2194,2216,2239,2261,2281,2300,2314,2326,2334,2341,2346,2347,2347,2345,2342,2337,2328,2319,2309,2298,2287,2274,2262,2248,2236,2224,2213,2200,2191,2182,2174,2167,2162,2157,2152,2147,2140,2136,2132,2129,2126,2126,2126,2126,2126,2125,2125,2124,2122,2121,2118,2113,2108,2103,2097,2093,2090,2088,2087,2083,2080,2079,2076,2074,2072,2071,2069,2067,2065,2063,2061,2061,2061,2064,2064,2066,2067,2069,2069,2070,2071,2070,2071,2072,2072,2072,2070,2071,2070,2071,2070,2071,2071,2072,2072,2072,2070,2068,2063,2056,2049,2041,2031,2022,2014,2006,1998,1992,1986,1982,1977,1974,1972,1970,1966,1963,1959,1955,1951,1948,1945,1942,1940,1937,1936,1935,1934,1934,1934,1935,1937,1938,1937,1938,1937,1938,1937,1938,1939,1940,1943,1946,1948,1951,1951,1951,1951,1950,1950,1951,1953,1955,1956,1957,1959,1960,1961,1962,1962,1962,1959,1955,1951,1947,1941,1935,1927,1920,1912,1905,1901,1897,1894,1892,1891,1894,1895,1896,1896,1897,1897,1896,1895,1893,1892,1893,1895,1899,1906,1916,1929,1944,1961,1981,2002,2024,2048,2072,2095,2118,2142,2166,2188,2209,2230,2246,2260,2270,2279,2285,2285,2283,2280,2275,2269,2261,2253,2243,2234,2224,2214,2205,2194,2187,2176,2165,2153,2141,2130,2120,2112,2105,2102,2099,2097,2097,2097,2099,2100,2099,2097,2093,2089,2084,2080,2075,2070,2068,2066,2063,2061,2058,2056,2051,2047,2041,2035,2027,2021,2013,2005,2001,1997,1994,1995,1996,1998,2002,2004,2008,2011,2015,2018,2021,2024,2025,2028,2028,2028,2028,2027,2027,2027,2027,2028,2028,2029,2030,2029,2027,2024,2019,2013,2008,1999,1993,1986,1978,1971,1964,1958,1954,1950,1948,1949,1948,1949,1950,1950,1951,1952,1952,1949,1947,1944,1941,1938,1935,1933,1931,1932,1931,1932,1932,1933,1933,1934,1938,1942,1945,1949,1953,1957,1961,1962,1965,1966,1965,1964,1962,1960,1957,1952,1947,1941,1936,1933,1930,1928,1930,1931,1932,1935,1938,1941,1944,1946,1949,1949,1949,1949,1948,1948,1946,1945,1945,1944,1943,1941,1940,1940,1939,1938,1937,1934,1933,1930,1927,1926,1925,1926,1930,1935,1944,1955,1969,1985,2003,2025,2047,2071,2094,2119,2143,2167,2189,2211,2233,2254,2274,2289,2304,2321,2331,2336,2340,2342,2343,2341,2340,2337,2330,2323,2314,2302,2289,2275,2260,2244,2229,2216,2203,2193,2183,2175,2168,2163,2158,2154,2153,2152,2153,2152,2153,2153,2152,2151,2150,2150,2150,2152,2151,2152,2152,2152,2151,2151,2151,2151,2149,2149,2147,2145,2144,2142,2141,2139,2139,2136,2134,2133,2133,2132,2130,2129,2126,2122,2119,2116,2114,2111,2109,2109,2109,2110,2110,2110,2110,2109,2109,2108,2107,2105,2103,2099,2094,2090,2085,2080,2075,2070,2064,2060,2054,2049,2044,2039,2034,2029,2023,2018,2012,2006,2001,1996,1993,1990,1989,1989,1989,1990,1992,1993,1996,2000,2003,2005,2009,2012,2017,2020,2023,2027,2028,2030,2031,2030,2028,2028,2025,2022,2019,2014,2011,2007,2003,2001,2000,1998,2000,2003,2006,2011,2016,2020,2022,2025,2027,2028,2029,2029,2028,2027,2023,2022,2018,2014,2013,2010,2009,2007,2006,2007,2006,2005,2004,2004,2004,2003,2000,1999,1995,1993,1992,1991,1991,1990,1990,1988,1987,1984,1981,1978,1977,1976,1977,1981,1987,1997,2008,2024,2041,2061,2083,2107,2134,2160,2187,2214,2241,2266,2289,2310,2327,2343,2354,2366,2378,2388,2393,2396,2397,2395,2391,2384,2376,2365,2354,2341,2327,2313,2298,2284,2270,2259,2248,2239,2231,2222,2214,2207,2201,2197,2193,2190,2189,2186,2186,2189,2191,2194,2197,2198,2200,2200,2199,2199,2197,2194,2190,2184,2176,2167,2157,2147,2137,2128,2119,2111,2108,2105,2103,2101,2100,2099,2098,2096,2096,2095,2094,2095,2096,2099,2102,2105,2108,2111,2114,2116,2115,2115,2114,2113,2111,2108,2103,2098,2094,2088,2082,2077,2071,2066,2062,2057,2054,2049,2047,2043,2041,2039,2037,2035,2034,2032,2032,2031,2030,2027,2025,2023,2020,2017,2014,2011,2008,2002,1999,1993,1988,1984,1981,1976,1974,1971,1970,1967,1967,1965,1964,1964,1963,1963,1964,1965,1967,1971,1976,1978,1982,1987,1990,1995,1997,1999,2000,2003,2002,2000,1997,1994,1994,1992,1990,1991,1990,1990,1988,1988,1988,1987,1985,1983,1981,1981,1982,1984,1984,1984,1984,1983,1981,1980,1977,1976,1974,1972,1971,1971,1973,1973,1974,1974,1971,1969,1964,1960,1956,1952,1950,1949,1948,1949,1948,1949,1950,1951,1951,1950,1951,1951,1951,1951,1951,1950,1948,1947,1944,1943,1941,1941,1942,1948,1956,1967,1980,1996,2016,2038,2062,2087,2113,2141,2165,2191,2214,2236,2255,2273,2289,2302,2313,2323,2327,2327,2327,2324,2319,2314,2305,2297,2287,2278,2266,2254,2242,2226,2211,2196,2181,2167,2154,2142,2133,2126,2120,2114,2109,2105,2103,2101,2099,2099,2101,2104,2105,2106,2108,2108,2105,2102,2099,2093,2089,2085,2081,2077,2074,2069,2066,2061,2056,2052,2048,2044,2042,2041,2041,2040,2040,2040,2040,2041,2041,2042,2041,2042,2044,2045,2046,2047,2049,2049,2049,2048,2046,2042,2039,2034,2028,2022,2013,2005,1995,1986,1977,1970,1964,1957,1951,1946,1943,1941,1938,1936,1934,1933,1931,1929,1928,1927,1928,1925,1924,1922,1921,1920,1918,1917,1915,1914,1912,1910,1907,1903,1900,1897,1896,1894,1892,1891,1889,1888,1887,1887,1885,1884,1882,1879,1876,1874,1871,1868,1865,1863,1861,1860,1859,1860,1862,1864,1869,1870,1874,1876,1878,1880,1881,1881,1881,1879,1879,1878,1878,1879,1878,1878,1879,1878,1877,1875,1874,1874,1872,1872,1871,1870,1868,1868,1866,1865,1864,1862,1859,1856,1854,1849,1845,1841,1836,1832,1828,1823,1820,1814,1813,1813,1811,1812,1811,1814,1814,1815,1815,1815,1815,1815,1814,1815,1815,1816,1818,1822,1827,1833,1842,1852,1863,1877,1894,1913,1934,1957,1981,2005,2030,2054,2077,2098,2120,2139,2154,2170,2182,2192,2204,2209,2213,2214,2212,2210,2205,2200,2194,2184,2175,2164,2152,2138,2124,2112,2097,2085,2075,2065,2055,2046,2038,2029,2022,2017,2013,2009,2006,2003,1999,1994,1989,1983,1975,1968,1962,1958,1957,1956,1955,1954,1954,1952,1951,1952,1954,1958,1962,1967,1970,1975,1978,1980,1983,1982,1982,1981,1980,1979,1977,1976,1974,1972,1972,1971,1971,1973,1973,1974,1974,1975,1978,1980,1981,1981,1983,1983,1985,1986,1987,1989,1990,1992,1993,1994,1992,1990,1986,1979,1973,1966,1958,1950,1943,1936,1929,1922,1916,1911,1908,1906,1904,1904,1905,1907,1910,1914,1918,1921,1922,1923,1923,1923,1924,1923,1921,1920,1918,1915,1912,1908,1906,1902,1901,1900,1897,1897,1896,1896,1896,1894,1891,1889,1888,1888,1888,1889,1891,1893,1895,1898,1902,1908,1915,1921,1927,1935,1941,1947,1951,1955,1956,1958,1958,1958,1956,1954,1951,1948,1946,1943,1941,1938,1936,1935,1934,1933,1933,1933,1933,1933,1935,1936,1938,1942,1943,1943,1943,1943,1942,1940,1939,1939,1939,1940,1944,1950,1958,1969,1982,1997,2013,2032,2051,2070,2093,2116,2139,2163,2188,2211,2235,2258,2277,2297,2314,2330,2348,2359,2363,2366,2366,2364,2360,2354,2346,2336,2325,2314,2302,2290,2278,2265,2251,2237,2222,2207,2194,2182,2170,2159,2149,2138,2129,2121,2112,2106,2102,2100,2098,2098,2098,2099,2099,2100,2099,2098,2097,2097,2096,2097,2097,2097,2097,2098,2097,2099,2099,2101,2102,2104,2105,2106,2105,2104,2103,2102,2101,2100,2100,2103,2106,2109,2112,2115,2118,2118,2119,2117,2113,2112,2108,2104,2101,2097,2093,2089,2084,2080,2074,2068,2063,2055,2048,2040,2036,2032,2028,2024,2021,2019,2017,2015,2013,2011,2008,2006,2002,1999,1995,1992,1990,1987,1984,1980,1976,1972,1970,1968,1965,1961,1958,1956,1953,1951,1950,1950,1951,1952,1953,1953,1953,1954,1954,1953,1953,1954,1954,1957,1960,1964,1969,1970,1972,1973,1974,1974,1974,1976,1976,1977,1978,1978,1977,1975,1975,1974,1973,1972,1971,1969,1968,1967,1967,1967,1967,1968,1968,1969,1970,1971,1970,1969,1968,1965,1964,1963,1962,1961,1960,1958,1957,1955,1952,1950,1948,1945,1942,1938,1935,1932,1928,1924,1920,1917,1914,1911,1909,1910,1913,1918,1927,1940,1956,1975,1997,2022,2048,2074,2102,2130,2160,2188,2215,2240,2261,2278,2292,2301,2308,2311,2308,2303,2296,2285,2274,2262,2249,2236,2222,2209,2191,2178,2164,2152,2140,2129,2118,2109,2101,2094,2087,2078,2071,2062,2052,2042,2033,2024,2016,2009,2001,1996,1991,1986,1981,1977,1974,1972,1970,1968,1968,1969,1968,1969,1970,1968,1966,1964,1962,1961,1961,1962,1962,1964,1965,1967,1969,1971,1972,1974,1977,1982,1986,1990,1993,1995,1998,1998,1999,1998,1997,1994,1990,1986,1983,1980,1976,1973,1971,1967,1965,1962,1960,1959,1957,1957,1956,1957,1956,1955,1952,1948,1943,1939,1933,1926,1920,1913,1908,1903,1899,1897,1894,1892,1890,1889,1887,1886,1884,1884,1884,1885,1888,1891,1893,1897,1899,1901,1903,1904,1903,1902,1902,1901,1901,1902,1904,1906,1907,1909,1909,1909,1910,1910,1912,1913,1915,1918,1920,1922,1925,1925,1928,1929,1930,1930,1930,1931,1931,1932,1933,1934,1934,1935,1936,1937,1938,1940,1942,1945,1946,1948,1948,1948,1946,1944,1941,1940,1936,1935,1933,1933,1934,1937,1944,1951,1961,1972,1985,2001,2021,2042,2067,2093,2122,2150,2177,2203,2229,2254,2275,2297,2315,2332,2346,2358,2370,2374,2374,2370,2362,2355,2346,2338,2327,2317,2307,2297,2285,2274,2261,2249,2236,2224,2210,2197,2185,2173,2161,2150,2142,2135,2127,2122,2118,2114,2113,2112,2111,2110,2110,2111,2112,2113,2113,2114,2113,2112,2112,2110,2109,2107,2107,2105,2102,2099,2098,2097,2095,2096,2097,2099,2102,2106,2108,2112,2113,2115,2117,2119,2120,2121,2122,2123,2124,2125,2126,2127,2127,2127,2126,2123,2120,2117,2113,2107,2100,2092,2087,2079,2072,2064,2058,2052,2045,2039,2034,2031,2029,2026,2024,2024,2024,2023,2023,2025,2026,2028,2030,2031,2033,2035,2038,2040,2041,2041,2041,2038,2037,2033,2030,2025,2021,2018,2013,2009,2006,2004,2003,2002,2001,2000,2001,2000,2000,1999,1998,1996,1998,1999,2000,2002,2005,2008,2011,2015,2019,2021,2025,2027,2028,2030,2031,2034,2034,2037,2037,2038,2039,2038,2038,2036,2035,2033,2031,2029,2024,2021,2016,2011,2007,2003,1999,1996,1994,1993,1995,1997,1999,2003,2007,2013,2019,2029,2039,2050,2063,2078,2095,2113,2132,2152,2173,2194,2216,2237,2258,2277,2295,2311,2327,2343,2356,2373,2383,2387,2389,2388,2387,2382,2374,2364,2353,2339,2324,2309,2293,2277,2261,2245,2228,2212,2194,2177,2159,2144,2130,2116,2104,2093,2083,2073,2063,2056,2049,2045,2042,2042,2041,2042,2043,2044,2046,2050,2053,2056,2060,2061,2063,2063,2063,2062,2059,2058,2057,2054,2052,2050,2047,2044,2041,2039,2035,2032,2032,2032,2032,2032,2032,2032,2032,2029,2029,2029,2027,2025,2022,2019,2017,2012,2007,2004,1999,1996,1990,1985,1981,1977,1973,1970,1964,1958,1954,1949,1946,1943,1940,1938,1935,1934,1934,1934,1934,1936,1938,1940,1942,1944,1945,1946,1945,1943,1940,1936,1933,1930,1929,1928,1926,1924,1920,1916,1911,1905,1898,1891,1885,1879,1874,1871,1870,1870,1870,1871,1870,1870,1868,1866,1864,1862,1861,1859,1860,1861,1862,1867,1869,1875,1881,1887,1890,1892,1895,1896,1896,1895,1893,1891,1889,1886,1882,1881,1879,1878,1876,1875,1873,1871,1871,1871,1871,1873,1876,1880,1885,1893,1903,1914,1929,1947,1969,1992,2018,2044,2070,2094,2117,2140,2161,2181,2198,2213,2227,2240,2252,2265,2275,2280,2282,2282,2280,2277,2271,2263,2254,2245,2237,2227,2219,2209,2199,2189,2179,2170,2160,2151,2141,2133,2124,2119,2112,2105,2099,2091,2082,2072,2062,2052,2040,2029,2019,2009,2000,1991,1985,1981,1977,1976,1976,1976,1979,1982,1986,1991,1997,2002,2006,2011,2016,2020,2024,2029,2032,2037,2040,2042,2044,2043,2043,2043,2042,2041,2041,2039,2038,2039,2037,2039,2039,2041,2042,2044,2047,2049,2051,2053,2054,2054,2054,2052,2048,2044,2040,2036,2031,2024,2019,2014,2009,2004,1997,1991,1985,1979,1972,1967,1962,1960,1958,1957,1958,1959,1961,1962,1963,1964,1966,1968,1969,1971,1973,1973,1973,1973,1971,1971,1968,1967,1966,1965,1965,1966,1968,1970,1971,1973,1975,1977,1979,1979,1981,1982,1982,1984,1986,1986,1987,1990,1991,1992,1993,1995,1998,2000,2001,2003,2005,2005,2006,2006,2005,2004,2004,2007,2008,2012,2017,2023,2031,2041,2052,2064,2079,2095,2116,2139,2162,2186,2210,2234,2256,2278,2298,2317,2334,2350,2364,2376,2392,2402,2407,2409,2408,2406,2402,2397,2390,2381,2368,2356,2341,2326,2309,2292,2277,2260,2242,2226,2210,2196,2183,2172,2163,2155,2149,2143,2137,2132,2127,2123,2120,2118,2117,2114,2112,2109,2108,2110,2110,2114,2116,2119,2122,2126,2130,2131,2133,2134,2134,2134,2133,2134,2136,2136,2136,2137,2137,2136,2134,2133,2131,2130,2129,2128,2127,2127,2127,2124,2123,2120,2115,2110,2104,2100,2094,2090,2085,2084,2082,2080,2078,2075,2073,2069,2064,2059,2055,2050,2046,2041,2035,2028,2021,2016,2010,2007,2003,2001,2000,2000,2001,2002,2005,2006,2010,2014,2020,2026,2032,2038,2042,2048,2052,2052,2052,2051,2047,2042,2037,2033,2029,2025,2023,2022,2023,2022,2022,2021,2022,2023,2025,2026,2030,2033,2037,2040,2042,2044,2048,2050,2054,2057,2062,2066,2068,2070,2073,2073,2071,2068,2064,2060,2056,2052,2047,2044,2040,2039,2041,2043,2049,2056,2068,2081,2098,2117,2136,2159,2183,2208,2235,2260,2286,2311,2337,2360,2383,2404,2421,2437,2449,2461,2464,2462,2456,2448,2439,2427,2414,2399,2386,2373,2359,2347,2336,2324,2311,2298,2284,2271,2259,2246,2234,2223,2212,2204,2195,2189,2184,2181,2178,2177,2175,2174,2174,2173,2170,2168,2165,2161,2159,2156,2153,2151,2148,2145,2143,2143,2144,2146,2148,2150,2151,2151,2152,2150,2148,2146,2144,2142,2141,2141,2141,2140,2140,2137,2136,2133,2131,2127,2123,2120,2117,2114,2111,2109,2106,2105,2103,2104,2103,2104,2104,2104,2103,2103,2102,2102,2102,2101,2098,2096,2095,2093,2090,2088,2085,2081,2077,2073,2068,2062,2057,2050,2043,2035,2029,2022,2017,2011,2006,2001,1997,1995,1995,1997,1999,2001,2005,2009,2010,2013,2015,2015,2015,2013,2010,2005,2003,2001,1999,1999,1998,1996,1995,1995,1993,1993,1991,1991,1991,1991,1991,1993,1994,1994,1997,1998,1999,2002,2004,2005,2006,2006,2005,2002,1999,1997,1992,1989,1986,1983,1982,1981,1982,1984,1987,1994,2003,2017,2031,2049,2068,2089,2111,2132,2157,2181,2205,2230,2255,2278,2302,2326,2347,2367,2385,2408,2422,2430,2433,2433,2427,2419,2409,2399,2385,2371,2357,2344,2328,2314,2300,2287,2274,2261,2249,2237,2225,2215,2204,2194,2186,2178,2173,2169,2166,2165,2166,2166,2167,2169,2167,2167,2164,2162,2159,2156,2154,2152,2152,2151,2151,2152,2152,2153,2154,2155,2155,2154,2155,2155,2156,2156,2157,2159,2160,2160,2159,2159,2157,2154,2152,2149,2147,2144,2142,2141,2138,2135,2131,2125,2120,2115,2108,2102,2097,2092,2086,2080,2073,2066,2059,2051,2042,2035,2028,2020,2012,2007,2001,1996,1994,1991,1988,1986,1985,1984,1983,1983,1985,1985,1984,1982,1981,1979,1975,1972,1968,1964,1960,1958,1955,1953,1952,1949,1948,1948,1948,1948,1948,1948,1946,1946,1946,1945,1945,1944,1943,1944,1945,1946,1948,1949,1951,1953,1953,1953,1953,1954,1954,1955,1955,1954,1952,1951,1947,1945,1942,1940,1936,1933,1930,1927,1923,1921,1920,1919,1919,1919,1919,1918,1919,1920,1920,1920,1920,1921,1921,1922,1923,1924,1929,1935,1945,1957,1972,1990,2008,2027,2048,2069,2092,2115,2139,2163,2187,2210,2232,2254,2274,2292,2307,2320,2332,2334,2334,2332,2327,2324,2318,2310,2301,2291,2280,2268,2255,2241,2228,2216,2205,2193,2181,2170,2158,2148,2137,2126,2117,2107,2098,2089,2080,2071,2063,2055,2046,2040,2032,2027,2024,2020,2018,2016,2015,2014,2014,2014,2014,2015,2015,2016,2016,2019,2021,2023,2026,2029,2032,2035,2039,2042,2046,2049,2052,2055,2056,2056,2054,2053,2052,2049,2046,2042,2039,2036,2032,2029,2027,2022,2018,2016,2013,2009,2005,2000,1995,1989,1985,1980,1975,1971,1967,1963,1959,1954,1949,1945,1941,1936,1932,1926,1922,1917,1911,1908,1905,1902,1900,1898,1896,1894,1893,1891,1888,1886,1885,1883,1881,1879,1877,1877,1875,1874,1872,1871,1872,1872,1872,1874,1877,1878,1882,1885,1889,1892,1896,1899,1903,1907,1908,1910,1909,1907,1903,1899,1895,1892,1891,1889,1887,1887,1886,1885,1883,1883,1881,1880,1879,1880,1880,1880,1879,1877,1874,1871,1866,1862,1857,1854,1851,1848,1846,1845,1844,1845,1849,1852,1858,1865,1877,1890,1907,1926,1947,1969,1992,2016,2042,2068,2095,2123,2150,2178,2204,2228,2250,2271,2289,2310,2324,2333,2339,2344,2346,2345,2344,2342,2338,2332,2326,2320,2310,2299,2286,2273,2255,2241,2227,2211,2197,2184,2171,2158,2147,2136,2126,2118,2112,2108,2105,2103,2102,2102,2103,2107,2111,2114,2117,2120,2120,2120,2117,2117,2114,2111,2108,2108,2106,2107,2109,2111,2114,2117,2120,2121,2125,2128,2132,2134,2136,2137,2140,2141,2142,2143,2144,2143,2142,2139,2135,2130,2126,2120,2115,2111,2107,2103,2098,2092,2088,2084,2079,2076,2073,2068,2063,2058,2053,2048,2043,2038,2033,2029,2023,2019,2017,2014,2012,2010,2010,2008,2006,2004,2002,1999,1998,1998,1998,1998,1998,1999,1998,2000,2001,2002,2002,2004,2005,2007,2011,2013,2015,2017,2019,2020,2020,2021,2022,2021,2019,2015,2012,2009,2007,2005,2005,2007,2010,2013,2017,2023,2029,2034,2039,2040,2042,2042,2042,2042,2038,2036,2033,2030,2029,2028,2026,2025,2025,2025,2025,2025,2025,2026,2026,2027,2030,2033,2037,2045,2056,2070,2086,2106,2127,2151,2176,2203,2231,2260,2288,2313,2337,2362,2384,2404,2423,2438,2450,2464,2470,2472,2472,2471,2467,2463,2457,2451,2442,2432,2421,2409,2396,2383,2369,2355,2342,2329,2320,2311,2304,2298,2293,2289,2282,2278,2274,2271,2268,2264,2260,2257,2254,2250,2245,2241,2236,2232,2227,2222,2217,2212,2208,2204,2201,2196,2195,2192,2191,2190,2190,2189,2190,2192,2195,2197,2200,2201,2204,2204,2206,2206,2205,2203,2201,2198,2195,2191,2188,2185,2182,2180,2177,2173,2169,2164,2160,2155,2149,2144,2136,2131,2125,2120,2115,2111,2106,2099,2093,2086,2079,2075,2070,2064,2059,2056,2052,2049,2046,2044,2041,2038,2035,2032,2030,2028,2026,2025,2022,2021,2018,2016,2014,2012,2009,2008,2009,2011,2012,2013,2015,2019,2021,2024,2026,2026,2027,2026,2027,2027,2026,2027,2028,2027,2027,2027,2028,2028,2028,2029,2030,2030,2030,2031,2029,2027,2025,2025,2023,2021,2020,2020,2018,2016,2015,2012,2009,2005,2002,2000,1999,1998,1998,1998,1999,1999,2000,2000,2002,2003,2007,2013,2021,2031,2043,2058,2075,2096,2116,2138,2160,2184,2209,2234,2260,2287,2312,2338,2362,2386,2407,2424,2440,2459,2471,2476,2478,2479,2476,2470,2463,2452,2441,2427,2414,2399,2383,2368,2352,2338,2325,2313,2301,2291,2282,2274,2268,2263,2258,2254,2249,2246,2241,2238,2234,2229,2225,2221,2216,2213,2211,2209,2206,2205,2204,2203,2202,2201,2199,2197,2196,2195,2191,2188,2186,2183,2183,2180,2181,2181,2182,2182,2183,2184,2185,2186,2186,2185,2184,2181,2177,2172,2166,2160,2156,2153,2150,2148,2147,2146,2146,2143,2140,2139,2134,2130,2124,2119,2113,2107,2099,2094,2088,2081,2074,2067,2060,2054,2048,2042,2038,2034,2031,2029,2027,2026,2024,2024,2024,2021,2020,2018,2015,2011,2005,1999,1994,1990,1989,1987,1987,1986,1986,1987,1986,1986,1985,1983,1984,1983,1983,1983,1984,1983,1984,1983,1984,1984,1985,1988,1990,1993,1995,1997,1999,1999,1999,1998,1996,1996,1994,1993,1991,1989,1983,1980,1974,1968,1961,1955,1948,1942,1934,1929,1923,1921,1920,1921,1922,1924,1927,1931,1935,1940,1944,1949,1955,1963,1974,1985,1999,2016,2034,2055,2074,2096,2118,2140,2161,2181,2202,2220,2240,2257,2273,2289,2302,2322,2337,2346,2355,2362,2367,2370,2370,2368,2364,2356,2345,2332,2318,2301,2284,2267,2248,2232,2216,2198,2184,2170,2156,2142,2133,2124,2116,2111,2106,2102,2099,2095,2093,2092,2091,2091,2092,2091,2091,2089,2089,2087,2085,2083,2081,2078,2076,2074,2073,2071,2068,2067,2065,2064,2060,2059,2058,2055,2053,2052,2051,2052,2052,2054,2055,2057,2057,2058,2056,2055,2052,2049,2048,2047,2044,2043,2043,2043,2043,2041,2041,2039,2039,2037,2035,2035,2032,2031,2027,2022,2018,2013,2006,1999,1991,1984,1977,1969,1961,1954,1949,1942,1935,1929,1923,1919,1914,1910,1907,1903,1901,1899,1897,1895,1894,1893,1892,1892,1891,1891,1893,1893,1895,1895,1896,1896,1895,1893,1893,1891,1888,1885,1883,1882,1881,1883,1885,1887,1889,1892,1895,1897,1900,1902,1902,1901,1899,1897,1896,1894,1893,1891,1889,1885,1882,1879,1874,1870,1866,1860,1856,1852,1849,1846,1845,1846,1848,1851,1855,1862,1871,1883,1897,1915,1935,1958,1982,2009,2036,2065,2096,2126,2155,2183,2210,2234,2258,2280,2299,2316,2334,2345,2350,2354,2354,2352,2348,2341,2333,2326,2319,2309,2300,2291,2283,2272,2259,2250,2240,2229,2217,2207,2196,2185,2174,2164,2156,2147,2140,2135,2132,2130,2127,2124,2122,2119,2116,2113,2109,2108,2106,2105,2104,2105,2107,2110,2111,2112,2113,2113,2112,2112,2113,2115,2116,2117,2119,2120,2123,2125,2129,2134,2137,2140,2139,2137,2137,2133,2130,2125,2122,2118,2114,2110,2103,2096,2089,2084,2078,2073,2069,2064,2061,2058,2055,2051,2048,2042,2038,2034,2031,2027,2024,2019,2015,2011,2007,2005,2003,2000,1999,1998,1995,1992,1989,1986,1984,1982,1980,1977,1976,1973,1971,1969,1967,1965,1964,1961,1959,1958,1956,1956,1955,1958,1960,1966,1972,1978,1985,1993,2000,2004,2008,2011,2012,2012,2012,2012,2009,2008,2007,2006,2005,2005,2004,2003,2002,2001,2001,2001,2000,2002,2003,2006,2008,2011,2012,2011,2010,2011,2011,2010,2010,2013,2017,2020,2027,2035,2048,2059,2074,2091,2110,2130,2153,2178,2205,2230,2258,2283,2310,2332,2354,2374,2391,2407,2421,2430,2440,2446,2447,2447,2444,2440,2435,2430,2423,2415,2406,2396,2385,2372,2357,2342,2326,2310,2294,2277,2262,2249,2237,2228,2220,2214,2208,2203,2198,2194,2190,2187,2185,2185,2183,2185,2186,2187,2187,2189,2188,2186,2185,2181,2178,2173,2170,2164,2159,2152,2146,2141,2139,2135,2134,2132,2131,2131,2133,2134,2136,2139,2142,2144,2145,2146,2147,2148,2147,2148,2147,2146,2146,2145,2143,2140,2136,2131,2125,2119,2113,2107,2101,2096,2089,2084,2080,2076,2073,2071,2068,2063,2060,2056,2052,2048,2045,2041,2038,2035,2032,2028,2024,2019,2014,2009,2006,2002,2000,1998,1997,1996,1994,1992,1990,1988,1988,1985,1984,1983,1985,1985,1986,1989,1991,1991,1991,1989,1988,1985,1982,1979,1977,1973,1971,1969,1968,1965,1963,1962,1963,1964,1964,1965,1967,1969,1970,1971,1973,1974,1975,1974,1973,1972,1971,1970,1969,1967,1964,1961,1958,1956,1953,1953,1952,1954,1958,1964,1973,1987,2001,2021,2043,2067,2094,2121,2150,2179,2206,2232,2259,2283,2305,2326,2345,2359,2372,2386,2396,2400,2403,2404,2402,2398,2393,2384,2374,2362,2346,2331,2316,2297,2280,2266,2251,2238,2227,2218,2210,2203,2197,2193,2189,2186,2183,2180,2175,2169,2165,2158,2152,2146,2139,2133,2127,2123,2118,2114,2109,2107,2104,2101,2100,2101,2103,2104,2106,2107,2109,2110,2110,2110,2109,2108,2107,2107,2107,2107,2108,2109,2109,2110,2110,2111,2112,2112,2112,2113,2112,2110,2109,2105,2103,2103,2099,2097,2095,2092,2088,2083,2079,2075,2070,2067,2064,2063,2062,2062,2060,2055,2052,2047,2040,2032,2024,2016,2006,1995,1985,1975,1966,1957,1949,1945,1941,1937,1935,1934,1933,1933,1935,1936,1938,1942,1944,1948,1951,1955,1957,1961,1964,1967,1969,1968,1969,1968,1967,1964,1961,1957,1951,1946,1940,1934,1929,1923,1920,1916,1914,1913,1912,1912,1913,1916,1918,1922,1925,1927,1928,1928,1928,1927,1927,1925,1924,1923,1924,1925,1926,1928,1927,1926,1926,1923,1919,1913,1909,1902,1896,1891,1888,1885,1885,1886,1888,1893,1901,1912,1924,1938,1953,1972,1990,2011,2034,2058,2083,2108,2133,2156,2179,2199,2216,2231,2244,2255,2265,2270,2271,2268,2263,2256,2248,2240,2229,2217,2203,2190,2177,2166,2156,2145,2135,2126,2116,2107,2098,2088,2078,2069,2060,2051,2044,2038,2033,2030,2028,2027,2027,2027,2026,2024,2022,2018,2016,2014,2012,2010,2009,2010,2008,2007,2005,2003,2001,1999,1997,1996,1995,1995,1993,1993,1992,1992,1994,1996,1998,1998,1998,1999,1999,1997,1996,1994,1992,1989,1984,1979,1974,1967,1962,1958,1954,1953,1950,1950,1948,1946,1944,1941,1937,1935,1931,1928,1924,1921,1919,1919,1918,1915,1911,1907,1900,1894,1886,1880,1876,1872,1867,1866,1866,1866,1867,1866,1866,1866,1864,1860,1858,1851,1846,1841,1835,1829,1825,1821,1818,1814,1814,1815,1818,1821,1825,1830,1835,1839,1843,1845,1849,1851,1853,1854,1856,1857,1859,1859,1859,1859,1859,1859,1857,1856,1854,1852,1849,1847,1844,1843,1843,1842,1844,1843,1842,1841,1841,1840,1839,1841,1844,1848,1852,1856,1860,1863,1866,1867,1866,1865,1863,1862,1860,1857,1854,1850,1847,1845,1843,1843,1845,1849,1855,1864,1877,1891,1909,1929,1950,1974,1999,2025,2050,2076,2100,2125,2146,2166,2182,2197,2208,2219,2230,2237,2240,2242,2244,2244,2242,2239,2234,2228,2224,2217,2211,2204,2196,2189,2181,2174,2164,2155,2147,2139,2131,2122,2116,2109,2102,2096,2088,2080,2073,2065,2057,2050,2045,2041,2035,2030,2027,2025,2024,2024,2024,2027,2029,2032,2035,2039,2041,2045,2050,2054,2059,2064,2070,2074,2076,2079,2081,2084,2086,2087,2088,2089,2088,2088,2087,2086,2085,2083,2080,2079,2077,2074,2071,2068,2065,2061,2058,2055,2051,2049,2046,2044,2043,2041,2041,2039,2037,2034,2030,2026,2021,2016,2012,2006,2004,2000,1998,1995,1994,1992,1989,1988,1985,1983,1979,1975,1970,1965,1960,1955,1949,1944,1939,1934,1932,1928,1926,1923,1921,1920,1920,1920,1920,1921,1925,1929,1935,1941,1947,1954,1961,1968,1970,1973,1973,1972,1971,1971,1969,1967,1966,1964,1962,1962,1963,1965,1967,1969,1971,1975,1978,1980,1981,1982,1983,1983,1981,1982,1980,1977,1974,1972,1969,1967,1965,1963,1962,1960,1957,1955,1953,1952,1951,1950,1950,1951,1952,1954,1957,1959,1963,1968,1975,1985,1996,2010,2029,2049,2070,2094,2121,2147,2175,2201,2227,2253,2278,2303,2325,2346,2363,2378,2390,2401,2405,2407,2405,2400,2394,2385,2377,2368,2358,2347,2337,2327,2315,2305,2293,2283,2272,2262,2251,2239,2228,2217,2207,2196,2186,2177,2169,2162,2155,2148,2142,2137,2133,2131,2129,2129,2130,2130,2133,2134,2135,2136,2137,2136,2135,2133,2133,2132,2131,2132,2132,2131,2130,2128,2126,2123,2118,2117,2114,2113,2112,2112,2114,2113,2115,2116,2117,2119,2120,2120,2120,2120,2120,2119,2116,2115,2111,2109,2105,2102,2098,2095,2090,2088,2086,2083,2080,2076,2073,2070,2064,2057,2052,2044,2037,2031,2025,2020,2016,2012,2007,2004,2002,1998,1996,1996,1996,1997,1997,1999,1999,2001,2004,2005,2006,2008,2009,2011,2012,2012,2012,2012,2012,2012,2012,2013,2014,2015,2017,2017,2017,2017,2015,2012,2008,2005,1999,1992,1987,1981,1975,1969,1964,1960,1956,1953,1952,1951,1950,1952,1952,1953,1955,1956,1958,1961,1964,1967,1972,1977,1980,1985,1988,1990,1993,1995,1996,1997,1995,1993,1991,1987,1985,1982,1980,1978,1978,1976,1975,1973,1971,1967,1966,1963,1961,1958,1958,1957,1959,1963,1973,1983,1999,2017,2037,2059,2084,2111,2138,2164,2191,2214,2235,2255,2273,2289,2302,2315,2327,2339,2349,2355,2358,2359,2359,2357,2352,2346,2339,2329,2318,2306,2293,2280,2266,2253,2240,2227,2214,2201,2190,2179,2170,2160,2150,2143,2136,2129,2124,2120,2117,2113,2111,2109,2109,2107,2108,2108,2110,2111,2113,2113,2114,2114,2114,2113,2110,2107,2104,2103,2101,2099,2099,2098,2098,2097,2097,2094,2090,2087,2084,2082,2080,2079,2080,2080,2081,2083,2084,2085,2087,2086,2086,2083,2080,2076,2072,2067,2062,2057,2053,2050,2048,2042,2039,2033,2026,2019,2013,2003,1993,1984,1973,1964,1956,1947,1941,1935,1932,1929,1926,1924,1922,1921,1920,1918,1916,1915,1913,1910,1906,1903,1899,1895,1893,1890,1886,1882,1880,1877,1876,1872,1871,1869,1867,1865,1865,1863,1864,1861,1863,1864,1867,1870,1875,1880,1884,1889,1893,1897,1900,1903,1903,1902,1899,1898,1894,1890,1886,1884,1882,1880,1880,1879,1879,1878,1877,1874,1872,1870,1868,1865,1862,1861,1859,1859,1858,1859,1859,1858,1857,1857,1856,1855,1854,1854,1851,1850,1847,1845,1842,1838,1837,1833,1831,1828,1825,1822,1821,1821,1824,1827,1835,1844,1857,1871,1889,1909,1930,1955,1980,2007,2032,2056,2079,2100,2120,2138,2154,2169,2179,2189,2200,2205,2207,2207,2205,2203,2200,2196,2192,2187,2181,2173,2163,2153,2141,2127,2114,2100,2087,2076,2066,2057,2048,2041,2032,2025,2019,2013,2009,2005,2005,2004,2004,2005,2003,2003,2001,2000,1998,1997,1995,1993,1992,1991,1992,1992,1994,1995,1997,1997,1997,1997,1996,1997,1997,1999,2001,2004,2006,2008,2010,2013,2014,2016,2017,2020,2018,2017,2017,2017,2016,2017,2017,2016,2014,2013,2009,2005,2002,1997,1993,1988,1986,1982,1979,1977,1977,1977,1979,1979,1979,1977,1975,1972,1969,1965,1963,1960,1956,1952,1947,1942,1936,1930,1923,1917,1911,1905,1901,1898,1896,1895,1895,1893,1891,1889,1886,1883,1881,1879,1878,1876,1875,1876,1876,1878,1879,1883,1887,1891,1897,1902,1907,1912,1916,1920,1922,1923,1924,1922,1920,1919,1916,1913,1910,1907,1905,1903,1901,1899,1897,1894,1892,1890,1888,1885,1882,1881,1879,1879,1879,1880,1881,1882,1885,1890,1894,1900,1907,1912,1918,1921,1927,1930,1932,1933,1934,1934,1936,1937,1938,1941,1946,1952,1961,1970,1981,1994,2009,2026,2045,2066,2090,2114,2140,2165,2191,2217,2241,2265,2285,2305,2322,2336,2347,2359,2361,2359,2354,2346,2337,2327,2317,2306,2294,2281,2269,2255,2241,2227,2214,2202,2191,2180,2169,2160,2151,2143,2136,2129,2123,2116,2111,2108,2105,2102,2100,2096,2094,2092,2091,2090,2089,2090,2091,2091,2092,2093,2093,2093,2093,2095,2097,2099,2104,2108,2113,2118,2123,2127,2133,2139,2145,2151,2155,2157,2160,2162,2163,2163,2164,2163,2160,2159,2158,2156,2156,2154,2154,2153,2151,2148,2144,2140,2135,2129,2123,2116,2109,2102,2094,2088,2082,2076,2071,2068,2064,2060,2055,2051,2047,2043,2039,2033,2025,2016,2010,2003,1998,1994,1991,1989,1989,1988,1991,1994,1999,2003,2008,2012,2017,2020,2024,2028,2032,2034,2035,2039,2040,2041,2041,2042,2041,2040,2039,2036,2031,2027,2021,2014,2006,1997,1988,1978,1970,1963,1956,1950,1945,1941,1938,1937,1936,1937,1941,1944,1949,1953,1958,1961,1965,1968,1972,1974,1976,1978,1979,1979,1978,1974,1972,1969,1967,1965,1963,1963,1964,1965,1967,1971,1975,1980,1986,1995,2004,2016,2029,2044,2061,2081,2102,2127,2152,2178,2204,2232,2259,2286,2311,2336,2359,2380,2396,2410,2420,2431,2434,2433,2430,2425,2417,2406,2394,2380,2366,2351,2334,2319,2301,2285,2269,2254,2241,2228,2216,2205,2196,2188,2181,2177,2175,2173,2173,2174,2177,2180,2183,2186,2188,2191,2192,2194,2195,2196,2194,2193,2192,2189,2187,2183,2180,2178,2178,2178,2179,2180,2182,2184,2185,2186,2189,2191,2192,2194,2197,2198,2201,2201,2203,2203,2201,2196,2191,2184,2178,2171,2165,2158,2152,2144,2140,2132,2128,2122,2116,2111,2104,2097,2091,2086,2081,2075,2072,2068,2066,2062,2058,2055,2052,2049,2044,2040,2036,2031,2027,2022,2017,2012,2011,2008,2008,2009,2010,2009,2009,2009,2008,2005,2004,2001,1998,1994,1990,1986,1982,1977,1973,1968,1964,1962,1957,1952,1947,1943,1938,1935,1933,1932,1933,1935,1938,1940,1943,1945,1947,1950,1950,1951,1951,1950,1949,1948,1948,1947,1948,1947,1945,1944,1942,1939,1939,1936,1935,1934,1933,1933,1935,1938,1940,1941,1944,1945,1946,1945,1945,1944,1943,1943,1941,1940,1938,1935,1929,1922,1914,1905,1897,1892,1886,1883,1881,1881,1883,1885,1892,1900,1912,1925,1940,1956,1975,1996,2018,2041,2064,2088,2113,2138,2163,2187,2210,2231,2250,2268,2288,2302,2309,2314,2318,2318,2316,2311,2304,2295,2286,2277,2267,2255,2244,2233,2221,2208,2195,2185,2174,2161,2150,2137,2126,2114,2104,2094,2086,2080,2075,2072,2070,2069,2067,2067,2066,2064,2062,2061,2058,2057,2056,2056,2056,2057,2057,2057,2057,2057,2057,2057,2057,2059,2062,2066,2071,2076,2082,2085,2088,2091,2091,2092,2091,2089,2086,2084,2081,2078,2075,2071,2068,2063,2059,2052,2048,2044,2041,2038,2037,2036,2036,2034,2033,2031,2030,2027,2023,2018,2014,2009,2005,2000,1996,1993,1988,1987,1985,1983,1983,1983,1982,1982,1984,1985,1985,1988,1988,1989,1987,1986,1984,1982,1978,1974,1969,1964,1958,1953,1949,1946,1943,1941,1942,1943,1943,1944,1946,1947,1948,1950,1952,1952,1952,1952,1952,1951,1951,1951,1952,1951,1952,1952,1953,1953,1955,1955,1955,1956,1956,1955,1954,1953,1954,1953,1953,1953,1952,1952,1951,1951,1951,1951,1951,1949,1948,1946,1946,1943,1942,1941,1939,1938,1938,1938,1937,1938,1937,1938,1938,1938,1939,1942,1948,1957,1968,1983,2001,2020,2043,2069,2095,2121,2148,2173,2198,2222,2244,2264,2285,2301,2315,2329,2345,2355,2363,2369,2373,2377,2378,2379,2377,2374,2369,2362,2353,2344,2334,2323,2312,2300,2288,2277,2264,2252,2243,2235,2227,2221,2218,2216,2214,2211,2211,2210,2211,2212,2213,2214,2214,2214,2211,2210,2207,2205,2201,2198,2192,2186,2180,2174,2169,2164,2161,2161,2160,2161,2163,2166,2169,2174,2178,2183,2188,2191,2195,2199,2203,2207,2210,2213,2215,2215,2215,2213,2211,2208,2206,2202,2199,2195,2191,2187,2180,2174,2166,2158,2149,2141,2132,2124,2116,2110,2105,2099,2095,2092,2087,2084,2078,2074,2068,2062,2057,2052,2048,2043,2038,2033,2029,2024,2020,2016,2014,2011,2010,2008,2010,2010,2014,2016,2016,2018,2020,2023,2025,2027,2028,2030,2031,2032,2031,2032,2032,2032,2033,2034,2034,2034,2033,2030,2028,2026,2023,2020,2017,2015,2014,2012,2011,2008,2005,2003,2001,2000,2000,2002,2002,2004,2007,2009,2011,2012,2015,2017,2017,2019,2019,2017,2016,2016,2014,2013,2012,2010,2008,2004,2002,1997,1994,1991,1988,1986,1983,1984,1985,1987,1990,1997,2004,2013,2024,2037,2053,2071,2090,2113,2138,2161,2188,2213,2239,2264,2288,2311,2333,2354,2370,2387,2399,2413,2419,2420,2422,2421,2418,2413,2408,2402,2395,2387,2377,2367,2357,2345,2332,2320,2307,2295,2283,2271,2262,2252,2245,2238,2234,2231,2228,2226,2226,2226,2225,2224,2222,2220,2218,2216,2214,2213,2209,2208,2207,2206,2205,2205,2205,2204,2202,2200,2197,2194,2191,2189,2187,2186,2184,2184,2184,2185,2187,2189,2192,2194,2194,2194,2194,2191,2190,2188,2185,2183,2178,2172,2165,2158,2151,2146,2140,2137,2133,2130,2127,2122,2118,2113,2108,2102,2097,2092,2087,2083,2079,2075,2072,2069,2067,2064,2062,2061,2059,2057,2055,2051,2047,2042,2039,2033,2029,2026,2025,2023,2023,2024,2026,2026,2028,2028,2028,2028,2029,2030,2029,2028,2026,2024,2024,2023,2023,2022,2021,2021,2021,2022,2022,2022,2024,2025,2028,2030,2033,2037,2040,2041,2044,2047,2046,2046,2045,2043,2041,2039,2036,2033,2031,2029,2027,2027,2025,2023,2023,2020,2019,2016,2015,2014,2012,2008,2005,2001,1996,1991,1988,1985,1984,1983,1981,1980,1978,1976,1974,1971,1971,1969,1969,1970,1971,1975,1980,1987,1998,2011,2026,2044,2065,2087,2110,2136,2162,2190,2219,2248,2276,2303,2328,2351,2372,2390,2406,2420,2438,2443,2445,2443,2437,2428,2416,2402,2387,2371,2354,2338,2322,2307,2294,2281,2269,2259,2250,2244,2237,2232,2226,2220,2214,2210,2207,2205,2204,2203,2203,2202,2203,2203,2202,2199,2196,2191,2187,2180,2174,2167,2159,2153,2147,2143,2141,2139,2137,2136,2134,2134,2134,2132,2132,2131,2129,2128,2126,2124,2122,2120,2119,2118,2117,2118,2115,2116,2116,2114,2112,2108,2104,2099,2093,2086,2080,2074,2067,2061,2055,2048,2043,2037,2031,2024,2015,2006,1998,1989,1983,1976,1970,1967,1963,1960,1959,1960,1959,1959,1957,1956,1953,1951,1948,1944,1941,1938,1935,1933,1932,1931,1931,1928,1927,1923,1920,1918,1914,1911,1909,1907,1907,1907,1909,1910,1913,1914,1916,1916,1917,1918,1918,1916,1913,1910,1906,1901,1898,1894,1889,1885,1882,1879,1874,1872,1868,1866,1864,1864,1863,1863,1865,1869,1873,1878,1882,1885,1887,1887,1887,1887,1886,1883,1880,1875,1870,1865,1861,1858,1856,1852,1849,1848,1846,1844,1843,1843,1842,1843,1845,1846,1847,1850,1850,1853,1855,1859,1862,1867,1874,1885,1897,1913,1930,1949,1969,1990,2010,2034,2060,2085,2111,2138,2163,2188,2210,2231,2249,2265,2280,2297,2308,2316,2321,2324,2324,2322,2316,2308,2298,2286,2275,2264,2253,2243,2231,2220,2209,2196,2182,2170,2158,2146,2135,2124,2115,2107,2099,2092,2085,2081,2074,2069,2065,2060,2057,2056,2054,2055,2057,2058,2062,2066,2069,2075,2077,2082,2085,2086,2085,2084,2081,2076,2070,2063,2058,2054,2050,2047,2045,2044,2044,2042,2042,2043,2045,2046,2048,2050,2054,2056,2059,2064,2069,2072,2076,2080,2083,2085,2085,2083,2078,2072,2064,2054,2045,2034,2022,2011,2001,1989,1979,1969,1957,1948,1939,1931,1923,1917,1913,1909,1907,1907,1908,1907,1907,1907,1907,1908,1909,1909,1910,1911,1911,1914,1916,1918,1921,1923,1924,1925,1926,1925,1924,1921,1916,1912,1910,1908,1905,1904,1903,1903,1902,1902,1904,1907,1910,1913,1917,1922,1927,1931,1933,1936,1938,1938,1938,1936,1935,1933,1933,1933,1934,1934,1936,1936,1937,1938,1938,1940,1941,1943,1942,1944,1946,1947,1950,1950,1952,1953,1952,1951,1949,1948,1946,1944,1941,1938,1936,1933,1932,1932,1934,1938,1944,1954,1969,1986,2008,2034,2063,2093,2127,2161,2194,2226,2259,2289,2317,2342,2364,2384,2399,2413,2427,2434,2435,2434,2430,2424,2415,2405,2393,2379,2365,2349,2334,2319,2305,2290,2276,2261,2247,2235,2223,2213,2204,2194,2187,2180,2175,2172,2170,2167,2165,2162,2158,2156,2153,2148,2145,2142,2139,2137,2134,2133,2130,2130,2128,2128,2127,2126,2126,2127,2127,2128,2127,2128,2127,2127,2128,2128,2128,2127,2127,2128,2130,2133,2137,2141,2146,2150,2153,2155,2157,2158,2157,2154,2150,2145,2140,2134,2127,2121,2114,2107,2100,2095,2088,2081,2074,2068,2061,2056,2049,2043,2038,2034,2032,2030,2030,2030,2031,2032,2031,2033,2032,2031,2031,2031,2032,2031,2031,2030,2027,2026,2026,2026,2027,2028,2027,2028,2026,2027,2025,2024,2023,2023,2021,2020,2019,2018,2015,2012,2011,2006,2002,1999,2000,1999,2001,2003,2004,2006,2005,2005,2004,2001,1996,1991,1989,1984,1981,1978,1976,1975,1975,1976,1977,1979,1982,1984,1987,1988,1991,1993,1996,1998,2002,2006,2011,2014,2019,2022,2022,2022,2018,2015,2010,2004,1998,1989,1981,1974,1970,1967,1967,1970,1975,1983,1993,2005,2020,2037,2056,2079,2103,2129,2159,2189,2219,2249,2277,2304,2329,2353,2376,2395,2413,2432,2444,2450,2453,2455,2454,2451,2446,2438,2428,2416,2403,2391,2378,2363,2349,2335,2321,2308,2296,2284,2275,2265,2257,2252,2246,2242,2239,2235,2233,2229,2224,2221,2217,2210,2205,2201,2195,2190,2185,2180,2175,2169,2164,2158,2154,2150,2145,2142,2139,2138,2135,2135,2135,2135,2135,2137,2136,2136,2136,2137,2138,2139,2140,2142,2144,2146,2147,2146,2145,2144,2142,2139,2137,2137,2134,2133,2130,2127,2123,2117,2110,2103,2094,2087,2080,2073,2067,2060,2054,2046,2039,2031,2026,2021,2016,2013,2010,2007,2005,2002,2000,1998,1996,1994,1991,1987,1985,1982,1980,1980,1979,1978,1976,1977,1978,1978,1979,1979,1978,1976,1974,1973,1972,1971,1970,1970,1969,1969,1968,1967,1966,1965,1964,1963,1964,1965,1968,1971,1975,1979,1983,1988,1991,1995,1997,1999,2000,1999,2000,1997,1995,1993,1989,1985,1981,1977,1971,1965,1961,1957,1953,1949,1947,1947,1946,1947,1947,1946,1946,1946,1945,1946,1947,1948,1949,1948,1948,1948,1946,1944,1944,1942,1939,1938,1938,1940,1944,1948,1955,1963,1971,1981,1993,2007,2022,2041,2060,2081,2105,2129,2153,2178,2201,2227,2250,2273,2297,2319,2339,2357,2372,2388,2398,2402,2404,2404,2401,2397,2393,2386,2378,2368,2358,2346,2332,2320,2305,2290,2274,2260,2246,2232,2218,2206,2195,2184,2175,2166,2158,2151,2143,2139,2133,2131,2132,2130,2131,2131,2131,2130,2128,2125,2121,2116,2108,2101,2095,2089,2083,2077,2075,2073,2072,2073,2075,2078,2080,2084,2086,2091,2093,2096,2097,2099,2099,2098,2098,2096,2094,2090,2088,2086,2083,2083,2082,2082,2079,2076,2074,2069,2064,2056,2051,2045,2041,2035,2031,2026,2022,2017,2012,2010,2005,2004,1999,1997,1993,1990,1986,1983,1980,1976,1974,1971,1969,1965,1962,1959,1956,1952,1950,1947,1943,1940,1936,1932,1929,1924,1919,1917,1913,1910,1905,1903,1900,1899,1897,1896,1894,1891,1890,1887,1884,1880,1877,1876,1876,1878,1878,1880,1881,1882,1880,1878,1877,1875,1873,1869,1866,1862,1859,1856,1852,1847,1843,1839,1835,1833,1829,1826,1825,1826,1827,1828,1828,1831,1832,1833,1834,1835,1836,1836,1836,1835,1834,1833,1831,1831,1829,1829,1827,1827,1827,1826,1825,1823,1823,1822,1822,1820,1820,1821,1822,1825,1829,1837,1845,1856,1869,1885,1904,1923,1947,1971,1998,2024,2051,2079,2106,2132,2157,2179,2200,2219,2235,2250,2269,2281,2288,2293,2297,2298,2296,2293,2288,2279,2269,2257,2245,2232,2219,2206,2193,2180,2165,2152,2137,2124,2112,2100,2090,2079,2070,2063,2056,2049,2042,2036,2032,2028,2026,2023,2021,2020,2018,2017,2014,2012,2011,2011,2013,2013,2017,2019,2022,2026,2028,2028,2030,2030,2029,2030,2031,2033,2033,2034,2035,2034,2034,2033,2033,2033,2033,2031,2030,2028,2027,2025,2023,2022,2021,2019,2019,2018,2018,2017,2016,2014,2009,2005,2000,1994,1988,1982,1976,1971,1965,1958,1953,1946,1940,1934,1927,1923,1918,1913,1910,1907,1904,1899,1895,1892,1888,1885,1883,1884,1884,1886,1887,1891,1895,1899,1902,1906,1908,1910,1912,1914,1913,1914,1912,1909,1907,1903,1900,1898,1894,1894,1891,1892,1894,1896,1899,1902,1906,1909,1910,1910,1910,1908,1907,1906,1904,1902,1900,1898,1897,1895,1893,1892,1892,1893,1896,1896,1898,1900,1900,1900,1900,1900,1899,1897,1896,1894,1891,1891,1890,1889,1888,1889,1890,1892,1894,1897,1902,1905,1911,1916,1924,1932,1944,1956,1972,1990,2010,2033,2056,2079,2101,2124,2146,2170,2193,2216,2237,2261,2285,2306,2326,2354,2372,2382,2392,2399,2406,2409,2411,2412,2409,2405,2397,2387,2375,2361,2345,2328,2309,2289,2270,2252,2235,2218,2202,2187,2174,2161,2150,2142,2133,2127,2122,2118,2116,2113,2111,2109,2108,2107,2106,2105,2104,2102,2101,2099,2099,2098,2096,2096,2096,2095,2096,2098,2101,2104,2107,2112,2117,2123,2128,2134,2138,2142,2145,2148,2151,2153,2154,2156,2158,2159,2160,2160,2160,2160,2161,2161,2160,2159,2156,2151,2146,2141,2136,2129,2122,2113,2105,2098,2089,2079,2070,2063,2055,2050,2046,2041,2038,2035,2032,2026,2022,2016,2008,2002,1994,1986,1979,1972,1966,1963,1962,1963,1965,1967,1969,1971,1973,1975,1976,1977,1977,1980,1984,1987,1992,1997,2001,2005,2009,2013,2015,2016,2016,2016,2015,2014,2014,2013,2013,2012,2012,2013,2013,2011,2011,2009,2008,2006,2005,2006,2005,2006,2007,2008,2006,2005,2004,2002,1999,1997,1993,1990,1987,1984,1979,1976,1972,1968,1964,1960,1957,1957,1955,1952,1952,1948,1947,1944,1943,1942,1942,1943,1944,1946,1950,1955,1963,1974,1985,2000,2018,2037,2059,2083,2108,2134,2160,2187,2215,2242,2268,2294,2318,2339,2359,2377,2393,2411,2420,2423,2424,2421,2417,2411,2403,2396,2388,2379,2369,2358,2344,2331,2318,2304,2291,2280,2269,2258,2248,2240,2232,2224,2216,2211,2207,2201,2196,2190,2184,2177,2171,2165,2158,2151,2143,2136,2127,2118,2109,2101,2093,2085,2079,2074,2072,2072,2072,2075,2078,2081,2087,2093,2099,2106,2113,2120,2123,2129,2134,2137,2141,2144,2146,2147,2147,2145,2143,2138,2132,2124,2119,2111,2105,2100,2093,2088,2083,2077,2073,2068,2063,2060,2055,2050,2043,2037,2030,2024,2020,2017,2013,2010,2007,2002,1999,1995,1991,1988,1982,1977,1972,1966,1960,1955,1951,1946,1941,1936,1930,1925,1918,1914,1909,1906,1903,1899,1896,1893,1891,1889,1887,1885,1887,1887,1888,1891,1892,1894,1896,1897,1897,1896,1897,1896,1896,1897,1897,1897,1898,1899,1900,1901,1902,1904,1906,1908,1911,1912,1913,1914,1916,1914,1912,1908,1903,1900,1898,1896,1895,1895,1894,1895,1896,1897,1900,1903,1905,1907,1908,1907,1906,1905,1903,1900,1897,1895,1894,1894,1895,1896,1899,1901,1903,1904,1907,1910,1914,1919,1926,1933,1944,1957,1972,1988,2005,2025,2044,2065,2087,2111,2136,2159,2184,2207,2228,2247,2264,2278,2290,2299,2307,2310,2306,2302,2296,2287,2277,2265,2253,2240,2227,2215,2201,2189,2179,2166,2155,2143,2131,2118,2105,2092,2079,2067,2057,2046,2037,2030,2024,2016,2011,2006,2000,1996,1991,1988,1985,1983,1980,1977,1973,1971,1969,1970,1973,1974,1978,1980,1983,1986,1986,1987,1986,1986,1986,1986,1987,1989,1992,1996,1999,2002,2006,2009,2013,2016,2019,2022,2024,2024,2023,2022,2019,2015,2010,2006,2002,1996,1992,1988,1983,1977,1973,1967,1961,1957,1953,1949,1944,1941,1939,1936,1933,1932,1930,1928,1926,1925,1923,1922,1922,1920,1916,1911,1905,1899,1893,1888,1883,1875,1868,1862,1856,1852,1849,1844,1841,1840,1839,1838,1837,1838,1840,1842,1845,1849,1853,1857,1862,1867,1871,1876,1879,1882,1883,1884,1884,1882,1881,1878,1878,1876,1876,1876,1878,1880,1880,1880,1880,1877,1875,1873,1872,1872,1871,1871,1871,1871,1871,1872,1874,1876,1877,1878,1878,1877,1876,1874,1871,1868,1865,1862,1862,1861,1861,1864,1865,1866,1868,1871,1873,1877,1883,1891,1901,1911,1926,1942,1961,1980,2002,2024,2050,2076,2101,2127,2152,2175,2196,2216,2235,2253,2267,2279,2291,2297,2301,2304,2307,2309,2309,2310,2309,2307,2302,2295,2287,2277,2267,2257,2247,2236,2225,2214,2201,2188,2175,2165,2154,2147,2138,2133,2125,2119,2111,2104,2096,2091,2086,2081,2077,2074,2073,2073,2072,2073,2073,2071,2071,2071,2072,2072,2074,2074,2075,2075,2074,2074,2075,2076,2076,2079,2079,2080,2082,2083,2084,2086,2088,2090,2094,2098,2102,2106,2110,2110,2112,2112,2111,2109,2108,2103,2100,2095,2091,2084,2079,2075,2069,2064,2061,2057,2055,2052,2049,2048,2046,2043,2042,2039,2037,2036,2036,2036,2037,2035,2034,2033,2032,2030,2028,2025,2021,2017,2014,2012,2010,2009,2007,2007,2006,2007,2007,2007,2007,2008,2008,2008,2009,2011,2011,2011,2010,2009,2007,2007,2008,2010,2010,2010,2010,2008,2007,2005,2002,1999,1994,1990,1988,1985,1983,1982,1981,1982,1980,1980,1979,1978,1978,1978,1978,1980,1982,1983,1985,1986,1989,1990,1992,1993,1996,1998,1998,1999,1999,1999,1999,2000,1999,1999,1997,1995,1995,1995,1999,2005,2012,2026,2040,2057,2077,2099,2124,2148,2173,2199,2224,2250,2274,2299,2320,2342,2361,2378,2394,2408,2421,2430,2435,2438,2439,2437,2435,2430,2423,2415,2408,2400,2392,2383,2369,2358,2347,2335,2324,2312,2302,2290,2278,2268,2260,2252,2246,2241,2237,2233,2229,2225,2223,2221,2217,2214,2210,2205,2201,2195,2191,2186,2182,2179,2177,2174,2173,2172,2172,2172,2171,2171,2171,2170,2170,2169,2169,2167,2166,2165,2164,2164,2165,2166,2169,2170,2173,2175,2179,2180,2183,2184,2186,2188,2189,2190,2189,2185,2182,2177,2171,2164,2156,2148,2139,2129,2118,2109,2099,2090,2082,2075,2067,2061,2055,2051,2048,2044,2042,2041,2041,2040,2040,2041,2042,2042,2041,2039,2038,2034,2034,2033,2034,2034,2033,2033,2032,2031,2028,2025,2021,2017,2012,2006,2002,1997,1994,1992,1990,1990,1989,1989,1989,1989,1990,1991,1991,1992,1991,1989,1986,1984,1983,1982,1981,1980,1980,1978,1978,1977,1976,1976,1976,1976,1976,1976,1975,1976,1976,1977,1978,1981,1981,1982,1984,1985,1985,1985,1983,1981,1979,1978,1977,1976,1974,1973,1972,1968,1967,1963,1960,1957,1954,1952,1953,1955,1960,1968,1979,1994,2011,2031,2052,2075,2096,2120,2145,2169,2193,2217,2240,2262,2281,2299,2315,2329,2348,2361,2369,2376,2381,2383,2384,2383,2381,2376,2371,2364,2356,2347,2337,2328,2317,2305,2293,2282,2269,2259,2248,2238,2227,2216,2207,2198,2189,2182,2174,2167,2160,2154,2148,2142,2137,2132,2128,2124,2121,2117,2114,2114,2113,2111,2110,2108,2108,2106,2106,2107,2109,2112,2116,2117,2119,2119,2120,2119,2119,2119,2120,2121,2123,2124,2125,2124,2124,2123,2120,2118,2116,2114,2112,2112,2110,2106,2103,2099,2093,2087,2081,2075,2068,2060,2052,2041,2031,2021,2011,1999,1989,1979,1970,1962,1957,1951,1947,1943,1939,1936,1934,1934,1932,1933,1932,1930,1926,1923,1918,1913,1909,1904,1901,1899,1899,1900,1900,1902,1905,1907,1909,1911,1913,1913,1913,1912,1909,1905,1901,1898,1893,1891,1888,1885,1884,1883,1882,1883,1881,1879,1876,1874,1872,1869,1868,1866,1865,1865,1865,1866,1868,1870,1872,1873,1873,1874,1874,1872,1872,1872,1871,1869,1867,1867,1867,1867,1869,1871,1871,1873,1874,1876,1878,1879,1880,1880,1882,1886,1891,1897,1906,1915,1925,1939,1954,1972,1992,2013,2034,2056,2079,2100,2123,2146,2169,2192,2213,2234,2253,2271,2287,2309,2322,2330,2336,2339,2338,2335,2331,2325,2318,2312,2305,2298,2289,2282,2274,2265,2255,2245,2235,2224,2213,2203,2193,2184,2174,2167,2159,2150,2143,2135,2129,2122,2116,2111,2107,2102,2097,2094,2088,2084,2078,2075,2071,2069,2066,2066,2065,2064,2064,2063,2064,2063,2062,2062,2060,2061,2062,2065,2069,2071,2075,2079,2082,2084,2086,2089,2090,2091,2091,2090,2088,2084,2083,2080,2079,2079,2078,2076,2075,2072,2070,2067,2063,2059,2055,2050,2046,2041,2037,2033,2030,2027,2025,2024,2023,2023,2023,2022,2020,2016,2012,2008,2006,2001,1998,1996,1992,1989,1987,1987,1987,1987,1987,1986,1986,1984,1983,1980,1977,1974,1972,1971,1971,1969,1968,1968,1968,1968,1966,1965,1963,1962,1960,1960,1958,1955,1955,1955,1956,1956,1959,1961,1962,1965,1967,1968,1968,1967,1965,1962,1960,1958,1955,1953,1951,1949,1947,1946,1944,1943,1941,1941,1940,1939,1938,1940,1942,1946,1952,1959,1968,1977,1989,2002,2019,2039,2061,2084,2109,2134,2159,2185,2211,2235,2257,2280,2300,2321,2337,2355,2368,2385,2396,2404,2410,2415,2418,2419,2418,2416,2413,2410,2403,2396,2388,2380,2373,2363,2355,2346,2336,2322,2309,2295,2281,2267,2254,2242,2232,2222,2215,2208,2202,2199,2196,2195,2194,2193,2194,2194,2194,2192,2189,2187,2185,2182,2179,2177,2174,2172,2170,2168,2166,2166,2166,2167,2169,2172,2177,2182,2190,2198,2205,2211,2218,2222,2227,2230,2233,2233,2232,2229,2225,2222,2216,2210,2204,2199,2194,2189,2185,2182,2177,2173,2168,2163,2159,2153,2149,2144,2138,2134,2129,2126,2124,2122,2119,2116,2112,2107,2103,2097,2094,2091,2087,2086,2084,2084,2084,2086,2088,2089,2091,2093,2094,2094,2094,2092,2090,2087,2084,2079,2075,2072,2068,2063,2058,2055,2054,2054,2053,2052,2051,2048,2047,2046,2043,2043,2042,2041,2039,2036,2033,2030,2029,2029,2029,2028,2028,2027,2027,2028,2027,2027,2028,2028,2030,2030,2031,2032,2032,2033,2031,2032,2031,2029,2028,2027,2027,2028,2029,2030,2031,2033,2035,2039,2044,2052,2060,2073,2088,2104,2122,2141,2161,2182,2204,2227,2250,2274,2297,2319,2340,2359,2376,2390,2403,2419,2427,2431,2432,2430,2428,2421,2414,2405,2393,2380,2365,2351,2335,2319,2303,2287,2271,2254,2239,2224,2211,2200,2192,2185,2182,2182,2182,2185,2189,2192,2197,2201,2207,2214,2221,2225,2229,2230,2232,2231,2230,2228,2226,2223,2219,2216,2212,2206,2201,2195,2189,2183,2179,2174,2170,2168,2166,2165,2166,2164,2165,2167,2168,2169,2170,2170,2169,2168,2166,2164,2162,2160,2158,2155,2152,2149,2144,2139,2131,2125,2116,2107,2098,2088,2079,2071,2060,2052,2043,2035,2027,2019,2011,2003,1993,1984,1976,1968,1960,1954,1948,1943,1938,1932,1927,1923,1919,1913,1912,1908,1906,1905,1902,1900,1896,1893,1891,1889,1887,1885,1884,1883,1882,1880,1878,1876,1874,1872,1871,1871,1871,1870,1871,1871,1875,1879,1883,1887,1892,1896,1899,1901,1903,1903,1904,1903,1901,1900,1897,1896,1895,1896,1895,1896,1895,1895,1894,1893,1891,1889,1885,1882,1877,1872,1868,1865,1862,1862,1862,1866,1872,1880,1891,1904,1918,1933,1951,1970,1989,2009,2030,2052,2075,2098,2122,2146,2172,2198,2224,2249,2273,2308,2334,2351,2366,2377,2383,2386,2386,2382,2377,2368,2358,2348,2337,2327,2316,2305,2293,2282,2270,2257,2244,2233,2223,2213,2205,2197,2192,2186,2182,2178,2174,2172,2168,2165,2162,2159,2156,2152,2148,2145,2141,2137,2133,2130,2127,2123,2119,2112,2103,2095,2088,2079,2070,2063,2054,2047,2042,2039,2035,2033,2030,2028,2029,2030,2030,2034,2035,2037,2038,2038,2038,2037,2035,2032,2030,2026,2022,2017,2014,2010,2003,1996,1989,1981,1974,1969,1962,1957,1953,1949,1944,1939,1933,1929,1923,1918,1911,1905,1902,1897,1892,1888,1885,1881,1880,1878,1876,1875,1873,1872,1868,1867,1863,1860,1858,1856,1854,1851,1849,1847,1845,1844,1842,1839,1836,1834,1833,1832,1832,1834,1835,1838,1838,1840,1841,1845,1848,1852,1856,1860,1863,1867,1869,1868,1869,1868,1865,1863,1861,1857,1855,1853,1853,1851,1850,1850,1850,1848,1848,1848,1848,1849,1851,1853,1855,1858,1858,1858,1858,1860,1861,1865,1871,1880,1890,1902,1917,1933,1950,1968,1990,2012,2037,2063,2087,2112,2137,2159,2181,2202,2222,2241,2258,2275,2295,2309,2319,2325,2329,2330,2331,2329,2327,2321,2316,2309,2300,2291,2280,2270,2258,2245,2231,2219,2207,2194,2184,2174,2165,2156,2148,2140,2135,2130,2126,2122,2118,2113,2110,2105,2101,2098,2096,2096,2094,2094,2095,2094,2093,2092,2091,2089,2089,2087,2088,2087,2086,2087,2090,2094,2097,2103,2109,2115,2122,2129,2136,2140,2143,2144,2144,2143,2143,2141,2139,2137,2134,2131,2127,2122,2117,2112,2107,2104,2100,2097,2095,2093,2091,2088,2084,2078,2072,2065,2059,2052,2045,2038,2031,2022,2014,2004,1995,1985,1977,1969,1964,1960,1956,1954,1951,1949,1946,1944,1942,1942,1941,1942,1943,1944,1943,1944,1945,1947,1949,1951,1952,1953,1953,1954,1954,1955,1954,1956,1957,1958,1959,1959,1957,1958,1959,1960,1961,1962,1963,1962,1961,1959,1957,1955,1953,1951,1948,1945,1941,1936,1932,1928,1926,1923,1920,1917,1915,1913,1914,1915,1919,1925,1933,1945,1958,1975,1993,2014,2038,2062,2087,2114,2140,2165,2191,2216,2240,2263,2286,2307,2328,2346,2369,2386,2397,2405,2411,2416,2417,2415,2410,2402,2393,2382,2368,2355,2341,2326,2313,2301,2289,2277,2265,2253,2241,2231,2222,2214,2205,2198,2191,2187,2184,2182,2182,2183,2183,2184,2183,2182,2182,2179,2177,2173,2171,2168,2165,2162,2158,2154,2150,2144,2138,2131,2125,2120,2116,2113,2110,2110,2107,2107,2108,2109,2113,2117,2122,2129,2136,2144,2149,2154,2157,2159,2160,2160,2159,2157,2154,2149,2142,2136,2128,2121,2114,2108,2102,2098,2095,2092,2088,2088,2087,2086,2086,2083,2082,2079,2077,2075,2073,2069,2066,2063,2057,2053,2047,2042,2038,2036,2033,2031,2029,2025,2022,2019,2014,2009,2005,1998,1992,1988,1984,1980,1977,1976,1973,1971,1971,1970,1971,1971,1972,1974,1977,1979,1982,1983,1984,1985,1987,1987,1988,1986,1984,1981,1976,1971,1966,1960,1955,1951,1946,1942,1938,1936,1935,1936,1935,1938,1941,1944,1948,1950,1954,1958,1960,1964,1966,1968,1969,1968,1969,1970,1973,1978,1985,1994,2006,2022,2039,2058,2080,2103,2128,2155,2183,2212,2241,2267,2294,2319,2343,2366,2387,2406,2420,2438,2448,2452,2453,2451,2447,2439,2432,2424,2416,2407,2396,2385,2372,2360,2346,2334,2322,2310,2299,2288,2278,2268,2260,2253,2249,2244,2242,2240,