2485,2492,2495,2496,2496,2493,2489,2482,2474,2463,2452,2439,2426,2412,2399,2385,2369,2355,2342,2328,2316,2306,2295,2287,2280,2273,2268,2263,2259,2257,2254,2254,2253,2253,2253,2254,2256,2257,2257,2257,2256,2255,2253,2249,2245,2240,2234,2228,2222,2214,2208,2202,2195,2190,2185,2180,2177,2174,2170,2169,2167,2165,2164,2162,2159,2157,2156,2154,2152,2150,2150,2148,2147,2147,2144,2143,2139,2135,2132,2126,2121,2115,2110,2104,2099,2092,2086,2080,2075,2070,2064,2060,2055,2049,2043,2038,2031,2024,2017,2010,2002,1995,1989,1983,1977,1972,1967,1961,1957,1953,1948,1944,1940,1936,1933,1928,1925,1922,1918,1915,1912,1910,1909,1908,1908,1908,1908,1908,1908,1908,1908,1909,1909,1912,1913,1914,1915,1916,1917,1917,1917,1915,1915,1913,1911,1909,1907,1904,1902,1900,1898,1895,1894,1893,1891,1891,1891,1892,1893,1893,1893,1894,1895,1895,1895,1896,1896,1896,1896,1895,1893,1893,1891,1889,1886,1884,1882,1880,1878,1876,1873,1871,1869,1867,1864,1863,1861,1860,1859,1858,1857,1857,1856,1855,1854,1854,1854,1854,1856,1857,1859,1859,1860,1860,1859,1859,1858,1857,1857,1856,1855,1854,1851,1849,1847,1844,1843,1841,1841,1840,1838,1838,1836,1837,1836,1836,1837,1840,1842,1846,1852,1859,1869,1880,1892,1908,1927,1948,1972,1999,2028,2060,2093,2127,2162,2197,2232,2266,2300,2331,2360,2388,2413,2436,2465,2482,2495,2504,2510,2515,2515,2514,2511,2506,2497,2487,2477,2464,2451,2437,2424,2410,2396,2381,2368,2354,2342,2329,2318,2307,2297,2288,2281,2274,2268,2263,2258,2254,2251,2249,2247,2246,2246,2246,2245,2245,2246,2245,2245,2244,2242,2240,2239,2235,2232,2227,2223,2217,2211,2206,2200,2195,2191,2186,2182,2178,2174,2169,2165,2161,2158,2156,2153,2151,2150,2149,2148,2148,2147,2146,2144,2143,2140,2137,2134,2130,2127,2123,2119,2114,2110,2105,2100,2095,2090,2083,2077,2070,2063,2057,2050,2043,2036,2029,2024,2017,2012,2007,2002,1996,1990,1986,1980,1976,1970,1966,1962,1958,1953,1950,1947,1943,1941,1939,1935,1933,1931,1930,1928,1927,1926,1926,1925,1924,1923,1922,1921,1921,1920,1920,1919,1919,1917,1917,1916,1916,1915,1914,1913,1912,1910,1909,1908,1906,1905,1903,1902,1900,1897,1896,1895,1894,1893,1892,1891,1891,1890,1889,1888,1887,1887,1886,1885,1886,1885,1884,1883,1882,1880,1878,1875,1872,1869,1867,1865,1862,1860,1857,1856,1854,1852,1851,1849,1848,1846,1845,1844,1843,1841,1840,1840,1841,1840,1840,1839,1839,1840,1840,1840,1841,1842,1842,1842,1841,1842,1841,1841,1840,1840,1839,1838,1837,1836,1835,1834,1834,1834,1833,1833,1833,1833,1834,1832,1832,1831,1830,1830,1827,1827,1825,1824,1824,1824,1824,1825,1825,1825,1826,1827,1828,1832,1837,1843,1853,1866,1881,1902,1924,1950,1979,2011,2043,2079,2116,2152,2190,2228,2266,2301,2337,2368,2399,2427,2452,2489,2509,2522,2532,2539,2544,2545,2544,2540,2535,2527,2517,2507,2495,2479,2465,2450,2434,2419,2404,2389,2375,2360,2346,2332,2318,2307,2295,2284,2273,2264,2255,2249,2243,2239,2236,2234,2231,2231,2231,2231,2232,2231,2232,2232,2231,2230,2229,2227,2224,2222,2219,2216,2214,2212,2207,2203,2201,2197,2192,2188,2185,2182,2178,2175,2172,2170,2167,2165,2162,2159,2156,2154,2152,2150,2148,2145,2143,2142,2139,2136,2132,2129,2125,2121,2117,2114,2109,2105,2100,2096,2092,2089,2084,2080,2074,2069,2062,2055,2049,2042,2034,2028,2020,2013,2005,1998,1990,1985,1978,1972,1968,1962,1959,1956,1952,1950,1948,1945,1942,1940,1937,1934,1930,1929,1927,1926,1923,1921,1920,1919,1917,1915,1912,1911,1909,1908,1907,1906,1906,1907,1908,1909,1910,1910,1913,1913,1915,1916,1918,1919,1919,1919,1919,1918,1919,1917,1916,1917,1917,1916,1915,1914,1913,1911,1908,1906,1903,1900,1897,1894,1890,1887,1884,1881,1878,1877,1874,1873,1873,1871,1871,1870,1869,1868,1868,1867,1866,1866,1866,1866,1865,1864,1863,1861,1860,1858,1858,1856,1855,1854,1853,1854,1854,1854,1854,1855,1856,1855,1854,1854,1853,1852,1851,1849,1848,1846,1843,1842,1841,1839,1838,1837,1835,1834,1832,1832,1832,1831,1833,1833,1836,1840,1845,1851,1860,1871,1885,1901,1920,1941,1967,1994,2023,2055,2088,2122,2158,2193,2228,2263,2297,2329,2361,2391,2416,2441,2471,2490,2503,2513,2520,2523,2524,2524,2520,2514,2507,2498,2487,2474,2461,2446,2430,2413,2396,2378,2360,2343,2326,2310,2295,2280,2267,2253,2241,2230,2220,2210,2203,2194,2186,2179,2173,2168,2162,2158,2153,2149,2146,2143,2140,2136,2134,2132,2129,2127,2125,2123,2121,2119,2117,2115,2115,2114,2115,2116,2117,2118,2121,2124,2127,2130,2133,2136,2139,2141,2143,2144,2144,2145,2146,2146,2146,2145,2144,2142,2140,2137,2134,2131,2125,2120,2114,2108,2102,2095,2089,2083,2075,2070,2063,2056,2050,2044,2039,2033,2027,2021,2015,2008,2001,1993,1986,1979,1972,1965,1957,1950,1944,1937,1930,1924,1918,1912,1905,1900,1895,1891,1889,1887,1885,1884,1883,1885,1885,1887,1889,1890,1893,1895,1898,1900,1901,1903,1904,1904,1905,1905,1905,1905,1905,1904,1903,1902,1900,1898,1896,1894,1893,1891,1890,1889,1890,1890,1891,1891,1892,1893,1894,1897,1898,1899,1900,1900,1900,1900,1900,1898,1897,1895,1893,1891,1888,1885,1882,1879,1877,1873,1870,1868,1864,1862,1860,1859,1857,1856,1856,1855,1855,1853,1854,1854,1852,1851,1852,1851,1850,1849,1847,1847,1847,1846,1845,1845,1845,1846,1845,1845,1844,1843,1842,1840,1839,1838,1836,1835,1832,1829,1827,1824,1823,1820,1819,1819,1818,1819,1824,1830,1840,1852,1869,1889,1914,1942,1972,2006,2042,2079,2118,2158,2198,2238,2278,2317,2354,2389,2422,2452,2480,2517,2542,2559,2572,2584,2591,2595,2597,2595,2591,2585,2577,2565,2554,2541,2526,2511,2496,2481,2466,2450,2436,2421,2407,2391,2376,2361,2348,2334,2322,2311,2300,2291,2283,2275,2269,2265,2261,2258,2255,2253,2251,2250,2248,2246,2244,2243,2241,2239,2237,2235,2231,2228,2225,2222,2219,2216,2212,2209,2207,2203,2200,2197,2194,2192,2190,2188,2186,2185,2182,2180,2179,2176,2175,2173,2171,2169,2169,2166,2164,2162,2160,2158,2155,2153,2149,2144,2140,2135,2130,2124,2118,2113,2107,2101,2095,2088,2082,2076,2069,2062,2055,2049,2042,2037,2030,2026,2020,2015,2009,2003,1996,1991,1984,1977,1970,1964,1958,1952,1948,1942,1937,1932,1928,1924,1920,1916,1913,1911,1908,1907,1906,1905,1903,1902,1902,1901,1901,1901,1900,1901,1901,1899,1899,1898,1898,1897,1897,1897,1898,1898,1899,1900,1901,1902,1903,1904,1903,1901,1900,1897,1895,1892,1890,1888,1885,1882,1881,1879,1878,1877,1876,1875,1875,1875,1874,1874,1873,1873,1872,1870,1869,1868,1866,1865,1862,1861,1857,1854,1852,1849,1847,1845,1842,1840,1838,1837,1836,1836,1837,1837,1837,1838,1838,1838,1838,1839,1839,1839,1840,1840,1841,1840,1840,1840,1838,1838,1836,1835,1835,1834,1833,1832,1830,1827,1825,1823,1821,1819,1817,1815,1814,1812,1812,1811,1811,1811,1812,1813,1816,1821,1826,1834,1845,1858,1875,1896,1919,1946,1976,2008,2043,2080,2119,2159,2198,2239,2279,2318,2357,2393,2428,2461,2491,2519,2556,2582,2599,2611,2621,2627,2630,2629,2626,2621,2613,2603,2591,2578,2564,2549,2533,2516,2500,2483,2466,2451,2434,2417,2401,2385,2370,2355,2342,2329,2318,2309,2301,2294,2290,2286,2284,2283,2284,2283,2283,2284,2285,2286,2286,2286,2285,2283,2281,2279,2276,2273,2269,2265,2260,2254,2249,2243,2237,2231,2226,2221,2217,2212,2207,2204,2201,2198,2196,2193,2191,2189,2186,2184,2181,2179,2178,2174,2172,2169,2167,2165,2163,2159,2157,2152,2148,2142,2136,2129,2122,2114,2107,2099,2093,2086,2079,2074,2067,2062,2056,2051,2044,2039,2033,2026,2020,2013,2007,2002,1996,1990,1984,1979,1973,1968,1962,1956,1950,1946,1942,1937,1933,1930,1928,1926,1924,1922,1921,1920,1918,1916,1915,1913,1911,1909,1907,1906,1904,1903,1902,1902,1902,1902,1902,1902,1902,1902,1901,1901,1901,1901,1901,1901,1900,1900,1899,1899,1899,1898,1898,1898,1898,1898,1898,1897,1898,1898,1896,1895,1894,1892,1891,1891,1889,1889,1887,1886,1885,1884,1884,1882,1881,1881,1880,1879,1878,1876,1875,1873,1871,1869,1866,1864,1862,1860,1858,1857,1856,1855,1856,1856,1856,1856,1856,1855,1854,1853,1851,1850,1850,1848,1847,1847,1848,1847,1847,1847,1845,1845,1844,1843,1843,1841,1841,1842,1841,1841,1842,1841,1841,1840,1839,1838,1837,1836,1835,1834,1835,1834,1834,1834,1835,1836,1840,1844,1851,1860,1872,1887,1904,1926,1951,1978,2008,2041,2079,2116,2156,2197,2238,2278,2318,2356,2393,2429,2462,2493,2522,2563,2586,2600,2612,2618,2622,2622,2621,2617,2611,2602,2592,2580,2567,2553,2538,2523,2508,2491,2475,2460,2443,2427,2411,2396,2382,2368,2354,2342,2330,2319,2309,2300,2293,2287,2282,2278,2275,2272,2270,2268,2267,2266,2265,2264,2260,2258,2254,2250,2246,2241,2235,2231,2226,2222,2218,2215,2213,2212,2210,2209,2208,2207,2207,2206,2205,2204,2203,2201,2201,2200,2199,2198,2197,2195,2194,2192,2189,2187,2183,2178,2174,2168,2163,2158,2153,2147,2142,2139,2134,2129,2125,2120,2115,2109,2103,2096,2090,2082,2076,2068,2062,2054,2046,2039,2031,2024,2018,2011,2005,1998,1991,1984,1978,1971,1965,1960,1954,1951,1947,1944,1941,1939,1937,1936,1934,1933,1932,1931,1931,1930,1929,1927,1927,1926,1925,1925,1924,1925,1925,1925,1925,1926,1926,1926,1926,1926,1925,1925,1924,1924,1922,1922,1921,1921,1919,1920,1919,1919,1919,1919,1919,1919,1919,1918,1918,1915,1914,1912,1910,1907,1903,1900,1898,1894,1892,1889,1887,1885,1882,1880,1877,1875,1872,1869,1867,1866,1864,1863,1861,1860,1858,1856,1854,1853,1852,1851,1851,1851,1850,1850,1850,1850,1851,1851,1852,1852,1852,1852,1853,1853,1854,1856,1856,1857,1858,1859,1860,1860,1861,1862,1863,1863,1864,1863,1864,1864,1863,1862,1861,1861,1861,1860,1858,1859,1858,1859,1862,1864,1870,1877,1888,1902,1920,1942,1967,1994,2026,2060,2096,2134,2174,2215,2253,2293,2331,2369,2404,2436,2468,2496,2521,2554,2576,2589,2599,2606,2610,2610,2609,2605,2599,2591,2582,2572,2561,2548,2535,2521,2507,2493,2478,2463,2448,2434,2420,2406,2393,2382,2369,2359,2348,2339,2330,2321,2314,2308,2303,2298,2295,2292,2290,2287,2285,2282,2280,2277,2275,2273,2269,2267,2265,2262,2259,2255,2252,2250,2246,2244,2240,2237,2234,2231,2228,2225,2223,2220,2217,2214,2211,2208,2204,2202,2198,2195,2192,2188,2185,2182,2177,2174,2170,2166,2161,2157,2153,2148,2143,2139,2135,2129,2126,2121,2116,2111,2106,2101,2096,2092,2086,2080,2075,2068,2061,2054,2047,2041,2034,2027,2019,2011,2004,1996,1989,1981,1974,1968,1961,1956,1951,1947,1943,1940,1937,1935,1933,1933,1932,1931,1929,1928,1927,1925,1923,1922,1920,1919,1919,1918,1918,1917,1917,1916,1916,1915,1914,1913,1915,1914,1914,1916,1917,1917,1919,1919,1918,1918,1917,1916,1914,1914,1912,1912,1911,1910,1910,1910,1909,1910,1910,1908,1909,1908,1908,1907,1907,1906,1905,1904,1903,1902,1900,1897,1896,1894,1891,1889,1887,1885,1884,1882,1880,1879,1876,1875,1873,1871,1870,1868,1866,1865,1864,1863,1863,1862,1863,1864,1864,1864,1864,1863,1862,1860,1859,1858,1856,1854,1855,1854,1854,1854,1854,1854,1855,1856,1857,1858,1859,1861,1861,1863,1863,1863,1862,1861,1861,1859,1857,1857,1857,1858,1861,1867,1874,1885,1899,1915,1936,1959,1987,2015,2048,2082,2119,2156,2194,2233,2270,2307,2341,2375,2406,2436,2463,2488,2519,2540,2553,2564,2572,2577,2579,2579,2576,2570,2563,2553,2542,2529,2516,2501,2486,2470,2455,2439,2423,2406,2391,2375,2361,2347,2334,2322,2311,2301,2292,2284,2277,2271,2265,2261,2257,2254,2251,2249,2247,2245,2243,2241,2240,2238,2237,2235,2234,2232,2230,2228,2225,2223,2219,2216,2215,2212,2210,2208,2206,2205,2204,2203,2203,2203,2204,2205,2206,2206,2206,2205,2205,2205,2204,2203,2201,2200,2198,2196,2194,2192,2190,2186,2182,2178,2174,2169,2163,2158,2153,2147,2141,2135,2129,2123,2116,2109,2103,2095,2087,2078,2071,2062,2053,2045,2037,2030,2022,2015,2010,2004,1999,1994,1989,1984,1980,1977,1974,1971,1968,1966,1965,1964,1962,1961,1961,1962,1961,1962,1963,1963,1964,1964,1964,1964,1964,1963,1961,1960,1959,1958,1958,1957,1958,1957,1958,1958,1958,1956,1957,1956,1955,1953,1952,1951,1950,1951,1950,1951,1950,1950,1949,1948,1948,1947,1946,1944,1943,1942,1940,1938,1936,1934,1931,1928,1927,1924,1921,1919,1917,1917,1915,1915,1914,1913,1912,1910,1910,1908,1908,1908,1908,1908,1907,1907,1906,1905,1903,1902,1899,1896,1893,1890,1886,1883,1881,1879,1877,1877,1877,1880,1884,1889,1897,1909,1921,1937,1956,1976,1999,2024,2052,2081,2113,2144,2178,2211,2245,2277,2309,2340,2369,2397,2421,2442,2470,2487,2499,2508,2513,2517,2518,2518,2513,2509,2502,2494,2485,2474,2463,2451,2438,2423,2409,2394,2379,2363,2349,2334,2320,2307,2294,2282,2273,2262,2254,2245,2238,2232,2226,2221,2216,2213,2209,2206,2202,2199,2196,2194,2190,2187,2184,2180,2176,2173,2169,2167,2164,2160,2158,2156,2154,2153,2152,2150,2149,2148,2147,2148,2148,2149,2150,2152,2154,2155,2156,2157,2157,2157,2157,2157,2158,2158,2158,2158,2156,2155,2154,2151,2149,2146,2141,2137,2132,2127,2120,2113,2107,2099,2090,2081,2073,2063,2055,2048,2041,2032,2025,2018,2011,2004,1998,1993,1986,1982,1977,1972,1969,1964,1960,1956,1953,1950,1947,1947,1945,1944,1943,1941,1941,1941,1941,1942,1941,1942,1942,1943,1942,1943,1943,1944,1944,1945,1944,1944,1944,1943,1943,1943,1942,1942,1943,1942,1942,1943,1942,1942,1942,1941,1939,1938,1937,1934,1932,1930,1927,1925,1924,1923,1920,1919,1917,1917,1916,1915,1915,1914,1913,1913,1913,1912,1912,1912,1911,1909,1909,1907,1905,1904,1902,1900,1897,1893,1891,1887,1885,1882,1881,1880,1880,1879,1879,1880,1879,1879,1878,1878,1878,1878,1877,1877,1877,1877,1878,1878,1878,1878,1878,1879,1882,1885,1890,1896,1905,1917,1932,1950,1971,1994,2022,2052,2084,2117,2153,2188,2225,2261,2296,2331,2363,2394,2423,2450,2475,2497,2525,2544,2554,2562,2566,2569,2568,2565,2560,2553,2543,2532,2520,2507,2494,2480,2466,2452,2439,2425,2413,2400,2388,2377,2367,2357,2348,2341,2334,2330,2325,2322,2319,2317,2317,2318,2319,2320,2322,2324,2325,2326,2325,2325,2323,2320,2317,2313,2310,2306,2302,2297,2292,2288,2282,2277,2272,2265,2260,2254,2249,2244,2238,2232,2227,2222,2217,2213,2207,2205,2201,2198,2195,2192,2189,2186,2182,2180,2178,2175,2173,2171,2168,2166,2163,2159,2156,2152,2148,2143,2138,2132,2127,2121,2116,2110,2105,2099,2092,2086,2079,2072,2064,2056,2048,2041,2033,2026,2019,2013,2007,2001,1998,1993,1989,1987,1984,1981,1979,1976,1975,1973,1972,1970,1969,1969,1967,1966,1965,1965,1964,1964,1963,1962,1960,1959,1958,1955,1954,1952,1951,1950,1949,1949,1950,1949,1950,1950,1950,1951,1952,1953,1954,1954,1955,1957,1957,1957,1956,1954,1953,1951,1948,1945,1943,1939,1936,1933,1929,1926,1923,1919,1915,1912,1908,1905,1903,1900,1899,1898,1896,1895,1894,1893,1893,1892,1891,1891,1890,1888,1887,1887,1886,1885,1884,1882,1880,1877,1876,1874,1873,1873,1873,1872,1872,1873,1873,1874,1875,1877,1878,1878,1879,1878,1878,1878,1878,1877,1876,1875,1874,1872,1871,1869,1869,1867,1866,1867,1866,1868,1871,1876,1884,1894,1908,1924,1945,1969,1996,2026,2059,2094,2131,2168,2206,2244,2281,2317,2351,2384,2414,2442,2467,2490,2517,2534,2544,2552,2557,2559,2558,2555,2549,2542,2534,2524,2514,2503,2491,2480,2468,2457,2446,2435,2424,2414,2404,2395,2387,2380,2374,2370,2365,2362,2359,2358,2356,2356,2356,2356,2357,2357,2357,2357,2356,2356,2356,2357,2356,2355,2354,2351,2348,2344,2339,2333,2326,2319,2311,2303,2295,2286,2278,2269,2260,2252,2243,2234,2226,2218,2210,2203,2196,2189,2183,2178,2173,2168,2164,2161,2158,2155,2153,2150,2148,2145,2143,2139,2137,2134,2130,2126,2121,2116,2111,2107,2101,2095,2090,2086,2079,2074,2068,2063,2056,2052,2047,2041,2035,2029,2023,2017,2013,2008,2004,2000,1996,1992,1988,1985,1982,1980,1977,1975,1973,1969,1967,1965,1963,1960,1958,1956,1954,1952,1951,1950,1948,1947,1946,1945,1944,1943,1942,1941,1941,1940,1940,1940,1940,1939,1939,1940,1940,1940,1939,1938,1937,1936,1934,1933,1931,1930,1928,1925,1924,1921,1918,1915,1912,1910,1907,1905,1903,1902,1900,1898,1897,1897,1896,1896,1896,1895,1894,1893,1892,1889,1888,1887,1886,1885,1883,1881,1878,1876,1873,1870,1866,1864,1860,1856,1854,1851,1849,1848,1847,1848,1847,1847,1847,1847,1848,1849,1851,1852,1854,1855,1857,1858,1859,1860,1861,1860,1861,1861,1860,1860,1860,1859,1859,1859,1858,1858,1858,1856,1857,1856,1854,1855,1853,1852,1852,1851,1852,1850,1850,1850,1851,1853,1855,1860,1865,1874,1886,1900,1917,1937,1959,1985,2011,2041,2073,2106,2140,2175,2209,2243,2278,2311,2343,2373,2401,2427,2451,2480,2499,2511,2520,2526,2530,2529,2528,2524,2519,2512,2504,2495,2485,2472,2459,2446,2433,2419,2405,2392,2379,2368,2359,2349,2342,2336,2330,2327,2324,2322,2322,2323,2325,2327,2330,2333,2336,2340,2343,2346,2348,2348,2349,2346,2344,2340,2334,2328,2319,2310,2300,2291,2283,2273,2264,2256,2249,2242,2236,2229,2224,2218,2212,2206,2200,2195,2189,2183,2179,2175,2170,2166,2163,2160,2157,2154,2152,2149,2147,2144,2141,2137,2134,2130,2125,2120,2115,2109,2103,2096,2091,2085,2079,2073,2068,2064,2058,2053,2047,2041,2035,2030,2023,2017,2011,2006,1999,1993,1988,1983,1979,1974,1971,1968,1965,1962,1959,1957,1954,1952,1949,1947,1946,1945,1942,1940,1939,1936,1934,1932,1931,1929,1927,1925,1923,1922,1921,1919,1917,1917,1915,1915,1915,1915,1917,1917,1917,1918,1918,1918,1918,1918,1918,1916,1915,1913,1912,1910,1908,1907,1905,1904,1903,1901,1899,1898,1896,1893,1892,1889,1886,1882,1880,1876,1874,1871,1870,1868,1867,1865,1864,1862,1862,1861,1861,1861,1860,1860,1859,1858,1858,1856,1855,1854,1853,1852,1850,1848,1847,1845,1843,1842,1840,1838,1837,1836,1835,1834,1835,1836,1835,1836,1836,1837,1838,1839,1840,1841,1842,1843,1844,1843,1844,1844,1844,1844,1843,1843,1843,1842,1842,1842,1842,1841,1840,1840,1840,1839,1837,1835,1833,1832,1831,1830,1832,1835,1840,1848,1857,1870,1885,1903,1923,1947,1974,2003,2033,2066,2099,2133,2166,2201,2234,2268,2299,2328,2356,2381,2404,2433,2454,2465,2474,2481,2484,2485,2483,2479,2473,2467,2458,2449,2438,2427,2415,2403,2390,2378,2365,2353,2341,2329,2316,2306,2296,2287,2279,2272,2267,2263,2260,2257,2257,2258,2259,2260,2261,2263,2264,2264,2266,2266,2266,2266,2264,2263,2259,2255,2251,2244,2239,2231,2225,2218,2210,2204,2198,2191,2186,2180,2175,2169,2164,2158,2154,2149,2144,2139,2136,2131,2127,2124,2122,2120,2118,2116,2114,2112,2110,2108,2105,2102,2100,2096,2092,2088,2084,2081,2076,2073,2070,2066,2061,2056,2052,2047,2041,2037,2031,2025,2020,2014,2010,2004,1999,1994,1988,1983,1978,1972,1967,1963,1959,1955,1953,1950,1948,1946,1943,1941,1939,1935,1933,1930,1927,1924,1922,1921,1919,1920,1919,1918,1918,1919,1918,1918,1918,1917,1918,1917,1916,1915,1913,1912,1911,1909,1908,1907,1906,1905,1904,1904,1903,1903,1904,1903,1902,1903,1902,1899,1899,1897,1895,1894,1892,1891,1889,1887,1885,1883,1882,1881,1879,1878,1877,1877,1878,1877,1876,1875,1874,1874,1872,1871,1870,1868,1866,1865,1863,1861,1860,1858,1858,1856,1855,1854,1852,1850,1847,1845,1843,1841,1839,1838,1837,1838,1837,1838,1839,1840,1841,1842,1842,1843,1843,1843,1843,1843,1843,1843,1844,1843,1843,1843,1843,1842,1843,1841,1840,1839,1837,1835,1833,1831,1830,1830,1832,1834,1838,1844,1851,1862,1876,1893,1911,1934,1960,1987,2017,2047,2080,2113,2147,2180,2212,2244,2275,2303,2328,2352,2372,2397,2414,2425,2434,2440,2444,2446,2446,2444,2440,2435,2429,2421,2412,2402,2390,2377,2363,2349,2334,2321,2306,2292,2279,2267,2255,2244,2234,2225,2216,2208,2201,2195,2189,2185,2182,2180,2178,2177,2176,2175,2174,2173,2172,2171,2169,2167,2166,2163,2161,2158,2155,2153,2150,2149,2147,2146,2146,2146,2145,2146,2147,2148,2150,2150,2151,2153,2154,2156,2157,2159,2158,2158,2158,2156,2155,2152,2151,2147,2144,2140,2135,2131,2127,2122,2116,2110,2104,2098,2092,2084,2077,2072,2064,2057,2051,2044,2037,2031,2024,2017,2010,2004,1998,1991,1985,1979,1974,1968,1962,1957,1952,1948,1944,1940,1936,1933,1929,1925,1922,1920,1917,1915,1911,1909,1908,1906,1905,1904,1903,1901,1901,1901,1901,1900,1900,1900,1901,1901,1903,1904,1904,1906,1906,1906,1905,1905,1905,1903,1902,1901,1899,1899,1898,1897,1896,1896,1895,1895,1894,1894,1894,1892,1892,1890,1889,1887,1885,1884,1882,1880,1879,1877,1875,1874,1872,1869,1866,1863,1860,1857,1856,1854,1852,1851,1850,1849,1848,1848,1848,1848,1848,1847,1847,1846,1845,1844,1844,1842,1840,1839,1838,1837,1835,1833,1832,1830,1828,1826,1825,1824,1823,1822,1822,1822,1821,1822,1822,1822,1823,1823,1823,1824,1825,1825,1826,1826,1826,1826,1825,1825,1825,1826,1827,1831,1834,1839,1847,1857,1870,1887,1906,1928,1953,1981,2012,2045,2081,2116,2153,2190,2226,2262,2296,2330,2362,2390,2417,2442,2473,2494,2508,2519,2527,2533,2535,2536,2534,2529,2523,2515,2505,2494,2481,2469,2455,2440,2427,2411,2396,2381,2365,2351,2338,2325,2313,2304,2296,2287,2282,2276,2273,2269,2267,2265,2265,2264,2265,2265,2266,2267,2269,2270,2270,2271,2269,2268,2264,2262,2259,2255,2249,2246,2239,2234,2228,2222,2215,2208,2202,2195,2189,2183,2177,2172,2167,2163,2159,2155,2151,2148,2144,2140,2137,2134,2131,2128,2124,2121,2116,2113,2109,2104,2101,2097,2093,2088,2084,2079,2075,2071,2067,2064,2058,2053,2047,2041,2035,2029,2023,2016,2009,2003,1997,1990,1984,1979,1973,1968,1963,1957,1952,1947,1942,1937,1932,1928,1923,1919,1916,1914,1911,1910,1907,1904,1902,1899,1896,1894,1892,1891,1889,1889,1887,1886,1886,1885,1884,1884,1883,1883,1882,1882,1882,1882,1881,1882,1881,1881,1880,1880,1879,1880,1879,1878,1878,1876,1874,1873,1872,1871,1871,1870,1870,1869,1868,1867,1867,1866,1866,1865,1864,1864,1863,1862,1862,1861,1859,1858,1857,1855,1853,1850,1848,1846,1843,1841,1839,1837,1837,1835,1835,1834,1833,1833,1832,1831,1831,1830,1829,1827,1826,1825,1824,1822,1822,1821,1820,1820,1820,1819,1819,1819,1818,1818,1816,1815,1813,1812,1811,1810,1810,1809,1808,1807,1807,1805,1805,1804,1805,1804,1804,1805,1807,1811,1815,1822,1830,1841,1855,1873,1894,1918,1944,1974,2006,2040,2076,2114,2151,2189,2228,2264,2300,2334,2366,2396,2423,2448,2480,2500,2512,2522,2528,2533,2534,2533,2530,2526,2518,2509,2498,2486,2474,2460,2444,2429,2413,2398,2381,2366,2351,2336,2321,2307,2293,2280,2267,2255,2244,2234,2225,2216,2208,2201,2195,2189,2184,2179,2176,2172,2169,2165,2163,2159,2156,2154,2152,2151,2148,2147,2145,2145,2144,2142,2143,2141,2141,2141,2141,2141,2142,2143,2144,2146,2149,2151,2152,2153,2153,2154,2152,2151,2150,2149,2146,2144,2141,2138,2135,2132,2129,2124,2121,2116,2111,2107,2101,2096,2091,2086,2081,2075,2069,2064,2057,2051,2044,2035,2027,2018,2009,2001,1993,1984,1976,1968,1960,1953,1947,1940,1933,1929,1923,1919,1915,1910,1907,1904,1900,1898,1896,1894,1894,1893,1892,1891,1890,1890,1890,1888,1888,1887,1887,1888,1888,1888,1889,1888,1888,1888,1887,1887,1887,1885,1884,1883,1882,1882,1881,1880,1880,1879,1878,1877,1877,1876,1875,1874,1874,1873,1872,1869,1868,1866,1865,1864,1863,1862,1860,1859,1858,1856,1855,1853,1851,1850,1848,1847,1845,1845,1843,1842,1840,1839,1837,1834,1833,1831,1830,1828,1827,1826,1824,1823,1822,1821,1820,1818,1817,1816,1815,1813,1812,1810,1808,1808,1807,1807,1807,1808,1809,1811,1814,1820,1826,1835,1847,1862,1880,1902,1927,1956,1986,2020,2056,2094,2132,2170,2208,2245,2280,2314,2345,2375,2401,2426,2447,2474,2491,2501,2510,2515,2517,2517,2514,2509,2502,2493,2483,2471,2459,2445,2431,2415,2401,2385,2371,2356,2343,2330,2317,2305,2294,2282,2272,2263,2254,2246,2239,2234,2230,2225,2223,2221,2219,2218,2216,2216,2216,2216,2217,2217,2216,2215,2213,2211,2208,2205,2202,2197,2193,2189,2184,2179,2173,2169,2166,2161,2158,2154,2150,2147,2143,2140,2136,2131,2127,2123,2119,2115,2111,2108,2103,2099,2095,2091,2087,2083,2079,2075,2073,2070,2067,2064,2062,2060,2056,2054,2050,2044,2039,2033,2027,2022,2013,2007,2001,1993,1986,1977,1971,1963,1957,1951,1944,1940,1934,1929,1925,1920,1917,1912,1907,1903,1899,1896,1892,1889,1886,1882,1878,1875,1872,1869,1867,1865,1863,1862,1861,1860,1860,1860,1861,1862,1862,1863,1865,1866,1867,1867,1868,1868,1868,1869,1869,1867,1867,1867,1865,1863,1862,1860,1858,1857,1856,1854,1854,1853,1852,1852,1851,1851,1849,1848,1846,1845,1844,1842,1841,1839,1837,1835,1834,1832,1832,1830,1829,1827,1825,1822,1820,1818,1816,1814,1811,1810,1809,1808,1807,1807,1807,1806,1805,1803,1802,1800,1799,1798,1796,1796,1794,1794,1793,1793,1792,1792,1791,1789,1789,1787,1786,1785,1785,1785,1785,1786,1788,1792,1797,1804,1814,1826,1841,1858,1879,1904,1931,1961,1993,2027,2061,2097,2132,2167,2202,2235,2267,2297,2324,2350,2374,2403,2424,2437,2449,2457,2463,2465,2465,2463,2458,2452,2443,2433,2422,2410,2397,2383,2371,2357,2343,2330,2317,2304,2291,2279,2267,2256,2246,2237,2227,2218,2211,2204,2200,2195,2191,2190,2188,2186,2186,2185,2185,2185,2186,2187,2186,2186,2186,2184,2184,2182,2180,2177,2174,2170,2166,2161,2155,2150,2144,2139,2133,2129,2124,2120,2117,2113,2112,2109,2107,2105,2104,2102,2101,2099,2098,2096,2095,2093,2092,2090,2089,2086,2083,2081,2077,2074,2070,2066,2062,2057,2052,2048,2044,2039,2034,2029,2024,2018,2012,2006,2000,1993,1988,1982,1978,1973,1968,1964,1958,1954,1949,1945,1940,1935,1930,1926,1920,1916,1912,1907,1905,1902,1900,1899,1898,1897,1896,1895,1894,1892,1892,1891,1890,1890,1890,1889,1889,1889,1890,1890,1892,1892,1892,1893,1894,1894,1895,1895,1895,1896,1896,1895,1895,1893,1892,1889,1888,1885,1884,1881,1880,1877,1875,1875,1872,1871,1870,1869,1868,1867,1865,1864,1863,1861,1859,1857,1855,1853,1851,1850,1848,1846,1845,1843,1840,1838,1837,1836,1834,1833,1832,1830,1829,1828,1828,1828,1827,1828,1828,1828,1827,1828,1829,1829,1829,1830,1830,1830,1830,1829,1829,1828,1827,1826,1824,1823,1821,1819,1819,1820,1822,1827,1833,1841,1853,1866,1883,1903,1924,1950,1977,2006,2037,2069,2101,2134,2167,2199,2230,2261,2291,2318,2344,2367,2398,2418,2430,2440,2447,2451,2453,2452,2450,2445,2439,2431,2422,2412,2401,2388,2376,2363,2348,2333,2318,2303,2290,2278,2265,2254,2244,2235,2227,2221,2214,2209,2204,2201,2199,2197,2196,2196,2196,2197,2198,2199,2200,2200,2201,2200,2199,2198,2197,2194,2192,2188,2184,2181,2177,2172,2169,2166,2163,2161,2158,2156,2154,2152,2148,2146,2144,2141,2139,2137,2135,2133,2130,2127,2124,2121,2119,2115,2110,2107,2103,2099,2096,2092,2089,2085,2081,2078,2074,2071,2067,2063,2057,2052,2045,2040,2035,2028,2023,2016,2009,2003,1997,1989,1981,1974,1966,1960,1954,1948,1944,1940,1937,1934,1932,1931,1930,1929,1927,1926,1925,1923,1922,1919,1917,1914,1911,1908,1906,1904,1902,1901,1899,1898,1897,1896,1893,1892,1890,1889,1889,1889,1889,1890,1892,1894,1896,1896,1896,1896,1896,1896,1896,1896,1895,1896,1895,1895,1895,1895,1895,1894,1893,1891,1891,1890,1888,1887,1886,1884,1882,1880,1879,1877,1874,1871,1869,1867,1865,1863,1862,1860,1858,1858,1857,1856,1854,1854,1853,1851,1850,1848,1847,1844,1843,1840,1838,1837,1835,1833,1832,1832,1831,1830,1830,1831,1832,1834,1837,1842,1849,1859,1871,1886,1904,1924,1945,1970,1996,2023,2052,2083,2112,2142,2171,2200,2227,2253,2278,2302,2323,2349,2367,2379,2388,2396,2400,2402,2403,2401,2398,2392,2385,2376,2366,2355,2344,2331,2318,2305,2291,2278,2264,2252,2240,2228,2218,2207,2199,2192,2188,2183,2181,2178,2177,2176,2176,2175,2175,2175,2175,2175,2175,2175,2174,2173,2171,2169,2166,2163,2159,2154,2150,2148,2144,2140,2138,2135,2133,2130,2128,2127,2125,2125,2123,2123,2121,2120,2118,2118,2117,2116,2115,2113,2112,2110,2109,2107,2105,2103,2100,2098,2096,2092,2089,2086,2082,2078,2074,2070,2066,2061,2057,2053,2048,2043,2040,2035,2032,2027,2022,2017,2011,2005,2000,1993,1989,1984,1978,1972,1966,1961,1956,1951,1947,1943,1940,1936,1934,1932,1931,1930,1930,1930,1931,1930,1931,1930,1929,1929,1930,1929,1929,1929,1928,1928,1927,1926,1925,1924,1923,1921,1919,1917,1915,1914,1913,1913,1914,1914,1914,1915,1916,1918,1918,1920,1921,1923,1924,1925,1926,1927,1927,1927,1926,1924,1923,1921,1920,1918,1916,1913,1910,1907,1904,1901,1897,1893,1890,1887,1884,1882,1880,1877,1874,1872,1869,1866,1864,1861,1860,1859,1860,1862,1866,1872,1880,1890,1903,1917,1933,1952,1973,1996,2019,2044,2072,2099,2127,2155,2182,2208,2234,2256,2279,2300,2319,2342,2359,2369,2376,2380,2383,2382,2379,2375,2368,2360,2349,2338,2326,2313,2299,2285,2271,2257,2243,2230,2217,2205,2194,2184,2174,2166,2158,2150,2143,2136,2130,2126,2121,2119,2116,2114,2112,2109,2108,2107,2105,2103,2101,2098,2097,2095,2096,2094,2095,2095,2096,2097,2098,2099,2100,2102,2104,2106,2109,2111,2114,2117,2121,2124,2127,2129,2130,2132,2133,2132,2132,2132,2130,2129,2128,2126,2122,2119,2116,2113,2109,2105,2102,2098,2093,2088,2083,2078,2072,2066,2060,2054,2047,2040,2033,2026,2018,2010,2003,1996,1990,1982,1976,1969,1963,1957,1952,1947,1942,1939,1937,1935,1932,1932,1931,1930,1930,1930,1929,1929,1929,1929,1929,1929,1928,1928,1928,1927,1928,1927,1926,1925,1924,1922,1922,1922,1921,1923,1923,1924,1924,1924,1925,1926,1926,1926,1927,1926,1925,1923,1921,1920,1919,1917,1916,1915,1913,1912,1911,1909,1908,1907,1906,1905,1903,1902,1901,1900,1899,1898,1898,1897,1896,1895,1893,1892,1891,1890,1889,1887,1886,1885,1885,1885,1886,1889,1893,1898,1906,1915,1927,1942,1959,1979,2000,2024,2050,2078,2107,2136,2167,2198,2227,2256,2284,2311,2337,2361,2383,2403,2428,2443,2452,2461,2464,2464,2463,2459,2453,2445,2436,2426,2414,2403,2390,2378,2366,2353,2341,2330,2320,2310,2300,2292,2283,2275,2270,2265,2262,2260,2259,2258,2258,2259,2260,2262,2263,2264,2266,2267,2267,2267,2266,2265,2262,2259,2255,2250,2244,2238,2232,2225,2218,2211,2204,2198,2191,2185,2179,2173,2168,2162,2158,2153,2149,2146,2143,2140,2137,2134,2132,2130,2128,2126,2125,2124,2121,2120,2118,2117,2115,2113,2111,2108,2104,2102,2097,2095,2092,2088,2085,2081,2078,2074,2071,2067,2063,2059,2054,2050,2045,2040,2035,2030,2024,2018,2012,2006,2000,1996,1990,1985,1980,1976,1971,1966,1963,1960,1958,1956,1953,1953,1952,1951,1951,1950,1950,1950,1949,1949,1948,1946,1945,1944,1942,1940,1939,1937,1936,1935,1934,1933,1932,1931,1930,1928,1927,1928,1927,1927,1927,1928,1929,1929,1929,1930,1929,1930,1929,1928,1927,1925,1925,1922,1921,1919,1917,1915,1912,1910,1908,1906,1904,1902,1901,1900,1898,1897,1895,1893,1892,1890,1889,1888,1887,1887,1886,1885,1883,1882,1880,1880,1878,1877,1876,1876,1875,1875,1875,1875,1874,1873,1873,1872,1871,1870,1872,1873,1877,1882,1890,1899,1911,1926,1944,1964,1988,2014,2041,2071,2100,2131,2163,2194,2225,2255,2284,2311,2336,2360,2381,2399,2421,2435,2443,2450,2454,2456,2457,2456,2452,2448,2443,2436,2428,2419,2408,2398,2386,2374,2362,2351,2339,2329,2319,2311,2302,2297,2291,2286,2284,2282,2281,2280,2281,2281,2283,2284,2285,2286,2287,2288,2289,2289,2288,2286,2284,2281,2277,2272,2268,2262,2255,2248,2241,2232,2225,2217,2211,2204,2197,2190,2184,2178,2172,2166,2160,2154,2150,2145,2140,2136,2132,2128,2126,2122,2120,2118,2114,2112,2110,2107,2103,2101,2097,2094,2091,2088,2084,2081,2076,2073,2068,2064,2059,2055,2051,2044,2039,2033,2027,2021,2015,2010,2006,2001,1998,1994,1993,1988,1985,1982,1978,1974,1970,1967,1964,1960,1956,1952,1949,1946,1943,1940,1938,1938,1937,1937,1936,1937,1936,1936,1936,1934,1933,1932,1930,1928,1927,1926,1925,1924,1922,1920,1919,1918,1917,1917,1917,1918,1919,1919,1920,1920,1921,1921,1921,1922,1921,1922,1922,1922,1922,1921,1920,1919,1918,1917,1916,1914,1912,1910,1907,1904,1901,1899,1896,1893,1892,1890,1889,1887,1887,1886,1885,1884,1883,1883,1882,1881,1879,1878,1877,1876,1875,1873,1874,1873,1873,1874,1873,1873,1873,1872,1872,1871,1871,1870,1868,1867,1865,1862,1860,1857,1854,1852,1848,1846,1844,1843,1843,1845,1848,1853,1859,1868,1879,1893,1909,1928,1950,1974,2002,2031,2060,2092,2125,2158,2191,2224,2256,2287,2317,2344,2370,2392,2420,2440,2451,2460,2465,2468,2470,2468,2465,2460,2452,2444,2434,2423,2410,2397,2384,2369,2355,2341,2327,2313,2300,2289,2278,2268,2260,2251,2245,2239,2234,2230,2227,2224,2222,2222,2221,2222,2223,2224,2227,2228,2230,2230,2229,2228,2226,2223,2220,2216,2212,2207,2202,2197,2190,2185,2179,2174,2170,2165,2162,2158,2155,2151,2148,2144,2141,2138,2136,2132,2130,2127,2125,2123,2121,2118,2117,2113,2111,2109,2104,2102,2099,2098,2095,2093,2090,2087,2083,2080,2076,2072,2067,2062,2057,2054,2049,2044,2039,2034,2029,2024,2019,2014,2008,2004,1998,1993,1988,1982,1976,1971,1966,1961,1957,1952,1949,1945,1941,1939,1938,1936,1936,1933,1932,1931,1930,1929,1928,1928,1928,1928,1928,1928,1928,1927,1926,1925,1925,1924,1924,1923,1923,1922,1922,1923,1922,1923,1922,1922,1922,1921,1920,1919,1918,1915,1913,1911,1910,1908,1907,1906,1904,1904,1903,1903,1903,1902,1901,1898,1896,1894,1892,1891,1890,1888,1887,1885,1883,1882,1880,1878,1877,1875,1873,1871,1869,1867,1866,1865,1865,1865,1865,1865,1866,1867,1867,1868,1868,1866,1865,1864,1862,1862,1860,1859,1856,1855,1854,1853,1853,1853,1854,1855,1858,1863,1871,1881,1895,1913,1933,1958,1984,2014,2045,2078,2112,2146,2180,2212,2244,2275,2305,2333,2359,2382,2403,2429,2445,2455,2462,2466,2468,2467,2464,2458,2450,2441,2431,2419,2407,2391,2379,2365,2352,2339,2327,2315,2303,2291,2280,2270,2260,2251,2243,2236,2229,2224,2220,2215,2211,2208,2205,2204,2203,2203,2202,2201,2200,2199,2199,2197,2195,2192,2189,2184,2179,2174,2169,2161,2156,2150,2145,2140,2136,2131,2129,2128,2126,2124,2123,2121,2120,2119,2117,2116,2114,2113,2112,2111,2110,2108,2107,2106,2105,2104,2103,2100,2097,2094,2093,2089,2085,2081,2076,2073,2069,2064,2059,2054,2049,2042,2036,2030,2024,2017,2010,2004,1997,1991,1985,1980,1975,1971,1966,1961,1956,1952,1947,1943,1941,1937,1935,1933,1932,1930,1929,1927,1926,1924,1922,1920,1918,1915,1914,1913,1912,1911,1910,1909,1908,1907,1908,1907,1907,1907,1907,1908,1908,1907,1908,1909,1909,1909,1911,1912,1912,1912,1912,1912,1912,1912,1912,1911,1911,1910,1908,1906,1903,1901,1899,1898,1896,1894,1893,1892,1892,1893,1892,1891,1890,1889,1887,1885,1883,1881,1879,1877,1876,1874,1874,1873,1871,1871,1869,1867,1866,1863,1861,1859,1856,1852,1851,1850,1849,1849,1851,1856,1862,1872,1884,1898,1915,1936,1959,1984,2013,2041,2073,2104,2138,2170,2202,2234,2264,2294,2321,2345,2368,2388,2413,2429,2438,2446,2448,2450,2448,2445,2439,2432,2423,2413,2402,2389,2376,2362,2347,2332,2317,2302,2287,2273,2260,2247,2235,2225,2216,2207,2198,2193,2187,2182,2178,2175,2172,2170,2168,2166,2165,2163,2162,2160,2159,2157,2156,2153,2151,2146,2144,2142,2139,2136,2133,2131,2129,2127,2126,2125,2124,2122,2122,2121,2121,2120,2119,2119,2118,2116,2115,2113,2112,2109,2107,2105,2103,2103,2101,2100,2098,2099,2097,2097,2096,2094,2091,2087,2083,2077,2071,2064,2056,2050,2041,2035,2027,2022,2014,2008,2000,1994,1989,1983,1978,1972,1968,1963,1957,1953,1947,1943,1939,1934,1930,1926,1922,1919,1917,1915,1913,1914,1912,1913,1914,1915,1916,1918,1919,1920,1922,1923,1924,1924,1924,1924,1923,1922,1921,1920,1918,1916,1916,1915,1915,1914,1915,1914,1912,1912,1911,1910,1909,1908,1907,1907,1906,1905,1904,1903,1902,1900,1899,1898,1896,1895,1894,1893,1891,1890,1890,1890,1889,1889,1889,1889,1889,1889,1888,1887,1885,1883,1881,1879,1878,1876,1873,1871,1869,1866,1864,1862,1860,1859,1859,1862,1866,1871,1880,1892,1907,1924,1944,1966,1990,2018,2047,2077,2109,2140,2172,2203,2233,2262,2289,2315,2337,2358,2382,2399,2408,2416,2423,2427,2430,2429,2428,2425,2419,2413,2403,2392,2380,2366,2352,2338,2323,2307,2292,2277,2262,2248,2233,2219,2206,2194,2182,2171,2162,2153,2145,2138,2131,2125,2119,2114,2110,2105,2102,2098,2096,2093,2091,2089,2088,2086,2084,2084,2084,2085,2086,2088,2091,2094,2097,2101,2106,2109,2112,2115,2117,2119,2121,2124,2126,2127,2130,2133,2134,2136,2137,2139,2140,2139,2138,2137,2135,2134,2132,2130,2126,2123,2120,2114,2110,2105,2099,2092,2084,2076,2069,2060,2053,2043,2035,2028,2020,2011,2003,1995,1988,1981,1973,1966,1959,1952,1945,1939,1933,1929,1925,1921,1918,1915,1913,1911,1910,1909,1908,1907,1907,1907,1906,1907,1907,1909,1910,1911,1914,1917,1919,1920,1923,1925,1926,1926,1927,1927,1927,1926,1926,1924,1924,1924,1924,1925,1925,1926,1926,1927,1927,1927,1926,1925,1924,1921,1918,1916,1914,1912,1910,1910,1908,1908,1907,1906,1906,1906,1905,1905,1904,1904,1904,1903,1902,1901,1900,1898,1895,1892,1889,1884,1881,1878,1874,1871,1868,1865,1864,1864,1864,1867,1872,1879,1890,1903,1919,1938,1961,1986,2014,2046,2081,2117,2155,2193,2231,2270,2306,2342,2375,2406,2436,2462,2486,2516,2536,2548,2558,2564,2568,2569,2566,2562,2555,2547,2536,2524,2511,2499,2483,2468,2453,2437,2422,2406,2391,2377,2362,2348,2335,2321,2309,2298,2288,2279,2271,2265,2260,2257,2254,2253,2252,2251,2252,2251,2252,2252,2253,2252,2252,2251,2251,2249,2247,2243,2240,2236,2233,2229,2224,2221,2217,2213,2210,2206,2201,2197,2194,2191,2187,2183,2180,2177,2173,2170,2167,2163,2159,2156,2152,2148,2144,2141,2137,2134,2130,2127,2124,2120,2116,2112,2108,2104,2098,2094,2089,2084,2079,2073,2066,2060,2053,2046,2039,2031,2024,2017,2009,2004,1997,1990,1984,1977,1973,1967,1962,1956,1952,1948,1944,1939,1936,1933,1930,1928,1925,1924,1922,1921,1921,1920,1920,1920,1920,1920,1922,1922,1921,1922,1922,1920,1920,1919,1918,1916,1916,1916,1916,1914,1913,1912,1911,1909,1907,1906,1906,1905,1903,1903,1903,1902,1900,1900,1897,1896,1895,1892,1892,1890,1888,1887,1886,1886,1884,1884,1883,1882,1882,1881,1880,1878,1876,1873,1871,1868,1866,1864,1862,1860,1859,1857,1855,1853,1850,1849,1848,1846,1846,1847,1847,1849,1851,1855,1860,1868,1878,1891,1908,1927,1949,1974,2002,2032,2065,2100,2135,2172,2208,2244,2280,2314,2345,2376,2404,2431,2454,2484,2503,2515,2524,2530,2533,2533,2531,2526,2518,2509,2497,2484,2470,2455,2439,2423,2406,2389,2372,2355,2338,2324,2309,2296,2284,2275,2266,2260,2255,2251,2249,2246,2246,2245,2244,2243,2243,2242,2240,2239,2237,2235,2233,2231,2228,2225,2222,2218,2215,2210,2206,2202,2197,2193,2189,2184,2180,2175,2171,2168,2163,2160,2156,2152,2149,2144,2141,2136,2133,2128,2125,2120,2116,2113,2109,2106,2103,2101,2099,2097,2096,2094,2093,2090,2087,2087,2083,2080,2076,2071,2066,2059,2054,2047,2041,2034,2028,2022,2015,2010,2003,1998,1991,1985,1979,1973,1968,1963,1959,1953,1949,1946,1943,1938,1935,1932,1929,1925,1921,1919,1916,1913,1912,1910,1909,1907,1904,1902,1901,1899,1895,1893,1890,1886,1884,1882,1880,1878,1878,1877,1876,1876,1877,1877,1878,1878,1880,1879,1881,1883,1885,1887,1887,1888,1889,1888,1888,1888,1888,1887,1886,1885,1885,1883,1883,1882,1881,1880,1879,1877,1875,1873,1870,1868,1865,1862,1860,1856,1853,1850,1847,1845,1843,1842,1842,1841,1841,1842,1844,1844,1845,1845,1847,1846,1845,1843,1841,1837,1834,1832,1829,1826,1823,1821,1819,1818,1817,1815,1814,1815,1816,1821,1827,1835,1847,1862,1882,1904,1930,1959,1990,2025,2059,2095,2133,2170,2206,2242,2277,2311,2342,2370,2395,2419,2448,2469,2483,2493,2502,2507,2509,2510,2508,2503,2495,2486,2476,2463,2449,2434,2418,2401,2383,2365,2347,2331,2313,2298,2284,2271,2259,2247,2238,2228,2219,2211,2203,2198,2191,2186,2182,2177,2174,2171,2170,2169,2170,2170,2171,2171,2171,2171,2170,2169,2167,2165,2162,2161,2159,2157,2157,2156,2155,2155,2157,2158,2158,2159,2160,2161,2161,2162,2162,2162,2162,2162,2160,2159,2157,2154,2151,2147,2144,2137,2133,2127,2121,2114,2107,2101,2094,2087,2082,2076,2070,2065,2060,2055,2049,2044,2039,2033,2026,2019,2013,2004,1998,1991,1984,1976,1971,1964,1958,1952,1947,1942,1936,1931,1927,1922,1919,1916,1913,1910,1908,1907,1905,1904,1903,1902,1902,1902,1901,1902,1901,1901,1901,1901,1900,1901,1900,1899,1899,1899,1899,1898,1898,1898,1897,1896,1896,1895,1895,1895,1895,1894,1894,1892,1892,1891,1889,1889,1888,1888,1888,1889,1889,1889,1889,1889,1889,1888,1888,1887,1886,1884,1883,1882,1880,1879,1877,1875,1873,1871,1870,1866,1864,1861,1859,1856,1854,1852,1849,1848,1847,1846,1847,1846,1846,1847,1847,1849,1849,1850,1850,1851,1850,1848,1847,1846,1845,1843,1842,1840,1838,1836,1834,1832,1831,1830,1828,1828,1828,1829,1832,1836,1844,1854,1868,1883,1903,1927,1953,1982,2014,2047,2083,2119,2156,2193,2229,2265,2300,2333,2364,2394,2421,2446,2477,2499,2512,2522,2528,2532,2532,2530,2526,2519,2512,2501,2490,2477,2463,2448,2433,2416,2399,2382,2365,2347,2330,2313,2297,2282,2268,2255,2243,2233,2222,2213,2206,2198,2192,2186,2181,2176,2172,2167,2163,2159,2155,2152,2148,2145,2142,2139,2136,2134,2132,2130,2129,2128,2128,2129,2130,2132,2134,2136,2139,2142,2145,2147,2149,2152,2154,2156,2157,2159,2161,2164,2166,2168,2171,2173,2174,2173,2173,2170,2167,2163,2157,2152,2147,2140,2134,2127,2120,2114,2106,2098,2090,2083,2076,2068,2059,2051,2042,2034,2026,2018,2010,2002,1994,1986,1981,1974,1969,1962,1957,1953,1949,1945,1940,1935,1931,1927,1924,1921,1918,1916,1915,1913,1913,1914,1915,1917,1918,1919,1920,1922,1923,1924,1925,1925,1925,1925,1926,1928,1929,1930,1931,1931,1932,1932,1932,1931,1931,1930,1929,1928,1927,1926,1926,1925,1925,1925,1925,1926,1927,1927,1927,1927,1927,1927,1927,1927,1926,1924,1922,1919,1916,1913,1909,1905,1903,1899,1896,1894,1892,1890,1887,1885,1883,1880,1878,1877,1875,1873,1871,1869,1869,1866,1864,1863,1861,1859,1859,1859,1862,1866,1871,1879,1891,1905,1922,1944,1968,1996,2024,2056,2091,2124,2158,2193,2227,2260,2293,2324,2353,2379,2403,2424,2451,2467,2477,2483,2487,2488,2487,2483,2478,2470,2461,2449,2437,2421,2404,2388,2371,2354,2336,2318,2301,2283,2266,2250,2234,2218,2204,2190,2177,2165,2154,2143,2134,2125,2117,2109,2102,2096,2092,2087,2082,2077,2073,2068,2063,2060,2057,2056,2054,2054,2054,2055,2056,2058,2063,2067,2073,2078,2084,2091,2097,2103,2111,2117,2122,2127,2132,2136,2140,2142,2144,2146,2148,2150,2150,2152,2151,2151,2151,2150,2148,2146,2144,2141,2136,2131,2126,2118,2111,2104,2097,2088,2080,2071,2062,2053,2041,2032,2022,2011,2001,1992,1984,1973,1965,1956,1948,1941,1935,1929,1925,1921,1918,1915,1912,1910,1907,1905,1904,1903,1903,1902,1903,1904,1905,1907,1908,1909,1910,1911,1912,1914,1915,1917,1917,1917,1917,1918,1919,1919,1919,1921,1923,1925,1926,1928,1929,1931,1931,1931,1931,1930,1929,1927,1926,1923,1922,1919,1917,1915,1913,1910,1909,1907,1906,1905,1904,1903,1901,1900,1899,1898,1897,1897,1896,1897,1897,1896,1896,1895,1894,1894,1892,1891,1889,1888,1886,1882,1880,1878,1874,1871,1870,1867,1865,1865,1867,1870,1877,1885,1898,1914,1934,1957,1983,2012,2044,2079,2117,2154,2192,2230,2268,2304,2341,2375,2408,2437,2465,2488,2518,2537,2549,2558,2562,2566,2565,2563,2558,2551,2542,2530,2518,2503,2488,2473,2456,2440,2423,2407,2391,2376,2362,2347,2334,2320,2308,2297,2286,2275,2264,2256,2247,2239,2234,2229,2225,2223,2221,2220,2219,2219,2220,2221,2223,2223,2224,2223,2223,2221,2219,2217,2215,2213,2211,2208,2206,2203,2200,2198,2196,2193,2191,2187,2185,2182,2178,2176,2172,2170,2168,2167,2165,2164,2163,2161,2160,2157,2155,2152,2149,2146,2143,2139,2136,2133,2129,2124,2120,2114,2109,2103,2096,2089,2082,2075,2068,2060,2054,2045,2037,2029,2021,2012,2005,1997,1990,1984,1979,1973,1969,1965,1961,1957,1953,1950,1946,1944,1942,1940,1937,1936,1935,1934,1934,1934,1934,1935,1935,1937,1937,1939,1939,1939,1939,1939,1939,1941,1939,1940,1939,1939,1938,1938,1936,1935,1935,1933,1932,1931,1930,1928,1926,1924,1923,1922,1919,1917,1915,1913,1911,1910,1907,1906,1906,1905,1904,1904,1903,1901,1900,1898,1896,1894,1891,1889,1888,1886,1885,1883,1882,1880,1879,1877,1876,1873,1872,1870,1869,1867,1866,1866,1865,1865,1865,1865,1865,1866,1865,1865,1865,1865,1865,1865,1865,1866,1867,1868,1870,1875,1882,1891,1902,1916,1934,1954,1980,2007,2038,2071,2107,2144,2182,2221,2259,2297,2333,2369,2403,2433,2462,2488,2511,2540,2559,2569,2578,2583,2584,2584,2580,2573,2564,2554,2541,2528,2512,2497,2481,2464,2449,2433,2417,2403,2389,2375,2361,2347,2336,2326,2318,2309,2303,2298,2294,2293,2291,2291,2291,2292,2293,2295,2295,2296,2297,2298,2299,2298,2298,2296,2294,2290,2287,2281,2276,2270,2263,2256,2250,2242,2236,2229,2222,2216,2209,2203,2197,2192,2186,2181,2176,2172,2167,2163,2159,2155,2151,2147,2143,2139,2136,2132,2129,2125,2122,2118,2114,2111,2107,2104,2100,2096,2092,2087,2082,2077,2072,2066,2059,2054,2046,2040,2031,2025,2017,2010,2002,1994,1986,1980,1976,1971,1966,1963,1959,1957,1954,1952,1950,1947,1944,1943,1940,1938,1937,1935,1933,1931,1929,1926,1923,1919,1916,1913,1910,1907,1905,1904,1903,1902,1902,1902,1902,1902,1903,1904,1905,1907,1908,1909,1911,1913,1913,1914,1915,1914,1914,1913,1912,1911,1909,1907,1905,1902,1900,1898,1896,1894,1892,1890,1889,1886,1886,1884,1883,1880,1878,1875,1872,1870,1868,1867,1864,1864,1863,1862,1861,1861,1860,1859,1858,1856,1855,1853,1851,1851,1848,1847,1845,1843,1842,1841,1840,1840,1839,1839,1839,1839,1840,1840,1839,1840,1840,1839,1839,1839,1839,1839,1838,1838,1838,1839,1841,1844,1849,1856,1865,1877,1892,1910,1932,1958,1986,2017,2051,2086,2123,2161,2199,2237,2273,2310,2344,2376,2407,2433,2457,2485,2504,2514,2521,2526,2528,2528,2524,2517,2508,2496,2484,2470,2457,2442,2427,2412,2396,2382,2367,2352,2339,2325,2312,2301,2290,2280,2270,2261,2252,2245,2239,2233,2228,2224,2221,2219,2217,2216,2215,2214,2214,2214,2214,2214,2214,2214,2213,2212,2209,2208,2205,2202,2199,2195,2191,2186,2183,2179,2175,2171,2168,2165,2163,2159,2156,2153,2151,2148,2145,2143,2141,2139,2137,2134,2133,2131,2130,2129,2128,2126,2124,2122,2119,2116,2113,2108,2103,2099,2094,2088,2083,2077,2071,2065,2059,2053,2046,2041,2034,2028,2022,2014,2009,2002,1995,1990,1983,1977,1972,1966,1962,1958,1953,1948,1944,1941,1937,1935,1932,1930,1927,1927,1925,1925,1924,1923,1923,1924,1923,1923,1923,1924,1924,1924,1923,1924,1923,1922,1923,1922,1921,1920,1920,1920,1918,1917,1915,1915,1916,1915,1915,1914,1913,1912,1911,1909,1907,1906,1904,1902,1901,1899,1898,1896,1895,1894,1892,1892,1890,1889,1888,1886,1884,1882,1881,1880,1877,1875,1874,1872,1870,1869,1867,1866,1864,1861,1859,1857,1854,1852,1852,1850,1849,1848,1847,1847,1847,1847,1846,1846,1847,1849,1852,1858,1865,1874,1887,1902,1920,1941,1964,1991,2019,2049,2079,2111,2143,2175,2207,2238,2268,2297,2323,2348,2370,2391,2416,2432,2443,2451,2455,2458,2458,2456,2451,2444,2434,2423,2411,2397,2383,2369,2354,2338,2323,2308,2294,2278,2264,2251,2239,2228,2219,2209,2202,2196,2189,2184,2180,2175,2172,2168,2165,2163,2161,2159,2157,2155,2153,2151,2149,2146,2143,2140,2135,2132,2129,2124,2121,2116,2113,2111,2108,2107,2106,2105,2106,2107,2106,2108,2108,2110,2109,2110,2110,2109,2110,2109,2108,2107,2105,2102,2100,2095,2091,2087,2082,2077,2073,2068,2063,2059,2055,2049,2043,2038,2032,2026,2021,2016,2010,2005,1999,1994,1989,1983,1978,1973,1967,1962,1957,1952,1948,1943,1939,1934,1929,1926,1921,1917,1914,1911,1909,1907,1905,1904,1904,1904,1904,1905,1906,1909,1911,1913,1915,1917,1918,1920,1922,1923,1924,1924,1924,1923,1922,1920,1919,1917,1917,1916,1915,1916,1916,1915,1915,1914,1912,1911,1910,1909,1906,1905,1903,1902,1899,1897,1895,1893,1890,1888,1886,1883,1881,1879,1877,1875,1874,1873,1872,1872,1871,1871,1871,1869,1868,1866,1865,1864,1862,1862,1861,1861,1862,1861,1861,1861,1861,1861,1860,1859,1858,1857,1855,1853,1851,1848,1846,1844,1842,1839,1838,1836,1835,1834,1834,1836,1839,1845,1855,1866,1881,1900,1921,1945,1973,2003,2035,2069,2104,2141,2178,2214,2249,2283,2315,2345,2373,2398,2422,2452,2473,2485,2494,2501,2504,2504,2502,2496,2490,2481,2471,2460,2447,2434,2419,2404,2389,2375,2359,2344,2330,2316,2303,2291,2280,2270,2262,2255,2248,2243,2239,2236,2234,2232,2232,2232,2234,2235,2237,2239,2241,2242,2244,2244,2243,2243,2240,2238,2234,2229,2223,2217,2210,2202,2195,2188,2180,2172,2166,2160,2154,2150,2145,2143,2140,2139,2135,2133,2130,2127,2124,2121,2118,2114,2110,2107,2103,2100,2099,2096,2094,2091,2089,2085,2082,2079,2075,2072,2067,2063,2057,2052,2046,2040,2035,2028,2022,2016,2010,2004,1996,1990,1984,1977,1972,1966,1960,1954,1949,1944,1939,1935,1931,1926,1923,1920,1918,1917,1915,1914,1912,1911,1910,1908,1908,1907,1907,1907,1908,1907,1909,1909,1910,1910,1908,1908,1905,1904,1902,1901,1899,1897,1895,1893,1892,1891,1890,1889,1889,1888,1889,1889,1889,1889,1889,1888,1887,1886,1884,1883,1883,1882,1881,1880,1879,1877,1877,1875,1873,1872,1871,1868,1867,1865,1863,1860,1858,1856,1855,1852,1851,1849,1847,1845,1844,1842,1840,1839,1838,1836,1835,1835,1834,1833,1832,1831,1829,1828,1827,1826,1826,1825,1825,1823,1823,1823,1822,1822,1822,1822,1822,1823,1823,1823,1824,1826,1827,1829,1829,1831,1833,1835,1835,1836,1836,1836,1837,1837,1838,1839,1842,1845,1851,1859,1870,1884,1902,1923,1948,1976,2006,2039,2073,2109,2146,2184,2222,2257,2293,2329,2361,2391,2418,2443,2465,2491,2506,2515,2520,2522,2522,2519,2513,2507,2499,2488,2477,2465,2453,2440,2426,2412,2399,2384,2370,2357,2343,2331,2318,2307,2297,2288,2279,2270,2262,2256,2252,2248,2246,2243,2242,2241,2240,2239,2238,2238,2236,2236,2235,2234,2234,2232,2230,2228,2226,2223,2220,2216,2213,2209,2206,2203,2198,2194,2190,2186,2182,2178,2173,2170,2166,2162,2159,2156,2153,2150,2147,2145,2143,2140,2137,2134,2131,2127,2122,2119,2114,2110,2105,2100,2095,2091,2086,2080,2075,2069,2063,2056,2050,2042,2037,2031,2025,2019,2013,2008,2004,1999,1996,1991,1987,1985,1981,1977,1974,1971,1968,1966,1964,1962,1960,1958,1955,1954,1951,1949,1945,1943,1941,1938,1936,1934,1932,1931,1929,1927,1927,1925,1924,1923,1923,1922,1923,1923,1923,1923,1923,1923,1924,1924,1923,1923,1923,1923,1922,1921,1919,1918,1918,1916,1916,1915,1914,1913,1912,1911,1911,1911,1909,1908,1906,1903,1901,1898,1896,1893,1890,1890,1888,1887,1885,1883,1881,1881,1880,1880,1879,1878,1876,1873,1872,1870,1868,1867,1865,1863,1862,1860,1859,1858,1857,1857,1857,1858,1859,1860,1861,1864,1865,1866,1867,1868,1868,1868,1867,1865,1863,1862,1859,1857,1855,1854,1852,1851,1852,1853,1856,1861,1869,1879,1891,1907,1926,1948,1972,2000,2029,2060,2093,2125,2159,2194,2227,2260,2292,2321,2349,2374,2398,2417,2442,2457,2466,2472,2476,2479,2479,2475,2472,2467,2460,2450,2439,2427,2415,2401,2388,2373,2358,2342,2327,2312,2296,2281,2267,2252,2240,2226,2215,2205,2196,2188,2180,2175,2169,2165,2161,2159,2156,2152,2149,2147,2144,2141,2139,2137,2134,2133,2132,2132,2131,2130,2129,2127,2125,2123,2120,2119,2117,2118,2117,2116,2116,2118,2119,2122,2124,2127,2130,2133,2136,2139,2140,2141,2143,2144,2144,2143,2142,2140,2138,2134,2129,2125,2118,2111,2105,2097,2090,2082,2074,2066,2058,2051,2042,2035,2028,2021,2013,2006,2000,1993,1988,1982,1977,1973,1969,1964,1960,1955,1950,1945,1939,1934,1929,1924,1919,1916,1912,1910,1909,1909,1908,1907,1906,1907,1907,1906,1905,1904,1904,1903,1904,1904,1905,1907,1909,1911,1914,1917,1919,1920,1921,1922,1922,1922,1921,1919,1918,1917,1917,1917,1917,1918,1919,1919,1921,1922,1922,1923,1922,1921,1919,1917,1914,1911,1908,1906,1903,1901,1899,1897,1895,1893,1891,1890,1888,1886,1885,1883,1882,1881,1881,1880,1880,1879,1878,1877,1875,1873,1873,1871,1871,1872,1872,1871,1871,1871,1871,1871,1870,1871,1871,1870,1868,1866,1864,1862,1861,1861,1863,1866,1871,1879,1890,1904,1922,1942,1965,1991,2020,2051,2084,2120,2156,2193,2230,2266,2303,2337,2370,2401,2429,2455,2477,2504,2523,2533,2540,2545,2547,2545,2542,2537,2530,2521,2510,2498,2484,2469,2454,2439,2423,2408,2393,2378,2364,2349,2337,2325,2314,2304,2294,2286,2278,2272,2266,2261,2256,2251,2249,2246,2245,2244,2244,2244,2244,2244,2245,2247,2247,2247,2246,2245,2242,2240,2237,2232,2228,2222,2217,2211,2205,2198,2191,2183,2177,2169,2164,2157,2153,2148,2144,2140,2136,2134,2130,2127,2124,2122,2121,2120,2120,2118,2117,2115,2113,2111,2107,2103,2099,2094,2089,2084,2079,2075,2070,2065,2060,2056,2050,2045,2040,2035,2030,2026,2020,2015,2009,2004,1998,1994,1989,1985,1980,1975,1971,1966,1961,1957,1951,1948,1942,1938,1935,1930,1927,1924,1923,1921,1919,1918,1917,1916,1916,1915,1913,1913,1910,1910,1909,1908,1907,1907,1906,1906,1905,1905,1904,1905,1904,1904,1902,1902,1902,1900,1900,1898,1897,1896,1895,1894,1893,1892,1891,1891,1890,1889,1889,1888,1888,1887,1886,1884,1882,1881,1879,1878,1877,1877,1876,1875,1874,1873,1872,1870,1870,1868,1867,1865,1864,1862,1861,1861,1860,1859,1858,1858,1856,1856,1855,1854,1854,1852,1852,1851,1850,1849,1848,1848,1847,1846,1846,1845,1845,1844,1845,1843,1843,1843,1843,1841,1841,1839,1838,1837,1835,1835,1833,1833,1833,1833,1833,1834,1834,1833,1834,1833,1834,1836,1838,1843,1849,1858,1868,1882,1900,1921,1947,1975,2006,2042,2078,2117,2156,2196,2236,2276,2316,2353,2390,2423,2454,2483,2509,2542,2563,2576,2587,2594,2598,2599,2598,2593,2586,2577,2566,2555,2541,2529,2514,2500,2485,2469,2453,2438,2422,2406,2392,2377,2364,2350,2339,2327,2317,2308,2301,2294,2288,2283,2279,2276,2273,2272,2270,2269,2268,2267,2266,2265,2264,2262,2260,2257,2254,2251,2247,2243,2240,2235,2232,2228,2223,2219,2216,2212,2207,2204,2200,2196,2192,2188,2184,2179,2175,2170,2164,2159,2154,2150,2144,2141,2136,2132,2129,2126,2122,2120,2116,2114,2111,2107,2105,2101,2098,2094,2090,2085,2080,2075,2069,2063,2057,2050,2042,2036,2029,2021,2016,2009,2003,1997,1990,1985,1980,1976,1971,1968,1963,1958,1954,1950,1946,1943,1940,1936,1934,1932,1929,1927,1924,1922,1920,1918,1915,1913,1911,1908,1906,1905,1903,1902,1901,1901,1901,1902,1902,1903,1902,1902,1902,1902,1902,1902,1902,1904,1904,1905,1906,1906,1906,1906,1905,1905,1904,1902,1901,1900,1898,1897,1896,1895,1894,1892,1890,1887,1885,1883,1882,1881,1880,1879,1878,1877,1876,1875,1874,1873,1871,1871,1869,1869,1868,1867,1865,1862,1860,1857,1854,1851,1848,1846,1843,1840,1837,1835,1833,1832,1830,1829,1829,1830,1829,1830,1831,1830,1831,1830,1830,1829,1828,1827,1826,1824,1823,1821,1820,1818,1818,1817,1817,1817,1818,1818,1818,1820,1820,1820,1821,1822,1822,1821,1821,1821,1820,1821,1822,1824,1828,1835,1843,1853,1867,1883,1904,1927,1954,1984,2016,2051,2089,2127,2167,2207,2246,2285,2321,2356,2387,2417,2443,2467,2502,2523,2535,2545,2552,2556,2557,2557,2554,2549,2542,2534,2525,2514,2502,2489,2475,2461,2445,2430,2414,2398,2382,2366,2351,2335,2320,2305,2291,2277,2265,2255,2245,2236,2230,2224,2221,2217,2215,2214,2214,2213,2213,2214,2214,2215,2215,2215,2213,2212,2212,2211,2209,2207,2205,2204,2203,2201,2198,2197,2196,2193,2192,2189,2187,2185,2184,2181,2179,2176,2174,2171,2168,2166,2163,2162,2162,2162,2161,2160,2158,2157,2155,2152,2148,2143,2139,2133,2126,2118,2110,2102,2094,2085,2078,2070,2062,2055,2048,2041,2033,2026,2019,2012,2005,1998,1991,1985,1978,1972,1967,1961,1957,1953,1949,1945,1941,1938,1936,1933,1932,1930,1928,1926,1925,1923,1922,1921,1920,1919,1918,1917,1916,1913,1911,1909,1908,1907,1906,1906,1908,1908,1910,1911,1913,1915,1917,1919,1921,1923,1925,1928,1929,1930,1931,1930,1929,1929,1930,1929,1930,1929,1928,1927,1926,1923,1919,1917,1913,1909,1906,1903,1898,1895,1892,1888,1886,1884,1883,1881,1880,1879,1879,1879,1879,1879,1879,1878,1878,1878,1877,1876,1875,1873,1871,1868,1866,1864,1861,1859,1856,1855,1852,1849,1847,1846,1844,1843,1842,1842,1842,1842,1843,1843,1846,1849,1855,1864,1874,1888,1904,1924,1945,1970,1997,2026,2057,2090,2122,2156,2192,2226,2260,2293,2326,2357,2384,2410,2433,2461,2480,2492,2501,2508,2511,2513,2512,2509,2503,2495,2485,2474,2461,2447,2431,2414,2397,2378,2360,2340,2322,2303,2285,2268,2251,2236,2222,2209,2198,2187,2177,2168,2160,2152,2144,2136,2130,2125,2119,2115,2110,2106,2103,2101,2098,2097,2094,2093,2091,2091,2090,2090,2090,2090,2091,2093,2094,2097,2101,2105,2109,2113,2118,2123,2127,2132,2136,2141,2146,2150,2153,2157,2159,2162,2164,2165,2166,2166,2164,2162,2158,2155,2150,2144,2139,2133,2126,2119,2112,2104,2097,2090,2082,2075,2067,2058,2050,2041,2032,2024,2015,2008,1998,1991,1983,1977,1969,1964,1956,1951,1945,1939,1934,1929,1925,1922,1918,1915,1914,1912,1912,1911,1910,1910,1909,1909,1908,1907,1907,1906,1905,1907,1907,1909,1911,1912,1913,1915,1916,1917,1918,1919,1920,1920,1921,1922,1921,1921,1921,1920,1919,1918,1917,1916,1915,1914,1913,1912,1911,1910,1909,1908,1907,1907,1906,1905,1904,1903,1902,1900,1900,1898,1897,1897,1896,1894,1894,1892,1891,1890,1888,1886,1884,1883,1880,1878,1875,1873,1871,1870,1867,1866,1863,1861,1860,1859,1859,1860,1862,1866,1873,1882,1895,1910,1930,1952,1977,2006,2039,2072,2108,2145,2183,2222,2259,2295,2330,2364,2395,2424,2452,2477,2509,2531,2545,2556,2563,2568,2570,2569,2565,2560,2551,2541,2529,2516,2501,2486,2470,2453,2436,2419,2402,2386,2371,2356,2342,2329,2317,2306,2295,2286,2278,2271,2264,2258,2252,2247,2243,2239,2235,2232,2228,2226,2223,2220,2217,2214,2210,2207,2203,2200,2197,2194,2191,2187,2186,2183,2182,2181,2179,2179,2177,2177,2176,2176,2176,2177,2177,2177,2178,2179,2178,2179,2178,2178,2176,2175,2173,2172,2169,2167,2164,2161,2159,2156,2153,2150,2147,2142,2138,2132,2126,2119,2112,2105,2097,2089,2081,2072,2063,2055,2048,2040,2031,2023,2016,2006,1999,1992,1984,1978,1972,1966,1961,1956,1952,1949,1946,1944,1943,1941,1940,1940,1940,1939,1939,1938,1938,1937,1936,1934,1932,1931,1928,1927,1926,1924,1923,1922,1922,1922,1922,1922,1923,1923,1924,1926,1927,1929,1930,1931,1932,1933,1933,1934,1934,1934,1935,1936,1935,1936,1935,1935,1935,1932,1932,1931,1928,1926,1924,1922,1919,1918,1915,1912,1910,1907,1904,1902,1899,1898,1896,1893,1891,1888,1886,1885,1883,1882,1881,1882,1881,1880,1880,1880,1880,1879,1878,1878,1877,1875,1874,1872,1871,1869,1865,1863,1860,1856,1854,1852,1851,1853,1856,1862,1871,1883,1898,1916,1937,1961,1987,2017,2050,2084,2121,2159,2198,2238,2277,2315,2353,2389,2423,2454,2483,2508,2542,2563,2576,2587,2593,2597,2599,2598,2595,2588,2581,2572,2560,2547,2534,2520,2505,2489,2473,2458,2443,2429,2413,2399,2385,2370,2356,2343,2332,2322,2312,2304,2297,2292,2286,2282,2280,2279,2278,2278,2278,2279,2279,2278,2279,2280,2281,2280,2281,2281,2280,2278,2276,2274,2271,2267,2262,2258,2251,2246,2240,2234,2228,2222,2216,2211,2205,2200,2195,2191,2188,2184,2180,2178,2175,2173,2170,2167,2165,2162,2160,2159,2157,2155,2152,2149,2146,2143,2139,2135,2131,2125,2120,2115,2109,2102,2094,2088,2078,2070,2063,2054,2046,2039,2033,2027,2021,2015,2009,2003,1998,1993,1987,1981,1976,1970,1965,1959,1955,1951,1948,1945,1942,1940,1938,1936,1934,1933,1932,1931,1929,1928,1926,1925,1924,1923,1923,1922,1922,1923,1923,1924,1924,1925,1926,1926,1926,1925,1924,1923,1923,1922,1922,1921,1922,1921,1921,1920,1920,1919,1917,1915,1913,1912,1909,1907,1905,1904,1901,1899,1897,1895,1892,1891,1888,1886,1883,1882,1880,1878,1877,1877,1876,1876,1875,1875,1874,1874,1873,1872,1871,1869,1868,1866,1863,1861,1859,1856,1854,1851,1850,1849,1848,1847,1846,1846,1845,1846,1845,1845,1846,1846,1846,1847,1848,1848,1848,1850,1849,1849,1849,1849,1847,1846,1844,1844,1845,1846,1848,1854,1861,1870,1883,1899,1918,1940,1966,1996,2029,2065,2103,2142,2182,2221,2262,2302,2340,2376,2411,2444,2474,2500,2524,2553,2571,2583,2591,2595,2596,2596,2592,2585,2577,2567,2556,2543,2529,2515,2501,2485,2470,2453,2437,2422,2405,2390,2376,2363,2351,2340,2331,2324,2317,2311,2307,2304,2301,2300,2298,2297,2296,2296,2295,2295,2294,2293,2292,2290,2288,2286,2283,2280,2277,2272,2268,2263,2258,2253,2247,2241,2236,2231,2226,2222,2218,2214,2211,2207,2204,2200,2197,2194,2189,2186,2182,2179,2176,2173,2170,2167,2164,2161,2159,2155,2152,2149,2145,2141,2138,2133,2128,2123,2119,2114,2110,2105,2101,2096,2090,2085,2079,2074,2068,2061,2054,2046,2038,2030,2021,2012,2004,1995,1986,1980,1973,1966,1961,1956,1952,1948,1945,1942,1939,1936,1934,1932,1930,1929,1929,1928,1927,1926,1926,1926,1925,1925,1927,1926,1927,1928,1928,1929,1929,1928,1929,1929,1930,1931,1933,1934,1935,1936,1936,1937,1936,1935,1934,1933,1931,1929,1927,1925,1924,1922,1920,1918,1917,1915,1913,1911,1909,1906,1903,1900,1896,1892,1890,1886,1883,1880,1879,1877,1876,1875,1876,1875,1874,1874,1874,1873,1872,1872,1872,1872,1873,1872,1872,1870,1870,1869,1869,1868,1867,1867,1865,1865,1863,1861,1859,1857,1855,1851,1850,1847,1847,1845,1843,1842,1840,1839,1838,1837,1835,1835,1834,1834,1834,1835,1836,1838,1842,1846,1851,1859,1869,1881,1898,1915,1936,1959,1985,2013,2045,2078,2113,2149,2185,2222,2258,2293,2327,2360,2392,2420,2446,2469,2499,2518,2531,2540,2547,2550,2551,2549,2545,2538,2529,2518,2506,2492,2477,2461,2444,2426,2407,2389,2370,2353,2336,2320,2306,2293,2281,2269,2259,2250,2241,2235,2229,2223,2218,2215,2212,2209,2207,2206,2204,2203,2201,2198,2195,2192,2188,2184,2181,2176,2173,2170,2166,2164,2162,2161,2160,2160,2161,2162,2162,2163,2165,2167,2169,2172,2174,2178,2181,2184,2187,2189,2190,2191,2192,2191,2191,2189,2188,2184,2182,2178,2173,2167,2161,2155,2148,2141,2134,2125,2117,2109,2100,2091,2083,2074,2066,2057,2049,2041,2036,2029,2022,2015,2009,2004,1997,1990,1984,1979,1974,1968,1963,1957,1952,1947,1941,1937,1932,1929,1925,1922,1920,1920,1920,1919,1920,1920,1921,1921,1922,1923,1924,1924,1925,1926,1927,1928,1928,1930,1931,1932,1932,1933,1934,1934,1933,1933,1933,1932,1931,1929,1927,1926,1925,1923,1922,1921,1919,1918,1916,1915,1915,1915,1914,1912,1910,1908,1907,1905,1903,1902,1901,1900,1899,1898,1896,1895,1894,1892,1890,1889,1887,1885,1883,1881,1878,1876,1873,1870,1867,1865,1864,1862,1861,1860,1860,1858,1857,1856,1856,1857,1860,1863,1869,1877,1886,1899,1915,1934,1955,1979,2007,2036,2067,2100,2135,2169,2205,2240,2276,2310,2344,2375,2404,2430,2454,2485,2504,2518,2527,2532,2534,2533,2530,2525,2518,2509,2499,2489,2477,2464,2452,2437,2423,2408,2393,2377,2362,2347,2332,2318,2303,2291,2280,2270,2261,2254,2249,2245,2241,2238,2236,2235,2234,2234,2233,2233,2232,2232,2233,2230,2228,2226,2223,2220,2217,2214,2210,2205,2202,2198,2194,2190,2185,2181,2176,2171,2166,2163,2160,2157,2156,2155,2153,2153,2151,2151,2148,2147,2145,2143,2140,2137,2135,2132,2131,2129,2126,2124,2120,2116,2112,2108,2105,2101,2096,2091,2084,2077,2071,2062,2053,2045,2037,2028,2019,2011,2003,1996,1988,1979,1973,1966,1959,1953,1947,1942,1937,1932,1928,1923,1920,1916,1913,1911,1908,1907,1906,1906,1905,1904,1904,1903,1902,1901,1901,1901,1901,1902,1903,1904,1905,1906,1908,1909,1909,1909,1909,1909,1910,1911,1911,1911,1913,1912,1912,1912,1911,1910,1910,1908,1907,1905,1903,1901,1899,1895,1891,1890,1887,1885,1883,1881,1880,1879,1877,1875,1874,1872,1870,1870,1868,1868,1868,1868,1868,1868,1869,1868,1868,1867,1866,1865,1863,1862,1860,1857,1855,1854,1850,1849,1846,1844,1843,1840,1839,1838,1838,1838,1839,1841,1841,1843,1844,1845,1845,1847,1847,1847,1848,1848,1849,1849,1848,1849,1850,1851,1853,1858,1865,1874,1887,1901,1920,1942,1966,1994,2025,2057,2093,2130,2168,2207,2246,2284,2321,2357,2390,2421,2449,2475,2498,2526,2545,2555,2564,2569,2572,2572,2570,2566,2560,2553,2543,2529,2516,2503,2490,2475,2460,2446,2432,2418,2406,2393,2381,2370,2359,2350,2341,2332,2324,2317,2313,2309,2305,2302,2300,2298,2298,2297,2299,2299,2299,2300,2299,2299,2296,2294,2290,2287,2281,2276,2271,2265,2259,2252,2246,2239,2234,2227,2221,2216,2210,2205,2201,2196,2193,2189,2185,2183,2180,2177,2175,2172,2169,2166,2164,2159,2156,2152,2148,2144,2139,2135,2130,2124,2119,2113,2108,2103,2098,2094,2089,2085,2080,2075,2070,2065,2060,2055,2051,2047,2042,2037,2032,2026,2019,2013,2006,2001,1993,1989,1983,1977,1971,1968,1962,1957,1953,1949,1944,1940,1936,1933,1930,1927,1925,1923,1923,1922,1921,1920,1920,1920,1920,1920,1920,1920,1919,1918,1917,1916,1914,1912,1911,1911,1911,1911,1912,1911,1910,1910,1910,1910,1908,1908,1907,1906,1906,1905,1905,1904,1904,1905,1904,1905,1906,1906,1905,1906,1904,1903,1902,1900,1898,1898,1895,1893,1891,1890,1888,1886,1884,1881,1878,1875,1872,1869,1866,1863,1859,1857,1854,1853,1852,1851,1851,1852,1852,1853,1853,1855,1854,1854,1854,1853,1853,1852,1852,1851,1851,1851,1851,1851,1850,1851,1851,1852,1854,1857,1862,1869,1878,1892,1908,1927,1951,1977,2006,2037,2071,2106,2143,2180,2218,2254,2290,2325,2359,2391,2420,2446,2469,2498,2518,2529,2538,2545,2548,2549,2547,2543,2536,2528,2517,2504,2490,2476,2461,2446,2431,2415,2399,2386,2372,2359,2347,2335,2324,2311,2301,2292,2284,2278,2271,2266,2262,2258,2256,2255,2255,2255,2256,2257,2257,2258,2258,2258,2257,2256,2253,2250,2247,2244,2240,2237,2232,2227,2223,2217,2213,2209,2204,2199,2195,2192,2187,2183,2179,2175,2171,2167,2163,2161,2157,2153,2151,2148,2145,2142,2138,2135,2132,2129,2128,2125,2122,2119,2114,2111,2106,2102,2096,2092,2087,2081,2075,2069,2064,2057,2052,2045,2040,2035,2030,2024,2018,2012,2006,1999,1992,1987,1982,1975,1969,1963,1957,1951,1945,1940,1935,1930,1925,1922,1919,1915,1914,1912,1912,1910,1909,1909,1909,1908,1907,1906,1905,1904,1904,1904,1904,1904,1906,1907,1908,1909,1910,1910,1910,1910,1909,1908,1907,1906,1905,1904,1904,1903,1902,1903,1902,1903,1904,1903,1905,1905,1905,1906,1906,1906,1906,1906,1906,1907,1905,1904,1903,1901,1899,1895,1891,1888,1883,1879,1874,1870,1866,1863,1859,1857,1854,1853,1851,1850,1850,1849,1850,1851,1852,1853,1854,1854,1855,1855,1854,1855,1853,1852,1851,1849,1847,1846,1844,1843,1842,1841,1840,1838,1838,1838,1839,1841,1847,1853,1862,1876,1893,1912,1935,1962,1991,2021,2055,2090,2126,2163,2200,2237,2273,2307,2341,2372,2400,2427,2451,2481,2501,2514,2523,2530,2533,2534,2533,2529,2523,2516,2506,2495,2482,2468,2455,2439,2425,2410,2396,2381,2367,2354,2340,2327,2314,2302,2291,2280,2272,2265,2258,2253,2250,2248,2246,2246,2246,2247,2247,2247,2247,2247,2247,2245,2242,2239,2236,2233,2229,2225,2220,2216,2211,2207,2203,2198,2194,2189,2185,2181,2178,2176,2172,2170,2168,2165,2163,2161,2159,2157,2155,2153,2151,2149,2148,2145,2143,2141,2138,2133,2129,2126,2122,2118,2114,2110,2105,2100,2095,2090,2085,2079,2073,2067,2060,2054,2049,2043,2039,2033,2028,2023,2018,2013,2008,2002,1997,1991,1984,1977,1972,1965,1959,1954,1949,1945,1941,1938,1934,1932,1929,1927,1924,1922,1922,1919,1917,1916,1916,1913,1913,1912,1913,1913,1912,1913,1914,1914,1915,1914,1914,1913,1911,1910,1908,1905,1904,1902,1901,1899,1899,1898,1898,1899,1899,1899,1899,1898,1897,1897,1895,1893,1890,1889,1885,1884,1881,1879,1879,1878,1877,1876,1876,1875,1875,1874,1873,1873,1872,1871,1870,1869,1866,1863,1862,1860,1859,1858,1857,1855,1854,1852,1851,1848,1845,1842,1840,1837,1836,1833,1831,1830,1827,1827,1827,1829,1832,1838,1846,1856,1869,1883,1901,1922,1946,1972,2000,2031,2062,2095,2128,2163,2198,2232,2265,2298,2327,2356,2383,2407,2437,2457,2469,2479,2487,2491,2492,2491,2489,2484,2477,2468,2458,2445,2430,2415,2399,2382,2367,2352,2336,2317,2302,2289,2275,2263,2251,2240,2231,2222,2215,2208,2203,2199,2194,2190,2188,2185,2182,2182,2181,2179,2178,2177,2176,2174,2172,2170,2169,2166,2164,2161,2158,2156,2153,2153,2151,2150,2151,2150,2150,2149,2148,2147,2146,2146,2146,2145,2146,2145,2146,2145,2145,2145,2143,2141,2139,2136,2134,2132,2128,2124,2121,2117,2112,2108,2104,2099,2095,2090,2084,2078,2073,2066,2058,2051,2043,2034,2027,2018,2010,2003,1996,1989,1982,1975,1969,1962,1956,1950,1945,1940,1935,1931,1927,1924,1922,1919,1917,1914,1912,1909,1907,1905,1903,1902,1900,1900,1900,1900,1901,1902,1906,1908,1910,1912,1914,1917,1918,1919,1920,1920,1920,1920,1920,1919,1919,1918,1918,1916,1916,1915,1915,1914,1913,1913,1911,1909,1908,1907,1905,1903,1901,1900,1899,1898,1898,1897,1897,1896,1894,1893,1892,1891,1889,1887,1886,1883,1881,1878,1875,1872,1869,1866,1864,1862,1860,1860,1860,1862,1865,1870,1878,1889,1903,1920,1940,1962,1986,2013,2041,2070,2101,2131,2162,2193,2221,2250,2277,2303,2327,2348,2375,2393,2405,2414,2421,2426,2428,2427,2425,2420,2414,2406,2396,2386,2374,2360,2346,2331,2316,2300,2284,2269,2253,2239,2224,2210,2197,2183,2170,2158,2147,2136,2127,2118,2110,2102,2096,2090,2086,2081,2076,2072,2069,2066,2063,2061,2060,2058,2058,2058,2058,2059,2061,2063,2066,2069,2073,2076,2080,2084,2089,2094,2099,2105,2111,2116,2122,2127,2131,2134,2137,2138,2139,2140,2140,2139,2138,2136,2133,2130,2125,2120,2114,2108,2102,2094,2087,2078,2071,2062,2055,2047,2039,2030,2023,2016,2008,2001,1994,1987,1981,1976,1969,1963,1956,1950,1943,1938,1931,1926,1921,1916,1913,1910,1907,1905,1902,1900,1899,1897,1897,1897,1897,1897,1898,1897,1897,1897,1897,1897,1896,1894,1894,1894,1894,1895,1895,1896,1897,1898,1900,1901,1903,1904,1906,1907,1907,1909,1909,1909,1910,1911,1912,1912,1913,1912,1912,1913,1912,1913,1913,1913,1912,1912,1912,1911,1909,1908,1905,1902,1899,1895,1891,1888,1885,1882,1879,1877,1874,1871,1868,1866,1862,1859,1856,1854,1854,1855,1857,1862,1868,1878,1890,1905,1924,1946,1971,1999,2029,2062,2095,2132,2168,2206,2242,2279,2313,2348,2380,2411,2438,2463,2494,2516,2529,2540,2547,2551,2553,2554,2550,2545,2538,2530,2520,2508,2496,2482,2467,2453,2436,2420,2404,2388,2373,2359,2347,2334,2323,2314,2305,2296,2290,2283,2277,2273,2269,2265,2263,2261,2261,2260,2258,2257,2256,2254,2251,2249,2246,2243,2240,2238,2234,2230,2226,2222,2218,2214,2210,2206,2202,2198,2195,2191,2187,2183,2180,2176,2173,2169,2165,2161,2158,2154,2150,2147,2145,2142,2139,2135,2133,2130,2128,2125,2122,2121,2117,2114,2111,2106,2101,2096,2091,2085,2078,2072,2065,2059,2053,2045,2038,2031,2023,2016,2009,2002,1995,1987,1980,1972,1965,1957,1951,1945,1940,1937,1933,1930,1927,1926,1925,1924,1923,1922,1921,1920,1918,1918,1917,1917,1917,1917,1916,1916,1915,1914,1913,1912,1911,1909,1907,1905,1905,1903,1903,1903,1903,1904,1906,1906,1907,1908,1909,1909,1909,1910,1910,1909,1909,1908,1908,1907,1908,1907,1906,1905,1904,1902,1900,1898,1896,1894,1892,1890,1887,1884,1881,1878,1875,1873,1871,1868,1866,1863,1860,1857,1853,1851,1848,1846,1844,1841,1840,1838,1837,1836,1837,1837,1837,1837,1838,1838,1838,1838,1838,1837,1836,1835,1833,1832,1830,1829,1829,1828,1832,1834,1839,1847,1856,1868,1884,1903,1927,1954,1985,2019,2056,2096,2136,2178,2219,2259,2300,2337,2373,2407,2437,2465,2488,2521,2539,2550,2559,2565,2569,2571,2571,2568,2562,2556,2546,2535,2522,2508,2493,2478,2463,2446,2430,2415,2398,2384,2370,2356,2344,2333,2323,2313,2306,2300,2295,2293,2290,2287,2286,2285,2284,2284,2284,2284,2284,2284,2283,2283,2282,2281,2278,2275,2272,2269,2265,2260,2256,2252,2247,2242,2236,2230,2225,2220,2214,2208,2202,2196,2189,2184,2178,2172,2167,2164,2158,2155,2152,2150,2147,2144,2142,2139,2137,2133,2130,2126,2123,2119,2115,2109,2105,2101,2096,2090,2084,2078,2072,2065,2059,2052,2044,2038,2030,2022,2014,2006,2000,1993,1987,1981,1975,1970,1964,1959,1955,1951,1946,1944,1941,1938,1936,1934,1931,1928,1927,1925,1922,1920,1920,1917,1915,1913,1911,1908,1906,1903,1900,1897,1895,1894,1892,1891,1891,1892,1892,1892,1893,1893,1894,1894,1894,1895,1896,1897,1897,1897,1898,1898,1899,1899,1898,1899,1898,1897,1895,1893,1891,1888,1887,1885,1883,1881,1880,1879,1879,1878,1878,1878,1878,1878,1878,1877,1877,1876,1876,1874,1873,1871,1867,1865,1863,1860,1857,1855,1852,1850,1849,1847,1846,1845,1844,1843,1844,1843,1843,1843,1844,1844,1844,1844,1845,1844,1844,1844,1844,1843,1842,1842,1840,1840,1838,1836,1834,1833,1832,1831,1830,1829,1827,1826,1826,1826,1828,1832,1836,1843,1852,1866,1880,1898,1919,1943,1970,2001,2033,2068,2105,2142,2181,2220,2257,2295,2331,2367,2399,2429,2457,2482,2513,2533,2546,2556,2562,2565,2566,2565,2560,2554,2546,2536,2523,2509,2494,2477,2460,2442,2425,2407,2391,2375,2359,2343,2328,2314,2301,2288,2277,2267,2257,2249,2241,2235,2230,2225,2221,2219,2216,2214,2214,2212,2210,2208,2206,2205,2202,2199,2197,2194,2190,2187,2184,2181,2178,2177,2175,2173,2172,2170,2170,2169,2168,2168,2168,2167,2167,2168,2168,2168,2169,2169,2169,2170,2171,2170,2170,2171,2170,2168,2167,2165,2162,2159,2154,2148,2142,2136,2129,2122,2115,2108,2099,2091,2083,2075,2069,2061,2054,2047,2041,2035,2029,2021,2015,2009,2002,1995,1989,1983,1976,1971,1965,1959,1953,1949,1945,1941,1938,1934,1932,1930,1929,1928,1928,1928,1929,1929,1929,1929,1929,1931,1931,1931,1933,1933,1935,1935,1935,1936,1936,1937,1936,1935,1934,1933,1931,1931,1929,1928,1926,1925,1925,1924,1923,1921,1920,1919,1917,1915,1913,1911,1910,1908,1906,1905,1903,1901,1900,1899,1898,1896,1895,1895,1894,1892,1892,1891,1890,1888,1887,1885,1884,1883,1881,1880,1878,1876,1873,1870,1867,1863,1862,1858,1855,1853,1850,1848,1846,1844,1842,1842,1841,1842,1845,1850,1857,1867,1880,1897,1917,1940,1966,1995,2026,2057,2090,2124,2160,2193,2227,2261,2294,2325,2354,2383,2409,2443,2467,2482,2495,2505,2512,2516,2516,2515,2511,2504,2496,2484,2473,2459,2444,2429,2414,2397,2380,2362,2346,2329,2311,2294,2278,2262,2249,2236,2224,2214,2206,2197,2191,2184,2179,2172,2167,2163,2157,2154,2149,2146,2143,2140,2138,2135,2132,2129,2127,2124,2121,2118,2116,2114,2112,2111,2109,2109,2109,2109,2111,2112,2116,2118,2122,2125,2128,2131,2134,2137,2139,2142,2143,2144,2145,2147,2146,2145,2144,2142,2140,2137,2134,2130,2125,2120,2113,2107,2100,2093,2084,2076,2068,2059,2051,2044,2036,2030,2024,2017,2012,2006,2000,1995,1989,1983,1977,1971,1964,1958,1952,1946,1941,1935,1931,1925,1922,1917,1914,1910,1908,1905,1903,1902,1900,1900,1900,1901,1902,1901,1903,1904,1906,1907,1907,1909,1910,1911,1911,1912,1911,1911,1911,1910,1910,1910,1909,1909,1908,1906,1906,1904,1902,1900,1898,1896,1894,1893,1892,1892,1890,1890,1891,1891,1892,1892,1892,1893,1892,1892,1892,1891,1889,1888,1887,1885,1883,1882,1880,1878,1876,1874,1873,1871,1868,1866,1863,1861,1858,1855,1853,1852,1849,1848,1845,1843,1841,1838,1837,1835,1835,1837,1841,1847,1856,1867,1883,1901,1923,1950,1980,2014,2049,2087,2127,2167,2208,2247,2286,2322,2358,2391,2422,2452,2478,2512,2535,2550,2561,2570,2577,2579,2580,2577,2573,2566,2558,2548,2536,2524,2510,2495,2480,2465,2448,2432,2417,2401,2385,2370,2355,2341,2328,2317,2306,2298,2291,2285,2281,2277,2274,2271,2269,2267,2266,2266,2264,2264,2263,2262,2260,2259,2257,2254,2250,2245,2241,2235,2229,2223,2217,2211,2205,2200,2194,2188,2184,2180,2175,2172,2169,2166,2163,2161,2159,2157,2156,2153,2152,2150,2149,2147,2147,2146,2145,2143,2141,2139,2136,2132,2128,2124,2118,2112,2108,2103,2096,2091,2083,2076,2069,2061,2053,2045,2038,2030,2023,2016,2008,2000,1993,1985,1978,1970,1963,1957,1951,1946,1941,1936,1932,1928,1924,1920,1918,1914,1912,1909,1907,1903,1901,1900,1898,1898,1898,1898,1899,1900,1902,1902,1903,1903,1903,1903,1903,1904,1904,1904,1904,1904,1905,1904,1904,1903,1903,1902,1901,1901,1899,1897,1895,1893,1891,1889,1886,1885,1883,1881,1879,1877,1876,1873,1872,1872,1871,1870,1869,1868,1868,1867,1866,1865,1864,1862,1860,1857,1854,1851,1848,1845,1842,1839,1838,1835,1834,1833,1832,1831,1830,1831,1830,1830,1829,1829,1828,1828,1827,1827,1825,1825,1825,1826,1826,1827,1828,1829,1829,1830,1831,1831,1831,1832,1833,1832,1831,1830,1828,1826,1824,1821,1818,1814,1811,1808,1806,1805,1804,1805,1809,1814,1823,1834,1849,1866,1887,1912,1941,1973,2008,2045,2085,2127,2168,2212,2254,2295,2336,2376,2412,2447,2477,2504,2540,2563,2579,2590,2598,2604,2605,2607,2604,2599,2593,2585,2575,2564,2552,2540,2527,2514,2500,2487,2473,2459,2446,2431,2417,2404,2391,2378,2367,2357,2349,2339,2333,2326,2321,2317,2313,2310,2307,2305,2304,2303,2303,2301,2300,2299,2297,2295,2293,2291,2289,2285,2283,2279,2274,2270,2266,2260,2254,2248,2242,2236,2228,2220,2212,2204,2197,2189,2183,2176,2170,2165,2160,2155,2151,2147,2144,2141,2139,2136,2135,2132,2129,2127,2123,2120,2116,2112,2108,2104,2099,2095,2092,2086,2081,2076,2072,2066,2060,2055,2049,2044,2038,2032,2026,2020,2014,2008,2002,1997,1991,1987,1982,1976,1973,1969,1964,1960,1956,1952,1949,1945,1941,1937,1933,1929,1925,1922,1919,1915,1913,1911,1908,1905,1903,1901,1899,1897,1895,1894,1893,1892,1892,1890,1889,1888,1887,1885,1884,1882,1881,1881,1881,1880,1880,1881,1881,1882,1882,1881,1881,1880,1878,1877,1876,1874,1873,1871,1869,1868,1865,1864,1862,1860,1858,1857,1855,1855,1853,1853,1852,1853,1854,1855,1856,1856,1858,1859,1859,1859,1857,1857,1854,1851,1848,1845,1841,1839,1836,1834,1833,1832,1831,1831,1830,1830,1829,1829,1828,1828,1828,1827,1826,1825,1823,1822,1820,1818,1816,1814,1813,1811,1810,1809,1807,1807,1805,1804,1801,1800,1798,1796,1796,1796,1797,1800,1804,1812,1824,1838,1858,1880,1906,1936,1968,2004,2042,2081,2121,2161,2202,2242,2281,2318,2355,2388,2419,2448,2474,2505,2526,2540,2551,2560,2566,2569,2570,2568,2565,2559,2551,2541,2531,2518,2505,2488,2472,2456,2439,2423,2407,2392,2377,2362,2348,2335,2323,2312,2301,2293,2284,2277,2272,2266,2262,2259,2257,2256,2255,2254,2254,2253,2252,2251,2249,2247,2244,2241,2238,2234,2230,2225,2220,2215,2209,2204,2200,2195,2190,2186,2182,2177,2174,2171,2167,2164,2162,2160,2159,2157,2156,2157,2155,2154,2153,2151,2149,2147,2144,2142,2139,2135,2132,2128,2124,2120,2114,2109,2104,2097,2091,2083,2077,2069,2064,2056,2049,2040,2033,2024,2015,2007,1998,1990,1982,1974,1967,1960,1954,1949,1943,1938,1933,1927,1923,1919,1916,1913,1911,1908,1906,1904,1902,1901,1899,1897,1897,1895,1895,1895,1895,1896,1896,1897,1898,1898,1899,1899,1901,1900,1902,1902,1903,1904,1903,1903,1903,1902,1901,1900,1899,1898,1896,1894,1893,1892,1891,1891,1891,1891,1890,1889,1889,1889,1888,1886,1885,1883,1881,1879,1878,1876,1874,1871,1869,1866,1863,1859,1857,1854,1852,1850,1848,1846,1845,1842,1840,1837,1836,1833,1833,1831,1830,1829,1828,1827,1827,1827,1826,1825,1826,1825,1824,1826,1826,1827,1827,1828,1828,1829,1829,1828,1827,1826,1825,1824,1824,1823,1822,1821,1822,1823,1824,1827,1832,1837,1845,1857,1872,1890,1911,1935,1963,1994,2026,2060,2096,2132,2169,2205,2241,2277,2311,2343,2373,2401,2427,2463,2484,2496,2507,2513,2518,2521,2520,2516,2510,2502,2491,2480,2468,2454,2439,2423,2407,2390,2372,2354,2336,2318,2300,2284,2268,2253,2238,2225,2212,2200,2189,2178,2169,2161,2153,2145,2138,2132,2126,2120,2115,2111,2107,2103,2100,2097,2095,2094,2092,2092,2091,2092,2092,2094,2095,2098,2100,2103,2105,2109,2112,2115,2119,2123,2126,2129,2133,2136,2139,2140,2142,2143,2145,2147,2149,2150,2152,2153,2154,2154,2153,2152,2149,2146,2141,2137,2132,2124,2117,2110,2103,2095,2087,2078,2070,2061,2054,2045,2036,2027,2018,2008,1999,1989,1980,1970,1961,1954,1946,1940,1935,1930,1925,1921,1919,1916,1914,1910,1908,1906,1903,1901,1898,1897,1894,1893,1892,1891,1889,1890,1890,1891,1892,1893,1894,1895,1896,1897,1898,1898,1898,1899,1899,1899,1901,1902,1904,1906,1907,1909,1911,1912,1914,1914,1916,1915,1916,1916,1916,1915,1914,1913,1910,1909,1906,1903,1900,1897,1893,1890,1888,1885,1882,1881,1879,1878,1876,1874,1873,1870,1869,1868,1867,1866,1865,1863,1860,1858,1856,1853,1852,1850,1849,1848,1847,1849,1851,1855,1862,1872,1884,1901,1920,1943,1969,1998,2029,2063,2097,2133,2170,2206,2242,2277,2311,2343,2372,2400,2426,2447,2475,2492,2503,2511,2517,2518,2520,2518,2514,2508,2500,2490,2478,2465,2449,2430,2414,2396,2380,2363,2347,2330,2315,2300,2285,2270,2257,2243,2231,2219,2209,2200,2191,2183,2175,2168,2161,2156,2149,2143,2136,2130,2123,2117,2110,2105,2099,2095,2091,2087,2085,2084,2083,2083,2083,2085,2088,2091,2095,2098,2103,2109,2113,2117,2123,2127,2132,2136,2140,2143,2146,2149,2153,2155,2157,2159,2160,2159,2159,2158,2156,2152,2148,2143,2138,2131,2123,2116,2108,2100,2092,2082,2075,2065,2055,2046,2037,2028,2021,2013,2005,1998,1991,1985,1977,1969,1960,1953,1945,1937,1930,1924,1917,1912,1907,1902,1898,1895,1892,1889,1886,1884,1883,1881,1880,1879,1880,1880,1881,1882,1883,1885,1885,1886,1887,1889,1889,1891,1892,1893,1895,1896,1897,1899,1901,1903,1904,1906,1906,1907,1907,1909,1909,1910,1910,1911,1910,1910,1909,1908,1908,1907,1906,1904,1902,1901,1899,1897,1896,1893,1891,1889,1886,1883,1881,1879,1877,1875,1874,1873,1872,1871,1870,1870,1869,1868,1867,1865,1865,1864,1862,1861,1859,1857,1855,1853,1851,1851,1851,1854,1856,1862,1871,1882,1896,1914,1936,1960,1988,2020,2054,2090,2129,2170,2210,2251,2291,2331,2368,2406,2440,2471,2500,2526,2557,2579,2591,2604,2610,2615,2615,2613,2609,2602,2592,2582,2570,2557,2542,2528,2512,2497,2480,2464,2448,2432,2416,2401,2387,2374,2363,2352,2342,2333,2325,2318,2311,2306,2301,2297,2294,2292,2291,2290,2289,2289,2288,2288,2288,2287,2287,2283,2282,2279,2274,2269,2265,2259,2253,2247,2241,2236,2230,2224,2219,2213,2209,2203,2198,2193,2189,2185,2181,2177,2173,2169,2166,2161,2158,2154,2151,2148,2145,2143,2140,2138,2136,2134,2133,2131,2128,2124,2121,2117,2113,2108,2102,2095,2087,2078,2070,2061,2052,2044,2035,2026,2018,2011,2003,1997,1990,1985,1978,1972,1968,1963,1959,1954,1951,1947,1944,1941,1938,1935,1933,1931,1929,1927,1924,1922,1920,1917,1915,1913,1911,1909,1909,1907,1906,1906,1907,1906,1907,1907,1907,1907,1908,1909,1909,1911,1911,1912,1912,1912,1912,1913,1912,1912,1910,1910,1909,1908,1906,1905,1903,1902,1900,1899,1896,1895,1894,1892,1890,1889,1887,1886,1884,1883,1883,1881,1880,1879,1878,1876,1874,1873,1870,1868,1865,1862,1860,1856,1853,1850,1848,1846,1844,1841,1841,1840,1839,1839,1839,1841,1841,1842,1843,1845,1846,1847,1850,1851,1852,1853,1852,1852,1851,1849,1847,1844,1842,1839,1837,1835,1835,1834,1835,1838,1842,1851,1861,1875,1893,1913,1938,1965,1996,2029,2066,2104,2144,2184,2226,2267,2307,2347,2385,2421,2454,2486,2514,2548,2571,2587,2599,2607,2612,2615,2614,2612,2607,2599,2589,2573,2559,2543,2528,2511,2494,2478,2462,2446,2430,2416,2402,2388,2375,2363,2352,2341,2332,2324,2317,2312,2307,2303,2302,2301,2302,2302,2304,2306,2307,2308,2308,2309,2308,2305,2303,2300,2296,2291,2286,2281,2276,2270,2263,2256,2250,2244,2238,2230,2224,2218,2212,2206,2199,2194,2189,2183,2178,2174,2171,2167,2165,2163,2162,2161,2158,2157,2156,2154,2152,2151,2148,2146,2141,2137,2132,2127,2120,2115,2110,2104,2098,2091,2084,2078,2071,2065,2059,2053,2046,2040,2034,2027,2021,2015,2009,2002,1997,1991,1985,1980,1974,1969,1964,1959,1954,1950,1945,1941,1937,1935,1934,1931,1930,1929,1928,1926,1925,1922,1920,1919,1917,1915,1914,1913,1913,1912,1912,1913,1914,1915,1916,1917,1919,1920,1921,1922,1923,1923,1924,1925,1924,1925,1925,1926,1925,1925,1925,1924,1923,1921,1920,1919,1918,1916,1915,1912,1910,1909,1906,1904,1903,1900,1898,1895,1892,1889,1887,1884,1881,1879,1876,1874,1872,1869,1869,1868,1867,1867,1867,1867,1867,1867,1868,1867,1868,1868,1868,1867,1866,1867,1865,1863,1862,1860,1859,1857,1855,1852,1851,1848,1846,1843,1841,1841,1838,1838,1840,1841,1845,1851,1858,1868,1880,1895,1913,1935,1959,1985,2014,2047,2079,2114,2149,2185,2221,2257,2291,2325,2357,2387,2414,2440,2473,2496,2510,2522,2531,2537,2539,2539,2537,2531,2524,2515,2504,2491,2478,2463,2448,2434,2418,2402,2386,2370,2355,2336,2322,2308,2295,2282,2270,2259,2249,2241,2233,2226,2218,2213,2208,2203,2198,2193,2189,2185,2181,2178,2175,2172,2169,2167,2165,2163,2161,2159,2157,2154,2153,2151,2149,2148,2147,2148,2148,2150,2151,2154,2155,2156,2157,2157,2159,2160,2161,2163,2164,2166,2168,2168,2167,2167,2165,2163,2160,2157,2152,2148,2143,2138,2132,2126,2120,2114,2108,2101,2096,2091,2084,2077,2069,2064,2056,2049,2040,2032,2025,2015,2007,1999,1991,1983,1976,1970,1964,1957,1951,1945,1938,1933,1927,1922,1918,1916,1913,1910,1909,1908,1907,1906,1906,1906,1905,1905,1906,1908,1910,1911,1912,1914,1916,1919,1921,1922,1923,1923,1923,1921,1920,1918,1916,1915,1914,1912,1911,1909,1909,1908,1907,1906,1907,1906,1905,1905,1904,1904,1903,1903,1903,1902,1902,1901,1900,1899,1897,1896,1894,1892,1889,1887,1885,1883,1881,1879,1876,1875,1873,1871,1869,1868,1866,1865,1865,1864,1862,1861,1860,1858,1857,1856,1855,1854,1855,1856,1858,1860,1866,1873,1882,1895,1912,1930,1953,1979,2009,2041,2077,2113,2151,2189,2226,2264,2301,2335,2369,2400,2430,2456,2481,2512,2532,2545,2555,2560,2563,2563,2559,2553,2545,2535,2525,2512,2499,2485,2470,2455,2440,2424,2409,2393,2378,2364,2351,2338,2327,2316,2305,2296,2288,2280,2273,2267,2260,2256,2251,2247,2243,2239,2236,2233,2232,2229,2228,2226,2224,2221,2219,2216,2212,2209,2205,2201,2196,2191,2187,2181,2176,2172,2168,2164,2161,2157,2153,2149,2146,2144,2139,2136,2134,2132,2131,2130,2129,2127,2125,2123,2122,2120,2118,2115,2112,2108,2104,2100,2096,2092,2087,2081,2075,2069,2063,2055,2048,2041,2032,2025,2016,2008,2000,1992,1984,1975,1967,1960,1953,1946,1939,1934,1930,1926,1923,1920,1917,1915,1913,1912,1910,1909,1907,1905,1903,1901,1898,1896,1893,1890,1888,1885,1883,1883,1882,1882,1883,1883,1884,1885,1886,1888,1888,1890,1891,1893,1894,1895,1896,1896,1897,1898,1898,1898,1897,1896,1895,1892,1890,1888,1887,1885,1883,1882,1880,1880,1878,1877,1876,1875,1874,1873,1872,1871,1871,1870,1869,1869,1869,1869,1869,1867,1866,1864,1863,1860,1858,1857,1855,1853,1853,1851,1851,1850,1851,1850,1850,1850,1849,1848,1848,1846,1846,1845,1843,1843,1843,1842,1842,1842,1842,1841,1841,1840,1841,1839,1838,1836,1834,1833,1829,1827,1825,1823,1821,1821,1821,1822,1825,1827,1832,1839,1849,1863,1879,1900,1924,1952,1984,2018,2055,2094,2134,2176,2218,2260,2302,2341,2378,2413,2445,2475,2502,2535,2558,2572,2583,2592,2597,2600,2600,2597,2593,2587,2578,2568,2557,2544,2530,2515,2500,2486,2470,2455,2441,2427,2413,2400,2388,2376,2365,2355,2345,2337,2330,2323,2318,2313,2310,2308,2306,2306,2306,2306,2307,2307,2307,2306,2304,2302,2300,2299,2295,2291,2287,2281,2274,2268,2262,2256,2249,2243,2237,2228,2221,2213,2207,2200,2194,2188,2182,2176,2171,2165,2160,2155,2150,2146,2141,2137,2134,2131,2129,2125,2121,2117,2114,2110,2107,2105,2101,2098,2095,2091,2087,2083,2077,2073,2066,2060,2054,2048,2041,2035,2029,2022,2014,2007,2000,1994,1988,1982,1975,1970,1964,1960,1954,1949,1944,1939,1934,1929,1926,1923,1920,1917,1915,1914,1912,1910,1910,1909,1909,1909,1909,1909,1909,1909,1911,1911,1911,1911,1911,1910,1909,1907,1905,1904,1903,1901,1901,1899,1899,1898,1897,1896,1895,1893,1891,1890,1889,1888,1888,1888,1888,1888,1889,1889,1890,1891,1891,1890,1889,1887,1886,1883,1880,1878,1873,1870,1866,1863,1860,1858,1856,1854,1853,1851,1851,1850,1849,1849,1849,1848,1848,1847,1847,1846,1845,1845,1844,1843,1841,1840,1840,1838,1836,1835,1834,1833,1832,1832,1831,1830,1829,1829,1828,1828,1829,1828,1827,1828,1827,1827,1829,1829,1830,1831,1832,1833,1834,1834,1834,1835,1834,1832,1831,1830,1829,1827,1827,1827,1827,1826,1827,1827,1828,1827,1827,1828,1829,1832,1836,1842,1850,1862,1876,1895,1917,1943,1972,2004,2040,2076,2115,2157,2196,2238,2278,2317,2355,2392,2427,2458,2487,2513,2547,2568,2582,2592,2601,2604,2606,2604,2600,2594,2586,2576,2564,2550,2534,2517,2500,2483,2466,2449,2432,2415,2398,2383,2367,2352,2339,2326,2315,2306,2295,2287,2279,2273,2267,2262,2257,2253,2250,2248,2246,2245,2245,2243,2242,2240,2239,2237,2235,2233,2231,2228,2227,2224,2221,2219,2216,2212,2209,2206,2203,2199,2197,2195,2192,2191,2189,2188,2187,2186,2185,2183,2182,2180,2179,2177,2174,2172,2170,2167,2164,2161,2158,2154,2150,2146,2142,2138,2133,2128,2122,2115,2110,2104,2097,2090,2083,2076,2069,2060,2052,2044,2036,2028,2019,2010,2002,1994,1987,1981,1975,1968,1962,1956,1950,1944,1940,1934,1931,1927,1924,1922,1921,1920,1919,1919,1918,1919,1918,1918,1918,1917,1918,1918,1918,1919,1918,1919,1919,1919,1920,1919,1920,1920,1920,1921,1921,1920,1921,1922,1923,1923,1923,1923,1923,1922,1921,1921,1920,1919,1917,1915,1913,1910,1907,1905,1904,1902,1901,1899,1898,1897,1896,1894,1893,1891,1890,1889,1889,1888,1887,1886,1885,1884,1883,1881,1880,1880,1879,1878,1877,1875,1873,1870,1868,1865,1863,1860,1857,1855,1854,1852,1851,1849,1848,1847,1846,1846,1846,1845,1844,1843,1842,1840,1840,1838,1838,1837,1838,1841,1844,1851,1860,1872,1888,1906,1929,1954,1982,2013,2048,2084,2120,2159,2198,2236,2274,2311,2346,2380,2411,2439,2463,2494,2516,2529,2540,2547,2550,2550,2549,2543,2535,2526,2514,2501,2486,2470,2454,2436,2419,2401,2382,2363,2346,2328,2311,2294,2279,2266,2252,2239,2229,2219,2209,2202,2193,2187,2181,2175,2170,2165,2161,2155,2151,2146,2142,2138,2132,2129,2126,2123,2120,2116,2114,2111,2109,2107,2106,2105,2105,2105,2105,2108,2109,2111,2114,2116,2119,2122,2125,2127,2130,2132,2133,2135,2135,2136,2137,2138,2136,2136,2134,2133,2130,2128,2124,2120,2116,2112,2106,2101,2095,2089,2083,2074,2066,2057,2049,2040,2031,2022,2013,2003,1994,1985,1975,1967,1957,1949,1941,1934,1926,1919,1914,1908,1903,1899,1895,1891,1888,1885,1884,1881,1880,1878,1877,1876,1874,1873,1872,1870,1870,1869,1870,1871,1872,1873,1875,1878,1880,1883,1886,1889,1891,1894,1897,1899,1902,1903,1904,1904,1904,1904,1903,1901,1900,1899,1897,1896,1894,1892,1890,1888,1886,1884,1881,1879,1878,1876,1874,1873,1872,1872,1871,1871,1871,1871,1871,1871,1871,1870,1869,1868,1866,1864,1861,1861,1858,1857,1857,1855,1854,1853,1853,1851,1850,1850,1849,1849,1849,1848,1847,1845,1843,1841,1840,1839,1838,1838,1836,1835,1835,1834,1833,1835,1836,1841,1847,1856,1868,1882,1900,1921,1947,1974,2005,2039,2076,2115,2155,2197,2238,2280,2321,2361,2399,2434,2467,2497,2523,2557,2579,2591,2601,2608,2611,2610,2608,2603,2596,2586,2573,2560,2545,2528,2511,2494,2474,2456,2437,2420,2402,2385,2370,2354,2340,2326,2313,2303,2292,2282,2274,2267,2260,2254,2250,2246,2243,2240,2238,2236,2236,2233,2233,2231,2230,2228,2227,2225,2222,2218,2215,2211,2207,2203,2199,2194,2190,2186,2183,2179,2175,2173,2170,2168,2164,2162,2158,2157,2154,2152,2150,2147,2144,2141,2139,2136,2135,2133,2131,2130,2128,2126,2124,2123,2120,2116,2114,2110,2105,2100,2095,2089,2082,2075,2069,2061,2054,2046,2039,2032,2024,2016,2008,2002,1994,1987,1980,1972,1965,1958,1952,1945,1939,1932,1927,1922,1917,1912,1908,1904,1900,1898,1894,1892,1890,1889,1890,1890,1889,1888,1887,1886,1886,1884,1884,1882,1882,1882,1881,1881,1882,1882,1882,1884,1884,1886,1887,1888,1890,1891,1891,1892,1892,1893,1893,1894,1895,1896,1896,1895,1894,1893,1891,1888,1885,1883,1880,1878,1875,1874,1871,1869,1868,1866,1865,1865,1864,1864,1863,1862,1860,1859,1858,1857,1855,1854,1851,1849,1847,1845,1841,1838,1836,1833,1832,1830,1828,1827,1827,1827,1828,1828,1830,1831,1832,1832,1831,1831,1829,1828,1827,1826,1825,1823,1823,1822,1822,1821,1821,1821,1821,1820,1820,1818,1816,1815,1812,1809,1807,1805,1803,1801,1798,1796,1795,1795,1796,1800,1806,1815,1829,1846,1865,1889,1917,1949,1983,2019,2059,2100,2144,2188,2232,2275,2319,2360,2400,2438,2473,2505,2535,2573,2601,2620,2635,2647,2656,2660,2662,2661,2657,2650,2641,2629,2617,2603,2587,2571,2553,2535,2516,2498,2480,2463,2446,2430,2412,2396,2380,2365,2351,2340,2329,2319,2310,2303,2297,2292,2289,2286,2284,2283,2282,2282,2281,2281,2281,2280,2279,2277,2275,2272,2268,2263,2257,2251,2245,2239,2233,2227,2222,2217,2214,2210,2207,2205,2203,2201,2199,2198,2197,2196,2193,2191,2187,2184,2181,2176,2172,2168,2163,2158,2154,2149,2142,2137,2130,2124,2119,2113,2108,2102,2098,2092,2087,2084,2079,2076,2072,2066,2060,2054,2047,2039,2030,2022,2014,2006,1999,1990,1982,1974,1966,1959,1952,1946,1939,1931,1925,1920,1914,1910,1906,1903,1901,1899,1898,1896,1895,1894,1893,1892,1891,1890,1890,1890,1890,1890,1891,1891,1891,1891,1892,1893,1894,1895,1895,1896,1896,1895,1895,1894,1893,1893,1892,1890,1889,1887,1887,1885,1884,1882,1880,1879,1878,1877,1876,1875,1874,1873,1872,1870,1868,1866,1864,1863,1862,1860,1859,1858,1856,1854,1852,1849,1848,1845,1844,1843,1842,1841,1840,1839,1837,1837,1836,1834,1834,1833,1832,1833,1832,1832,1831,1832,1831,1830,1829,1828,1827,1827,1826,1825,1823,1823,1822,1822,1822,1822,1822,1823,1824,1824,1824,1824,1823,1822,1821,1818,1816,1813,1810,1808,1806,1804,1803,1803,1803,1803,1805,1807,1813,1819,1829,1841,1857,1876,1899,1926,1957,1990,2028,2068,2109,2152,2195,2237,2280,2322,2362,2401,2438,2471,2501,2529,2565,2587,2601,2612,2619,2623,2623,2621,2616,2607,2597,2586,2573,2559,2543,2526,2508,2489,2470,2450,2429,2410,2389,2369,2350,2333,2316,2301,2286,2273,2261,2249,2239,2230,2221,2213,2207,2201,2196,2190,2184,2178,2173,2168,2163,2159,2156,2153,2151,2150,2148,2149,2148,2149,2150,2151,2153,2155,2157,2158,2161,2164,2167,2169,2171,2172,2175,2177,2179,2180,2182,2182,2183,2184,2184,2184,2183,2182,2181,2179,2177,2176,2174,2173,2169,2167,2164,2159,2153,2148,2141,2135,2128,2120,2113,2106,2097,2089,2081,2072,2062,2054,2044,2035,2025,2015,2005,1996,1987,1977,1968,1959,1951,1943,1935,1928,1922,1915,1908,1903,1898,1896,1893,1891,1889,1889,1889,1888,1889,1889,1890,1892,1893,1894,1895,1895,1896,1896,1896,1896,1896,1896,1897,1897,1899,1898,1900,1900,1902,1903,1905,1906,1906,1907,1908,1910,1910,1912,1912,1913,1913,1912,1911,1910,1909,1909,1908,1907,1905,1903,1902,1901,1900,1898,1897,1895,1894,1892,1890,1887,1884,1881,1879,1876,1874,1872,1870,1869,1869,1868,1868,1867,1867,1865,1864,1861,1858,1855,1851,1848,1845,1842,1839,1837,1836,1835,1836,1839,1843,1851,1860,1872,1888,1908,1931,1958,1988,2022,2057,2096,2135,2174,2215,2254,2294,2334,2371,2407,2440,2469,2496,2530,2553,2565,2575,2582,2586,2587,2586,2581,2574,2567,2558,2548,2536,2523,2509,2494,2480,2463,2446,2430,2412,2395,2378,2362,2344,2328,2311,2296,2281,2267,2255,2243,2233,2224,2217,2210,2206,2203,2200,2198,2196,2195,2195,2195,2193,2192,2191,2190,2189,2187,2184,2183,2180,2178,2176,2174,2172,2170,2169,2167,2166,2165,2164,2164,2164,2163,2162,2162,2161,2161,2161,2161,2161,2162,2162,2163,2163,2163,2163,2163,2161,2159,2156,2153,2149,2145,2140,2136,2129,2124,2118,2111,2104,2096,2087,2078,2068,2058,2048,2039,2029,2019,2010,2000,1991,1982,1974,1966,1959,1952,1946,1939,1933,1927,1921,1916,1911,1907,1903,1898,1895,1892,1888,1885,1883,1881,1879,1879,1878,1877,1877,1877,1878,1878,1878,1880,1882,1882,1883,1884,1883,1883,1883,1884,1884,1885,1885,1886,1887,1888,1889,1890,1891,1892,1893,1893,1895,1895,1897,1897,1898,1898,1898,1898,1898,1898,1897,1896,1895,1894,1891,1889,1886,1884,1880,1877,1873,1870,1866,1862,1859,1856,1853,1851,1848,1846,1845,1844,1842,1842,1841,1839,1838,1837,1835,1835,1833,1832,1832,1832,1831,1831,1831,1832,1832,1833,1833,1832,1833,1831,1830,1828,1828,1827,1828,1829,1832,1838,1845,1855,1869,1886,1905,1929,1955,1985,2018,2053,2092,2133,2175,2219,2263,2306,2348,2390,2430,2467,2501,2533,2561,2596,2621,2635,2647,2655,2661,2664,2663,2658,2653,2644,2633,2621,2606,2590,2573,2554,2535,2516,2495,2475,2454,2434,2414,2396,2379,2363,2348,2335,2324,2315,2307,2300,2294,2290,2285,2282,2279,2278,2276,2275,2275,2274,2274,2273,2272,2271,2270,2268,2265,2261,2258,2254,2249,2243,2238,2233,2227,2223,2218,2216,2212,2209,2205,2203,2202,2199,2196,2193,2190,2187,2185,2182,2180,2177,2174,2170,2167,2164,2159,2156,2153,2149,2143,2139,2135,2131,2127,2122,2118,2113,2108,2102,2096,2089,2081,2075,2067,2060,2053,2046,2039,2032,2023,2016,2011,2003,1997,1990,1985,1979,1973,1970,1965,1961,1957,1952,1947,1942,1936,1932,1927,1922,1918,1914,1911,1909,1907,1906,1906,1905,1905,1905,1905,1904,1904,1902,1901,1901,1899,1899,1898,1898,1898,1898,1899,1900,1900,1901,1900,1900,1899,1898,1898,1896,1894,1892,1891,1888,1887,1885,1884,1884,1884,1883,1884,1884,1885,1885,1885,1885,1885,1884,1884,1883,1882,1880,1879,1876,1874,1872,1871,1868,1867,1864,1862,1859,1858,1856,1855,1853,1851,1851,1851,1849,1848,1847,1846,1845,1844,1843,1843,1841,1840,1838,1837,1836,1835,1833,1833,1831,1830,1829,1828,1826,1824,1823,1820,1818,1816,1812,1810,1807,1806,1805,1803,1804,1806,1809,1816,1825,1838,1854,1873,1897,1924,1956,1990,2027,2068,2110,2154,2198,2242,2286,2328,2368,2406,2442,2475,2505,2532,2568,2591,2606,2617,2624,2629,2630,2629,2625,2617,2609,2598,2585,2571,2556,2539,2521,2502,2483,2464,2444,2425,2407,2389,2372,2357,2342,2327,2314,2302,2291,2280,2270,2263,2256,2251,2246,2242,2240,2237,2237,2235,2234,2233,2232,2231,2229,2227,2224,2222,2217,2214,2210,2207,2203,2200,2197,2194,2190,2187,2184,2179,2176,2173,2172,2171,2169,2169,2169,2168,2169,2168,2169,2168,2168,2168,2168,2167,2166,2164,2162,2160,2158,2155,2151,2148,2144,2140,2134,2128,2121,2114,2105,2098,2089,2079,2070,2060,2051,2042,2034,2026,2017,2010,2003,1995,1988,1981,1975,1968,1962,1956,1949,1944,1939,1934,1930,1926,1922,1919,1916,1913,1909,1907,1904,1902,1900,1898,1897,1895,1893,1892,1891,1891,1890,1890,1891,1891,1893,1894,1895,1896,1898,1900,1903,1906,1909,1912,1914,1917,1919,1922,1923,1925,1928,1928,1930,1931,1931,1930,1929,1928,1926,1925,1923,1921,1919,1916,1913,1911,1906,1902,1899,1895,1893,1891,1887,1885,1882,1881,1879,1876,1875,1874,1873,1872,1872,1872,1871,1871,1869,1869,1868,1867,1865,1863,1861,1858,1857,1854,1852,1850,1848,1846,1844,1842,1840,1837,1836,1834,1834,1833,1834,1835,1837,1840,1846,1854,1865,1880,1898,1919,1945,1972,2003,2035,2070,2106,2143,2180,2217,2255,2291,2327,2360,2392,2421,2448,2472,2502,2521,2533,2542,2546,2549,2547,2543,2538,2529,2518,2507,2492,2478,2462,2446,2429,2412,2394,2375,2357,2338,2320,2301,2284,2266,2250,2234,2220,2206,2193,2182,2171,2161,2152,2145,2139,2134,2129,2124,2120,2115,2111,2106,2101,2097,2095,2092,2089,2088,2087,2086,2087,2087,2088,2089,2092,2095,2100,2104,2108,2113,2118,2123,2128,2133,2139,2144,2149,2153,2158,2160,2162,2164,2165,2166,2167,2165,2165,2165,2161,2158,2154,2150,2144,2136,2130,2121,2112,2102,2092,2082,2073,2064,2055,2046,2038,2030,2022,2014,2006,1999,1991,1983,1975,1967,1960,1952,1945,1939,1932,1927,1922,1917,1913,1909,1906,1902,1900,1897,1894,1891,1889,1887,1886,1884,1884,1885,1886,1887,1888,1891,1892,1893,1895,1897,1897,1898,1899,1900,1900,1901,1901,1902,1902,1903,1903,1903,1904,1904,1904,1904,1904,1905,1904,1905,1905,1904,1904,1903,1902,1901,1900,1899,1899,1898,1898,1896,1895,1893,1891,1889,1887,1885,1883,1882,1881,1880,1879,1877,1875,1874,1873,1872,1870,1868,1867,1866,1864,1863,1863,1860,1860,1858,1856,1854,1851,1849,1845,1842,1840,1838,1837,1837,1838,1840,1843,1851,1858,1869,1883,1900,1921,1946,1974,2005,2038,2075,2114,2154,2196,2238,2279,2319,2359,2396,2431,2464,2494,2521,2555,2578,2593,2603,2610,2615,2617,2615,2612,2606,2598,2588,2576,2563,2548,2533,2517,2499,2481,2464,2446,2429,2412,2396,2380,2365,2350,2336,2323,2311,2300,2291,2282,2276,2270,2266,2262,2260,2259,2256,2256,2255,2252,2251,2250,2248,2245,2243,2239,2236,2230,2225,2220,2214,2209,2204,2199,2195,2191,2188,2185,2183,2180,2178,2176,2175,2172,2171,2169,2167,2166,2164,2163,2161,2161,2160,2158,2157,2154,2153,2151,2148,2143,2140,2135,2129,2124,2119,2113,2108,2102,2096,2089,2083,2076,2070,2062,2055,2047,2040,2032,2024,2017,2010,2003,1997,1989,1983,1977,1972,1967,1963,1957,1953,1948,1944,1939,1934,1929,1925,1920,1917,1913,1911,1909,1905,1904,1903,1901,1900,1900,1900,1901,1901,1901,1902,1902,1904,1905,1908,1909,1910,1911,1912,1912,1913,1912,1913,1912,1912,1912,1912,1912,1911,1912,1911,1910,1909,1907,1906,1904,1901,1900,1899,1898,1897,1896,1894,1894,1893,1892,1891,1889,1887,1885,1883,1882,1880,1879,1877,1875,1873,1871,1868,1866,1862,1860,1857,1854,1850,1848,1847,1844,1843,1843,1842,1840,1840,1839,1838,1838,1837,1837,1836,1836,1835,1835,1834,1832,1831,1830,1830,1829,1827,1826,1824,1823,1821,1820,1818,1817,1818,1818,1822,1828,1837,1849,1866,1884,1907,1934,1964,1996,2032,2070,2110,2151,2192,2234,2275,2317,2356,2394,2430,2463,2494,2521,2556,2579,2593,2605,2613,2618,2620,2619,2615,2609,2600,2591,2579,2566,2553,2539,2523,2507,2491,2475,2459,2442,2425,2409,2393,2378,2363,2350,2336,2325,2314,2306,2298,2292,2286,2282,2279,2275,2273,2271,2270,2268,2266,2264,2263,2262,2260,2258,2256,2254,2251,2250,2247,2243,2239,2234,2229,2225,2220,2215,2210,2205,2201,2195,2190,2186,2182,2178,2174,2170,2166,2163,2159,2156,2152,2149,2145,2141,2138,2134,2131,2127,2123,2120,2117,2113,2109,2106,2103,2100,2097,2092,2089,2085,2080,2075,2068,2062,2056,2048,2041,2033,2024,2017,2009,2000,1994,1986,1980,1974,1967,1961,1956,1952,1947,1944,1940,1938,1933,1931,1926,1923,1919,1915,1911,1908,1905,1903,1901,1900,1899,1899,1900,1900,1900,1901,1902,1902,1902,1902,1901,1901,1902,1904,1904,1906,1908,1909,1910,1911,1911,1911,1911,1911,1910,1909,1908,1907,1905,1905,1903,1902,1902,1901,1900,1899,1899,1897,1898,1896,1894,1891,1889,1886,1883,1879,1876,1874,1872,1870,1869,1868,1867,1866,1864,1863,1860,1859,1857,1855,1853,1850,1847,1845,1842,1840,1838,1836,1835,1834,1833,1833,1833,1834,1835,1834,1834,1834,1833,1832,1833,1831,1831,1829,1829,1829,1828,1828,1828,1828,1827,1827,1825,1825,1825,1825,1826,1828,1833,1840,1848,1860,1874,1892,1914,1938,1966,1996,2030,2065,2102,2140,2179,2218,2258,2296,2333,2369,2402,2433,2462,2487,2518,2539,2551,2560,2566,2568,2567,2564,2558,2550,2540,2529,2514,2500,2485,2469,2453,2436,2420,2403,2386,2369,2353,2336,2319,2304,2290,2278,2265,2253,2242,2233,2225,2217,2211,2205,2200,2195,2191,2187,2184,2181,2179,2177,2174,2173,2170,2168,2166,2163,2162,2159,2158,2156,2155,2153,2151,2150,2148,2147,2146,2147,2148,2149,2152,2155,2156,2158,2160,2161,2162,2162,2163,2164,2165,2165,2166,2166,2166,2166,2165,2164,2162,2159,2155,2151,2145,2138,2131,2123,2116,2108,2101,2094,2087,2080,2072,2064,2057,2050,2041,2033,2025,2016,2007,1999,1990,1983,1974,1967,1960,1954,1947,1942,1937,1933,1929,1925,1922,1919,1918,1915,1913,1912,1910,1910,1909,1907,1906,1906,1905,1904,1904,1903,1903,1904,1905,1907,1908,1910,1913,1915,1917,1918,1920,1921,1923,1924,1925,1926,1928,1930,1931,1932,1932,1931,1930,1928,1926,1923,1920,1917,1913,1911,1908,1906,1903,1901,1900,1899,1897,1897,1898,1899,1899,1901,1901,1901,1902,1903,1902,1902,1901,1899,1896,1893,1890,1885,1880,1875,1870,1865,1860,1855,1851,1847,1846,1842,1840,1838,1837,1835,1835,1835,1836,1838,1841,1846,1853,1863,1876,1893,1913,1937,1963,1994,2027,2062,2097,2134,2172,2210,2247,2284,2320,2354,2385,2415,2443,2466,2498,2520,2533,2543,2550,2555,2556,2555,2552,2546,2537,2529,2518,2505,2493,2478,2463,2447,2430,2413,2397,2380,2364,2347,2331,2316,2300,2286,2272,2259,2247,2236,2225,2217,2207,2201,2195,2190,2186,2184,2181,2179,2177,2175,2173,2172,2169,2168,2165,2163,2162,2159,2157,2155,2153,2151,2148,2147,2145,2144,2142,2141,2140,2140,2140,2141,2142,2143,2145,2146,2148,2149,2149,2150,2150,2148,2148,2146,2143,2141,2138,2136,2133,2129,2126,2122,2117,2112,2107,2101,2094,2088,2080,2072,2064,2054,2045,2035,2027,2018,2009,2000,1992,1983,1976,1968,1961,1954,1949,1943,1938,1933,1929,1924,1920,1917,1914,1911,1908,1906,1903,1901,1898,1896,1894,1892,1890,1888,1886,1884,1882,1881,1880,1878,1876,1875,1873,1873,1872,1871,1871,1872,1873,1874,1875,1877,1878,1881,1883,1885,1888,1891,1892,1893,1895,1896,1896,1897,1898,1897,1898,1897,1896,1894,1892,1890,1887,1884,1880,1877,1874,1872,1870,1869,1867,1866,1865,1865,1865,1865,1864,1864,1862,1863,1862,1862,1862,1862,1862,1862,1861,1861,1861,1861,1860,1859,1858,1855,1853,1849,1846,1842,1839,1836,1833,1831,1829,1827,1825,1823,1820,1818,1816,1814,1812,1812,1812,1813,1815,1818,1823,1829,1839,1852,1869,1889,1914,1942,1973,2007,2045,2082,2124,2166,2208,2251,2292,2333,2372,2411,2447,2480,2510,2537,2572,2594,2607,2618,2624,2627,2628,2626,2622,2614,2605,2594,2583,2569,2555,2540,2524,2508,2491,2473,2457,2440,2423,2407,2390,2375,2361,2347,2335,2323,2313,2305,2299,2294,2290,2287,2285,2283,2284,2282,2282,2282,2282,2283,2282,2282,2281,2279,2277,2275,2271,2266,2260,2254,2247,2242,2234,2228,2221,2215,2208,2202,2197,2192,2188,2184,2179,2176,2172,2169,2166,2164,2163,2162,2161,2160,2160,2158,2157,2156,2154,2151,2149,2145,2141,2137,2133,2126,2120,2113,2107,2100,2094,2085,2077,2070,2061,2055,2046,2039,2032,2024,2017,2011,2004,1996,1989,1981,1974,1966,1959,1953,1945,1939,1933,1928,1922,1918,1914,1911,1909,1906,1904,1900,1898,1895,1892,1889,1889,1886,1885,1884,1884,1884,1884,1885,1886,1886,1887,1887,1888,1888,1889,1889,1888,1889,1889,1889,1892,1893,1895,1897,1898,1899,1900,1901,1900,1900,1900,1898,1897,1894,1891,1889,1886,1883,1881,1880,1877,1876,1875,1873,1872,1872,1871,1872,1871,1871,1871,1871,1871,1871,1870,1869,1867,1865,1863,1860,1858,1856,1853,1849,1846,1843,1839,1836,1832,1830,1827,1825,1824,1823,1823,1824,1824,1825,1827,1828,1830,1831,1833,1834,1834,1834,1835,1836,1835,1834,1833,1833,1830,1828,1824,1822,1820,1818,1817,1817,1818,1820,1824,1832,1843,1858,1877,1899,1925,1955,1989,2025,2064,2104,2146,2190,2232,2275,2315,2354,2392,2426,2458,2488,2514,2546,2568,2580,2588,2593,2595,2594,2590,2585,2577,2568,2558,2546,2532,2519,2503,2488,2472,2456,2439,2422,2406,2390,2375,2360,2347,2336,2325,2314,2305,2296,2288,2283,2277,2272,2268,2264,2261,2259,2257,2254,2253,2250,2247,2244,2241,2237,2233,2229,2224,2220,2216,2211,2206,2201,2196,2191,2186,2182,2177,2173,2169,2166,2162,2159,2157,2154,2152,2151,2150,2149,2148,2148,2147,2147,2147,2147,2146,2145,2143,2140,2138,2135,2131,2127,2122,2118,2114,2108,2103,2098,2092,2086,2079,2072,2065,2058,2051,2044,2038,2032,2026,2019,2012,2005,1997,1990,1982,1975,1968,1960,1953,1946,1941,1934,1929,1924,1920,1915,1912,1908,1906,1903,1902,1901,1901,1902,1901,1902,1904,1906,1907,1909,1911,1912,1914,1915,1915,1916,1917,1917,1917,1917,1917,1916,1916,1914,1913,1912,1910,1908,1906,1904,1903,1901,1901,1899,1898,1897,1898,1897,1898,1897,1897,1896,1896,1894,1892,1891,1890,1889,1889,1888,1887,1886,1886,1885,1885,1885,1885,1884,1883,1882,1880,1879,1876,1874,1871,1869,1866,1864,1861,1858,1857,1855,1853,1852,1849,1848,1846,1845,1843,1842,1840,1840,1838,1838,1838,1837,1836,1835,1835,1834,1834,1833,1832,1832,1832,1832,1833,1835,1837,1840,1846,1853,1863,1875,1891,1911,1932,1957,1985,2017,2050,2087,2124,2164,2203,2241,2278,2316,2351,2384,2415,2444,2470,2493,2521,2539,2550,2559,2563,2565,2563,2558,2552,2542,2530,2517,2503,2488,2472,2455,2439,2421,2404,2386,2369,2352,2335,2318,2302,2286,2272,2258,2246,2233,2222,2212,2202,2194,2187,2180,2174,2168,2162,2156,2150,2145,2142,2137,2135,2131,2128,2125,2123,2121,2118,2116,2114,2114,2114,2115,2116,2117,2119,2122,2124,2128,2131,2135,2138,2143,2146,2149,2152,2155,2156,2159,2160,2161,2161,2161,2161,2159,2157,2155,2154,2151,2148,2144,2141,2137,2132,2125,2120,2112,2105,2097,2088,2080,2070,2060,2050,2041,2031,2022,2013,2004,1995,1987,1978,1971,1963,1955,1948,1942,1935,1930,1925,1920,1917,1913,1911,1908,1905,1902,1899,1897,1894,1892,1891,1891,1890,1890,1889,1888,1889,1890,1892,1893,1896,1899,1901,1903,1905,1906,1907,1907,1908,1907,1908,1909,1910,1911,1913,1914,1916,1918,1919,1920,1921,1921,1922,1922,1921,1920,1919,1917,1916,1914,1912,1910,1907,1904,1900,1897,1894,1890,1887,1884,1881,1877,1875,1872,1870,1868,1867,1867,1865,1864,1864,1863,1863,1862,1862,1862,1862,1861,1861,1860,1859,1858,1856,1854,1852,1849,1846,1841,1839,1836,1833,1831,1830,1828,1827,1825,1825,1826,1829,1835,1844,1856,1872,1891,1914,1940,1971,2005,2041,2080,2121,2163,2205,2247,2288,2329,2367,2405,2439,2471,2499,2524,2555,2576,2589,2598,2606,2609,2609,2607,2599,2591,2581,2568,2555,2538,2522,2504,2487,2469,2446,2428,2409,2391,2373,2356,2341,2324,2310,2296,2284,2273,2263,2254,2247,2240,2235,2230,2228,2225,2223,2222,2220,2219,2218,2216,2213,2210,2207,2203,2199,2195,2190,2187,2183,2180,2178,2175,2173,2171,2170,2168,2168,2166,2165,2164,2162,2161,2160,2160,2159,2159,2159,2159,2159,2159,2158,2157,2154,2152,2148,2145,2141,2138,2134,2131,2128,2124,2120,2117,2112,2109,2104,2101,2095,2091,2084,2078,2071,2064,2057,2050,2041,2032,2023,2015,2007,1998,1991,1983,1974,1967,1960,1952,1945,1939,1933,1926,1921,1916,1911,1909,1906,1904,1903,1902,1901,1900,1900,1898,1898,1897,1896,1895,1895,1894,1895,1894,1895,1895,1896,1897,1899,1900,1901,1902,1903,1903,1903,1903,1903,1904,1905,1904,1905,1904,1904,1903,1904,1903,1903,1902,1902,1902,1900,1899,1897,1897,1895,1893,1892,1891,1888,1887,1885,1883,1881,1879,1877,1875,1873,1871,1870,1868,1866,1865,1864,1862,1860,1860,1858,1858,1856,1855,1854,1853,1851,1848,1846,1845,1843,1842,1842,1843,1842,1841,1842,1841,1842,1842,1841,1842,1843,1843,1842,1842,1840,1839,1837,1836,1834,1833,1832,1830,1829,1830,1832,1834,1841,1850,1862,1878,1898,1922,1950,1981,2016,2054,2094,2135,2179,2223,2267,2311,2353,2394,2433,2470,2503,2533,2560,2592,2611,2623,2632,2636,2638,2637,2632,2626,2618,2609,2598,2585,2571,2556,2541,2524,2507,2490,2472,2454,2437,2419,2402,2386,2367,2354,2340,2329,2318,2309,2301,2294,2289,2285,2282,2278,2276,2275,2275,2275,2274,2275,2275,2276,2275,2275,2275,2273,2273,2271,2267,2263,2258,2252,2247,2241,2235,2230,2225,2219,2214,2209,2204,2200,2195,2192,2188,2184,2180,2176,2173,2170,2167,2163,2160,2157,2153,2150,2146,2143,2139,2136,2131,2127,2122,2119,2114,2109,2105,2101,2095,2090,2084,2078,2073,2066,2059,2052,2045,2038,2030,2023,2015,2008,2000,1994,1988,1980,1974,1968,1961,1957,1951,1945,1941,1937,1933,1930,1928,1926,1924,1922,1921,1919,1917,1914,1913,1912,1911,1910,1910,1910,1911,1911,1911,1911,1911,1911,1911,1909,1909,1909,1908,1906,1905,1903,1900,1899,1897,1896,1894,1893,1891,1891,1890,1889,1889,1889,1888,1888,1888,1887,1887,1886,1886,1885,1884,1884,1882,1882,1881,1879,1879,1879,1877,1877,1875,1873,1871,1869,1867,1865,1863,1862,1860,1858,1856,1855,1854,1851,1849,1848,1846,1844,1842,1840,1839,1837,1835,1834,1832,1831,1830,1829,1828,1828,1828,1828,1828,1827,1826,1826,1823,1821,1819,1818,1816,1814,1813,1811,1810,1808,1808,1807,1806,1806,1805,1806,1808,1811,1817,1825,1836,1851,1870,1892,1918,1947,1980,2016,2054,2093,2135,2176,2218,2259,2298,2336,2372,2406,2437,2466,2493,2527,2550,2565,2577,2586,2591,2594,2593,2589,2584,2576,2567,2555,2543,2529,2514,2496,2480,2462,2444,2426,2408,2389,2373,2356,2340,2324,2308,2296,2284,2273,2263,2254,2246,2240,2234,2229,2225,2221,2219,2218,2215,2213,2211,2209,2207,2206,2204,2201,2199,2196,2192,2190,2187,2184,2180,2177,2174,2171,2168,2166,2166,2165,2164,2163,2163,2161,2162,2162,2163,2164,2167,2169,2173,2178,2181,2184,2187,2190,2192,2193,2193,2192,2191,2189,2187,2183,2179,2175,2169,2164,2157,2151,2144,2137,2130,2123,2116,2107,2100,2091,2083,2075,2066,2058,2049,2040,2031,2023,2015,2008,2002,1996,1991,1986,1982,1977,1975,1971,1969,1967,1966,1965,1965,1965,1965,1965,1966,1967,1969,1970,1972,1973,1975,1975,1976,1977,1978,1978,1979,1980,1980,1981,1982,1983,1984,1986,1987,1988,1988,1989,1990,1989,1989,1988,1988,1988,1988,1990,1990,1991,1991,1990,1989,1988,1987,1987,1984,1982,1979,1976,1974,1971,1969,1967,1966,1965,1964,1964,1963,1963,1962,1960,1959,1957,1954,1952,1949,1945,1942,1939,1935,1931,1928,1924,1923,1922,1924,1927,1933,1941,1952,1966,1984,2004,2029,2054,2084,2115,2149,2184,2220,2257,2292,2328,2363,2396,2427,2457,2483,2507,2537,2558,2571,2582,2588,2591,2591,2589,2584,2576,2566,2556,2541,2527,2510,2493,2475,2455,2432,2413,2394,2377,2359,2341,2325,2309,2294,2280,2267,2254,2242,2231,2222,2212,2204,2198,2191,2185,2181,2176,2171,2166,2162,2156,2152,2146,2141,2136,2130,2125,2120,2113,2109,2103,2099,2095,2092,2087,2085,2082,2080,2079,2079,2080,2081,2082,2082,2085,2086,2088,2088,2089,2089,2090,2091,2092,2090,2091,2089,2089,2086,2085,2083,2080,2077,2073,2069,2063,2056,2050,2044,2038,2032,2026,2020,2015,2008,2002,1997,1991,1982,1975,1968,1961,1953,1946,1939,1931,1924,1918,1911,1904,1898,1892,1887,1881,1876,1871,1865,1861,1857,1853,1849,1847,1843,1842,1841,1840,1840,1840,1841,1842,1843,1843,1845,1845,1846,1848,1848,1850,1852,1853,1854,1855,1856,1857,1858,1859,1859,1860,1860,1860,1859,1859,1859,1860,1859,1858,1857,1856,1855,1854,1853,1853,1853,1852,1853,1853,1853,1854,1853,1852,1853,1851,1849,1848,1846,1844,1842,1839,1838,1835,1832,1829,1827,1825,1825,1824,1823,1824,1823,1823,1822,1822,1821,1820,1820,1820,1820,1820,1820,1819,1818,1816,1815,1813,1812,1812,1812,1814,1817,1823,1831,1844,1859,1878,1901,1927,1957,1991,2028,2066,2108,2150,2192,2235,2276,2316,2355,2391,2426,2457,2484,2509,2540,2560,2573,2583,2588,2592,2592,2590,2584,2578,2567,2556,2542,2527,2512,2495,2479,2461,2443,2426,2408,2392,2375,2360,2346,2332,2319,2308,2297,2285,2276,2266,2258,2250,2245,2240,2238,2236,2236,2236,2237,2238,2238,2238,2238,2236,2234,2232,2229,2226,2222,2218,2214,2210,2206,2202,2198,2193,2189,2184,2180,2176,2172,2168,2164,2160,2157,2153,2151,2148,2146,2143,2141,2139,2137,2135,2132,2130,2126,2125,2122,2118,2114,2110,2106,2102,2097,2092,2087,2082,2077,2072,2066,2061,2053,2047,2039,2032,2024,2016,2009,2001,1995,1988,1982,1977,1972,1966,1960,1955,1950,1946,1941,1935,1931,1926,1922,1918,1914,1909,1905,1901,1897,1894,1891,1889,1887,1887,1885,1885,1885,1885,1885,1885,1884,1883,1883,1881,1882,1882,1883,1883,1885,1886,1888,1889,1890,1891,1891,1892,1892,1891,1892,1891,1893,1893,1893,1894,1893,1892,1891,1891,1890,1888,1887,1885,1884,1882,1881,1878,1876,1875,1872,1868,1867,1864,1863,1862,1862,1861,1861,1861,1862,1861,1861,1861,1861,1860,1860,1859,1857,1855,1854,1852,1850,1849,1848,1846,1845,1843,1841,1838,1836,1832,1831,1827,1825,1822,1820,1819,1818,1818,1819,1822,1825,1829,1836,1845,1855,1869,1885,1905,1928,1953,1983,2015,2050,2087,2127,2166,2207,2247,2287,2326,2363,2396,2428,2457,2483,2505,2533,2551,2562,2569,2574,2576,2575,2572,2567,2561,2552,2541,2529,2515,2501,2486,2470,2454,2438,2421,2406,2389,2374,2360,2345,2333,2321,2311,2301,2293,2285,2279,2273,2268,2265,2262,2261,2261,2260,2260,2260,2261,2260,2259,2258,2257,2255,2252,2250,2245,2240,2234,2227,2221,2213,2206,2196,2190,2183,2176,2171,2165,2161,2156,2152,2146,2142,2137,2135,2131,2128,2124,2121,2119,2116,2115,2113,2112,2111,2110,2109,2109,2107,2105,2103,2100,2096,2093,2089,2085,2080,2074,2068,2062,2055,2048,2042,2034,2029,2020,2013,2006,1998,1990,1982,1973,1965,1957,1950,1943,1937,1931,1926,1922,1918,1914,1910,1908,1906,1904,1903,1904,1904,1905,1905,1906,1906,1907,1908,1908,1909,1909,1909,1911,1910,1911,1911,1910,1908,1906,1904,1902,1901,1900,1897,1897,1896,1896,1895,1895,1895,1893,1893,1891,1890,1888,1886,1885,1883,1882,1880,1879,1877,1876,1875,1875,1874,1873,1872,1870,1868,1866,1863,1861,1858,1855,1852,1849,1847,1845,1843,1842,1840,1839,1838,1836,1836,1835,1833,1832,1831,1828,1827,1825,1823,1821,1819,1817,1816,1815,1814,1816,1819,1823,1830,1840,1853,1869,1889,1912,1938,1968,2000,2035,2071,2108,2145,2184,2221,2256,2290,2322,2352,2378,2402,2422,2447,2462,2470,2475,2479,2479,2478,2474,2468,2460,2450,2439,2427,2414,2399,2385,2370,2353,2337,2322,2306,2290,2276,2262,2249,2239,2229,2221,2213,2206,2199,2195,2190,2186,2183,2181,2179,2177,2174,2173,2171,2169,2168,2166,2163,2160,2157,2152,2148,2143,2138,2134,2128,2121,2116,2111,2106,2101,2099,2096,2094,2092,2090,2089,2088,2089,2088,2089,2089,2088,2088,2088,2088,2086,2086,2084,2081,2079,2076,2073,2071,2068,2066,2064,2062,2057,2054,2049,2044,2039,2033,2028,2022,2014,2007,2000,1992,1984,1976,1968,1961,1954,1947,1940,1935,1928,1922,1916,1910,1905,1900,1895,1889,1885,1880,1876,1872,1869,1866,1864,1861,1858,1856,1854,1851,1848,1846,1844,1842,1841,1839,1839,1838,1838,1837,1838,1837,1838,1839,1841,1842,1843,1845,1847,1849,1851,1854,1856,1858,1859,1860,1863,1863,1864,1865,1865,1865,1864,1863,1862,1861,1858,1856,1854,1852,1851,1849,1847,1846,1845,1843,1841,1840,1837,1835,1834,1832,1830,1829,1827,1825,1823,1821,1819,1815,1813,1811,1809,1807,1805,1804,1805,1807,1811,1817,1826,1838,1853,1871,1892,1915,1941,1969,2000,2032,2065,2097,2131,2164,2197,2228,2257,2287,2312,2337,2369,2390,2405,2417,2426,2432,2436,2437,2438,2435,2431,2423,2415,2406,2394,2382,2369,2355,2340,2325,2310,2295,2280,2265,2251,2237,2225,2214,2203,2194,2186,2179,2173,2168,2164,2161,2158,2157,2155,2153,2151,2150,2148,2145,2143,2140,2137,2134,2130,2126,2122,2118,2115,2112,2109,2106,2103,2101,2099,2095,2093,2090,2087,2085,2082,2079,2077,2075,2073,2072,2070,2068,2068,2066,2066,2065,2065,2063,2062,2060,2058,2056,2053,2049,2045,2040,2034,2028,2022,2015,2009,2004,1997,1991,1986,1981,1976,1971,1967,1962,1958,1954,1949,1944,1939,1934,1929,1925,1920,1916,1912,1908,1905,1901,1897,1894,1890,1887,1884,1881,1879,1877,1876,1874,1872,1870,1869,1867,1865,1863,1862,1861,1860,1860,1860,1859,1860,1859,1859,1859,1859,1860,1860,1860,1862,1863,1864,1865,1866,1866,1867,1866,1867,1866,1865,1866,1865,1865,1864,1863,1862,1862,1862,1860,1860,1858,1858,1857,1855,1854,1852,1850,1849,1846,1843,1841,1839,1836,1834,1832,1831,1829,1827,1826,1824,1823,1823,1821,1821,1820,1820,1820,1819,1817,1816,1814,1813,1811,1810,1809,1806,1804,1802,1801,1801,1802,1804,1809,1815,1824,1837,1852,1872,1893,1919,1948,1979,2012,2047,2081,2118,2154,2191,2227,2261,2293,2323,2352,2378,2402,2431,2451,2463,2472,2479,2482,2484,2483,2480,2474,2466,2457,2446,2432,2417,2403,2386,2369,2352,2335,2317,2301,2285,2271,2257,2245,2232,2221,2212,2204,2196,2191,2185,2181,2177,2177,2174,2175,2175,2175,2176,2176,2177,2178,2177,2177,2175,2173,2171,2168,2164,2159,2154,2149,2143,2139,2132,2128,2123,2120,2116,2112,2109,2106,2103,2100,2098,2095,2094,2091,2089,2087,2086,2084,2082,2081,2080,2078,2076,2074,2072,2070,2066,2063,2060,2056,2053,2050,2045,2041,2037,2032,2028,2023,2018,2012,2005,2000,1992,1984,1977,1969,1962,1955,1949,1943,1937,1932,1927,1922,1917,1912,1908,1904,1899,1896,1893,1890,1888,1885,1883,1880,1877,1874,1872,1871,1869,1868,1865,1864,1863,1861,1859,1858,1856,1855,1855,1856,1857,1858,1860,1861,1863,1864,1866,1868,1870,1871,1873,1874,1875,1876,1876,1876,1876,1877,1877,1877,1878,1878,1878,1880,1879,1879,1878,1878,1877,1875,1873,1872,1870,1868,1865,1863,1861,1858,1855,1852,1851,1848,1847,1845,1843,1842,1840,1839,1838,1837,1837,1835,1834,1834,1833,1833,1832,1831,1830,1829,1828,1826,1825,1824,1822,1822,1821,1821,1820,1819,1818,1817,1816,1816,1814,1814,1814,1814,1813,1814,1815,1818,1821,1826,1833,1844,1858,1875,1894,1917,1944,1973,2004,2039,2074,2112,2148,2187,2224,2261,2297,2330,2362,2392,2418,2442,2473,2492,2503,2511,2514,2515,2513,2507,2500,2490,2479,2467,2453,2439,2423,2408,2391,2375,2359,2341,2325,2308,2293,2278,2264,2252,2239,2228,2217,2207,2198,2191,2184,2179,2175,2170,2166,2162,2159,2154,2152,2148,2144,2141,2138,2134,2132,2130,2127,2126,2124,2123,2121,2121,2120,2119,2118,2118,2117,2116,2116,2116,2116,2116,2118,2118,2120,2123,2125,2128,2132,2133,2135,2137,2138,2137,2138,2138,2136,2135,2134,2131,2129,2126,2122,2119,2114,2109,2104,2097,2091,2084,2076,2069,2060,2052,2044,2036,2029,2020,2012,2004,1996,1988,1979,1971,1964,1957,1950,1944,1937,1932,1927,1922,1919,1915,1912,1910,1908,1908,1907,1907,1906,1905,1905,1905,1905,1905,1905,1905,1905,1905,1904,1905,1906,1907,1908,1908,1909,1910,1910,1911,1910,1910,1910,1910,1909,1909,1909,1909,1909,1909,1909,1910,1910,1910,1911,1911,1909,1908,1906,1905,1903,1902,1900,1897,1895,1892,1890,1888,1885,1883,1881,1879,1878,1875,1874,1872,1871,1869,1868,1867,1866,1865,1863,1862,1861,1859,1858,1856,1854,1853,1851,1851,1849,1848,1847,1845,1843,1842,1841,1840,1840,1842,1846,1850,1857,1867,1879,1896,1916,1938,1964,1994,2025,2058,2094,2129,2166,2202,2238,2273,2307,2339,2370,2397,2422,2445,2472,2490,2499,2506,2509,2510,2509,2504,2498,2489,2478,2465,2451,2435,2419,2401,2384,2367,2349,2332,2316,2299,2284,2270,2257,2244,2231,2219,2208,2200,2191,2182,2175,2169,2163,2156,2151,2145,2140,2134,2130,2127,2124,2122,2119,2117,2115,2113,2111,2109,2108,2105,2105,2104,2104,2105,2106,2107,2109,2110,2113,2115,2117,2117,2119,2121,2123,2125,2127,2128,2130,2132,2132,2132,2131,2130,2128,2127,2125,2123,2121,2118,2116,2112,2107,2103,2099,2093,2087,2082,2075,2069,2062,2055,2048,2039,2030,2021,2013,2004,1995,1987,1978,1969,1962,1953,1945,1938,1932,1925,1919,1914,1909,1905,1902,1899,1897,1895,1895,1894,1893,1893,1893,1893,1893,1894,1893,1892,1893,1893,1893,1893,1894,1895,1897,1898,1898,1900,1900,1900,1900,1899,1899,1899,1898,1898,1898,1897,1897,1896,1895,1894,1894,1894,1894,1894,1893,1893,1893,1893,1892,1892,1891,1891,1889,1888,1887,1884,1882,1878,1875,1871,1867,1865,1861,1860,1858,1856,1855,1854,1853,1853,1851,1851,1851,1851,1852,1851,1851,1851,1851,1850,1849,1850,1848,1848,1848,1847,1846,1845,1845,1844,1843,1842,1841,1841,1839,1839,1840,1841,1845,1852,1863,1876,1893,1913,1938,1965,1997,2032,2070,2108,2148,2189,2230,2270,2310,2349,2385,2419,2451,2480,2506,2538,2559,2572,2581,2587,2589,2588,2583,2577,2568,2557,2545,2531,2517,2500,2485,2469,2452,2436,2420,2403,2387,2372,2358,2345,2333,2321,2311,2302,2292,2285,2278,2272,2267,2262,2257,2253,2250,2247,2244,2242,2240,2238,2236,2235,2233,2231,2229,2227,2225,2222,2220,2216,2212,2207,2203,2197,2192,2188,2183,2177,2173,2168,2165,2161,2157,2154,2152,2149,2147,2145,2143,2142,2138,2135,2132,2130,2127,2124,2121,2119,2115,2113,2110,2106,2103,2098,2094,2089,2083,2078,2073,2068,2063,2057,2051,2045,2038,2030,2022,2014,2006,1998,1991,1983,1975,1968,1961,1956,1950,1944,1939,1935,1931,1928,1925,1923,1919,1917,1915,1913,1911,1909,1907,1905,1901,1899,1897,1894,1893,1890,1889,1887,1887,1886,1886,1887,1887,1887,1888,1889,1889,1890,1890,1890,1889,1888,1888,1887,1887,1886,1886,1885,1886,1886,1887,1888,1889,1889,1890,1890,1890,1889,1889,1888,1887,1885,1883,1882,1880,1878,1875,1873,1870,1868,1867,1865,1863,1862,1862,1861,1859,1859,1858,1857,1856,1855,1855,1855,1855,1855,1857,1858,1859,1860,1860,1859,1859,1858,1858,1857,1856,1854,1852,1849,1847,1844,1841,1839,1836,1833,1830,1829,1828,1827,1830,1834,1839,1849,1860,1876,1895,1916,1941,1969,2001,2035,2072,2110,2150,2191,2232,2272,2312,2350,2386,2420,2451,2479,2505,2536,2557,2569,2578,2585,2589,2590,2589,2584,2579,2569,2559,2547,2533,2518,2502,2485,2467,2449,2432,2409,2391,2375,2359,2344,2330,2316,2304,2292,2282,2271,2262,2255,2248,2241,2235,2231,2227,2224,2222,2222,2221,2221,2221,2220,2219,2216,2213,2209,2204,2199,2194,2188,2183,2177,2172,2168,2165,2161,2158,2155,2154,2152,2150,2150,2149,2147,2147,2145,2144,2142,2140,2138,2135,2134,2132,2129,2125,2124,2121,2119,2117,2115,2111,2108,2105,2099,2095,2089,2083,2077,2071,2064,2058,2052,2045,2039,2031,2024,2018,2011,2005,1999,1992,1986,1980,1974,1968,1964,1957,1952,1948,1942,1938,1934,1931,1927,1925,1923,1921,1919,1918,1916,1915,1912,1911,1909,1907,1905,1903,1901,1899,1898,1896,1894,1893,1892,1893,1892,1892,1892,1892,1894,1895,1896,1897,1897,1896,1897,1897,1897,1898,1898,1899,1900,1901,1903,1904,1905,1907,1907,1908,1908,1908,1907,1906,1904,1903,1899,1895,1892,1889,1886,1884,1881,1879,1877,1875,1875,1874,1874,1874,1874,1874,1874,1873,1873,1872,1871,1870,1868,1867,1866,1863,1861,1858,1855,1852,1849,1847,1845,1843,1840,1839,1836,1834,1831,1829,1827,1825,1824,1823,1823,1823,1824,1827,1830,1836,1845,1854,1867,1885,1904,1928,1955,1985,2019,2053,2090,2128,2166,2205,2243,2280,2315,2350,2381,2410,2436,2460,2491,2512,2525,2536,2544,2549,2551,2550,2546,2541,2533,2522,2511,2497,2483,2467,2450,2432,2414,2396,2378,2362,2345,2329,2312,2298,2284,2271,2259,2248,2237,2227,2218,2210,2204,2198,2191,2187,2184,2181,2178,2175,2174,2171,2167,2165,2162,2158,2155,2152,2150,2147,2146,2143,2142,2141,2141,2140,2140,2140,2140,2141,2140,2142,2141,2142,2143,2144,2144,2145,2146,2146,2147,2147,2148,2147,2147,2146,2143,2139,2135,2130,2124,2117,2110,2103,2096,2089,2083,2075,2068,2061,2054,2047,2041,2033,2027,2021,2016,2010,2005,2000,1995,1988,1982,1977,1971,1965,1958,1952,1946,1939,1933,1928,1922,1916,1912,1907,1904,1901,1899,1898,1896,1896,1895,1895,1894,1893,1893,1892,1891,1889,1889,1888,1887,1887,1888,1889,1889,1890,1890,1892,1891,1892,1892,1892,1892,1892,1892,1892,1893,1893,1895,1896,1897,1899,1901,1903,1905,1905,1906,1906,1905,1904,1901,1899,1896,1893,1891,1887,1885,1882,1879,1877,1874,1871,1870,1868,1867,1865,1864,1863,1863,1862,1862,1862,1861,1861,1860,1859,1857,1856,1855,1854,1852,1851,1849,1847,1847,1846,1845,1844,1843,1841,1840,1839,1838,1838,1840,1842,1845,1850,1858,1867,1878,1893,1911,1931,1956,1983,2014,2046,2080,2117,2155,2195,2234,2272,2309,2346,2381,2413,2444,2472,2497,2529,2551,2565,2576,2583,2587,2587,2584,2579,2572,2563,2552,2540,2523,2509,2492,2476,2458,2439,2421,2401,2382,2362,2345,2328,2312,2296,2284,2272,2261,2252,2244,2239,2233,2229,2225,2222,2219,2218,2216,2214,2212,2211,2210,2209,2208,2208,2206,2204,2203,2201,2198,2196,2195,2192,2190,2187,2184,2181,2178,2176,2174,2172,2171,2170,2169,2168,2167,2165,2163,2162,2160,2158,2156,2154,2153,2151,2149,2149,2147,2145,2143,2141,2138,2133,2129,2123,2118,2112,2105,2098,2090,2082,2074,2065,2056,2049,2041,2032,2025,2019,2012,2007,2001,1995,1989,1983,1976,1969,1963,1955,1948,1943,1937,1931,1927,1923,1918,1915,1912,1908,1906,1903,1901,1898,1897,1894,1892,1890,1888,1886,1886,1885,1885,1885,1885,1886,1886,1887,1889,1891,1892,1895,1897,1900,1902,1904,1907,1909,1911,1912,1913,1913,1912,1912,1910,1910,1908,1906,1906,1904,1903,1902,1902,1900,1899,1899,1897,1896,1895,1894,1892,1890,1888,1887,1884,1883,1881,1880,1879,1876,1875,1873,1871,1869,1866,1864,1861,1859,1857,1856,1853,1851,1850,1848,1849,1848,1850,1852,1857,1861,1870,1879,1892,1908,1927,1950,1975,2004,2035,2070,2105,2143,2181,2219,2257,2294,2328,2362,2393,2421,2446,2469,2497,2515,2527,2536,2542,2546,2547,2546,2543,2538,2530,2520,2509,2495,2481,2465,2450,2432,2415,2398,2379,2361,2344,2327,2312,2297,2283,2270,2257,2244,2233,2223,2214,2205,2198,2192,2187,2183,2179,2177,2176,2175,2173,2173,2172,2170,2167,2164,2161,2157,2155,2151,2148,2145,2142,2141,2139,2138,2136,2135,2134,2133,2132,2131,2130,2130,2130,2131,2132,2134,2135,2137,2139,2140,2141,2141,2141,2139,2138,2134,2129,2123,2116,2110,2102,2095,2087,2079,2073,2065,2057,2050,2041,2032,2023,2015,2006,1999,1990,1983,1975,1968,1962,1957,1952,1947,1944,1941,1938,1935,1932,1930,1927,1924,1921,1919,1916,1913,1911,1910,1907,1906,1903,1901,1898,1897,