2081,2077,2075,2074,2072,2070,2069,2070,2068,2066,2066,2067,2065,2063,2062,2062,2060,2057,2054,2053,2051,2048,2045,2044,2044,2043,2042,2044,2047,2052,2054,2058,2065,2073,2079,2086,2095,2104,2112,2118,2127,2136,2143,2148,2153,2161,2165,2168,2169,2171,2170,2168,2167,2167,2165,2163,2160,2159,2156,2152,2149,2147,2145,2142,2137,2135,2134,2132,2128,2126,2125,2123,2120,2119,2117,2117,2115,2113,2112,2111,2109,2105,2104,2102,2099,2095,2093,2092,2089,2086,2084,2084,2084,2082,2081,2081,2082,2080,2077,2076,2075,2071,2066,2064,2061,2057,2054,2050,2049,2047,2046,2044,2046,2048,2047,2048,2050,2050,2050,2050,2051,2053,2053,2051,2051,2052,2051,2048,2047,2045,2045,2041,2039,2038,2036,2034,2031,2028,2028,2026,2021,2017,2016,2013,2009,2004,2001,1996,1991,1984,1980,1976,1972,1966,1962,1961,1958,1955,1953,1953,1954,1953,1953,1956,1959,1961,1961,1964,1966,1968,1967,1969,1972,1974,1976,1976,1979,1981,1982,1982,1983,1985,1984,1982,1981,1982,1982,1981,1981,1983,1985,1984,1986,1988,1991,1992,1993,1996,1999,2001,2000,2000,2001,2003,2002,2002,2004,2007,2006,2005,2005,2005,2004,2001,1998,1998,1997,1993,1991,1991,1991,1987,1986,1986,1987,1986,1986,1988,1990,1992,1995,1998,2004,2009,2013,2018,2025,2034,2040,2046,2055,2065,2072,2078,2086,2094,2100,2105,2111,2120,2126,2130,2136,2142,2146,2149,2152,2157,2160,2161,2162,2165,2164,2162,2160,2158,2157,2152,2147,2146,2144,2141,2138,2136,2135,2135,2134,2134,2137,2139,2139,2140,2142,2143,2142,2141,2141,2142,2139,2137,2135,2133,2130,2126,2122,2120,2117,2113,2108,2106,2103,2099,2095,2092,2091,2088,2083,2078,2076,2072,2066,2061,2057,2055,2049,2043,2040,2038,2033,2028,2025,2023,2019,2015,2013,2012,2010,2006,2003,2003,2003,2001,1998,1999,1999,1997,1995,1994,1995,1995,1993,1993,1995,1997,1997,1998,2000,2003,2004,2004,2006,2010,2012,2013,2015,2019,2022,2023,2024,2026,2027,2025,2023,2022,2021,2018,2012,2011,2009,2006,2002,2000,2001,2000,1998,1996,1997,1996,1995,1994,1993,1995,1994,1993,1994,1996,1995,1993,1992,1993,1993,1991,1990,1989,1990,1988,1988,1987,1990,1991,1992,1994,1999,2002,2003,2004,2008,2011,2012,2012,2014,2016,2017,2016,2017,2020,2020,2019,2019,2020,2020,2018,2018,2020,2021,2021,2021,2023,2024,2023,2023,2024,2026,2026,2025,2026,2028,2030,2029,2029,2029,2030,2029,2027,2029,2029,2029,2029,2031,2036,2040,2043,2048,2055,2060,2065,2071,2078,2085,2091,2097,2105,2114,2120,2125,2132,2139,2145,2151,2156,2159,2162,2161,2164,2167,2166,2166,2164,2163,2162,2157,2153,2151,2149,2146,2142,2140,2139,2137,2133,2130,2130,2128,2122,2119,2116,2112,2107,2103,2101,2098,2095,2092,2090,2089,2087,2084,2083,2082,2081,2077,2075,2074,2072,2069,2065,2064,2065,2063,2061,2060,2061,2061,2059,2058,2060,2060,2057,2058,2060,2061,2061,2060,2060,2062,2062,2060,2062,2063,2062,2060,2060,2061,2060,2060,2060,2061,2063,2062,2060,2061,2062,2061,2059,2058,2059,2056,2053,2051,2050,2049,2045,2043,2042,2041,2039,2037,2036,2036,2035,2032,2031,2031,2030,2028,2028,2029,2029,2027,2027,2028,2029,2029,2028,2030,2032,2033,2033,2034,2037,2038,2037,2035,2036,2036,2033,2030,2027,2026,2022,2018,2017,2017,2016,2014,2012,2012,2011,2009,2006,2006,2005,2002,1999,1999,2000,1999,1996,1996,1997,1997,1995,1993,1994,1995,1993,1993,1995,1999,2001,2001,2005,2007,2009,2009,2012,2014,2015,2015,2015,2016,2017,2017,2016,2017,2017,2016,2014,2014,2015,2016,2015,2018,2021,2025,2027,2031,2037,2043,2048,2054,2062,2070,2078,2085,2094,2103,2111,2117,2123,2130,2135,2137,2140,2144,2145,2143,2142,2142,2140,2135,2130,2128,2124,2119,2114,2110,2107,2102,2098,2096,2097,2096,2095,2095,2097,2097,2096,2097,2096,2097,2094,2093,2092,2090,2087,2084,2082,2081,2079,2075,2075,2075,2074,2072,2070,2071,2071,2069,2069,2070,2070,2069,2067,2069,2071,2073,2072,2074,2076,2077,2076,2075,2077,2076,2074,2072,2071,2071,2070,2067,2067,2068,2067,2064,2064,2065,2065,2062,2062,2063,2061,2058,2055,2055,2054,2052,2049,2049,2048,2047,2044,2041,2041,2038,2035,2031,2029,2027,2023,2019,2016,2014,2011,2006,2003,2002,1999,1996,1994,1994,1993,1991,1988,1988,1988,1987,1984,1985,1986,1987,1986,1987,1988,1989,1988,1988,1989,1991,1989,1989,1990,1991,1991,1990,1989,1990,1991,1988,1989,1991,1992,1991,1990,1991,1993,1992,1991,1992,1993,1993,1992,1993,1994,1994,1994,1994,1996,1997,1997,1997,1999,2001,2002,2000,2002,2004,2004,2003,2003,2006,2007,2007,2008,2013,2017,2020,2024,2032,2039,2046,2053,2061,2071,2078,2083,2090,2099,2105,2109,2112,2117,2120,2121,2121,2123,2121,2118,2114,2113,2110,2106,2102,2099,2097,2094,2091,2090,2089,2087,2086,2085,2085,2085,2084,2084,2084,2085,2081,2079,2078,2078,2075,2074,2073,2075,2074,2072,2072,2073,2072,2070,2067,2067,2066,2063,2060,2061,2061,2061,2059,2058,2060,2059,2057,2057,2058,2058,2055,2053,2054,2053,2052,2050,2050,2050,2050,2048,2048,2050,2050,2050,2050,2052,2054,2052,2053,2053,2056,2055,2054,2054,2055,2054,2052,2051,2051,2049,2047,2044,2044,2042,2040,2036,2034,2033,2031,2028,2028,2028,2028,2026,2027,2029,2030,2028,2028,2029,2030,2029,2027,2028,2027,2025,2024,2023,2025,2025,2025,2025,2026,2026,2024,2022,2021,2021,2019,2016,2016,2016,2015,2013,2012,2012,2011,2010,2008,2009,2009,2006,2006,2006,2008,2008,2006,2007,2008,2006,2005,2004,2005,2005,2002,2001,2001,2001,1999,1998,1996,1997,1996,1992,1993,1993,1993,1991,1992,1995,1997,1999,2003,2009,2015,2021,2027,2035,2044,2052,2060,2069,2078,2087,2094,2101,2108,2115,2119,2123,2130,2132,2133,2134,2137,2136,2135,2133,2133,2133,2130,2127,2125,2123,2119,2116,2113,2111,2108,2104,2100,2100,2097,2094,2091,2090,2087,2083,2079,2077,2076,2074,2072,2071,2071,2070,2068,2067,2067,2066,2064,2062,2063,2062,2061,2060,2062,2065,2066,2068,2070,2073,2074,2073,2072,2073,2072,2069,2067,2068,2066,2063,2061,2062,2062,2059,2058,2057,2057,2056,2055,2055,2057,2058,2058,2060,2063,2066,2066,2065,2066,2067,2066,2065,2064,2065,2064,2060,2059,2059,2057,2054,2052,2051,2052,2049,2048,2048,2049,2048,2047,2047,2048,2048,2046,2045,2044,2044,2041,2038,2037,2036,2033,2030,2028,2026,2023,2019,2017,2015,2013,2009,2006,2006,2005,2002,2000,2001,2002,2001,1999,2001,2003,2003,2003,2003,2005,2005,2004,2003,2003,2004,2002,2000,2000,1999,1997,1995,1992,1993,1993,1991,1991,1991,1993,1991,1991,1993,1996,1997,1997,1997,2000,1998,1997,1997,1998,1997,1994,1993,1994,1995,1994,1994,1997,2000,2001,2003,2007,2012,2017,2020,2027,2034,2041,2047,2052,2061,2067,2073,2077,2084,2091,2096,2100,2107,2113,2115,2118,2121,2125,2126,2127,2127,2129,2129,2127,2127,2129,2127,2125,2122,2122,2121,2117,2113,2113,2111,2107,2104,2103,2103,2103,2102,2102,2103,2103,2102,2102,2103,2103,2102,2100,2101,2102,2100,2099,2098,2099,2099,2096,2093,2093,2090,2086,2082,2079,2077,2073,2068,2066,2063,2060,2056,2054,2055,2053,2051,2050,2050,2051,2050,2050,2052,2053,2053,2052,2052,2053,2053,2052,2050,2051,2051,2048,2048,2048,2048,2046,2043,2044,2044,2043,2042,2043,2044,2045,2044,2044,2047,2048,2047,2047,2049,2051,2049,2048,2049,2050,2048,2046,2046,2047,2046,2045,2044,2044,2046,2044,2043,2044,2044,2042,2042,2042,2042,2042,2041,2041,2041,2041,2038,2038,2037,2037,2034,2032,2031,2032,2031,2030,2030,2031,2031,2029,2029,2030,2030,2030,2029,2031,2032,2030,2029,2028,2028,2026,2023,2021,2021,2019,2016,2013,2013,2010,2008,2006,2006,2005,2005,2005,2007,2008,2008,2008,2009,2010,2010,2010,2010,2012,2014,2014,2015,2017,2019,2019,2018,2021,2023,2022,2022,2023,2026,2028,2030,2032,2038,2042,2047,2054,2063,2073,2081,2090,2100,2111,2120,2127,2134,2142,2146,2148,2149,2150,2151,2147,2146,2144,2142,2138,2135,2132,2130,2125,2121,2119,2115,2112,2105,2103,2101,2098,2096,2093,2093,2091,2088,2087,2087,2087,2086,2085,2086,2086,2083,2081,2082,2082,2080,2078,2077,2078,2077,2076,2076,2078,2080,2080,2082,2085,2088,2089,2088,2088,2089,2086,2082,2081,2081,2078,2075,2073,2073,2073,2070,2069,2070,2070,2069,2067,2068,2069,2068,2069,2069,2072,2072,2070,2068,2068,2067,2064,2061,2062,2060,2058,2055,2053,2053,2050,2046,2044,2042,2041,2040,2038,2038,2039,2038,2036,2039,2040,2041,2040,2041,2042,2042,2041,2040,2041,2039,2036,2034,2033,2031,2029,2026,2025,2024,2022,2019,2018,2020,2019,2019,2019,2021,2023,2022,2021,2024,2026,2026,2025,2028,2029,2028,2025,2025,2026,2024,2021,2019,2018,2016,2014,2010,2009,2010,2007,2005,2003,2003,2001,1998,1997,1997,1997,1996,1996,1997,1999,1999,1999,2000,2003,2004,2005,2008,2012,2015,2017,2019,2025,2029,2033,2038,2045,2054,2061,2068,2076,2086,2093,2099,2104,2111,2116,2118,2121,2124,2125,2123,2122,2121,2118,2113,2111,2108,2107,2102,2099,2099,2097,2094,2092,2091,2090,2088,2085,2084,2085,2084,2082,2080,2081,2081,2079,2077,2076,2076,2074,2072,2071,2072,2071,2070,2069,2071,2072,2071,2072,2074,2074,2074,2073,2074,2075,2073,2070,2069,2069,2066,2063,2061,2061,2059,2056,2054,2054,2054,2053,2052,2054,2056,2056,2056,2057,2060,2062,2062,2064,2066,2068,2067,2067,2068,2067,2063,2059,2056,2054,2051,2046,2043,2043,2041,2039,2037,2037,2038,2035,2035,2036,2037,2036,2035,2037,2038,2037,2036,2035,2036,2035,2032,2031,2031,2029,2026,2024,2024,2024,2023,2022,2021,2022,2021,2020,2019,2020,2020,2018,2017,2018,2019,2018,2016,2018,2020,2020,2021,2020,2022,2021,2018,2018,2018,2017,2015,2014,2014,2014,2012,2009,2009,2009,2009,2008,2007,2009,2009,2008,2008,2008,2007,2004,2001,2000,1999,1996,1993,1993,1993,1993,1993,1995,1999,2002,2005,2008,2015,2021,2027,2032,2041,2048,2056,2061,2069,2076,2083,2087,2092,2096,2101,2104,2107,2112,2112,2113,2112,2112,2111,2108,2106,2105,2102,2100,2097,2096,2094,2092,2090,2089,2089,2089,2088,2088,2089,2089,2088,2087,2089,2088,2087,2087,2088,2090,2090,2089,2090,2092,2091,2090,2090,2089,2089,2087,2085,2086,2086,2084,2080,2081,2081,2080,2079,2079,2081,2080,2078,2078,2079,2079,2077,2077,2078,2078,2077,2077,2077,2077,2076,2074,2074,2074,2073,2071,2071,2072,2073,2072,2072,2074,2074,2072,2071,2072,2072,2072,2069,2069,2070,2068,2066,2064,2064,2063,2060,2058,2058,2057,2055,2053,2053,2053,2052,2050,2049,2050,2049,2045,2044,2046,2045,2042,2041,2041,2041,2040,2039,2039,2040,2039,2036,2035,2035,2033,2032,2030,2030,2031,2029,2028,2028,2029,2027,2026,2026,2028,2027,2026,2025,2026,2026,2026,2026,2027,2029,2028,2028,2028,2029,2028,2027,2026,2026,2024,2022,2021,2023,2023,2022,2021,2022,2023,2022,2020,2019,2021,2019,2018,2018,2019,2018,2017,2019,2022,2024,2025,2027,2031,2035,2036,2038,2043,2049,2054,2057,2064,2073,2080,2086,2094,2104,2113,2121,2129,2138,2147,2153,2159,2166,2173,2179,2185,2190,2194,2196,2198,2200,2201,2201,2200,2199,2199,2197,2194,2192,2190,2189,2183,2179,2176,2172,2167,2163,2161,2159,2157,2155,2155,2154,2153,2152,2150,2152,2152,2150,2149,2149,2150,2148,2146,2145,2145,2144,2141,2139,2138,2136,2132,2130,2129,2128,2125,2124,2122,2123,2122,2120,2118,2119,2117,2112,2110,2109,2107,2105,2103,2102,2101,2100,2098,2097,2096,2094,2091,2090,2090,2088,2085,2083,2083,2082,2079,2078,2076,2076,2073,2070,2069,2070,2068,2066,2065,2065,2064,2061,2058,2057,2056,2054,2053,2053,2054,2053,2052,2054,2055,2056,2056,2058,2061,2064,2065,2066,2071,2074,2076,2077,2079,2082,2082,2082,2083,2086,2086,2086,2087,2090,2091,2091,2091,2093,2094,2094,2094,2094,2096,2096,2096,2096,2099,2100,2098,2100,2103,2104,2105,2105,2108,2110,2110,2108,2108,2109,2106,2102,2100,2099,2096,2092,2089,2087,2085,2082,2081,2080,2080,2080,2077,2078,2079,2080,2079,2079,2081,2080,2080,2079,2081,2081,2080,2079,2079,2079,2077,2074,2074,2074,2074,2074,2074,2078,2081,2084,2086,2090,2095,2100,2104,2111,2119,2126,2131,2138,2146,2153,2157,2163,2169,2174,2176,2179,2183,2184,2184,2186,2187,2188,2186,2186,2187,2187,2184,2183,2182,2180,2176,2173,2172,2170,2167,2163,2160,2158,2155,2149,2147,2145,2143,2138,2135,2134,2133,2131,2130,2131,2132,2131,2129,2127,2126,2124,2121,2118,2119,2118,2116,2115,2116,2115,2114,2112,2110,2108,2105,2101,2097,2096,2093,2090,2088,2088,2088,2086,2084,2084,2085,2084,2084,2084,2086,2087,2088,2089,2093,2095,2095,2096,2098,2098,2098,2096,2096,2095,2094,2091,2090,2090,2090,2088,2086,2087,2087,2085,2082,2084,2084,2082,2080,2080,2080,2078,2076,2077,2077,2077,2076,2075,2076,2076,2075,2073,2072,2072,2069,2067,2067,2066,2066,2063,2064,2064,2064,2063,2063,2064,2065,2064,2063,2064,2065,2064,2063,2062,2063,2061,2058,2057,2057,2055,2053,2051,2052,2052,2050,2050,2050,2050,2050,2049,2049,2051,2050,2049,2049,2049,2050,2048,2047,2047,2048,2046,2043,2042,2041,2041,2037,2036,2035,2034,2032,2031,2032,2033,2032,2031,2033,2035,2035,2037,2040,2045,2048,2051,2056,2064,2071,2077,2083,2093,2100,2105,2112,2120,2129,2135,2140,2147,2153,2160,2163,2167,2171,2172,2171,2172,2173,2171,2169,2168,2168,2165,2163,2160,2160,2158,2153,2150,2148,2147,2144,2142,2140,2141,2140,2138,2137,2137,2136,2134,2132,2133,2132,2131,2128,2128,2128,2126,2123,2121,2120,2117,2112,2110,2110,2108,2105,2103,2103,2103,2103,2101,2102,2102,2102,2101,2101,2103,2103,2103,2103,2105,2106,2105,2105,2107,2107,2107,2105,2106,2107,2106,2104,2104,2104,2105,2102,2102,2101,2099,2096,2094,2093,2091,2089,2086,2085,2085,2084,2079,2078,2077,2075,2071,2069,2067,2066,2063,2061,2061,2061,2059,2057,2057,2057,2056,2054,2052,2052,2050,2047,2046,2045,2044,2042,2041,2041,2042,2041,2041,2041,2044,2044,2044,2045,2047,2048,2047,2045,2047,2046,2043,2041,2040,2039,2037,2034,2033,2034,2033,2031,2031,2031,2031,2031,2030,2032,2035,2035,2036,2036,2038,2038,2037,2039,2039,2039,2039,2039,2040,2042,2043,2047,2052,2059,2064,2071,2078,2087,2094,2101,2109,2117,2124,2129,2134,2140,2145,2149,2152,2159,2163,2164,2165,2168,2169,2168,2167,2166,2164,2161,2157,2155,2152,2148,2143,2141,2140,2139,2136,2135,2136,2136,2135,2136,2137,2140,2138,2137,2137,2136,2133,2128,2126,2124,2121,2116,2114,2113,2110,2108,2106,2106,2104,2103,2100,2101,2102,2101,2101,2101,2103,2102,2100,2099,2101,2099,2096,2093,2090,2090,2086,2083,2080,2080,2078,2076,2076,2076,2077,2077,2078,2080,2082,2081,2080,2081,2082,2079,2076,2075,2075,2073,2070,2070,2069,2069,2068,2067,2068,2068,2066,2065,2067,2066,2065,2063,2063,2064,2063,2060,2058,2058,2055,2054,2051,2051,2051,2049,2047,2047,2047,2045,2043,2043,2044,2042,2041,2041,2042,2042,2041,2041,2042,2042,2042,2041,2042,2043,2043,2042,2043,2043,2044,2041,2041,2041,2040,2037,2036,2036,2038,2036,2036,2037,2038,2036,2035,2035,2034,2034,2032,2031,2032,2031,2030,2028,2029,2029,2028,2026,2026,2028,2027,2026,2026,2026,2026,2023,2022,2021,2021,2020,2018,2021,2024,2026,2029,2033,2041,2047,2053,2061,2071,2079,2087,2095,2104,2113,2120,2125,2133,2139,2145,2147,2155,2160,2161,2162,2165,2167,2166,2165,2166,2167,2166,2164,2164,2165,2166,2164,2164,2164,2163,2161,2158,2156,2154,2151,2146,2145,2144,2142,2139,2136,2137,2135,2132,2130,2130,2128,2126,2125,2125,2126,2124,2121,2121,2121,2120,2118,2117,2117,2117,2115,2114,2115,2116,2115,2114,2115,2115,2114,2112,2112,2112,2112,2110,2110,2112,2113,2113,2112,2114,2115,2114,2113,2112,2112,2111,2109,2106,2107,2105,2101,2100,2099,2097,2094,2091,2089,2089,2086,2083,2083,2083,2082,2080,2081,2082,2082,2081,2080,2080,2080,2078,2076,2074,2072,2069,2066,2063,2062,2060,2057,2055,2055,2054,2052,2051,2051,2052,2052,2051,2053,2055,2055,2053,2053,2054,2054,2052,2050,2050,2049,2047,2044,2044,2044,2042,2040,2040,2039,2038,2036,2034,2036,2036,2035,2034,2035,2036,2037,2036,2038,2040,2041,2041,2044,2047,2049,2049,2049,2051,2051,2048,2046,2045,2044,2041,2038,2036,2037,2033,2030,2029,2028,2025,2023,2022,2023,2022,2022,2021,2023,2026,2028,2029,2031,2036,2038,2040,2044,2051,2055,2058,2064,2071,2078,2083,2089,2097,2106,2111,2118,2127,2136,2143,2150,2156,2165,2171,2176,2181,2184,2183,2183,2181,2180,2177,2173,2169,2168,2166,2162,2159,2158,2156,2154,2150,2148,2146,2144,2141,2140,2141,2138,2134,2131,2130,2127,2122,2118,2116,2114,2112,2109,2108,2107,2105,2103,2102,2103,2101,2100,2098,2098,2098,2097,2097,2097,2099,2098,2098,2098,2099,2100,2099,2099,2100,2101,2100,2099,2100,2100,2100,2097,2097,2096,2096,2093,2091,2090,2089,2087,2085,2084,2083,2081,2078,2077,2077,2074,2071,2071,2071,2068,2065,2063,2063,2062,2059,2058,2057,2057,2056,2053,2054,2055,2054,2053,2053,2053,2053,2051,2051,2052,2053,2050,2049,2050,2050,2048,2047,2047,2045,2043,2040,2037,2035,2033,2029,2027,2026,2025,2023,2021,2022,2022,2021,2021,2021,2023,2022,2020,2020,2022,2023,2022,2021,2022,2024,2023,2023,2024,2025,2024,2023,2023,2024,2024,2021,2021,2021,2020,2017,2017,2016,2015,2014,2012,2012,2012,2010,2008,2006,2004,2002,1998,1996,1995,1993,1989,1987,1987,1988,1987,1988,1990,1994,1996,1997,1998,2001,2003,2003,2005,2007,2008,2008,2007,2008,2010,2007,2006,2008,2010,2010,2012,2016,2023,2027,2033,2041,2049,2057,2064,2075,2085,2094,2101,2108,2117,2123,2128,2131,2136,2140,2142,2143,2145,2146,2146,2144,2143,2142,2139,2134,2130,2127,2123,2118,2113,2110,2108,2104,2099,2097,2097,2094,2092,2092,2093,2091,2089,2088,2087,2084,2081,2079,2079,2077,2077,2075,2076,2078,2077,2077,2078,2079,2080,2079,2079,2082,2082,2081,2081,2083,2084,2083,2083,2085,2086,2086,2084,2085,2085,2084,2081,2080,2081,2082,2080,2079,2080,2080,2078,2075,2075,2075,2074,2072,2071,2070,2069,2067,2065,2065,2063,2061,2059,2058,2057,2056,2054,2054,2054,2053,2051,2049,2051,2050,2049,2047,2048,2048,2047,2046,2047,2048,2046,2045,2045,2045,2044,2041,2041,2039,2038,2034,2030,2030,2029,2026,2023,2022,2022,2020,2018,2017,2017,2018,2015,2014,2015,2015,2014,2014,2015,2016,2017,2017,2019,2022,2023,2023,2025,2028,2027,2026,2024,2025,2025,2023,2021,2021,2022,2020,2017,2016,2016,2015,2013,2012,2013,2012,2012,2011,2014,2015,2015,2014,2016,2017,2016,2014,2014,2014,2014,2010,2008,2006,2004,2000,1998,1996,1994,1993,1991,1990,1990,1989,1987,1986,1989,1990,1991,1993,1997,2001,2004,2008,2015,2021,2028,2035,2044,2053,2063,2071,2080,2091,2101,2108,2114,2122,2129,2133,2137,2147,2151,2153,2154,2156,2155,2151,2147,2144,2140,2134,2128,2125,2122,2118,2113,2111,2110,2109,2107,2104,2105,2104,2102,2101,2102,2103,2101,2101,2101,2104,2104,2104,2104,2107,2108,2106,2104,2105,2105,2101,2100,2100,2099,2099,2097,2097,2097,2095,2093,2091,2091,2088,2085,2080,2078,2076,2073,2070,2069,2069,2068,2065,2064,2065,2064,2062,2060,2060,2061,2059,2058,2058,2060,2058,2057,2057,2057,2055,2053,2051,2051,2050,2047,2044,2045,2045,2044,2043,2043,2044,2043,2041,2041,2041,2040,2037,2035,2035,2033,2030,2027,2026,2024,2022,2020,2020,2020,2018,2017,2017,2018,2019,2017,2017,2018,2018,2018,2016,2018,2018,2016,2015,2014,2015,2013,2012,2010,2010,2010,2007,2005,2005,2005,2004,2004,2006,2008,2009,2009,2011,2013,2014,2015,2017,2018,2019,2018,2017,2017,2016,2014,2011,2011,2011,2009,2007,2008,2009,2009,2008,2010,2012,2013,2012,2011,2012,2013,2011,2010,2010,2009,2007,2003,2002,2001,1998,1995,1993,1993,1992,1991,1989,1989,1990,1989,1988,1988,1988,1987,1987,1988,1990,1993,1994,1998,2004,2010,2016,2022,2030,2039,2046,2053,2061,2069,2077,2082,2090,2097,2105,2111,2118,2128,2134,2138,2143,2147,2150,2151,2151,2153,2151,2148,2145,2144,2141,2136,2132,2130,2128,2123,2118,2116,2114,2109,2105,2102,2101,2099,2096,2094,2096,2096,2094,2093,2093,2092,2092,2089,2088,2090,2088,2087,2087,2087,2088,2086,2086,2087,2087,2087,2086,2086,2087,2086,2084,2084,2085,2083,2080,2078,2079,2077,2074,2070,2069,2068,2064,2060,2059,2058,2055,2054,2053,2054,2055,2053,2053,2054,2055,2053,2053,2054,2055,2051,2049,2049,2049,2047,2045,2043,2044,2043,2042,2042,2042,2044,2043,2043,2043,2045,2044,2042,2042,2044,2043,2041,2040,2041,2041,2039,2037,2037,2036,2033,2031,2029,2030,2027,2024,2022,2023,2021,2019,2020,2022,2023,2023,2022,2024,2026,2026,2026,2028,2030,2030,2027,2027,2027,2026,2023,2021,2021,2020,2017,2016,2015,2016,2016,2015,2016,2017,2018,2016,2017,2020,2019,2018,2017,2017,2017,2015,2012,2011,2010,2008,2005,2005,2006,2005,2003,2002,2003,2005,2004,2005,2008,2010,2010,2011,2013,2016,2016,2015,2016,2018,2019,2018,2018,2020,2020,2018,2018,2019,2021,2020,2020,2022,2026,2029,2032,2036,2042,2050,2056,2064,2074,2084,2093,2102,2111,2121,2128,2134,2140,2147,2152,2154,2158,2164,2165,2164,2165,2165,2163,2160,2158,2157,2154,2148,2144,2141,2138,2134,2131,2128,2126,2123,2119,2118,2116,2113,2110,2107,2107,2104,2101,2100,2101,2101,2100,2098,2098,2099,2098,2096,2097,2099,2099,2098,2099,2102,2102,2102,2102,2104,2104,2101,2098,2098,2096,2093,2090,2089,2088,2086,2084,2083,2085,2086,2085,2086,2088,2088,2088,2087,2089,2090,2088,2087,2088,2089,2088,2087,2085,2086,2084,2079,2078,2077,2076,2073,2070,2070,2068,2064,2060,2057,2056,2055,2051,2050,2050,2050,2048,2047,2047,2047,2046,2044,2044,2044,2041,2039,2037,2036,2033,2030,2030,2030,2030,2029,2029,2031,2034,2034,2035,2038,2041,2043,2043,2045,2047,2048,2046,2045,2047,2047,2045,2043,2043,2041,2039,2035,2034,2032,2030,2026,2025,2026,2026,2025,2024,2027,2029,2028,2029,2031,2034,2033,2032,2035,2036,2037,2034,2033,2033,2031,2028,2025,2026,2026,2022,2020,2019,2018,2016,2012,2011,2011,2010,2008,2007,2010,2012,2013,2014,2019,2021,2023,2024,2028,2031,2033,2034,2038,2042,2046,2048,2054,2061,2067,2073,2078,2087,2094,2101,2107,2116,2124,2132,2136,2143,2149,2154,2156,2158,2161,2161,2159,2158,2158,2155,2151,2150,2149,2146,2143,2140,2139,2137,2134,2130,2129,2128,2126,2124,2125,2126,2126,2125,2125,2125,2125,2123,2121,2121,2121,2118,2115,2114,2112,2109,2104,2102,2101,2098,2094,2089,2089,2087,2083,2081,2082,2082,2083,2081,2081,2082,2081,2078,2076,2075,2074,2070,2067,2066,2064,2061,2058,2058,2059,2058,2057,2058,2061,2062,2063,2065,2068,2071,2072,2073,2075,2077,2076,2075,2076,2075,2073,2066,2065,2062,2057,2054,2052,2050,2047,2044,2043,2042,2040,2037,2035,2036,2035,2033,2032,2033,2032,2031,2031,2031,2031,2029,2028,2028,2028,2025,2022,2021,2021,2017,2014,2012,2013,2012,2009,2008,2008,2008,2006,2007,2009,2012,2012,2012,2014,2017,2015,2014,2011,2011,2009,2005,2002,2002,2000,1997,1995,1996,1998,1997,1996,1998,2000,2001,2000,2001,2004,2005,2004,2004,2007,2007,2007,2005,2006,2006,2004,2000,2000,1998,1995,1992,1988,1985,1982,1979,1976,1976,1976,1975,1974,1977,1981,1982,1983,1988,1993,1997,1999,2002,2005,2008,2009,2009,2013,2016,2018,2024,2033,2040,2045,2054,2065,2074,2082,2092,2102,2111,2120,2127,2135,2141,2144,2146,2147,2148,2147,2144,2142,2141,2137,2132,2129,2127,2124,2119,2114,2112,2110,2106,2103,2104,2105,2104,2103,2104,2106,2107,2107,2108,2111,2113,2111,2111,2111,2110,2106,2101,2098,2094,2088,2083,2079,2079,2076,2073,2072,2072,2072,2071,2070,2072,2073,2073,2074,2076,2080,2081,2082,2082,2085,2086,2083,2082,2083,2083,2079,2076,2074,2073,2069,2065,2062,2061,2059,2056,2056,2057,2057,2058,2059,2062,2065,2065,2067,2068,2069,2067,2065,2062,2059,2056,2049,2045,2042,2040,2036,2033,2034,2034,2033,2032,2034,2036,2037,2036,2037,2039,2039,2038,2036,2036,2036,2034,2030,2029,2027,2024,2020,2016,2014,2011,2007,2005,2006,2006,2004,2005,2006,2007,2006,2006,2009,2012,2013,2015,2018,2021,2024,2025,2026,2030,2030,2028,2027,2026,2026,2022,2018,2017,2016,2013,2010,2010,2012,2013,2014,2015,2019,2022,2023,2025,2026,2029,2028,2026,2026,2027,2024,2021,2018,2015,2010,2006,2003,2001,1999,1995,1995,1995,1994,1994,1995,1999,2001,2003,2004,2008,2011,2012,2014,2016,2020,2022,2024,2027,2033,2037,2041,2045,2052,2059,2064,2071,2079,2088,2095,2102,2110,2120,2128,2136,2145,2154,2162,2166,2171,2177,2180,2179,2178,2178,2175,2169,2163,2157,2152,2146,2137,2131,2127,2123,2119,2115,2113,2111,2108,2106,2107,2109,2110,2110,2112,2116,2118,2117,2118,2120,2122,2120,2119,2119,2119,2112,2108,2105,2100,2095,2091,2087,2082,2077,2073,2071,2069,2065,2064,2064,2064,2064,2063,2066,2069,2070,2070,2071,2072,2071,2067,2067,2066,2063,2060,2058,2057,2056,2055,2053,2054,2055,2055,2055,2056,2059,2060,2060,2060,2063,2065,2062,2060,2059,2057,2054,2050,2046,2044,2039,2033,2028,2025,2020,2016,2011,2011,2009,2007,2005,2005,2004,2002,2000,1999,2000,2000,1998,1999,2001,2002,2001,2001,2002,2002,2000,1998,1998,1998,1996,1994,1994,1995,1995,1994,1994,1996,1997,1997,1995,1996,1997,1995,1993,1994,1994,1994,1991,1990,1989,1988,1984,1982,1983,1982,1980,1980,1980,1981,1981,1980,1981,1984,1983,1983,1982,1983,1983,1981,1980,1981,1981,1978,1975,1974,1973,1969,1963,1959,1956,1953,1947,1944,1942,1941,1938,1936,1935,1937,1936,1936,1938,1938,1940,1938,1940,1943,1945,1945,1947,1951,1953,1954,1955,1962,1966,1969,1974,1982,1987,1993,1999,2008,2017,2025,2034,2044,2055,2063,2069,2076,2084,2088,2091,2094,2097,2097,2096,2094,2093,2092,2089,2086,2084,2082,2079,2074,2072,2070,2067,2062,2060,2058,2057,2054,2052,2052,2052,2049,2048,2048,2050,2050,2048,2048,2048,2047,2045,2044,2045,2046,2045,2045,2047,2049,2049,2049,2051,2053,2054,2054,2054,2056,2059,2059,2059,2063,2066,2068,2069,2071,2074,2074,2074,2075,2077,2078,2077,2077,2079,2079,2078,2077,2078,2080,2078,2077,2076,2078,2076,2074,2075,2075,2075,2074,2074,2074,2074,2072,2071,2072,2071,2070,2067,2067,2068,2065,2062,2059,2058,2056,2053,2050,2050,2050,2049,2048,2051,2053,2054,2055,2056,2059,2060,2059,2058,2058,2058,2057,2055,2056,2055,2055,2053,2053,2055,2053,2051,2052,2053,2053,2051,2052,2053,2054,2051,2050,2049,2047,2044,2041,2039,2037,2034,2031,2030,2031,2030,2028,2027,2028,2028,2028,2027,2028,2029,2029,2029,2030,2033,2033,2033,2034,2035,2035,2033,2033,2034,2034,2033,2032,2032,2034,2033,2032,2032,2035,2036,2036,2039,2042,2048,2050,2054,2060,2067,2074,2080,2088,2096,2104,2111,2120,2130,2139,2146,2153,2160,2167,2171,2176,2181,2182,2183,2184,2186,2188,2188,2187,2188,2188,2186,2185,2184,2185,2182,2179,2177,2176,2173,2169,2165,2162,2158,2153,2148,2146,2143,2138,2135,2133,2133,2132,2132,2134,2136,2137,2136,2136,2137,2136,2134,2132,2132,2131,2129,2127,2125,2124,2121,2118,2116,2115,2114,2110,2110,2109,2109,2106,2105,2105,2106,2104,2103,2104,2105,2105,2105,2107,2109,2111,2111,2112,2115,2116,2116,2117,2117,2117,2114,2112,2112,2112,2109,2106,2107,2107,2107,2105,2105,2107,2106,2105,2103,2102,2102,2098,2095,2093,2092,2089,2085,2082,2080,2078,2075,2073,2074,2073,2070,2069,2070,2070,2070,2069,2070,2073,2073,2071,2073,2074,2075,2074,2073,2074,2076,2075,2074,2073,2074,2072,2069,2069,2068,2068,2065,2064,2064,2063,2059,2057,2056,2056,2054,2050,2050,2048,2046,2045,2045,2044,2043,2043,2041,2041,2042,2041,2041,2041,2042,2042,2042,2044,2047,2048,2049,2050,2053,2054,2054,2054,2055,2057,2056,2055,2056,2057,2056,2055,2054,2054,2053,2051,2050,2052,2052,2052,2053,2055,2058,2061,2066,2073,2081,2088,2094,2105,2116,2126,2134,2143,2153,2163,2170,2175,2182,2187,2190,2192,2194,2194,2193,2192,2192,2191,2189,2185,2184,2183,2180,2177,2176,2177,2174,2171,2169,2168,2166,2163,2161,2161,2162,2160,2159,2160,2160,2158,2156,2154,2153,2150,2147,2146,2146,2145,2143,2141,2142,2143,2142,2141,2141,2142,2142,2140,2141,2143,2143,2140,2141,2141,2140,2138,2136,2135,2134,2131,2129,2128,2128,2127,2126,2127,2130,2132,2132,2135,2138,2141,2141,2141,2143,2143,2143,2142,2141,2141,2140,2137,2134,2132,2130,2126,2123,2122,2121,2118,2116,2116,2116,2115,2113,2115,2116,2117,2114,2112,2112,2110,2106,2102,2101,2099,2095,2092,2091,2090,2087,2083,2081,2081,2080,2077,2076,2076,2077,2076,2076,2079,2082,2082,2083,2086,2088,2089,2089,2090,2092,2093,2092,2092,2092,2091,2089,2087,2086,2085,2083,2081,2081,2080,2080,2077,2077,2077,2078,2077,2077,2079,2081,2082,2081,2083,2085,2085,2083,2085,2085,2085,2083,2081,2080,2078,2074,2070,2069,2067,2064,2061,2060,2058,2057,2055,2054,2054,2053,2051,2048,2049,2047,2045,2043,2042,2041,2039,2036,2036,2037,2037,2038,2041,2044,2049,2052,2059,2068,2076,2085,2092,2102,2113,2120,2127,2134,2141,2146,2150,2154,2159,2163,2165,2167,2167,2168,2165,2165,2164,2162,2159,2156,2154,2151,2146,2142,2140,2136,2132,2128,2125,2126,2123,2121,2121,2121,2122,2120,2119,2120,2122,2121,2121,2122,2124,2125,2126,2129,2134,2137,2141,2146,2154,2159,2165,2169,2176,2182,2186,2190,2195,2199,2202,2203,2205,2208,2211,2210,2211,2212,2213,2213,2212,2214,2215,2216,2214,2217,2219,2221,2222,2224,2227,2230,2230,2232,2232,2233,2230,2226,2225,2222,2220,2214,2210,2207,2202,2197,2192,2189,2185,2180,2176,2172,2170,2165,2160,2157,2154,2150,2144,2140,2138,2134,2128,2124,2120,2115,2110,2105,2101,2097,2092,2087,2085,2082,2079,2075,2072,2071,2070,2067,2065,2066,2066,2065,2064,2064,2065,2064,2063,2063,2065,2064,2063,2063,2064,2063,2060,2059,2058,2056,2053,2050,2048,2049,2048,2046,2046,2048,2048,2046,2047,2048,2049,2050,2049,2052,2055,2056,2057,2059,2061,2061,2061,2060,2060,2060,2058,2057,2058,2056,2054,2052,2050,2048,2045,2042,2041,2041,2041,2039,2038,2041,2041,2041,2043,2047,2050,2053,2056,2061,2068,2072,2075,2080,2088,2093,2097,2103,2112,2119,2126,2133,2145,2155,2161,2168,2176,2181,2184,2187,2190,2191,2190,2187,2186,2184,2180,2174,2170,2166,2160,2153,2147,2143,2137,2129,2123,2119,2114,2110,2105,2104,2102,2100,2097,2098,2098,2096,2094,2096,2096,2096,2095,2095,2097,2096,2094,2092,2092,2092,2088,2085,2083,2082,2078,2076,2073,2073,2072,2070,2070,2072,2073,2073,2073,2076,2078,2079,2080,2082,2085,2084,2083,2083,2084,2084,2082,2081,2081,2080,2078,2075,2075,2075,2074,2073,2075,2077,2080,2080,2083,2086,2088,2088,2089,2091,2090,2088,2085,2083,2080,2075,2071,2067,2065,2061,2056,2054,2054,2055,2053,2054,2055,2057,2059,2060,2063,2067,2068,2067,2068,2070,2070,2068,2067,2068,2067,2062,2059,2058,2057,2055,2056,2058,2058,2058,2058,2060,2062,2061,2060,2060,2060,2059,2057,2056,2055,2052,2049,2047,2045,2043,2040,2038,2037,2036,2033,2031,2032,2030,2028,2027,2027,2028,2026,2022,2021,2020,2017,2014,2013,2013,2013,2013,2014,2017,2022,2023,2027,2032,2037,2042,2045,2051,2057,2063,2068,2073,2080,2085,2090,2094,2100,2106,2107,2110,2112,2112,2109,2110,2110,2108,2105,2102,2100,2095,2091,2086,2084,2080,2076,2071,2068,2065,2063,2058,2056,2056,2056,2054,2052,2054,2055,2054,2052,2054,2056,2055,2053,2053,2052,2050,2047,2045,2044,2041,2037,2033,2031,2029,2025,2021,2020,2019,2016,2015,2015,2018,2018,2019,2019,2021,2024,2023,2021,2022,2020,2018,2014,2011,2009,2005,2001,1999,1999,1996,1993,1991,1990,1989,1986,1984,1984,1984,1982,1980,1980,1981,1981,1980,1980,1980,1980,1978,1976,1977,1975,1972,1970,1969,1968,1965,1962,1960,1961,1959,1956,1955,1955,1955,1954,1954,1955,1956,1957,1957,1959,1962,1963,1965,1969,1973,1977,1979,1982,1988,1992,1994,1997,2002,2006,2008,2009,2013,2016,2017,2018,2020,2021,2021,2021,2020,2021,2022,2020,2019,2020,2020,2019,2018,2019,2019,2018,2018,2018,2020,2022,2023,2024,2028,2032,2035,2039,2043,2049,2055,2058,2065,2074,2080,2086,2094,2103,2111,2118,2125,2132,2138,2143,2145,2150,2154,2153,2152,2152,2151,2147,2142,2140,2136,2131,2127,2124,2122,2119,2116,2114,2114,2113,2111,2110,2112,2113,2113,2115,2118,2120,2122,2122,2124,2126,2127,2129,2131,2133,2136,2136,2136,2138,2139,2139,2138,2138,2139,2137,2134,2133,2133,2131,2128,2125,2124,2123,2121,2119,2120,2120,2116,2115,2114,2115,2113,2110,2109,2109,2108,2105,2103,2104,2103,2101,2100,2100,2099,2095,2093,2091,2090,2085,2081,2077,2074,2070,2065,2062,2059,2056,2051,2047,2045,2044,2040,2037,2035,2034,2030,2027,2025,2023,2021,2017,2014,2014,2012,2010,2008,2007,2007,2005,2003,2003,2003,2002,2001,2000,2000,1999,1997,1995,1995,1995,1994,1992,1993,1994,1993,1991,1991,1991,1989,1986,1984,1982,1981,1978,1975,1974,1973,1971,1969,1969,1971,1969,1968,1967,1968,1966,1965,1965,1965,1965,1964,1963,1965,1966,1966,1966,1968,1970,1971,1970,1970,1971,1972,1970,1970,1970,1970,1969,1968,1969,1973,1974,1976,1980,1985,1989,1993,2000,2007,2015,2023,2030,2040,2049,2056,2064,2072,2080,2087,2094,2101,2108,2114,2119,2124,2126,2128,2128,2129,2130,2128,2124,2122,2121,2118,2113,2109,2106,2102,2097,2091,2089,2085,2081,2076,2074,2073,2071,2068,2067,2068,2067,2066,2066,2068,2070,2070,2070,2072,2074,2074,2073,2073,2074,2072,2070,2068,2068,2068,2065,2064,2065,2064,2062,2062,2062,2063,2062,2061,2062,2063,2062,2060,2058,2059,2057,2054,2053,2052,2052,2049,2047,2046,2047,2044,2042,2042,2042,2041,2040,2039,2039,2039,2038,2038,2039,2041,2041,2040,2042,2045,2047,2046,2046,2048,2048,2046,2044,2044,2044,2042,2040,2041,2040,2038,2035,2033,2033,2030,2028,2028,2028,2028,2026,2026,2028,2029,2028,2027,2028,2028,2027,2025,2024,2022,2022,2020,2020,2021,2022,2021,2021,2022,2023,2022,2019,2020,2020,2017,2015,2014,2014,2012,2009,2007,2007,2008,2004,2003,2003,2003,2002,2000,2000,2002,2001,1998,1997,1996,1995,1992,1991,1991,1991,1987,1986,1986,1987,1988,1986,1990,1994,1996,1999,2002,2009,2015,2020,2024,2032,2041,2047,2053,2060,2068,2074,2079,2086,2093,2099,2106,2113,2120,2123,2125,2129,2133,2135,2135,2136,2136,2136,2133,2131,2130,2128,2124,2120,2119,2117,2113,2111,2109,2108,2105,2103,2101,2099,2099,2094,2093,2091,2091,2090,2086,2085,2085,2082,2079,2079,2080,2079,2079,2078,2080,2081,2079,2077,2079,2080,2079,2078,2078,2078,2076,2073,2073,2072,2070,2068,2067,2067,2066,2063,2060,2063,2063,2061,2059,2061,2061,2060,2059,2059,2060,2059,2058,2057,2059,2058,2057,2056,2058,2058,2055,2055,2054,2055,2054,2052,2052,2053,2052,2050,2049,2051,2049,2048,2046,2046,2046,2045,2043,2043,2044,2041,2039,2037,2035,2032,2028,2025,2023,2022,2018,2015,2015,2016,2015,2013,2013,2014,2015,2015,2017,2020,2023,2024,2024,2026,2027,2025,2024,2023,2023,2020,2019,2020,2020,2020,2019,2020,2022,2021,2019,2017,2018,2017,2015,2013,2013,2014,2012,2009,2010,2011,2010,2010,2009,2012,2014,2014,2016,2020,2023,2025,2027,2032,2038,2041,2045,2050,2058,2065,2071,2077,2086,2095,2101,2108,2116,2124,2131,2136,2142,2148,2152,2155,2159,2160,2159,2157,2156,2155,2151,2145,2143,2142,2137,2132,2129,2126,2122,2117,2114,2112,2108,2104,2101,2100,2099,2098,2096,2096,2097,2096,2094,2094,2094,2092,2090,2089,2089,2089,2087,2085,2084,2082,2079,2075,2073,2072,2070,2067,2066,2067,2067,2066,2064,2064,2064,2061,2058,2056,2057,2053,2049,2049,2050,2050,2049,2052,2055,2057,2058,2059,2061,2062,2060,2056,2056,2055,2052,2049,2047,2045,2042,2039,2037,2037,2036,2034,2032,2033,2034,2032,2031,2032,2033,2033,2030,2030,2031,2032,2031,2032,2034,2036,2038,2039,2041,2044,2045,2045,2047,2049,2050,2049,2049,2051,2051,2050,2049,2049,2050,2047,2045,2044,2044,2043,2041,2041,2042,2041,2038,2038,2038,2038,2036,2034,2035,2034,2031,2029,2028,2028,2028,2026,2026,2025,2025,2022,2020,2021,2020,2017,2015,2014,2013,2012,2009,2008,2009,2008,2007,2008,2011,2013,2014,2015,2019,2022,2023,2025,2029,2033,2035,2039,2042,2047,2051,2055,2060,2071,2077,2083,2091,2100,2105,2111,2117,2125,2130,2133,2137,2142,2145,2147,2148,2150,2150,2149,2147,2145,2144,2141,2137,2135,2133,2130,2125,2119,2115,2111,2104,2098,2095,2090,2086,2082,2080,2079,2078,2075,2075,2076,2077,2077,2075,2077,2077,2076,2075,2075,2076,2075,2073,2073,2074,2074,2072,2073,2074,2075,2074,2073,2074,2075,2074,2072,2071,2072,2070,2068,2068,2067,2067,2065,2065,2066,2068,2069,2069,2073,2075,2076,2077,2080,2083,2084,2083,2084,2087,2088,2087,2088,2089,2090,2088,2088,2089,2090,2090,2090,2092,2093,2093,2090,2090,2091,2092,2092,2092,2095,2097,2097,2097,2097,2099,2097,2095,2095,2095,2093,2090,2088,2088,2086,2084,2080,2080,2079,2076,2074,2073,2074,2073,2070,2070,2071,2072,2071,2071,2072,2072,2070,2068,2069,2069,2067,2065,2065,2064,2063,2059,2058,2057,2056,2052,2049,2048,2045,2041,2037,2036,2035,2033,2031,2030,2032,2032,2030,2030,2031,2032,2031,2031,2031,2033,2031,2030,2031,2034,2035,2033,2035,2037,2038,2036,2035,2035,2035,2033,2033,2034,2036,2036,2037,2040,2043,2045,2048,2052,2057,2061,2066,2072,2080,2087,2094,2102,2111,2120,2129,2135,2143,2151,2158,2163,2169,2175,2180,2182,2184,2186,2186,2185,2185,2185,2184,2181,2179,2178,2176,2172,2168,2165,2163,2158,2154,2149,2146,2142,2136,2131,2128,2124,2119,2115,2114,2113,2111,2109,2109,2109,2107,2105,2103,2103,2102,2099,2098,2099,2098,2095,2092,2092,2089,2086,2081,2080,2078,2076,2073,2073,2074,2074,2072,2074,2075,2076,2076,2075,2077,2077,2077,2077,2078,2081,2081,2081,2083,2086,2087,2086,2086,2087,2089,2089,2090,2093,2095,2095,2096,2097,2101,2103,2104,2105,2109,2109,2107,2105,2106,2104,2100,2098,2096,2094,2091,2088,2084,2083,2080,2076,2073,2071,2069,2063,2060,2059,2055,2052,2048,2047,2046,2043,2041,2040,2041,2039,2038,2037,2039,2039,2037,2036,2037,2038,2039,2036,2038,2039,2039,2036,2035,2035,2034,2031,2029,2028,2028,2025,2024,2025,2024,2023,2020,2020,2020,2020,2017,2018,2018,2017,2016,2016,2017,2017,2017,2017,2018,2020,2018,2017,2016,2016,2013,2009,2007,2005,2003,1999,1997,1996,1996,1995,1994,1995,1997,1996,1995,1995,1995,1995,1993,1993,1994,1995,1993,1994,1994,1995,1995,1996,1998,2002,2005,2008,2012,2019,2023,2028,2034,2042,2051,2057,2066,2076,2086,2094,2103,2113,2123,2132,2138,2146,2153,2162,2165,2169,2172,2172,2171,2170,2170,2167,2164,2160,2158,2154,2150,2145,2143,2140,2134,2132,2130,2129,2126,2124,2124,2123,2121,2118,2118,2119,2120,2119,2118,2119,2119,2116,2115,2113,2112,2109,2106,2104,2102,2099,2096,2094,2093,2093,2091,2090,2092,2092,2092,2091,2091,2092,2091,2089,2088,2088,2086,2085,2085,2087,2086,2085,2083,2082,2081,2080,2079,2079,2080,2080,2078,2080,2081,2081,2080,2078,2078,2078,2075,2073,2073,2072,2070,2068,2067,2067,2065,2063,2061,2060,2057,2054,2051,2050,2048,2045,2041,2040,2039,2036,2034,2032,2034,2032,2031,2031,2032,2031,2030,2030,2029,2029,2028,2026,2026,2027,2025,2022,2020,2019,2017,2014,2013,2012,2010,2010,2008,2009,2009,2009,2008,2010,2012,2013,2013,2016,2019,2022,2022,2023,2025,2026,2024,2023,2022,2022,2018,2015,2014,2013,2012,2009,2008,2008,2008,2007,2005,2007,2006,2006,2005,2005,2005,2003,2002,2002,2003,2002,2000,1998,1998,1995,1991,1989,1987,1986,1983,1980,1979,1978,1977,1975,1977,1979,1983,1985,1991,1998,2004,2012,2020,2030,2040,2049,2059,2069,2079,2089,2097,2106,2116,2123,2129,2137,2144,2146,2147,2150,2152,2154,2154,2155,2157,2158,2158,2158,2159,2159,2157,2153,2151,2149,2145,2141,2138,2136,2133,2128,2125,2123,2121,2116,2113,2112,2109,2105,2102,2101,2101,2099,2097,2098,2100,2100,2100,2100,2101,2102,2101,2099,2098,2097,2093,2089,2088,2085,2082,2076,2072,2070,2067,2063,2061,2061,2062,2061,2061,2062,2064,2065,2065,2068,2069,2072,2071,2073,2076,2076,2076,2074,2075,2074,2071,2069,2068,2067,2064,2060,2057,2055,2053,2047,2044,2042,2042,2039,2037,2039,2039,2039,2039,2041,2043,2045,2045,2046,2049,2048,2046,2046,2044,2042,2038,2033,2029,2025,2020,2014,2011,2008,2004,2000,1998,1998,1997,1995,1994,1994,1995,1994,1994,1996,1998,1998,1999,2000,2002,2002,2000,1999,1999,1999,1995,1995,1996,1998,1996,1995,1995,1994,1992,1990,1989,1990,1991,1990,1990,1991,1993,1992,1992,1993,1993,1993,1992,1992,1993,1992,1991,1991,1991,1991,1989,1989,1989,1989,1988,1986,1984,1984,1981,1979,1978,1978,1977,1976,1976,1976,1977,1976,1977,1979,1981,1981,1983,1985,1988,1991,1992,1997,2002,2007,2014,2022,2030,2039,2048,2057,2067,2078,2088,2097,2107,2118,2126,2132,2140,2146,2151,2156,2161,2164,2165,2165,2166,2165,2164,2162,2159,2157,2154,2148,2142,2139,2133,2128,2124,2121,2120,2118,2118,2117,2120,2121,2121,2123,2125,2126,2124,2123,2123,2122,2120,2116,2113,2112,2107,2104,2101,2098,2095,2091,2089,2087,2086,2084,2082,2083,2082,2081,2079,2079,2079,2078,2076,2075,2075,2073,2070,2067,2067,2063,2060,2056,2055,2055,2052,2050,2048,2047,2045,2042,2041,2041,2041,2040,2040,2042,2044,2045,2045,2048,2050,2051,2052,2053,2055,2055,2054,2053,2052,2051,2047,2044,2043,2041,2040,2037,2036,2037,2035,2034,2035,2037,2038,2039,2040,2042,2044,2045,2046,2047,2048,2048,2045,2043,2042,2039,2035,2033,2031,2027,2023,2019,2016,2014,2010,2006,2006,2005,2004,2003,2005,2008,2010,2012,2014,2017,2020,2022,2023,2024,2025,2024,2022,2021,2020,2015,2013,2012,2009,2008,2007,2008,2008,2008,2008,2011,2012,2014,2015,2016,2018,2019,2018,2018,2019,2019,2017,2015,2015,2012,2009,2006,2003,2001,1997,1994,1993,1991,1990,1987,1986,1986,1988,1988,1991,1997,2004,2009,2016,2026,2037,2046,2055,2066,2077,2087,2096,2106,2115,2125,2131,2138,2145,2151,2156,2161,2165,2170,2172,2173,2176,2178,2179,2178,2177,2178,2178,2175,2173,2172,2169,2167,2164,2161,2158,2154,2150,2147,2144,2142,2138,2134,2134,2132,2129,2126,2125,2125,2122,2121,2120,2120,2118,2117,2117,2118,2120,2120,2119,2119,2119,2118,2116,2115,2115,2112,2109,2106,2104,2101,2097,2094,2092,2089,2087,2083,2082,2080,2079,2076,2077,2077,2077,2076,2075,2075,2076,2075,2074,2073,2073,2071,2070,2069,2070,2068,2065,2063,2064,2061,2059,2057,2057,2058,2056,2057,2057,2058,2058,2058,2060,2063,2064,2064,2066,2068,2071,2072,2074,2075,2076,2074,2073,2072,2070,2068,2064,2063,2060,2058,2054,2051,2050,2045,2041,2039,2037,2035,2034,2034,2035,2037,2037,2038,2040,2041,2041,2041,2041,2041,2041,2039,2037,2037,2036,2034,2031,2031,2030,2027,2024,2023,2024,2023,2022,2021,2022,2023,2023,2023,2024,2024,2024,2023,2023,2023,2023,2022,2020,2020,2020,2016,2015,2016,2015,2014,2013,2014,2015,2015,2014,2016,2017,2018,2016,2016,2017,2018,2017,2018,2019,2019,2019,2020,2022,2024,2025,2028,2031,2036,2041,2047,2053,2060,2069,2075,2082,2091,2098,2104,2110,2118,2126,2131,2138,2145,2156,2161,2165,2168,2170,2170,2169,2169,2168,2164,2161,2157,2155,2151,2146,2143,2140,2137,2132,2129,2128,2125,2122,2119,2118,2116,2114,2112,2111,2112,2112,2111,2111,2112,2112,2111,2111,2110,2110,2107,2106,2104,2103,2102,2099,2098,2097,2094,2091,2088,2087,2085,2081,2078,2077,2075,2073,2073,2073,2075,2077,2078,2079,2082,2084,2084,2085,2086,2086,2084,2083,2081,2080,2077,2076,2076,2076,2076,2075,2076,2077,2078,2077,2078,2078,2080,2079,2079,2081,2082,2082,2083,2082,2082,2081,2078,2075,2072,2068,2062,2057,2053,2049,2045,2041,2039,2037,2034,2032,2031,2031,2030,2027,2026,2026,2026,2025,2025,2025,2025,2027,2028,2030,2032,2032,2032,2031,2032,2031,2028,2026,2025,2023,2020,2018,2017,2015,2014,2010,2009,2009,2006,2005,2005,2007,2008,2009,2010,2011,2014,2015,2016,2017,2019,2019,2017,2017,2016,2013,2011,2008,2007,2005,2003,2003,2004,2006,2008,2010,2015,2021,2027,2033,2041,2051,2060,2071,2082,2094,2105,2114,2124,2134,2143,2148,2153,2158,2161,2162,2164,2165,2166,2165,2164,2164,2164,2163,2160,2158,2156,2153,2150,2148,2147,2145,2143,2140,2139,2136,2131,2128,2125,2122,2119,2115,2115,2113,2111,2110,2108,2108,2107,2104,2103,2102,2100,2097,2095,2094,2093,2092,2091,2090,2091,2091,2090,2091,2092,2093,2092,2093,2092,2092,2089,2087,2086,2083,2080,2076,2075,2074,2070,2066,2063,2062,2060,2059,2059,2060,2062,2063,2065,2069,2072,2074,2076,2078,2081,2083,2083,2084,2085,2085,2082,2080,2078,2077,2073,2069,2067,2064,2060,2056,2053,2051,2048,2045,2043,2042,2041,2040,2038,2040,2041,2040,2040,2041,2040,2039,2037,2036,2036,2034,2032,2031,2030,2029,2028,2027,2028,2029,2028,2027,2027,2028,2027,2026,2025,2025,2024,2023,2023,2024,2025,2024,2024,2024,2024,2022,2020,2019,2018,2016,2014,2011,2009,2007,2004,2002,2002,2001,2000,1998,1998,1999,2000,2000,2000,2003,2004,2005,2006,2007,2008,2009,2008,2008,2008,2006,2005,2006,2007,2008,2009,2013,2017,2022,2026,2032,2040,2047,2053,2061,2070,2080,2089,2099,2108,2119,2127,2136,2145,2155,2163,2169,2176,2181,2181,2182,2180,2179,2177,2173,2169,2166,2163,2158,2154,2153,2150,2147,2144,2144,2144,2143,2143,2144,2144,2144,2144,2143,2144,2144,2142,2141,2141,2141,2138,2136,2134,2132,2130,2127,2125,2125,2123,2121,2118,2117,2116,2114,2112,2111,2110,2108,2107,2108,2110,2110,2112,2113,2115,2116,2116,2116,2117,2117,2117,2116,2115,2114,2111,2107,2105,2104,2100,2095,2091,2089,2087,2083,2080,2079,2078,2077,2076,2076,2077,2077,2076,2075,2076,2075,2073,2072,2069,2067,2064,2061,2060,2057,2054,2051,2049,2048,2046,2043,2043,2042,2041,2038,2036,2036,2035,2034,2033,2033,2034,2033,2032,2031,2032,2031,2030,2029,2031,2031,2031,2030,2031,2032,2031,2030,2031,2029,2029,2026,2024,2024,2022,2018,2016,2015,2014,2012,2011,2011,2012,2012,2011,2011,2012,2012,2010,2010,2010,2009,2007,2006,2006,2007,2006,2007,2008,2011,2011,2013,2016,2019,2022,2023,2025,2030,2032,2034,2035,2038,2041,2041,2042,2043,2046,2045,2044,2044,2043,2041,2037,2035,2035,2032,2029,2029,2029,2032,2033,2035,2040,2045,2050,2057,2065,2077,2088,2100,2112,2126,2138,2148,2159,2169,2178,2186,2192,2198,2203,2207,2210,2212,2211,2209,2207,2205,2203,2198,2195,2193,2190,2185,2182,2180,2178,2175,2173,2171,2169,2168,2164,2162,2160,2159,2156,2153,2151,2148,2144,2140,2137,2134,2130,2125,2121,2119,2115,2111,2109,2108,2107,2105,2104,2106,2109,2110,2111,2112,2114,2115,2116,2116,2116,2115,2114,2112,2111,2109,2107,2105,2104,2104,2102,2099,2099,2100,2100,2099,2099,2099,2098,2097,2097,2097,2097,2096,2096,2098,2099,2101,2100,2100,2100,2100,2096,2093,2091,2089,2083,2080,2076,2074,2070,2066,2063,2060,2057,2053,2050,2049,2047,2044,2041,2042,2041,2041,2042,2042,2043,2043,2043,2044,2044,2044,2043,2042,2041,2040,2037,2035,2034,2034,2034,2032,2032,2033,2031,2029,2028,2028,2028,2026,2025,2026,2027,2026,2025,2028,2030,2032,2033,2035,2037,2038,2038,2037,2038,2037,2035,2032,2031,2030,2027,2024,2023,2020,2016,2013,2012,2010,2009,2006,2005,2006,2005,2004,2004,2005,2006,2007,2006,2007,2008,2006,2003,2001,1999,1996,1992,1988,1988,1986,1985,1987,1990,1995,2000,2006,2013,2024,2032,2040,2050,2060,2071,2081,2093,2105,2117,2129,2140,2152,2164,2178,2186,2194,2198,2200,2202,2202,2203,2201,2200,2199,2196,2194,2190,2186,2184,2179,2174,2169,2165,2162,2157,2153,2152,2151,2150,2149,2148,2149,2149,2147,2146,2144,2143,2139,2137,2136,2134,2130,2128,2126,2124,2120,2117,2116,2115,2113,2111,2110,2109,2109,2106,2105,2105,2105,2104,2104,2103,2103,2102,2102,2102,2102,2101,2100,2099,2100,2100,2098,2099,2099,2099,2098,2098,2099,2098,2097,2097,2096,2096,2095,2094,2094,2094,2095,2095,2095,2095,2096,2093,2091,2088,2086,2082,2078,2075,2073,2069,2064,2062,2060,2057,2055,2054,2052,2051,2048,2046,2046,2047,2046,2046,2048,2050,2051,2052,2052,2053,2052,2050,2047,2045,2044,2042,2038,2036,2035,2031,2028,2027,2028,2026,2025,2023,2023,2023,2022,2021,2021,2023,2022,2022,2023,2024,2024,2024,2024,2026,2026,2025,2023,2022,2021,2018,2015,2014,2011,2009,2006,2005,2004,2003,2002,2001,2001,2001,1999,1999,2000,2000,1999,1998,1997,1997,1996,1994,1994,1992,1990,1987,1984,1983,1980,1978,1976,1975,1975,1974,1972,1973,1974,1974,1973,1973,1974,1974,1974,1974,1976,1979,1981,1985,1989,1995,2001,2007,2015,2023,2033,2041,2050,2060,2069,2079,2088,2098,2107,2114,2122,2130,2138,2147,2155,2162,2167,2172,2175,2179,2183,2184,2184,2185,2186,2185,2183,2180,2179,2175,2170,2167,2162,2158,2153,2150,2147,2145,2142,2141,2139,2137,2136,2134,2133,2132,2131,2130,2129,2130,2131,2130,2129,2129,2131,2130,2129,2129,2128,2127,2123,2121,2118,2116,2112,2109,2107,2105,2103,2100,2099,2098,2096,2094,2092,2091,2088,2086,2084,2084,2084,2082,2083,2085,2087,2087,2087,2087,2086,2085,2083,2081,2079,2075,2072,2069,2066,2064,2061,2058,2058,2058,2057,2056,2057,2058,2058,2059,2059,2059,2057,2056,2053,2054,2051,2050,2047,2046,2045,2042,2041,2040,2040,2039,2037,2036,2036,2036,2037,2035,2036,2036,2036,2035,2035,2036,2035,2034,2034,2033,2032,2029,2029,2028,2029,2030,2030,2031,2032,2032,2032,2032,2032,2032,2031,2031,2032,2030,2029,2029,2029,2029,2028,2029,2029,2030,2030,2030,2031,2032,2032,2032,2031,2031,2032,2030,2029,2028,2028,2026,2024,2023,2020,2016,2012,2009,2006,2004,2001,1999,2000,2001,1999,2001,2002,2002,2003,2002,2002,2002,2002,2000,1999,1998,1996,1994,1992,1990,1988,1986,1983,1984,1985,1987,1989,1994,2001,2006,2012,2019,2026,2035,2043,2052,2063,2074,2084,2094,2105,2116,2127,2136,2145,2155,2168,2177,2183,2188,2191,2192,2194,2195,2194,2192,2190,2190,2187,2185,2182,2178,2175,2171,2167,2164,2162,2159,2157,2154,2153,2152,2151,2150,2151,2151,2150,2149,2150,2149,2148,2147,2146,2145,2141,2138,2134,2132,2128,2125,2122,2120,2117,2115,2112,2110,2108,2106,2104,2103,2101,2100,2097,2096,2096,2095,2094,2092,2092,2091,2090,2088,2087,2086,2084,2082,2080,2080,2078,2077,2076,2076,2076,2075,2074,2075,2075,2074,2073,2073,2072,2070,2069,2069,2068,2068,2067,2067,2067,2065,2064,2061,2062,2061,2059,2057,2056,2054,2053,2051,2049,2049,2047,2047,2045,2044,2044,2044,2043,2043,2045,2045,2045,2046,2047,2048,2049,2048,2050,2049,2049,2048,2048,2047,2046,2045,2043,2041,2041,2038,2035,2034,2031,2029,2028,2026,2025,2024,2024,2024,2025,2025,2025,2025,2026,2025,2023,2022,2022,2020,2018,2016,2015,2015,2013,2013,2013,2013,2012,2012,2011,2012,2011,2010,2010,2010,2009,2008,2006,2007,2007,2007,2006,2007,2005,2004,2002,2003,2003,2002,2001,2000,1999,1999,1996,1995,1994,1993,1991,1989,1989,1989,1988,1989,1992,1996,2000,2005,2012,2019,2028,2037,2045,2055,2065,2074,2082,2091,2100,2108,2117,2124,2131,2138,2147,2154,2158,2161,2163,2166,2168,2167,2166,2165,2164,2161,2158,2155,2153,2150,2146,2143,2140,2137,2132,2128,2124,2120,2116,2112,2110,2108,2105,2102,2102,2101,2102,2099,2100,2099,2100,2099,2099,2098,2099,2098,2098,2098,2098,2097,2096,2094,2091,2090,2088,2085,2083,2083,2082,2081,2080,2080,2079,2078,2077,2078,2077,2077,2076,2076,2078,2078,2077,2078,2079,2080,2080,2080,2081,2081,2080,2079,2080,2079,2077,2076,2074,2073,2070,2069,2066,2066,2065,2063,2062,2062,2060,2057,2055,2054,2053,2050,2048,2048,2046,2045,2044,2043,2044,2043,2041,2042,2041,2040,2040,2037,2037,2036,2034,2033,2032,2032,2031,2029,2030,2030,2029,2027,2026,2026,2025,2024,2023,2021,2021,2018,2017,2017,2015,2014,2013,2012,2012,2011,2010,2010,2009,2007,2006,2004,2002,2000,1998,1996,1995,1995,1994,1992,1992,1992,1991,1992,1991,1993,1994,1995,1995,1996,1996,1995,1995,1993,1993,1991,1990,1988,1987,1986,1984,1983,1983,1982,1981,1980,1979,1979,1977,1974,1973,1972,1970,1968,1968,1967,1967,1967,1967,1968,1970,1972,1973,1975,1977,1978,1980,1981,1984,1986,1988,1991,1994,1998,2002,2007,2014,2022,2030,2039,2048,2057,2067,2076,2085,2094,2101,2107,2113,2118,2122,2125,2128,2130,2131,2130,2128,2126,2125,2120,2118,2115,2113,2109,2105,2102,2099,2095,2092,2090,2089,2087,2086,2085,2084,2084,2083,2083,2083,2083,2083,2084,2084,2084,2082,2080,2078,2076,2076,2074,2072,2072,2072,2072,2071,2072,2072,2072,2072,2070,2070,2069,2069,2068,2068,2068,2068,2067,2066,2064,2061,2057,2055,2051,2048,2045,2044,2041,2041,2039,2039,2039,2038,2038,2038,2040,2040,2040,2041,2040,2041,2041,2039,2039,2038,2036,2035,2035,2034,2031,2030,2028,2026,2024,2021,2018,2017,2016,2013,2013,2011,2011,2011,2009,2008,2007,2006,2005,2004,2005,2006,2005,2005,2005,2006,2006,2005,2005,2004,2002,2000,1997,1996,1993,1991,1989,1987,1985,1984,1982,1981,1981,1979,1979,1979,1980,1979,1980,1981,1981,1983,1983,1985,1987,1990,1992,1993,1994,1996,1995,1993,1993,1993,1990,1986,1983,1979,1975,1969,1963,1959,1955,1951,1949,1947,1947,1946,1948,1947,1950,1952,1953,1955,1959,1961,1963,1966,1969,1971,1971,1971,1970,1969,1966,1962,1960,1958,1954,1954,1953,1953,1954,1954,1955,1958,1959,1960,1963,1967,1969,1973,1976,1980,1984,1988,1992,1997,2003,2009,2016,2023,2031,2039,2048,2057,2067,2075,2083,2092,2099,2104,2108,2112,2116,2118,2121,2123,2126,2129,2132,2134,2135,2139,2139,2139,2138,2137,2133,2129,2124,2119,2114,2108,2103,2098,2094,2089,2086,2084,2082,2081,2080,2079,2079,2080,2079,2078,2079,2078,2077,2078,2078,2077,2075,2074,2072,2071,2068,2066,2063,2062,2062,2059,2057,2056,2055,2053,2052,2053,2052,2052,2050,2050,2048,2049,2049,2049,2050,2051,2050,2052,2051,2052,2052,2052,2051,2050,2050,2047,2045,2043,2043,2041,2040,2040,2039,2038,2037,2036,2035,2033,2031,2028,2028,2027,2026,2026,2028,2030,2030,2031,2031,2032,2032,2032,2031,2032,2030,2029,2028,2028,2027,2025,2024,2023,2022,2020,2019,2018,2017,2015,2012,2010,2009,2008,2008,2007,2007,2007,2007,2008,2008,2008,2007,2006,2006,2006,2004,2002,2001,2000,1997,1994,1992,1992,1990,1990,1989,1990,1991,1992,1993,1995,1997,1999,1998,2000,1999,1999,1999,1999,1999,1999,1999,1998,1999,1999,1999,2000,2003,2004,2005,2005,2007,2009,2010,2012,2014,2016,2018,2019,2022,2024,2027,2030,2032,2035,2038,2039,2040,2041,2042,2041,2040,2040,2040,2038,2036,2037,2038,2042,2046,2051,2058,2068,2075,2084,2093,2102,2110,2118,2127,2135,2143,2149,2157,2162,2168,2173,2176,2178,2178,2177,2175,2174,2172,2169,2166,2164,2161,2158,2154,2151,2148,2144,2138,2133,2130,2128,2125,2124,2124,2125,2124,2124,2124,2123,2122,2121,2120,2119,2116,2114,2113,2111,2110,2107,2106,2105,2103,2101,2099,2097,2095,2091,2086,2082,2081,2077,2074,2071,2070,2069,2069,2069,2070,2070,2070,2069,2070,2070,2070,2068,2068,2067,2065,2062,2061,2060,2056,2053,2049,2046,2042,2038,2032,2029,2024,2020,2015,2012,2010,2009,2007,2009,2010,2012,2012,2013,2012,2012,2010,2008,2006,2004,2000,1996,1994,1992,1991,1988,1985,1984,1982,1981,1980,1980,1981,1980,1981,1983,1986,1988,1990,1993,1995,1997,1997,1999,2000,2002,2002,2004,2006,2007,2007,2007,2007,2007,2005,2004,2002,2001,1999,1998,1998,1996,1997,1995,1993,1994,1995,1994,1996,1997,1999,1999,2001,2003,2004,2004,2004,2003,2002,2001,1999,1997,1996,1995,1993,1991,1991,1990,1988,1985,1983,1983,1983,1983,1985,1989,1995,2001,2009,2019,2031,2044,2056,2071,2083,2097,2110,2123,2136,2148,2158,2167,2175,2181,2185,2187,2188,2186,2182,2179,2177,2174,2170,2167,2166,2165,2164,2164,2164,2165,2166,2168,2169,2171,2172,2172,2171,2171,2170,2167,2164,2162,2159,2155,2150,2147,2142,2135,2128,2123,2117,2114,2111,2109,2111,2113,2117,2120,2124,2128,2132,2133,2135,2137,2138,2138,2138,2139,2139,2136,2134,2133,2131,2128,2125,2122,2120,2117,2113,2112,2111,2110,2111,2113,2114,2117,2119,2120,2122,2124,2124,2123,2123,2121,2119,2116,2115,2113,2110,2107,2103,2101,2098,2094,2091,2089,2087,2085,2082,2080,2080,2080,2081,2081,2083,2085,2086,2087,2088,2088,2086,2085,2083,2082,2080,2077,2075,2074,2074,2073,2072,2073,2074,2073,2075,2076,2075,2076,2074,2074,2074,2074,2074,2076,2079,2079,2079,2079,2080,2080,2081,2081,2083,2083,2085,2086,2087,2089,2090,2089,2089,2090,2089,2089,2088,2087,2086,2084,2083,2083,2084,2086,2087,2091,2094,2101,2105,2113,2120,2130,2140,2151,2163,2176,2188,2199,2210,2221,2231,2239,2248,2255,2261,2264,2268,2269,2266,2263,2260,2255,2250,2244,2239,2233,2229,2223,2220,2218,2217,2214,2215,2214,2215,2216,2217,2218,2221,2221,2222,2223,2223,2221,2218,2214,2212,2207,2202,2198,2192,2187,2182,2176,2172,2167,2163,2159,2156,2156,2154,2155,2155,2158,2160,2161,2163,2165,2167,2167,2168,2167,2166,2163,2160,2158,2156,2155,2153,2152,2151,2151,2150,2148,2147,2145,2142,2138,2135,2131,2127,2123,2119,2115,2113,2109,2106,2103,2100,2095,2090,2086,2081,2076,2073,2070,2069,2067,2070,2070,2074,2077,2078,2080,2081,2080,2078,2078,2076,2075,2073,2069,2067,2066,2063,2060,2057,2054,2052,2048,2046,2045,2044,2043,2044,2045,2049,2051,2053,2055,2056,2059,2060,2062,2064,2068,2072,2077,2081,2087,2093,2099,2105,2113,2120,2127,2132,2138,2144,2148,2151,2153,2152,2149,2144,2137,2130,2120,2111,2102,2096,2090,2087,2085,2085,2086,2088,2092,2096,2101,2105,2109,2113,2117,2122,2125,2128,2131,2135,2137,2139,2142,2147,2152,2156,2159,2163,2164,2165,2166,2166,2164,2161,2159,2157,2155,2152,2149,2147,2143,2137,2133,2128,2123,2116,2110,2106,2102,2096,2091,2087,2083,2080,2077,2075,2074,2072,2071,2071,2070,2067,2062,2059,2056,2053,2049,2045,2043,2041,2039,2035,2035,2033,2031,2029,2027,2027,2029,2032,2034,2038,2043,2048,2053,2057,2061,2064,2066,2067,2068,2069,2069,2070,2071,2073,2071,2071,2070,2069,2067,2064,2060,2058,2054,2050,2048,2045,2042,2041,2040,2038,2040,2040,2040,2040,2041,2041,2041,2043,2046,2047,2050,2052,2055,2058,2058,2059,2059,2059,2058,2057,2055,2052,2047,2042,2037,2033,2031,2030,2028,2028,2029,2029,2030,2029,2028,2028,2025,2025,2023,2022,2019,2017,2016,2015,2013,2010,2008,2007,2005,2004,2002,2002,2001,2001,2001,2002,2004,2005,2009,2011,2013,2014,2014,2013,2014,2014,2014,2015,2017,2021,2025,2028,2034,2041,2048,2055,2063,2073,2082,2091,2100,2108,2116,2124,2131,2139,2146,2152,2157,2165,2169,2171,2175,2177,2177,2178,2178,2178,2177,2177,2176,2174,2173,2169,2167,2165,2162,2160,2157,2154,2151,2148,2146,2143,2142,2140,2138,2134,2131,2128,2126,2122,2121,2119,2118,2117,2115,2114,2113,2112,2110,2109,2108,2107,2105,2104,2102,2099,2097,2095,2093,2092,2092,2092,2094,2094,2094,2094,2095,2096,2096,2096,2098,2099,2101,2102,2102,2104,2103,2102,2102,2101,2099,2099,2098,2097,2096,2095,2093,2093,2092,2092,2094,2095,2096,2095,2094,2092,2092,2089,2087,2084,2082,2079,2076,2073,2071,2069,2065,2063,2061,2058,2056,2054,2051,2050,2050,2049,2051,2053,2054,2056,2059,2060,2061,2059,2058,2056,2055,2054,2053,2052,2052,2051,2051,2053,2054,2055,2055,2055,2055,2052,2049,2047,2044,2042,2041,2041,2041,2043,2045,2046,2048,2051,2055,2057,2060,2065,2070,2075,2081,2088,2096,2104,2111,2119,2127,2134,2141,2148,2153,2158,2161,2164,2169,2173,2176,2181,2185,2187,2187,2187,2186,2185,2182,2179,2176,2174,2171,2170,2169,2167,2166,2164,2162,2161,2160,2157,2155,2153,2149,2146,2141,2136,2133,2129,2127,2125,2123,2120,2115,2111,2107,2103,2099,2094,2091,2089,2086,2084,2082,2081,2079,2077,2075,2073,2073,2071,2071,2071,2071,2072,2073,2074,2076,2077,2078,2079,2079,2079,2077,2076,2075,2073,2071,2069,2068,2068,2066,2066,2063,2063,2061,2059,2056,2054,2050,2047,2045,2043,2043,2042,2042,2045,2046,2045,2045,2044,2044,2044,2044,2044,2043,2042,2040,2039,2037,2034,2032,2028,2027,2025,2023,2022,2020,2018,2017,2015,2014,2013,2012,2013,2014,2014,2015,2015,2014,2013,2012,2010,2009,2008,2006,2004,2001,2000,1999,1997,1995,1994,1993,1992,1990,1989,1988,1989,1990,1992,1993,1997,1999,2001,2003,2004,2004,2004,2003,2003,2001,2000,1998,1997,1996,1994,1992,1991,1992,1991,1992,1994,1997,2001,2004,2009,2017,2028,2037,2048,2061,2074,2086,2097,2109,2119,2128,2135,2142,2147,2151,2155,2157,2160,2160,2160,2159,2158,2156,2156,2156,2154,2153,2152,2149,2150,2151,2152,2155,2158,2160,2161,2160,2160,2159,2157,2155,2152,2151,2148,2145,2143,2141,2139,2137,2134,2130,2126,2122,2116,2112,2107,2103,2098,2094,2091,2089,2088,2087,2088,2087,2088,2087,2087,2085,2083,2080,2077,2076,2072,2069,2065,2061,2057,2054,2051,2047,2044,2042,2039,2037,2039,2039,2041,2042,2045,2047,2048,2048,2049,2049,2048,2045,2042,2040,2036,2032,2028,2024,2021,2018,2014,2011,2007,2002,1998,1994,1990,1987,1983,1981,1979,1979,1980,1981,1983,1984,1983,1983,1983,1981,1979,1975,1972,1969,1965,1962,1960,1958,1956,1954,1953,1952,1951,1949,1947,1946,1946,1944,1943,1944,1946,1947,1951,1953,1955,1958,1959,1960,1960,1960,1960,1959,1958,1958,1956,1955,1954,1953,1952,1950,1949,1947,1945,1944,1942,1942,1943,1943,1946,1948,1952,1957,1962,1969,1976,1983,1990,1998,2006,2015,2023,2032,2041,2051,2058,2067,2074,2082,2091,2096,2098,2098,2099,2097,2097,2098,2098,2100,2102,2104,2106,2106,2109,2108,2107,2105,2103,2101,2099,2095,2093,2092,2090,2089,2089,2090,2091,2091,2091,2093,2094,2093,2091,2090,2090,2090,2091,2092,2094,2096,2096,2095,2095,2094,2091,2088,2087,2085,2082,2080,2077,2076,2074,2072,2071,2069,2067,2065,2062,2060,2058,2057,2056,2054,2054,2055,2054,2055,2057,2058,2058,2058,2058,2058,2056,2054,2052,2050,2047,2045,2042,2040,2037,2035,2033,2032,2030,2028,2027,2027,2026,2026,2027,2027,2029,2030,2032,2032,2034,2034,2033,2031,2028,2026,2023,2020,2017,2016,2012,2010,2006,2005,2001,1997,1995,1992,1987,1984,1980,1978,1977,1978,1979,1981,1983,1984,1986,1986,1986,1984,1981,1978,1975,1972,1970,1968,1966,1965,1964,1963,1963,1962,1962,1961,1959,1957,1955,1953,1951,1950,1952,1954,1957,1961,1965,1969,1971,1974,1976,1978,1978,1979,1978,1977,1976,1975,1974,1973,1972,1971,1971,1971,1972,1975,1980,1986,1992,1998,2006,2016,2028,2040,2054,2070,2083,2096,2107,2116,2126,2133,2141,2147,2153,2158,2162,2165,2166,2165,2165,2164,2163,2162,2159,2157,2156,2155,2153,2152,2151,2150,2150,2149,2149,2149,2149,2148,2148,2149,2149,2150,2149,2150,2150,2149,2148,2148,2148,2146,2144,2142,2140,2137,2133,2131,2128,2127,2124,2122,2122,2120,2119,2118,2117,2116,2113,2109,2106,2103,2100,2095,2093,2091,2089,2086,2084,2082,2080,2076,2074,2072,2069,2066,2062,2059,2058,2056,2056,2056,2058,2059,2059,2060,2060,2060,2059,2059,2057,2056,2054,2052,2050,2047,2043,2040,2035,2032,2028,2024,2020,2015,2013,2009,2006,2005,2005,2004,2004,2005,2007,2007,2008,2007,2006,2004,2002,1997,1994,1992,1989,1987,1986,1984,1983,1982,1981,1979,1977,1974,1973,1971,1971,1971,1970,1968,1968,1967,1968,1967,1968,1967,1966,1963,1962,1960,1957,1954,1951,1947,1944,1941,1939,1938,1935,1934,1934,1932,1931,1930,1928,1928,1929,1930,1931,1933,1936,1938,1941,1943,1945,1945,1945,1945,1945,1945,1945,1946,1947,1948,1948,1949,1950,1951,1950,1950,1951,1951,1951,1951,1952,1957,1963,1972,1982,1993,2006,2017,2031,2042,2055,2067,2077,2086,2095,2103,2109,2114,2119,2123,2127,2129,2131,2131,2131,2130,2131,2131,2130,2131,2132,2134,2136,2138,2140,2141,2141,2140,2139,2136,2132,2128,2123,2118,2114,2111,2108,2104,2101,2098,2095,2091,2087,2084,2082,2079,2078,2076,2075,2075,2075,2074,2074,2074,2073,2071,2069,2064,2061,2057,2052,2048,2044,2041,2037,2033,2029,2026,2021,2017,2015,2013,2010,2010,2008,2009,2009,2010,2011,2013,2014,2015,2015,2015,2015,2014,2012,2010,2009,2007,2004,2002,1999,1998,1997,1995,1994,1993,1991,1988,1987,1986,1984,1981,1980,1979,1981,1983,1986,1989,1993,1995,1996,1996,1996,1993,1991,1989,1986,1983,1979,1977,1973,1971,1967,1963,1961,1958,1954,1951,1949,1947,1946,1946,1948,1950,1954,1958,1964,1969,1974,1978,1980,1981,1983,1981,1979,1977,1975,1973,1968,1964,1960,1956,1953,1951,1948,1946,1944,1942,1941,1943,1945,1946,1949,1953,1956,1959,1961,1964,1966,1966,1967,1968,1967,1967,1966,1966,1965,1965,1963,1962,1961,1959,1957,1956,1955,1956,1955,1955,1958,1960,1963,1968,1973,1979,1984,1988,1994,2001,2007,2013,2018,2024,2031,2038,2046,2054,2066,2078,2087,2096,2105,2114,2121,2129,2136,2143,2149,2155,2159,2163,2166,2168,2169,2169,2168,2167,2164,2161,2156,2152,2148,2144,2139,2135,2130,2127,2122,2118,2113,2110,2106,2101,2099,2098,2099,2101,2103,2106,2110,2112,2113,2115,2116,2115,2113,2112,2109,2106,2102,2097,2093,2089,2085,2082,2078,2074,2070,2067,2065,2064,2062,2060,2061,2063,2065,2068,2071,2075,2078,2080,2080,2080,2077,2073,2068,2063,2058,2049,2043,2039,2034,2031,2028,2026,2022,2020,2018,2018,2018,2019,2020,2020,2021,2022,2022,2023,2024,2024,2024,2023,2022,2022,2021,2018,2017,2016,2014,2011,2011,2010,2007,2005,2003,2002,2002,1999,1997,1997,1997,1997,1997,1998,1999,2001,2000,2000,2001,2000,1999,1998,1997,1996,1995,1995,1995,1995,1995,1994,1994,1995,1993,1992,1991,1992,1992,1994,1996,1998,2001,2004,2007,2011,2014,2016,2017,2017,2017,2015,2010,2006,2002,1997,1991,1986,1983,1980,1977,1974,1973,1972,1971,1971,1972,1976,1981,1986,1993,2002,2012,2023,2035,2046,2058,2069,2081,2090,2100,2109,2117,2125,2135,2148,2157,2164,2170,2174,2176,2178,2179,2177,2176,2175,2173,2171,2170,2169,2168,2167,2166,2165,2164,2162,2158,2155,2152,2149,2147,2141,2138,2135,2132,2129,2127,2124,2122,2119,2117,2115,2113,2110,2108,2106,2106,2107,2108,2109,2110,2111,2109,2110,2108,2106,2105,2103,2101,2099,2096,2092,2088,2084,2080,2075,2071,2067,2062,2058,2055,2053,2052,2050,2050,2050,2050,2049,2049,2050,2050,2049,2048,2045,2043,2040,2036,2032,2028,2023,2020,2017,2014,2012,2010,2006,2003,2000,1997,1993,1989,1988,1988,1988,1990,1992,1996,1999,2003,2007,2010,2012,2014,2014,2015,2014,2012,2010,2007,2004,1999,1995,1991,1987,1982,1977,1974,1971,1970,1969,1971,1974,1979,1984,1991,2000,2005,2011,2017,2021,2023,2024,2023,2020,2016,2013,2008,2001,1996,1991,1988,1985,1982,1979,1977,1975,1975,1975,1974,1975,1977,1979,1981,1983,1986,1987,1988,1987,1986,1985,1983,1982,1979,1977,1975,1972,1969,1967,1965,1961,1959,1958,1957,1956,1955,1957,1962,1968,1976,1987,1999,2010,2023,2035,2048,2059,2071,2081,2091,2100,2107,2115,2121,2128,2132,2136,2140,2142,2143,2144,2144,2144,2143,2143,2142,2141,2143,2144,2145,2146,2149,2149,2150,2151,2150,2148,2147,2143,2140,2136,2131,2126,2119,2115,2110,2106,2101,2098,2094,2089,2085,2082,2080,2076,2074,2072,2072,2072,2073,2074,2075,2074,2074,2074,2074,2072,2070,2068,2066,2063,2060,2058,2054,2050,2046,2041,2037,2032,2027,2023,2019,2017,2015,2016,2016,2018,2022,2024,2028,2031,2033,2034,2036,2036,2037,2036,2036,2034,2033,2032,2030,2029,2029,2027,2025,2022,2019,2018,2016,2015,2015,2016,2018,2021,2024,2027,2029,2031,2032,2032,2030,2028,2025,2021,2017,2011,2007,2003,2000,1997,1994,1992,1990,1988,1985,1983,1983,1984,1986,1987,1990,1992,1993,1995,1996,1996,1995,1993,1990,1987,1984,1980,1975,1972,1969,1966,1963,1961,1959,1958,1956,1954,1954,1954,1953,1953,1954,1955,1956,1958,1961,1964,1966,1967,1968,1969,1968,1967,1966,1966,1964,1963,1963,1963,1963,1962,1962,1961,1960,1959,1958,1957,1957,1958,1959,1961,1962,1965,1969,1972,1976,1980,1983,1986,1989,1991,1994,1995,2000,2004,2010,2015,2023,2031,2039,2047,2056,2067,2078,2088,2099,2110,2122,2132,2143,2152,2160,2168,2172,2176,2178,2179,2176,2174,2171,2168,2163,2160,2156,2152,2148,2146,2142,2138,2135,2132,2128,2123,2120,2116,2112,2111,2110,2111,2111,2113,2114,2113,2112,2111,2109,2107,2105,2101,2099,2095,2092,2088,2086,2084,2080,2078,2076,2072,2068,2064,2063,2062,2062,2063,2065,2066,2067,2069,2070,2071,2071,2069,2067,2064,2060,2057,2053,2050,2047,2046,2044,2042,2041,2040,2038,2038,2036,2035,2031,2030,2029,2030,2031,2033,2036,2040,2041,2041,2043,2044,2043,2040,2037,2033,2030,2026,2022,2018,2016,2012,2009,2006,2002,1998,1994,1991,1989,1988,1988,1988,1989,1991,1993,1995,1999,2000,2002,2003,2002,2002,2002,2000,1999,1998,1995,1992,1990,1987,1984,1982,1980,1978,1977,1975,1975,1976,1978,1980,1983,1986,1989,1991,1992,1992,1992,1991,1988,1986,1982,1980,1976,1974,1972,1970,1967,1966,1964,1961,1958,1956,1954,1952,1950,1949,1949,1950,1952,1954,1958,1960,1962,1962,1963,1964,1964,1963,1963,1963,1963,1963,1963,1963,1964,1966,1968,1970,1973,1979,1984,1991,2000,2010,2021,2033,2045,2059,2072,2083,2095,2108,2119,2129,2138,2148,2157,2163,2171,2175,2177,2179,2180,2181,2179,2178,2176,2174,2171,2167,2165,2162,2160,2155,2152,2147,2144,2137,2132,2126,2122,2116,2111,2107,2104,2102,2098,2096,2095,2094,2094,2094,2094,2093,2090,2088,2085,2083,2082,2080,2081,2080,2080,2079,2079,2078,2078,2077,2075,2074,2073,2072,2070,2068,2068,2068,2067,2067,2068,2068,2068,2069,2067,2067,2066,2066,2064,2064,2065,2064,2064,2064,2062,2059,2057,2055,2054,2051,2050,2049,2048,2048,2047,2047,2047,2045,2044,2043,2041,2040,2037,2035,2033,2032,2030,2029,2028,2027,2025,2023,2021,2020,2019,2018,2016,2016,2016,2015,2016,2015,2015,2014,2014,2012,2012,2010,2010,2010,2011,2011,2011,2013,2014,2015,2014,2015,2014,2014,2013,2011,2010,2010,2008,2008,2008,2008,2008,2010,2012,2015,2017,2018,2020,2022,2023,2022,2022,2022,2021,2020,2019,2019,2017,2015,2012,2008,2006,2004,1999,1995,1992,1992,1989,1987,1986,1987,1988,1989,1991,1991,1992,1992,1993,1993,1993,1991,1991,1992,1992,1994,1996,1999,2004,2010,2017,2026,2035,2047,2056,2067,2079,2092,2105,2116,2129,2142,2152,2163,2173,2182,2189,2195,2201,2202,2200,2198,2194,2191,2184,2178,2170,2163,2158,2152,2147,2143,2140,2138,2136,2134,2134,2133,2134,2135,2138,2140,2142,2146,2147,2147,2146,2144,2139,2135,2128,2121,2113,2107,2101,2096,2092,2089,2089,2089,2089,2089,2092,2094,2096,2097,2101,2103,2106,2109,2110,2110,2110,2108,2105,2099,2093,2086,2080,2075,2070,2067,2065,2066,2066,2068,2071,2075,2080,2083,2089,2093,2098,2102,2105,2107,2110,2110,2108,2107,2101,2086,2074,2066,2056,2050,2043,2040,2037,2034,2031,2031,2032,2034,2035,2038,2041,2046,2049,2053,2057,2060,2064,2066,2067,2066,2064,2060,2056,2052,2046,2040,2033,2028,2024,2022,2018,2017,2016,2016,2016,2016,2016,2018,2021,2022,2025,2027,2031,2033,2035,2036,2037,2037,2036,2031,2025,2018,2011,2004,1997,1990,1985,1982,1980,1978,1976,1977,1980,1981,1984,1988,1993,1998,2003,2008,2014,2019,2025,2031,2036,2040,2042,2044,2048,2049,2051,2054,2059,2063,2070,2077,2087,2098,2109,2120,2134,2148,2160,2172,2184,2195,2204,2212,2218,2223,2223,2223,2220,2214,2205,2193,2181,2167,2156,2143,2133,2124,2117,2111,2105,2102,2101,2102,2102,2104,2107,2112,2116,2120,2126,2132,2137,2140,2143,2143,2139,2135,2129,2122,2114,2103,2094,2087,2081,2075,2070,2068,2066,2066,2066,2068,2073,2077,2081,2085,2089,2095,2098,2101,2103,2102,2102,2098,2093,2085,2077,2069,2060,2055,2048,2043,2040,2038,2036,2036,2037,2038,2040,2043,2047,2052,2056,2063,2066,2070,2074,2076,2077,2077,2076,2074,2071,2065,2058,2051,2041,2033,2025,2021,2016,2012,2010,2010,2011,2012,2015,2019,2024,2030,2035,2042,2050,2058,2065,2072,2076,2079,2080,2077,2074,2066,2051,2040,2030,2020,2011,2005,1998,1994,1990,1989,1989,1991,1993,1997,2002,2007,2013,2016,2021,2025,2029,2031,2033,2033,2032,2030,2027,2020,2013,2005,1998,1993,1984,1978,1973,1970,1968,1967,1967,1970,1974,1979,1984,1991,1998,2004,2009,2012,2013,2015,2016,2015,2014,2010,2006,2004,2001,1999,1998,1998,2001,2007,2015,2024,2036,2052,2070,2087,2106,2126,2147,2167,2184,2202,2219,2234,2245,2254,2261,2264,2261,2255,2246,2235,2224,2213,2203,2192,2182,2175,2170,2167,2164,2163,2165,2168,2172,2175,2179,2183,2188,2191,2193,2196,2196,2196,2194,2192,2187,2182,2175,2167,2158,2147,2138,2130,2125,2118,2114,2111,2110,2110,2110,2112,2117,2120,2125,2131,2138,2144,2149,2154,2156,2157,2156,2154,2149,2143,2135,2127,2119,2111,2103,2095,2089,2087,2086,2085,2085,2086,2089,2092,2094,2097,2100,2103,2105,2107,2108,2109,2111,2109,2107,2104,2100,2093,2086,2078,2068,2057,2048,2040,2033,2027,2022,2020,2019,2021,2024,2028,2035,2041,2046,2054,2060,2066,2071,2075,2079,2080,2080,2078,2073,2066,2056,2048,2036,2025,2015,2004,1996,1990,1985,1981,1979,1981,1983,1986,1990,1996,2001,2006,2011,2016,2021,2023,2026,2026,2028,2027,2025,2018,2009,1999,1991,1984,1978,1973,1968,1965,1964,1963,1963,1964,1968,1973,1979,1983,1990,1995,2000,2005,2010,2014,2017,2018,2017,2014,2009,2003,1995,1988,1980,1972,1965,1961,1956,1952,1950,1952,1957,1963,1970,1981,1994,2009,2022,2037,2054,2072,2089,2104,2119,2133,2145,2157,2166,2172,2176,2180,2182,2186,2189,2191,2193,2197,2202,2207,2212,2219,2226,2233,2238,2245,2251,2257,2259,2262,2264,2264,2262,2258,2253,2244,2235,2224,2214,2202,2190,2180,2172,2164,2156,2150,2147,2147,2148,2150,2153,2159,2167,2173,2178,2185,2191,2196,2198,2201,2201,2201,2198,2193,2185,2175,2164,2151,2140,2129,2119,2109,2103,2095,2092,2088,2087,2090,2093,2096,2102,2108,2116,2123,2128,2135,2141,2146,2146,2147,2143,2137,2121,2106,2092,2078,2063,2051,2041,2031,2025,2021,2020,2021,2022,2026,2032,2039,2045,2052,2061,2069,2075,2080,2084,2086,2085,2081,2075,2067,2058,2049,2037,2025,2013,2001,1992,1987,1984,1981,1982,1986,1991,1997,2002,2011,2019,2028,2034,2041,2048,2055,2059,2061,2063,2061,2057,2052,2043,2032,2021,2008,1996,1986,1975,1966,1959,1955,1954,1952,1952,1957,1962,1968,1974,1982,1992,2001,2007,2013,2018,2022,2023,2023,2022,2017,2009,2000,1991,1981,1971,1964,1958,1953,1947,1945,1945,1945,1947,1950,1955,1961,1966,1971,1980,1987,1994,2000,2005,2010,2012,2010,2009,2004,1999,1993,1987,1983,1979,1975,1973,1975,1981,1988,1997,2010,2026,2044,2062,2082,2104,2127,2147,2166,2185,2203,2218,2231,2240,2246,2250,2250,2247,2243,2236,2226,2216,2207,2198,2189,2180,2175,2169,2166,2164,2165,2169,2173,2177,2184,2190,2196,2200,2203,2206,2206,2205,2201,2197,2191,2182,2172,2161,2148,2135,2123,2111,2103,2094,2088,2084,2083,2083,2086,2088,2094,2104,2111,2118,2124,2133,2139,2143,2145,2146,2143,2139,2131,2124,2113,2103,2091,2080,2068,2057,2047,2040,2036,2035,2034,2036,2041,2048,2055,2062,2073,2084,2096,2106,2116,2125,2132,2135,2137,2134,2129,2121,2102,2084,2069,2055,2041,2030,2020,2011,2005,2004,2003,2004,2007,2014,2022,2028,2035,2044,2054,2061,2066,2071,2075,2075,2074,2070,2064,2056,2045,2034,2021,2008,1995,1981,1971,1962,1955,1949,1946,1948,1951,1954,1960,1968,1975,1983,1991,2001,2011,2018,2025,2029,2032,2031,2030,2026,2018,2009,1999,1988,1975,1963,1950,1940,1932,1927,1924,1921,1923,1926,1930,1934,1939,1946,1954,1960,1966,1973,1980,1985,1987,1987,1985,1980,1972,1964,1953,1941,1930,1920,1913,1905,1900,1896,1898,1900,1904,1910,1918,1927,1936,1945,1955,1967,1977,1988,1998,2008,2017,2025,2034,2041,2049,2053,2057,2060,2065,2068,2075,2084,2093,2103,2114,2128,2142,2155,2168,2183,2196,2207,2216,2225,2233,2239,2240,2241,2241,2236,2231,2222,2211,2200,2187,2173,2162,2149,2138,2128,2122,2117,2114,2110,2110,2113,2115,2117,2120,2127,2135,2141,2147,2154,2160,2162,2162,2161,2156,2150,2139,2129,2115,2101,2085,2072,2063,2056,2050,2045,2044,2046,2048,2050,2057,2065,2074,2082,2091,2099,2108,2115,2119,2123,2124,2124,2121,2116,2101,2085,2074,2063,2050,2040,2031,2025,2020,2015,2013,2013,2017,2021,2026,2035,2044,2053,2061,2071,2081,2089,2095,2099,2102,2101,2099,2093,2088,2080,2070,2061,2051,2041,2029,2016,2010,2004,2002,1999,2000,2004,2007,2011,2016,2023,2032,2039,2045,2052,2057,2062,2063,2062,2060,2055,2045,2035,2025,2013,2001,1989,1980,1972,1966,1960,1959,1961,1964,1967,1975,1985,1995,2004,2014,2026,2037,2047,2054,2060,2066,2069,2068,2066,2062,2048,2036,2027,2016,2005,1995,1987,1980,1972,1966,1964,1965,1966,1968,1973,1982,1991,2000,2010,2022,2034,2044,2054,2063,2068,2072,2075,2076,2079,2081,2080,2081,2080,2081,2082,2084,2091,2099,2108,2118,2131,2146,2161,2175,2191,2209,2225,2236,2248,2258,2265,2269,2270,2268,2263,2253,2243,2230,2217,2201,2187,2175,2165,2157,2148,2143,2141,2139,2138,2139,2144,2151,2157,2161,2169,2176,2180,2183,2185,2187,2186,2182,2178,2171,2156,2140,2129,2117,2104,2090,2082,2075,2069,2064,2063,2066,2070,2073,2078,2087,2096,2104,2111,2121,2129,2136,2140,2144,2146,2146,2141,2136,2129,2121,2110,2099,2088,2077,2063,2051,2041,2037,2032,2029,2030,2033,2036,2041,2045,2052,2059,2064,2067,2072,2075,2075,2073,2070,2065,2056,2046,2035,2023,2011,1999,1988,1980,1974,1967,1964,1965,1969,1974,1980,1991,2003,2014,2026,2039,2054,2067,2076,2085,2091,2094,2096,2094,2090,2074,2059,2046,2032,2018,2003,1990,1980,1972,1963,1958,1955,1957,1958,1960,1966,1973,1982,1988,1997,2006,2012,2016,2020,2022,2021,2016,2012,2006,1998,1990,1981,1974,1968,1963,1959,1960,1966,1975,1984,1999,2020,2041,2063,2086,2112,2138,2161,2181,2203,2221,2237,2246,2255,2260,2261,2259,2254,2248,2240,2227,2215,2203,2192,2180,2169,2163,2159,2157,2154,2157,2164,2172,2178,2187,2194,2201,2206,2208,2210,2209,2207,2201,2194,2185,2176,2163,2151,2141,2129,2117,2107,2099,2093,2088,2083,2085,2090,2094,2098,2108,2119,2130,2139,2149,2159,2166,2172,2175,2174,2173,2167,2158,2146,2135,2121,2107,2094,2083,2073,2063,2056,2055,2056,2056,2058,2065,2074,2082,2089,2100,2111,2121,2128,2134,2138,2140,2136,2132,2126,2117,2105,2092,2079,2065,2050,2034,2022,2012,2003,1994,1991,1990,1991,1992,1995,2002,2009,2015,2021,2032,2042,2050,2056,2064,2069,2072,2069,2067,2060,2051,2041,2028,2016,2005,1993,1981,1973,1967,1962,1957,1957,1961,1965,1970,1977,1986,1995,2001,2007,2015,2024,2030,2033,2034,2032,2026,2019,2009,2000,1988,1975,1962,1948,1934,1921,1909,1903,1900,1900,1901,1907,1916,1925,1934,1945,1959,1970,1982,1991,2002,2008,2013,2016,2018,2019,2018,2016,2013,2012,2009,2009,2013,2017,2023,2031,2045,2063,2083,2102,2127,2157,2188,2216,2243,2269,2290,2304,2315,2324,2327,2326,2320,2313,2302,2289,2273,2257,2243,2226,2211,2197,2187,2178,2171,2165,2167,2170,2174,2178,2185,2194,2202,2208,2214,2220,2222,2224,2222,2219,2214,2206,2198,2189,2179,2168,2156,2148,2138,2130,2122,2120,2120,2123,2124,2129,2138,2148,2155,2165,2177,2190,2200,2207,2213,2217,2216,2213,2207,2201,2193,2183,2172,2160,2146,2131,2117,2104,2093,2083,2072,2067,2064,2063,2062,2066,2074,2083,2091,2100,2112,2123,2131,2137,2142,2144,2143,2137,2130,2124,2113,2101,2088,2075,2060,2046,2032,2024,2019,2014,2012,2016,2023,2031,2038,2048,2059,2071,2078,2086,2093,2099,2101,2101,2100,2097,2090,2073,2060,2047,2033,2019,2008,1997,1985,1975,1970,1966,1963,1961,1966,1975,1983,1991,2003,2015,2027,2033,2040,2047,2051,2050,2048,2044,2040,2034,2026,2020,2012,2003,1993,1987,1981,1975,1969,1966,1967,1970,1972,1976,1986,1998,2009,2020,2031,2043,2050,2055,2058,2060,2059,2055,2050,2046,2039,2031,2026,2023,2023,2023,2024,2032,2042,2054,2066,2086,2109,2133,2155,2182,2209,2235,2258,2278,2298,2314,2326,2331,2335,2335,2325,2312,2302,2288,2273,2258,2245,2233,2220,2207,2202,2198,2193,2190,2193,2199,2205,2210,2219,2230,2240,2246,2253,2258,2261,2259,2254,2250,2244,2236,2224,2213,2202,2187,2172,2161,2155,2150,2144,2142,2145,2149,2153,2156,2167,2179,2189,2196,2205,2213,2217,2217,2215,2213,2206,2196,2183,2170,2155,2139,2121,2107,2091,2077,2063,2054,2048,2044,2040,2039,2044,2050,2055,2061,2072,2083,2093,2099,2108,2116,2121,2121,2121,2120,2117,2105,2095,2084,2073,2060,2051,2041,2030,2021,2017,2019,2021,2024,2032,2042,2054,2064,2074,2087,2098,2106,2112,2116,2119,2116,2110,2102,2094,2081,2068,2054,2041,2026,2013,2000,1991,1984,1978,1974,1976,1982,1990,1997,2008,2023,2037,2047,2059,2072,2082,2090,2093,2095,2094,2089,2081,2072,2063,2052,2039,2026,2016,2005,1994,1984,1980,1975,1971,1968,1971,1977,1983,1988,1997,2007,2016,2021,2027,2032,2035,2035,2032,2031,2028,2022,2016,2009,2003,1996,1987,1983,1980,1980,1979,1985,1997,2012,2027,2046,2071,2097,2122,2147,2174,2202,2226,2245,2262,2278,2288,2293,2294,2293,2283,2270,2260,2249,2235,2221,2211,2202,2193,2184,2179,2178,2179,2180,2181,2189,2195,2200,2203,2209,2214,2216,2215,2213,2212,2208,2200,2190,2180,2165,2150,2138,2128,2120,2111,2103,2100,2097,2096,2093,2096,2102,2108,2114,2121,2132,2143,2150,2157,2165,2170,2170,2168,2165,2160,2151,2138,2127,2116,2105,2092,2082,2076,2070,2062,2058,2060,2067,2070,2075,2088,2100,2112,2122,2135,2148,2159,2164,2170,2175,2176,2173,2167,2160,2150,2136,2119,2103,2086,2066,2045,2031,2021,2014,2005,2003,2008,2014,2019,2026,2040,2054,2069,2081,2096,2113,2125,2134,2140,2146,2148,2144,2139,2126,2110,2096,2085,2074,2061,2047,2040,2035,2030,2024,2025,2030,2037,2042,2048,2060,2073,2081,2088,2096,2104,2107,2105,2103,2099,2090,2077,2066,2056,2043,2028,2015,2004,1994,1984,1975,1975,1977,1980,1984,1997,2016,2034,2051,2073,2096,2118,2135,2152,2170,2187,2198,2208,2217,2225,2229,2229,2230,2231,2228,2221,2220,2220,2220,2217,2217,2224,2232,2240,2245,2257,2272,2284,2293,2305,2319,2328,2331,2332,2332,2329,2319,2306,2294,2279,2262,2240,2220,2200,2180,2157,2139,2127,2116,2104,2097,2096,2098,2099,2102,2110,2120,2128,2133,2139,2146,2147,2143,2141,2140,2135,2126,2116,2108,2098,2083,2069,2059,2048,2038,2028,2023,2025,2027,2028,2035,2048,2061,2071,2083,2097,2111,2121,2128,2136,2144,2146,2144,2141,2139,2132,2122,2111,2099,2088,2073,2058,2049,2041,2033,2023,2022,2022,2023,2022,2027,2037,2045,2052,2059,2071,2082,2087,2091,2097,2102,2101,2096,2090,2084,2075,2060,2047,2036,2022,2006,1992,1983,1974,1965,1957,1958,1964,1969,1974,1987,2002,2018,2031,2044,2060,2071,2077,2080,2084,2085,2079,2071,2062,2044,2024,2007,1991,1973,1952,1935,1924,1916,1908,1903,1907,1916,1927,1937,1953,1974,1996,2013,2034,2055,2077,2094,2109,2127,2142,2155,2162,2173,2181,2186,2188,2191,2195,2197,2198,2198,2205,2212,2218,2222,2234,2248,2260,2268,2280,2294,2306,2310,2316,2323,2325,2322,2316,2312,2305,2293,2277,2265,2252,2237,2218,2205,2196,2185,2173,2166,2168,2171,2172,2175,2182,2192,2196,2198,2206,2214,2218,2217,2218,2220,2218,2211,2203,2196,2186,2172,2157,2142,2128,2112,2093,2083,2076,2070,2063,2062,2067,2072,2075,2080,2091,2102,2111,2117,2127,2137,2142,2143,2146,2149,2147,2140,2133,2125,2114,2099,2083,2071,2058,2044,2028,2019,2013,2007,1998,1998,2004,2010,2014,2022,2036,2049,2057,2064,2075,2083,2088,2087,2086,2086,2080,2069,2059,2048,2035,2017,2001,1988,1976,1963,1950,1944,1942,1939,1935,1939,1947,1956,1963,1973,1986,2000,2007,2015,2024,2028,2031,2030,2030,2028,2018,2007,1999,1990,1978,1966,1959,1952,1944,1936,1936,1938,1940,1940,1947,1961,1975,1986,1999,2015,2028,2039,2044,2051,2055,2053,2047,2041,2035,2027,2014,2003,1995,1985,1973,1964,1960,1957,1955,1955,1967,1983,2000,2018,2043,2073,2102,2128,2157,2187,2216,2237,2255,2273,2288,2296,2300,2305,2305,2300,2291,2284,2274,2262,2246,2234,2226,2218,2207,2202,2203,2205,2204,2206,2213,2223,2229,2233,2243,2254,2261,2263,2266,2269,2269,2262,2253,2245,2233,2217,2199,2185,2174,2158,2143,2134,2129,2124,2117,2117,2124,2133,2139,2147,2161,2176,2186,2192,2203,2210,2213,2209,2207,2203,2195,2181,2167,2155,2141,2125,2109,2097,2089,2077,2067,2066,2071,2076,2079,2088,2101,2112,2116,2122,2133,2141,2143,2143,2147,2148,2144,2137,2130,2124,2115,2100,2087,2076,2062,2044,2028,2017,2006,1993,1981,1977,1976,1975,1974,1979,1991,2002,2010,2021,2035,2046,2051,2055,2060,2063,2061,2053,2048,2041,2029,2014,2002,1990,1977,1961,1948,1939,1930,1920,1913,1915,1920,1925,1929,1940,1953,1964,1971,1981,1992,2000,2002,2004,2006,2005,1999,1991,1986,1980,1971,1960,1953,1949,1943,1936,1934,1939,1946,1952,1964,1986,2011,2035,2061,2096,2131,2163,2188,2217,2242,2260,2272,2283,2292,2298,2296,2291,2287,2278,2265,2256,2250,2242,2231,2224,2224,2224,2221,2219,2226,2233,2238,2240,2249,2260,2267,2270,2274,2280,2282,2278,2273,2269,2264,2253,2239,2229,2219,2205,2187,2174,2163,2149,2134,2124,2120,2117,2112,2112,2119,2128,2134,2137,2146,2155,2159,2157,2160,2161,2159,2152,2147,2142,2135,2124,2110,2099,2088,2072,2054,2043,2035,2025,2014,2012,2013,2016,2017,2022,2033,2044,2052,2059,2072,2082,2089,2089,2093,2097,2096,2089,2082,2075,2065,2050,2035,2023,2013,1998,1984,1975,1969,1963,1955,1954,1960,1965,1967,1975,1988,2001,2008,2016,2029,2039,2042,2041,2042,2041,2036,2026,2016,2008,1996,1980,1966,1954,1943,1928,1916,1910,1907,1902,1897,1901,1909,1918,1924,1936,1952,1967,1977,1987,2001,2012,2017,2020,2028,2035,2037,2037,2042,2042,2039,2039,2042,2044,2044,2046,2057,2069,2077,2089,2108,2132,2153,2170,2192,2216,2235,2247,2261,2276,2287,2290,2290,2292,2291,2283,2270,2259,2247,2232,2211,2195,2180,2164,2145,2130,2122,2116,2108,2101,2104,2110,2114,2118,2131,2145,2155,2161,2170,2180,2185,2182,2181,2181,2177,2166,2155,2145,2134,2117,2099,2086,2074,2060,2044,2034,2031,2026,2019,2017,2025,2032,2037,2044,2058,2072,2079,2084,2092,2100,2102,2097,2096,2097,2093,2076,2069,2063,2052,2039,2031,2024,2012,1999,1994,1994,1993,1990,1992,2002,2009,2013,2021,2033,2045,2050,2054,2061,2068,2069,2064,2063,2062,2056,2044,2033,2024,2012,1994,1979,1970,1962,1951,1942,1939,1941,1942,1939,1946,1958,1967,1971,1978,1989,1997,1998,1999,2005,2010,2010,2006,2005,2003,1997,1984,1974,1966,1957,1942,1929,1921,1915,1905,1898,1902,1909,1916,1922,1936,1954,1970,1981,2000,2022,2043,2057,2072,2090,2107,2118,2125,2136,2145,2147,2150,2154,2155,2150,2150,2152,2154,2152,2152,2159,2168,2173,2177,2188,2201,2209,2212,2222,2230,2233,2229,2228,2229,2226,2217,2209,2204,2197,2184,2169,2159,2148,2133,2115,2104,2097,2088,2075,2072,2075,2077,2076,2080,2088,2096,2099,2100,2108,2117,2119,2117,2121,2126,2125,2119,2115,2113,2108,2096,2083,2074,2064,2048,2032,2024,2019,2012,2004,2004,2011,2017,2019,2025,2037,2047,2049,2052,2057,2061,2059,2051,2049,2047,2040,2028,2020,2016,2007,1995,1984,1977,1970,1958,1948,1947,1947,1945,1941,1946,1954,1960,1962,1969,1979,1988,1989,1993,2000,2006,2006,2004,2006,2007,2005,1996,1991,1985,1975,1960,1949,1941,1933,1921,1913,1913,1917,1918,1920,1929,1940,1949,1954,1966,1980,1993,1998,2006,2017,2023,2023,2021,2022,2022,2005,1997,1990,1980,1965,1957,1953,1949,1943,1942,1952,1964,1973,1987,2010,2037,2060,2079,2106,2133,2153,2167,2183,2202,2216,2221,2225,2229,2228,2220,2206,2195,2184,2168,2148,2133,2119,2104,2084,2073,2068,2067,2061,2059,2066,2073,2076,2077,2085,2095,2098,2095,2098,2103,2103,2099,2094,2093,2088,2079,2065,2058,2050,2038,2022,2012,2006,1997,1986,1984,1988,1992,1993,1999,2009,2020,2025,2030,2039,2048,2052,2050,2053,2058,2059,2054,2051,2050,2044,2033,2022,2012,2002,1988,1972,1964,1957,1950,1939,1940,1945,1951,1953,1961,1974,1987,1992,1999,2012,2024,2030,2030,2036,2040,2039,2033,2028,2024,2018,2004,1991,1984,1974,1960,1947,1942,1939,1934,1929,1932,1941,1947,1949,1955,1967,1977,1980,1985,1995,2004,2008,2009,2017,2022,2023,2017,2015,2012,2004,1992,1981,1974,1965,1952,1939,1935,1930,1923,1915,1918,1925,1930,1933,1943,1958,1971,1978,1988,2006,2021,2029,2039,2052,2064,2070,2072,2079,2089,2088,2090,2095,2099,2097,2097,2102,2108,2111,2112,2121,2134,2145,2150,2163,2179,2193,2198,2205,2216,2224,2224,2222,2225,2226,2223,2214,2209,2205,2197,2183,2172,2164,2156,2141,2127,2121,2116,2108,2100,2101,2105,2105,2101,2107,2116,2122,2122,2127,2136,2143,2145,2145,2152,2157,2157,2151,2148,2146,2139,2121,2112,2105,2094,2078,2067,2061,2054,2041,2033,2032,2032,2027,2024,2031,2040,2043,2044,2053,2063,2071,2071,2076,2085,2090,2088,2086,2088,2087,2079,2067,2062,2057,2048,2034,2025,2020,2012,2000,1993,1993,1992,1987,1985,1992,2001,2004,2006,2016,2028,2037,2038,2044,2052,2057,2053,2048,2048,2042,2021,2010,2003,1991,1975,1967,1965,1960,1949,1947,1951,1953,1951,1953,1962,1972,1976,1979,1990,2002,2008,2008,2014,2022,2024,2019,2017,2016,2012,2001,1988,1982,1976,1965,1953,1947,1945,1941,1933,1933,1938,1942,1940,1943,1954,1963,1967,1972,1986,2000,2009,2015,2028,2042,2050,2052,2056,2063,2066,2063,2065,2074,2080,2084,2087,2096,2108,2114,2116,2126,2139,2149,2153,2164,2178,2188,2192,2197,2209,2220,2223,2223,2229,2234,2231,2223,2219,2217,2212,2198,2189,2186,2180,2170,2160,2157,2154,2145,2135,2134,2135,2134,2129,2131,2139,2145,2145,2148,2158,2165,2166,2166,2169,2172,2167,2157,2152,2149,2139,2125,2113,2106,2095,2079,2068,2062,2057,2047,2039,2040,2041,2041,2036,2041,2051,2056,2055,2060,2071,2076,2075,2076,2082,2085,2080,2073,2070,2060,2042,2035,2029,2022,2008,2002,2002,2002,1997,1994,1999,2003,2003,2001,2005,2013,2015,2012,2014,2019,2020,2013,2009,2006,2001,1989,1974,1963,1951,1935,1913,1901,1892,1881,1867,1860,1860,1859,1855,1856,1866,1874,1880,1884,1897,1912,1922,1928,1940,1958,1966,1968,1974,1981,1984,1977,1971,1968,1962,1949,1937,1932,1926,1917,1905,1902,1903,1899,1891,1894,1901,1907,1908,1914,1926,1937,1942,1946,1954,1960,1959,1953,1951,1948,1940,1925,1916,1910,1904,1892,1885,1885,1883,1879,1876,1882,1891,1898,1902,1915,1931,1946,1955,1972,1995,2017,2033,2049,2073,2093,2106,2116,2131,2146,2157,2163,2171,2173,2167,2165,2165,2164,2157,2151,2154,2156,2153,2150,2154,2161,2165,2163,2169,2179,2185,2184,2186,2192,2195,2190,2183,2179,2175,2164,2149,2139,2130,2120,2103,2092,2086,2078,2067,2059,2060,2063,2061,2061,2068,2078,2082,2082,2091,2101,2108,2109,2112,2117,2118,2111,2104,2098,2092,2080,2063,2054,2044,2032,2016,2008,2007,2005,1998,1999,2005,2010,2011,2013,2023,2033,2037,2039,2048,2059,2066,2064,2068,2074,2075,2065,2062,2056,2045,2032,2027,2022,2013,2002,1999,1998,1995,1988,1988,1995,2002,2002,2006,2017,2027,2029,2030,2036,2042,2043,2039,2038,2039,2035,2024,2016,2010,2002,1988,1974,1967,1961,1951,1939,1937,1938,1937,1932,1936,1944,1950,1950,1955,1966,1975,1979,1982,1991,1998,1999,1994,1993,1993,1988,1977,1970,1965,1958,1946,1935,1929,1923,1913,1903,1902,1904,1902,1900,1907,1918,1928,1932,1944,1959,1972,1977,1983,1994,2002,2002,1999,2000,2000,1996,1980,1973,1965,1950,1940,1935,1932,1922,1919,1924,1932,1936,1942,1957,1978,1995,2008,2038,2066,2088,2106,2128,2152,2173,2184,2196,2209,2218,2218,2215,2216,2215,2208,2196,2190,2186,2179,2166,2161,2160,2159,2150,2146,2150,2154,2152,2150,2157,2165,2169,2168,2173,2178,2180,2173,2170,2168,2165,2154,2143,2137,2131,2117,2104,2097,2091,2082,2069,2064,2065,2062,2056,2057,2063,2070,2070,2073,2082,2090,2094,2093,2097,2101,2101,2094,2094,2094,2091,2082,2074,2072,2068,2057,2047,2042,2039,2031,2021,2020,2023,2023,2021,2025,2036,2044,2046,2051,2063,2072,2075,2076,2082,2088,2087,2079,2077,2076,2069,2056,2046,2041,2032,2019,2008,2002,1997,1989,1979,1979,1982,1983,1979,1984,1994,2001,2001,2007,2018,2028,2029,2031,2038,2042,2041,2033,2031,2028,2020,2005,1993,1984,1974,1958,1944,1938,1933,1924,1917,1919,1923,1925,1923,1930,1941,1948,1948,1956,1968,1978,1981,1985,1994,1998,1996,1990,1988,1985,1977,1962,1953,1945,1937,1922,1914,1911,1909,1902,1898,1903,1908,1910,1911,1921,1934,1946,1954,1970,1993,2014,2026,2046,2068,2089,2102,2114,2131,2145,2153,2157,2166,2169,2164,2161,2163,2164,2159,2154,2157,2162,2163,2160,2166,2174,2178,2175,2179,2186,2190,2187,2184,2187,2188,2182,2173,2170,2167,2159,2145,2137,2130,2120,2104,2091,2085,2079,2069,2060,2062,2063,2060,2057,2063,2071,2074,2074,2078,2087,2092,2089,2090,2096,2100,2095,2090,2090,2090,2083,2071,2066,2064,2058,2046,2040,2041,2038,2031,2029,2033,2037,2035,2033,2041,2048,2050,2050,2057,2067,2074,2074,2079,2086,2090,2086,2081,2083,2080,2071,2059,2052,2047,2037,2023,2015,2009,2003,1991,1983,1985,1985,1981,1979,1985,1991,1992,1991,1999,2009,2015,2014,2019,2026,2029,2024,2022,2024,2022,2015,2006,2003,1999,1990,1977,1971,1967,1960,1949,1945,1947,1948,1944,1944,1952,1959,1962,1964,1975,1988,1995,1997,2006,2016,2020,2016,2016,2018,2017,2001,1996,1991,1980,1967,1961,1958,1950,1939,1936,1938,1938,1933,1934,1942,1950,1952,1954,1966,1978,1984,1987,1995,2004,2006,2003,2002,2006,2005,1998,1994,1996,1999,1996,1995,2001,2010,2017,2021,2033,2050,2065,2075,2090,2112,2130,2140,2155,2175,2196,2207,2217,2232,2247,2255,2254,2259,2263,2262,2251,2244,2241,2234,2221,2208,2199,2191,2177,2162,2154,2148,2138,2125,2121,2122,2122,2118,2119,2128,2137,2140,2144,2155,2167,2173,2174,2181,2187,2188,2179,2175,2173,2156,2138,2130,2122,2107,2092,2084,2077,2068,2054,2050,2050,2048,2042,2042,2049,2056,2055,2058,2071,2083,2088,2090,2098,2106,2108,2104,2104,2104,2101,2088,2078,2073,2063,2048,2035,2028,2022,2013,2001,2000,2002,2001,1996,2000,2009,2017,2018,2024,2035,2045,2047,2050,2057,2066,2065,2059,2057,2056,2051,2038,2029,2026,2019,2006,1996,1992,1989,1980,1971,1973,1976,1975,1973,1977,1986,1990,1989,1994,2004,2012,2012,2014,2022,2026,2025,2021,2021,2020,2013,2002,1995,1994,1988,1976,1968,1965,1961,1950,1943,1944,1945,1942,1937,1942,1950,1954,1954,1963,1977,1988,1993,2001,2013,2021,2020,2017,2018,2017,2008,1996,1987,1979,1967,1961,1959,1957,1947,1941,1942,1942,1936,1933,1937,1943,1946,1947,1958,1973,1988,1997,2015,2037,2056,2070,2086,2106,2126,2139,2148,2166,2183,2194,2199,2207,2219,2223,2221,2220,2223,2222,2213,2207,2206,2207,2202,2194,2199,2204,2206,2203,2207,2217,2223,2222,2223,2230,2235,2232,2226,2225,2224,2215,2201,2194,2187,2176,2159,2146,2137,2128,2112,2101,2099,2096,2090,2085,2089,2095,2098,2095,2104,2115,2123,2124,2130,2139,2145,2143,2141,2143,2143,2135,2118,2112,2101,2085,2076,2070,2063,2050,2043,2043,2043,2037,2034,2037,2042,2041,2041,2050,2060,2068,2069,2079,2089,2093,2090,2092,2095,2094,2086,2078,2075,2069,2056,2041,2034,2026,2015,2001,1996,1996,1992,1984,1984,1988,1991,1987,1989,1998,2007,2010,2012,2020,2030,2032,2029,2031,2033,2032,2023,2016,2014,2010,1998,1986,1981,1976,1965,1955,1952,1951,1946,1938,1939,1944,1947,1945,1947,1956,1965,1968,1970,1982,1993,1999,2001,2009,2017,2020,2015,2013,2012,2001,1991,1988,1983,1972,1962,1958,1956,1950,1941,1941,1946,1946,1941,1943,1952,1958,1957,1959,1969,1977,1980,1980,1987,1993,1994,1988,1988,1989,1985,1974,1966,1964,1958,1948,1943,1944,1945,1941,1942,1952,1966,1975,1986,2007,2031,2051,2066,2090,2119,2145,2163,2185,2210,2231,2243,2252,2264,2274,2276,2269,2267,2266,2258,2243,2233,2224,2213,2196,2181,2175,2169,2157,2147,2146,2147,2145,2139,2143,2152,2157,2157,2163,2175,2182,2183,2182,2187,2190,2185,2176,2173,2169,2160,2144,2133,2125,2114,2096,2085,2080,2074,2065,2059,2061,2065,2065,2063,2071,2081,2090,2092,2102,2117,2130,2132,2137,2146,2150,2147,2140,2140,2137,2130,2116,2108,2101,2090,2074,2064,2059,2054,2043,2036,2038,2040,2036,2034,2041,2050,2054,2055,2064,2075,2083,2084,2089,2099,2104,2102,2099,2101,2101,2094,2081,2074,2069,2057,2043,2033,2028,2020,2005,1998,1996,1994,1988,1985,1991,1998,2000,2000,2009,2022,2028,2030,2037,2045,2050,2047,2044,2046,2045,2038,2028,2025,2022,2014,2001,1994,1991,1982,1969,1962,1961,1958,1950,1948,1953,1959,1959,1960,1969,1979,1983,1982,1988,1998,2002,2001,2002,2009,2013,2008,2004,2006,2006,1999,1988,1983,1981,1974,1964,1963,1967,1970,1969,1977,1991,2008,2019,2035,2059,2087,2109,2129,2156,2186,2211,2225,2243,2263,2276,2279,2282,2288,2288,2274,2266,2259,2247,2229,2216,2206,2194,2177,2166,2161,2157,2149,2141,2143,2147,2146,2142,2148,2158,2166,2165,2169,2178,2183,2179,2175,2178,2177,2171,2159,2153,2148,2138,2120,2108,2099,2087,2069,2056,2051,2045,2030,2026,2028,2033,2033,2034,2045,2057,2065,2068,2079,2093,2102,2104,2111,2121,2127,2124,2122,2124,2122,2113,2100,2091,2080,2063,2043,2032,2025,2015,2001,1996,1997,1998,1994,1992,2002,2010,2016,2021,2032,2047,2055,2055,2062,2070,2073,2066,2061,2059,2054,2040,2026,2016,2006,1990,1974,1965,1959,1951,1938,1935,1938,1939,1935,1938,1949,1960,1966,1973,1988,2003,2012,2017,2027,2037,2040,2035,2034,2036,2026,2013,2010,2005,1993,1982,1977,1972,1965,1954,1952,1955,1953,1948,1950,1958,1966,1967,1972,1984,1994,1997,1999,2007,2018,2021,2018,2019,2024,2022,2014,2008,2008,2006,1998,1993,1994,1995,1991,1987,1991,2000,2008,2012,2027,2049,2069,2083,2103,2130,2156,2173,2191,2215,2238,2253,2261,2275,2288,2294,2290,2288,2289,2282,2267,2250,2235,2219,2195,2170,2154,2141,2125,2107,2099,2098,2094,2084,2086,2097,2107,2111,2118,2135,2151,2158,2163,2173,2183,2184,2178,2175,2174,2167,2141,2129,2115,2096,2079,2068,2058,2044,2030,2026,2026,2024,2017,2021,2032,2042,2045,2055,2075,2092,2101,2111,2127,2142,2151,2152,2158,2163,2162,2152,2143,2138,2127,2109,2092,2080,2067,2048,2029,2020,2013,2002,1989,1988,1992,1994,1992,1996,2010,2021,2024,2029,2041,2051,2053,2052,2056,2059,2056,2045,2039,2035,2025,2008,1993,1981,1968,1948,1930,1921,1914,1903,1892,1892,1897,1899,1899,1908,1924,1937,1943,1955,1972,1987,1994,1999,2011,2020,2023,2020,2022,2024,2012,2006,2001,1995,1980,1968,1962,1956,1944,1933,1931,1930,1927,1921,1924,1933,1941,1943,1951,1964,1975,1977,1982,1992,2001,2003,2001,2005,2008,2005,1996,1991,1989,1984,1971,1963,1959,1955,1946,1940,1944,1950,1953,1957,1973,1993,2012,2026,2054,2088,2122,2149,2185,2232,2278,2312,2346,2386,2422,2445,2458,2472,2482,2482,2458,2441,2420,2389,2359,2333,2305,2271,2238,2216,2200,2181,2162,2159,2165,2172,2173,2187,2213,2236,2251,2268,2294,2318,2330,2334,2344,2349,2345,2328,2313,2297,2275,2242,2211,2185,2156,2122,2091,2070,2053,2032,2013,2010,2014,2017,2019,2035,2060,2084,2103,2128,2161,2193,2214,2230,2251,2268,2273,2267,2260,2250,2210,2173,2146,2114,2077,2044,2017,1994,1967,1944,1935,1932,1927,1926,1940,1960,1976,1987,2010,2040,2064,2078,2097,2119,2135,2139,2139,2141,2138,2125,2105,2089,2070,2044,2012,1987,1965,1941,1913,1894,1885,1877,1867,1861,1870,1883,1893,1901,1922,1947,1966,1979,1997,2018,2035,2040,2045,2050,2051,2041,2027,2015,2002,1982,1957,1939,1925,1907,1885,1875,1870,1867,1860,1859,1870,1882,1889,1897,1916,1937,1954,1964,1984,2006,2022,2029,2036,2046,2051,2043,2035,2028,2017,2000,1977,1961,1946,1927,1904,1891,1884,1878,1868,1867,1876,1887,1893,1905,1928,1957,1980,2002,2035,2072,2103,2125,2152,2182,2205,2218,2228,2240,2244,2233,2227,2219,2204,2185,2173,2166,2155,2141,2135,2139,2142,2140,2145,2160,2179,2190,2202,2224,2249,2265,2273,2287,2301,2309,2304,2298,2294,2284,2263,2239,2218,2196,2167,2137,2115,2097,2077,2055,2042,2039,2034,2027,2030,2042,2057,2066,2078,2100,2123,2139,2148,2166,2182,2192,2192,2193,2195,2190,2175,2160,2147,2132,2109,2086,2070,2056,2038,2018,2010,2008,2005,1999,2003,2020,2035,2045,2059,2085,2110,2127,2141,2160,2179,2190,2190,2193,2196,2192,2166,2150,2132,2106,2080,2060,2040,2016,1990,1977,1969,1959,1947,1949,1958,1968,1973,1987,2010,2031,2046,2059,2078,2096,2106,2107,2112,2118,2115,2102,2092,2081,2065,2042,2020,2003,1985,1965,1945,1937,1932,1925,1916,1920,1930,1940,1945,1962,1986,2009,2024,2041,2064,2086,2097,2104,2118,2126,2125,2116,2112,2107,2092,2071,2053,2037,2016,1990,1969,1958,1947,1933,1923,1927,1935,1938,1941,1958,1980,2000,2013,2035,2060,2084,2096,2110,2130,2144,2148,2150,2154,2154,2142,2135,2131,2121,2107,2100,2099,2098,2093,2094,2105,2118,2126,2138,2161,2187,2208,2225,2252,2282,2308,2322,2339,2357,2369,2369,2365,2361,2353,2335,2309,2286,2263,2235,2200,2173,2152,2128,2101,2083,2074,2067,2057,2051,2060,2071,2079,2086,2106,2131,2152,2163,2183,2205,2222,2227,2231,2237,2238,2227,2211,2198,2183,2161,2133,2111,2091,2068,2041,2024,2015,2007,1995,1992,2002,2013,2021,2030,2053,2078,2100,2114,2137,2162,2181,2189,2199,2212,2219,2214,2205,2189,2164,2136,2113,2090,2061,2029,2006,1990,1975,1956,1948,1951,1957,1958,1965,1984,2007,2023,2035,2059,2086,2106,2117,2131,2147,2156,2153,2149,2147,2139,2122,2101,2083,2065,2040,2010,1989,1971,1952,1929,1916,1912,1908,1899,1898,1909,1922,1931,1940,1960,1980,1995,2003,2019,2037,2050,2052,2054,2058,2057,2047,2034,2024,2011,1992,1970,1956,1942,1926,1907,1898,1896,1894,1888,1891,1906,1921,1931,1945,1970,1995,2014,2026,2045,2065,2079,2081,2086,2092,2092,2083,2073,2068,2060,2045,2030,2024,2018,2012,2003,2007,2020,2033,2041,2060,2089,2117,2139,2166,2205,2243,2273,2298,2329,2359,2378,2387,2397,2405,2403,2378,2359,2338,2309,2277,2250,2223,2190,2151,2132,2119,2103,2089,2091,2099,2109,2113,2132,2156,2179,2193,2212,2238,2260,2271,2277,2285,2289,2282,2266,2251,2235,2212,2179,2151,2124,2097,2063,2037,2020,2006,1991,1978,1981,1990,1998,2005,2027,2053,2078,2094,2119,2149,2175,2189,2203,2217,2226,2224,2213,2205,2193,2173,2145,2121,2098,2072,2041,2016,2000,1988,1970,1960,1961,1970,1975,1980,2000,2025,2048,2063,2087,2115,2137,2147,2160,2175,2184,2184,2176,2165,2144,2119,2097,2075,2048,2014,1989,1970,1951,1930,1914,1914,1916,1915,1917,1932,1955,1973,1986,2011,2040,2066,2081,2099,2120,2137,2137,2135,2133,2123,2104,2080,2061,2040,2013,1983,1963,1947,1928,1907,1899,1899,1900,1895,1902,1920,1938,1950,1964,1990,2017,2036,2048,2068,2089,2100,2101,2103,2104,2098,2082,2066,2049,2031,2005,1979,1958,1940,1920,1897,1886,1882,1878,1871,1875,1888,1903,1913,1930,1959,1990,2015,2037,2068,2099,2123,2139,2157,2176,2188,2189,2193,2192,2181,2170,2163,2155,2142,2129,2125,2127,2128,2124,2134,2152,2170,2180,2200,2230,2259,2279,2297,2325,2350,2366,2372,2381,2387,2381,2364,2347,2328,2303,2268,2233,2203,2172,2136,2102,2080,2063,2045,2027,2023,2028,2031,2031,2045,2067,2091,2107,2127,2155,2182,2198,2208,2222,2232,2234,2223,2216,2206,2190,2163,2138,2117,2092,2061,2034,2016,2001,1983,1967,1965,1970,1973,1974,1989,2011,2033,2047,2070,2100,2130,2151,2169,2195,2216,2227,2227,2228,2226,2196,2168,2146,2120,2086,2055,2030,2007,1980,1956,1946,1942,1938,1933,1943,1961,1978,1989,2009,2036,2060,2076,2093,2115,2135,2143,2145,2149,2148,2139,2120,2102,2086,2063,2034,2007,1988,1968,1943,1923,1915,1911,1904,1900,1908,1923,1935,1942,1962,1990,2015,2030,2050,2075,2094,2102,2106,2113,2116,2109,2093,2080,2066,2045,2015,1991,1971,1947,1917,1895,1882,1873,1860,1852,1856,1867,1873,1879,1898,1924,1947,1963,1986,2017,2045,2060,2074,2089,2099,2098,2089,2082,2056,2023,1998,1978,1953,1924,1901,1886,1875,1861,1859,1869,1883,1896,1915,1950,1989,2025,2059,2105,2154,2197,2228,2264,2301,2329,2344,2355,2365,2366,2357,2341,2328,2312,2288,2257,2235,2215,2191,2165,2149,2141,2135,2126,2125,2136,2149,2157,2165,2187,2212,2231,2242,2259,2277,2288,2288,2286,2285,2277,2258,2236,2217,2195,2167,2132,2108,2083,2057,2027,2010,2000,1991,1980,1980,1991,2003,2012,2025,2051,2080,2104,2123,2152,2181,2201,2210,2221,2230,2232,2220,2208,2196,2179,2154,2125,2103,2078,2052,2022,2002,1990,1977,1962,1960,1970,1982,1989,2003,2029,2055,2075,2093,2122,2152,2172,2183,2198,2211,2214,2206,2195,2172,2138,2108,2083,2056,2024,1991,1969,1952,1934,1914,1906,1910,1914,1914,1924,1945,1968,1985,2004,2034,2064,2087,2101,2119,2137,2144,2139,2134,2127,2114,2089,2063,2038,2013,1984,1955,1936,1917,1894,1873,1867,1864,1859,1854,1863,1880,1897,1908,1929,1958,1986,2004,2022,2048,2069,2080,2082,2089,2090,2082,2065,2049,2032,2010,1980,1953,1932,1910,1884,1864,1853,1847,1838,1830,1836,1848,1858,1865,1884,1913,1941,1960,1986,2018,2049,2068,2081,2096,2107,2107,2096,2081,2059,2035,2015,1999,1980,1958,1943,1938,1938,1936,1940,1959,1984,2008,2030,2068,2112,2155,2190,2231,2277,2318,2344,2368,2392,2409,2413,2406,2400,2387,2366,2334,2306,2279,2248,2210,2179,2155,2132,2105,2084,2075,2071,2065,2059,2068,2084,2099,2112,2137,2164,2187,2202,2223,2247,2266,2269,2271,2271,2265,2248,2223,2203,2180,2151,2116,2089,2066,2041,2014,1998,1992,1986,1980,1980,1994,2011,2024,2039,2067,2098,2123,2140,2164,2191,2210,2218,2225,2232,2233,2210,2194,2177,2151,2122,2098,2075,2046,2014,1994,1980,1966,1950,1943,1949,1957,1961,1969,1991,2016,2036,2051,2076,2102,2122,2131,2143,2154,2158,2148,2137,2127,2111,2087,2058,2036,2012,1985,1953,1935,1922,1907,1891,1886,1893,1901,1904,1916,1940,1966,1986,2004,2034,2066,2092,2106,2127,2147,2158,2156,2154,2151,2126,2096,2075,2052,2022,1992,1969,1952,1931,1907,1897,1894,1894,1889,1896,1914,1933,1947,1962,1990,2019,2040,2052,2071,2091,2100,2096,2095,2093,2083,2061,2041,2022,2001,1975,1949,1931,1917,1901,1885,1882,1889,1897,1902,1930,1962,1997,2026,2066,2114,2161,2197,2234,2277,2316,2342,2359,2378,2390,2393,2380,2370,2356,2335,2305,2276,2249,2222,2188,2159,2141,2126,2108,2091,2091,2098,2105,2108,2125,2152,2178,2195,2219,2250,2277,2293,2305,2319,2327,2325,2310,2298,2282,2258,2225,2195,2167,2137,2100,2068,2046,2028,2006,1988,1985,1990,1993,1996,2014,2040,2066,2085,2112,2146,2176,2194,2210,2230,2244,2247,2240,2235,2214,2180,2156,2133,2105,2072,2043,2023,2001,1977,1958,1952,1951,1948,1947,1961,1982,2001,2014,2039,2071,2098,2114,2133,2157,2173,2179,2178,2178,2176,2157,2134,2114,2092,2063,2028,2002,1979,1955,1927,1909,1902,1895,1886,1885,1898,1914,1924,1937,1963,1993,2015,2031,2056,2084,2105,2113,2122,2131,2131,2120,2104,2090,2071,2044,2013,1988,1964,1936,1906,1886,1874,1861,1846,1842,1850,1860,1866,1878,1904,1934,1957,1977,2007,2040,2064,2076,2092,2107,2115,2109,2100,2080,2051,2022,1998,1973,1944,1912,1890,1873,1857,1838,1832,1838,1847,1853,1869,1898,1931,1959,1988,2030,2075,2113,2144,2180,2218,2246,2262,2277,2292,2300,2296,2288,2284,2274,2258,2236,2221,2207,2191,2169,2160,2157,2153,2145,2146,2160,2175,2184,2197,2223,2249,2269,2282,2304,2328,2339,2339,2341,2341,2336,2317,2297,2278,2255,2224,2189,2160,2133,2103,2072,2052,2039,2027,2010,2007,2013,2021,2024,2034,2058,2084,2103,2121,2149,2178,2198,2208,2223,2236,2241,2232,2223,2213,2198,2171,2143,2121,2096,2067,2036,2016,2000,1982,1962,1955,1957,1960,1959,1970,1993,2018,2036,2058,2092,2126,2150,2167,2188,2208,2218,2215,2212,2207,2176,2144,2121,2096,2065,2032,2006,1984,1959,1932,1918,1912,1907,1898,1902,1921,1940,1953,1974,2004,2035,2057,2075,2100,2124,2137,2138,2142,2143,2136,2117,2098,2082,2058,2029,1998,1973,1950,1922,1895,1880,1869,1858,1845,1846,1857,1869,1877,1895,1925,1955,1976,1998,2028,2058,2078,2090,2104,2115,2116,2105,2086,2066,2041,2015,1995,1974,1948,1923,1907,1894,1878,1866,1867,1876,1881,1885,1903,1928,1951,1966,1988,2021,2050,2068,2083,2103,2116,2117,2111,2105,2097,2081,2056,2036,2019,1999,1974,1956,1948,1942,1934,1933,1948,1968,1989,2011,2048,2093,2135,2169,2213,2263,2307,2338,2369,2402,2428,2439,2441,2444,2441,2426,2400,2377,2351,2321,2283,2250,2222,2194,2161,2135,2123,2115,2106,2100,2111,2130,2145,2157,2183,2216,2244,2260,2282,2308,2327,2332,2332,2332,2326,2306,2280,2255,2228,2194,2155,2121,2090,2057,2022,1995,1980,1968,1954,1949,1960,1977,1991,2007,2036,2071,2101,2124,2152,2186,2212,2226,2239,2252,2257,2250,2228,2208,2184,2154,2127,2101,2072,2037,2011,1993,1975,1953,1941,1941,1947,1949,1954,1975,2001,2025,2043,2074,2107,2135,2152,2170,2189,2200,2198,2191,2184,2171,2148,2119,2094,2061,2030,1996,1971,1949,1925,1899,1887,1886,1885,1881,1889,1909,1931,1946,1964,1996,2028,2054,2070,2095,2120,2134,2136,2139,2140,2136,2102,2081,2058,2029,1998,1973,1949,1923,1893,1876,1866,1857,1846,1847,1860,1875,1884,1899,1927,1957,1980,2001,2033,2064,2087,2098,2112,2122,2124,2112,2098,2085,2066,2039,2010,1987,1962,1933,1902,1885,1872,1859,1845,1844,1852,1862,1866,1882,1910,1939,1960,1983,2016,2050,2074,2090,2112,2131,2143,2143,2147,2153,2142,2132,2127,2120,2107,2093,2089,2090,2089,2087,2098,2117,2137,2151,2177,2214,2250,2276,2305,2351,2382,2401,2418,2440,2456,2458,2452,2448,2439,2419,2390,2363,2337,2307,2268,2232,2202,2171,2136,2104,2085,2069,2051,2037,2038,2048,2057,2064,2085,2115,2143,2163,2189,2219,2245,2260,2270,2282,2289,2283,2266,2239,2211,2179,2152,2130,2107,2078,2054,2042,2031,2016,2003,2007,2016,2024,2028,2046,2073,2096,2113,2136,2168,2195,2210,2223,2242,2255,2255,2248,2244,2234,2215,2187,2162,2138,2109,2074,2044,2021,2000,1974,1953,1946,1943,1938,1934,1947,1968,1986,1999,2024,2054,2082,2098,2118,2142,2160,2167,2169,2171,2169,2156,2136,2116,2097,2073,2040,2012,1987,1961,1930,1907,1896,1889,1879,1874,1882,1898,1909,1919,1942,1970,1996,2011,2036,2064,2088,2100,2109,2120,2127,2121,2101,2089,2071,2045,2023,2002,1977,1946,1922,1905,1890,1871,1860,1863,1874,1880,1892,1919,1948,1970,1989,2017,2048,2071,2083,2098,2112,2118,2111,2103,2094,2081,2058,2032,2010,1989,1963,1932,1912,1897,1882,1865,1862,1873,1887,1899,1920,1958,1999,2035,2073,2120,2171,2215,2248,2287,2326,2355,2372,2387,2401,2408,2390,2378,2363,2336,2311,2290,2269,2243,2216,2200,2190,2176,2161,2160,2170,2181,2187,2202,2226,2251,2267,2281,2303,2324,2332,2333,2337,2339,2330,2310,2291,2272,2246,2211,2178,2149,2120,2086,2053,2034,2021,2006,1993,1994,2005,2016,2021,2038,2065,2090,2107,2127,2157,2186,2202,2214,2231,2244,2246,2238,2230,2222,2205,2178,2156,2135,2111,2079,2054,2034,2015,1992,1975,1970,1972,1971,1970,1984,2004,2022,2034,2057,2088,2114,2129,2149,2173,2194,2200,2202,2206,2204,2193,2171,2152,2132,2106,2072,2042,2016,1989,1957,1930,1915,1904,1890,1880,1886,1898,1907,1912,1934,1962,1988,2004,2029,2060,2088,2103,2118,2135,2146,2147,2139,2131,2113,2087,2065,2042,2017,1984,1956,1935,1913,1887,1868,1860,1859,1854,1852,1865,1886,1904,1918,1943,1975,2004,2023,2045,2074,2097,2108,2113,2121,2122,2113,2094,2076,2058,2033,2001,1971,1946,1920,1888,1862,1850,1841,1831,1827,1842,1865,1890,1913,1952,2000,2046,2083,2127,2176,2222,2253,2281,2313,2337,2347,2350,2356,2347,2329,2316,2303,2288,2263,2243,2230,2216,2196,2183,2185,2191,2196,2200,2218,2240,2257,2267,2286,2313,2326,2329,2337,2347,2351,2343,2335,2330,2320,2299,2274,2253,2230,2201,2168,2140,2117,2092,2064,2046,2036,2029,2016,2015,2027,2044,2056,2071,2098,2128,2152,2169,2194,2219,2238,2244,2250,2256,2254,2240,2223,2209,2192,2167,2138,2115,2092,2066,2035,2015,2003,1993,1978,1974,1983,1996,2003,2016,2041,2070,2091,2109,2134,2162,2182,2189,2200,2210,2213,2202,2191,2181,2167,2144,2116,2094,2072,2044,2013,1991,1975,1958,1937,1930,1935,1941,1942,1950,1973,1998,2015,2031,2057,2085,2103,2113,2129,2145,2152,2147,2142,2137,2126,2102,2079,2059,2039,2011,1980,1956,1935,1911,1882,1865,1856,1847,1836,1835,1846,1862,1871,1885,1912,1942,1965,1983,2010,2039,2058,2066,2076,2087,2088,2078,2066,2056,2042,2020,2004,1989,1966,1938,1917,1903,1889,1868,1856,1857,1862,1863,1867,1885,1907,1926,1939,1964,1994,2017,2031,2048,2067,2082,2085,2084,2086,2087,2078,2064,2058,2051,2040,2024,2016,2014,2010,2003,2008,2023,2040,2055,2077,2110,2148,2180,2209,2248,2287,2320,2341,2368,2395,2415,2422,2428,2435,2436,2425,2408,2393,2377,2352,2321,2295,2274,2250,2220,2199,2187,2175,2159,2151,2157,2167,2172,2179,2199,2222,2239,2249,2267,2289,2303,2306,2313,2325,2333,2328,2323,2322,2316,2301,2278,2258,2237,2208,2173,2144,2120,2093,2063,2043,2036,2034,2028,2029,2044,2066,2083,2098,2125,2157,2180,2196,2215,2236,2249,2249,2247,2247,2240,2204,2177,2155,2125,2090,2062,2038,2011,1981,1961,1950,1941,1928,1924,1935,1948,1959,1971,1996,2025,2047,2062,2086,2110,2128,2135,2145,2158,2164,2159,2150,2142,2129,2108,2079,2057,2036,2008,1975,1954,1937,1923,1903,1894,1898,1904,1905,1911,1931,1953,1970,1983,2007,2032,2052,2061,2074,2088,2095,2090,2082,2077,2066,2046,2021,2002,1984,1959,1930,1910,1894,1877,1856,1847,1851,1856,1857,1866,1890,1916,1935,1954,1984,2015,2038,2052,2073,2091,2103,2100,2099,2095,2072,2042,2023,2002,1976,1947,1927,1909,1889,1866,1858,1862,1866,1867,1882,1907,1932,1949,1976,2011,2045,2069,2092,2122,2152,2172,2184,2201,2220,2230,2230,2234,2240,2242,2235,2232,2240,2250,2253,2256,2270,2287,2297,2302,2318,2338,2353,2360,2374,2392,2405,2408,2412,2422,2429,2426,2417,2413,2408,2394,2370,2350,2332,2309,2278,2251,2230,2208,2181,2156,2142,2131,2116,2101,2102,2109,2113,2114,2126,2145,2161,2168,2182,2203,2221,2229,2233,2243,2248,2243,2227,2216,2205,2186,2157,2132,2108,2082,2050,2025,2012,2004,1994,1987,1995,2008,2018,2025,2046,2073,2095,2110,2132,2158,2180,2190,2200,2215,2226,2225,2218,2210,2193,2170,2152,2136,2116,2087,2065,2049,2034,2013,1996,1989,1987,1980,1975,1984,2000,2014,2022,2041,2066,2086,2096,2110,2128,2142,2144,2141,2146,2147,2139,2123,2115,2108,2094,2071,2052,2031,2009,1981,1961,1949,1937,1919,1908,1911,1919,1921,1925,1943,1965,1981,1992,2013,2036,2054,2062,2073,2087,2095,2091,2085,2082,2076,2059,2039,2022,2004,1981,1953,1934,1921,1906,1888,1880,1886,1894,1898,1906,1927,1952,1970,1985,2010,2037,2056,2065,2080,2097,2106,2103,2101,2103,2094,2072,2062,2048,2029,2003,1986,1973,1958,1938,1930,1931,1936,1937,1947,1971,1999,2023,2049,2086,2125,2157,2182,2215,2249,2276,2291,2310,2331,2346,2351,2353,2359,2362,2357,2345,2337,2328,2313,2290,2277,2269,2260,2245,2238,2243,2248,2247,2249,2259,2272,2275,2277,2287,2296,2297,2292,2294,2298,2296,2283,2275,2267,2253,2229,2206,2187,2166,2139,2110,2089,2073,2053,2032,2027,2030,2033,2032,2042,2062,2079,2091,2105,2129,2151,2164,2173,2190,2206,2214,2212,2215,2218,2215,2201,2191,2183,2172,2154,2137,2129,2124,2114,2102,2102,2109,2112,2108,2117,2133,2147,2152,2162,2179,2193,2198,2201,2211,2219,2215,2205,2200,2196,2185,2165,2150,2139,2124,2100,2079,2065,2051,2031,2013,2007,2006,2003,1997,2003,2018,2027,2032,2042,2060,2074,2076,2080,2092,2099,2096,2089,2089,2088,2080,2064,2056,2049,2039,2019,2004,1994,1982,1964,1946,1938,1933,1923,1912,1915,1925,1932,1933,1946,1965,1982,1987,1998,2015,2029,2031,2034,2043,2051,2050,2041,2042,2042,2035,2020,2008,2000,1988,1968,1952,1948,1945,1939,1935,1945,1961,1972,1980,1999,2025,2049,2064,2086,2116,2141,2157,2176,2202,2227,2244,2258,2281,2312,2324,2336,2353,2367,2373,2378,2391,2402,2406,2405,2414,2424,2428,2425,2429,2437,2442,2437,2436,2441,2441,2433,2424,2423,2422,2410,2394,2389,2386,2380,2365,2358,2354,2347,2331,2320,2315,2310,2298,2285,2281,2278,2270,2256,2254,2256,2253,2244,2242,2247,2248,2241,2237,2241,2246,2241,2235,2239,2244,2243,2234,2236,2242,2244,2238,2237,2242,2244,2237,2230,2232,2234,2228,2219,2219,2222,2220,2210,2210,2215,2216,2206,2203,2206,2208,2201,2194,2197,2200,2195,2186,2185,2186,2181,2169,2162,2161,2157,2145,2136,2135,2132,2122,2112,2110,2111,2106,2095,2095,2101,2102,2095,2096,2102,2105,2099,2095,2100,2103,2097,2090,2090,2091,2087,2076,2073,2075,2073,2062,2057,2057,2057,2048,2040,2041,2042,2039,2030,2033,2040,2041,2037,2041,2050,2054,2050,2051,2060,2066,2063,2059,2064,2070,2068,2061,2061,2064,2061,2051,2049,2053,2055,2049,2045,2049,2050,2043,2036,2038,2041,2039,2031,2035,2042,2043,2038,2041,2047,2052,2046,2044,2049,2054,2049,2042,2044,2046,2043,2034,2031,2034,2032,2025,2025,2033,2042,2047,2054,2072,2091,2104,2116,2139,2164,2183,2195,2216,2240,2260,2272,2287,2310,2328,2336,2351,2369,2377,2375,2378,2385,2388,2378,2372,2370,2366,2354,2338,2330,2320,2304,2281,2268,2259,2246,2228,2218,2216,2212,2202,2197,2201,2203,2196,2193,2199,2205,2201,2196,2198,2201,2197,2185,2181,2182,2177,2165,2157,2157,2154,2143,2135,2135,2136,2130,2121,2122,2125,2122,2112,2111,2115,2116,2108,2105,2110,2113,2107,2101,2104,2106,2103,2092,2092,2092,2088,2076,2071,2071,2068,2057,2050,2049,2047,2037,2027,2026,2028,2023,2013,2014,2018,2017,2009,2008,2013,2015,2008,2004,2008,2012,2009,2003,2004,2009,2007,1998,1996,1998,1995,1984,1978,1979,1977,1968,1962,1966,1969,1967,1961,1966,1974,1976,1971,1976,1984,1990,1987,1990,1999,2008,2007,2007,2017,2026,2030,2027,2032,2037,2037,2028,2025,2029,2029,2021,2017,2020,2023,2017,2012,2017,2023,2023,2016,2020,2028,2029,2023,2023,2028,2031,2024,2020,2024,2028,2024,2018,2023,2031,2032,2026,2026,2030,2030,2019,2013,2014,2014,2006,2001,2006,2012,2011,2008,2015,2025,2030,2029,2038,2052,2064,2069,2081,2103,2125,2140,2155,2181,2206,2224,2234,2255,2278,2295,2301,2313,2327,2335,2331,2337,2341,2337,2326,2324,2322,2316,2301,2292,2289,2282,2267,2255,2252,2249,2238,2226,2225,2227,2225,2217,2220,2229,2235,2231,2232,2237,2239,2233,2224,2222,2219,2208,2192,2186,2183,2173,2156,2148,2144,2138,2123,2115,2115,2113,2103,2095,2099,2103,2102,2099,2104,2113,2117,2114,2116,2124,2129,2126,2123,2126,2127,2120,2110,2110,2111,2105,2095,2095,2098,2097,2089,2088,2093,2094,2086,2081,2083,2085,2079,2070,2070,2073,2071,2060,2059,2063,2063,2056,2053,2056,2057,2052,2044,2044,2045,2039,2027,2026,2026,2022,2012,2009,2014,2014,2006,2004,2009,2012,2006,2001,2005,2011,2009,2002,2004,2010,2009,2002,2003,2012,2019,2017,2019,2026,2028,2023,2014,2012,2011,2004,1991,1987,1988,1984,1974,1972,1976,1978,1970,1967,1972,1974,1968,1959,1960,1963,1961,1951,1950,1952,1951,1940,1934,1936,1936,1928,1922,1927,1933,1933,1929,1936,1945,1946,1941,1944,1952,1955,1950,1951,1960,1966,1965,1966,1976,1990,1999,2003,2020,2041,2059,2070,2089,2114,2137,2150,2166,2187,2206,2215,2221,2236,2250,2258,2262,2277,2284,2281,2282,2289,2295,2292,2287,2290,2296,2295,2287,2288,2293,2293,2284,2280,2284,2286,2279,2273,2272,2271,2261,2245,2238,2228,2215,2194,2183,2177,2168,2152,2142,2140,2138,2127,2119,2120,2122,2117,2108,2113,2120,2124,2122,2127,2140,2148,2147,2147,2153,2158,2153,2144,2144,2142,2133,2118,2113,2111,2105,2091,2087,2088,2087,2077,2072,2075,2076,2071,2064,2068,2075,2077,2072,2076,2088,2094,2091,2091,2099,2102,2095,2087,2086,2084,2074,2059,2054,2052,2043,2028,2023,2022,2017,2006,2001,2002,2002,1995,1989,1993,1997,1996,1989,1994,2002,2003,1996,1997,2002,2004,1996,1991,1993,1994,1987,1977,1975,1972,1963,1950,1945,1944,1939,1927,1924,1927,1928,1921,1918,1926,1933,1934,1935,1943,1955,1960,1957,1964,1973,1977,1972,1972,1978,1982,1973,1976,1979,1975,1967,1970,1976,1978,1974,1980,1993,2004,2008,2019,2040,2059,2072,2086,2110,2134,2152,2165,2190,2219,2243,2258,2281,2308,2331,2341,2350,2361,2367,2361,2349,2343,2335,2318,2294,2280,2268,2251,2227,2212,2203,2192,2175,2162,2159,2156,2149,2141,2144,2150,2150,2146,2153,2166,2176,2177,2181,2192,2198,2194,2186,2186,2182,2155,2141,2132,2118,2097,2085,2080,2072,2057,2049,2050,2050,2043,2037,2042,2049,2048,2044,2054,2065,2073,2074,2081,2095,2104,2104,2105,2113,2118,2112,2103,2098,2093,2078,2062,2056,2051,2040,2025,2020,2021,2018,2007,2005,2011,2014,2009,2008,2017,2025,2026,2024,2033,2047,2053,2053,2058,2067,2072,2064,2060,2059,2054,2038,2023,2013,2005,1989,1971,1964,1960,1952,1940,1936,1940,1941,1935,1936,1944,1952,1952,1953,1964,1976,1981,1980,1989,2000,2004,1999,2000,2005,2002,1990,1987,1983,1969,1954,1949,1945,1936,1923,1922,1925,1924,1916,1916,1923,1928,1924,1925,1935,1945,1947,1948,1961,1978,1990,1992,2004,2017,2027,2027,2028,2034,2037,2028,2021,2021,2023,2017,2010,2015,2025,2032,2033,2047,2067,2084,2095,2113,2138,2164,2180,2197,2226,2254,2276,2291,2315,2341,2360,2367,2377,2395,2388,2380,2377,2369,2350,2329,2315,2302,2281,2258,2243,2234,2221,2201,2190,2188,2184,2173,2167,2172,2178,2175,2172,2181,2197,2202,2203,2213,2226,2231,2227,2228,2229,2225,2209,2196,2186,2173,2151,2130,2120,2110,2095,2080,2075,2074,2070,2058,2057,2062,2062,2056,2055,2064,2073,2074,2077,2092,2107,2116,2117,2126,2135,2137,2129,2125,2123,2117,2100,2086,2077,2067,2049,2031,2022,2017,2008,1992,1990,1992,1990,1981,1980,1987,1992,1988,1988,1999,2012,2016,2017,2027,2041,2047,2045,2049,2055,2056,2047,2040,2035,2028,2011,1995,1987,1980,1966,1951,1946,1944,1937,1924,1922,1926,1929,1922,1924,1935,1943,1944,1945,1957,1969,1974,1972,1981,1992,1998,1992,1993,1996,1995,1982,1972,1969,1962,1949,1934,1930,1927,1918,1906,1904,1908,1908,1901,1902,1912,1920,1918,1921,1934,1947,1952,1954,1966,1977,1983,1979,1982,1988,1987,1974,1973,1972,1964,1954,1954,1957,1957,1952,1959,1974,1988,1994,2010,2035,2061,2080,2100,2131,2162,2184,2202,2232,2264,2290,2308,2331,2358,2380,2387,2393,2402,2406,2398,2383,2373,2362,2342,2315,2299,2285,2268,2244,2228,2220,2211,2193,2180,2177,2176,2167,2158,2164,2173,2178,2177,2186,2199,2208,2207,2209,2216,2218,2209,2198,2191,2183,2163,2140,2125,2113,2095,2072,2057,2052,2043,2028,2021,2025,2029,2025,2023,2033,2044,2049,2050,2066,2085,2101,2106,2119,2137,2149,2149,2149,2153,2144,2123,2112,2099,2080,2055,2039,2028,2014,1993,1982,1981,1977,1965,1959,1962,1965,1961,1957,1966,1977,1984,1986,2001,2017,2028,2030,2039,2050,2054,2047,2042,2040,2034,2018,2002,1994,1986,1971,1953,1947,1944,1937,1923,1920,1923,1924,1917,1917,1927,1935,1937,1938,1950,1964,1971,1970,1980,1993,1997,1993,1993,1996,1993,1980,1966,1959,1951,1934,1918,1912,1908,1899,1886,1883,1887,1886,1877,1877,1886,1892,1890,1894,1908,1925,1934,1941,1956,1974,1983,1984,1989,1995,1996,1983,1972,1963,1946,1931,1924,1920,1909,1896,1895,1899,1900,1895,1903,1918,1932,1939,1956,1985,2015,2038,2062,2099,2135,2164,2186,2216,2248,2272,2285,2301,2318,2327,2325,2320,2321,2313,2296,2281,2273,2265,2248,2231,2226,2221,2212,2197,2192,2193,2189,2178,2175,2182,2188,2184,2181,2190,2199,2200,2195,2197,2200,2196,2181,2173,2168,2157,2137,2122,2114,2104,2086,2070,2066,2060,2051,2039,2039,2043,2043,2036,2042,2052,2061,2061,2068,2087,2105,2114,2121,2134,2147,2151,2146,2145,2146,2139,2122,2110,2103,2093,2074,2058,2052,2046,2033,2020,2019,2020,2015,2005,2008,2015,2019,2015,2022,2036,2048,2053,2057,2073,2086,2090,2089,2095,2099,2096,2081,2070,2062,2048,2025,2008,1997,1986,1967,1951,1947,1944,1934,1923,1925,1931,1934,1932,1939,1956,1969,1974,1983,2001,2016,2020,2022,2029,2033,2028,2015,2009,2003,1991,1971,1957,1949,1939,1921,1908,1905,1903,1893,1885,1886,1892,1892,1887,1894,1908,1919,1919,1930,1948,1964,1972,1978,1995,2008,2013,2009,2013,2013,2007,1992,1982,1976,1968,1951,1942,1943,1944,1939,1940,1951,1968,1979,1990,2012,2038,2058,2071,2093,2120,2144,2157,2176,2204,2230,2246,2259,2277,2299,2298,2299,2302,2298,2283,2267,2259,2247,2226,2203,2191,2181,2166,2147,2140,2139,2133,2122,2120,2126,2132,2130,2132,2147,2163,2171,2174,2184,2195,2196,2188,2183,2180,2170,2149,2132,2120,2104,2081,2058,2047,2036,2020,2002,1998,1998,1996,1988,1992,2002,2010,2010,2018,2036,2055,2065,2074,2093,2110,2121,2123,2131,2137,2136,2116,2107,2095,2073,2054,2043,2033,2015,1996,1992,1990,1979,1970,1973,1978,1978,1973,1982,1998,2011,2016,2029,2049,2066,2074,2078,2088,2094,2090,2076,2070,2063,2046,2022,2007,1996,1982,1961,1947,1942,1937,1925,1915,1918,1922,1918,1913,1921,1937,1947,1951,1966,1989,2009,2018,2028,2043,2052,2050,2042,2039,2031,1997,1978,1966,1948,1923,1907,1900,1890,1874,1864,1865,1867,1863,1858,1869,1883,1892,1895,1911,1932,1950,1957,1968,1983,1995,1993,1988,1989,1987,1975,1958,1950,1944,1934,1918,1914,1918,1920,1918,1925,1941,1959,1972,1986,2016,2048,2074,2098,2134,2176,2211,2236,2266,2300,2327,2340,2350,2362,2367,2358,2341,2328,2315,2293,2262,2243,2228,2208,2182,2165,2156,2146,2129,2116,2117,2118,2111,2106,2116,2130,2140,2144,2157,2178,2193,2196,2202,2211,2216,2207,2195,2187,2176,2156,2130,2114,2099,2081,2055,2041,2035,2026,2011,2004,2007,2010,2005,2004,2016,2032,2041,2047,2067,2090,2109,2116,2127,2142,2150,2145,2138,2135,2128,2111,2088,2075,2061,2042,2017,2005,1997,1985,1968,1960,1961,1961,1954,1953,1965,1979,1987,1992,2011,2033,2048,2055,2069,2086,2095,2093,2088,2090,2084,2067,2047,2035,2022,2001,1976,1963,1953,1938,1918,1910,1909,1907,1896,1894,1902,1911,1913,1917,1935,1957,1973,1982,2001,2023,2037,2041,2048,2056,2058,2047,2033,2023,2007,1984,1970,1961,1948,1927,1917,1915,1912,1902,1897,1905,1913,1915,1917,1932,1958,1970,1979,1999,2020,2033,2034,2041,2049,2050,2038,2027,2019,2007,1984,1963,1950,1939,1921,1903,1898,1898,1894,1886,1890,1901,1911,1913,1924,1949,1975,1994,2015,2049,2087,2116,2139,2167,2197,2218,2227,2240,2252,2260,2252,2254,2254,2244,2232,2230,2232,2227,2218,2219,2225,2227,2219,2222,2234,2245,2247,2253,2269,2285,2292,2292,2300,2306,2303,2288,2276,2266,2248,2220,2196,2177,2157,2129,2103,2089,2078,2062,2043,2040,2039,2035,2025,2028,2039,2048,2047,2054,2074,2093,2106,2113,2129,2143,2148,2141,2141,2138,2129,2109,2092,2080,2064,2041,2020,2010,2002,1987,1975,1975,1979,1978,1972,1981,1995,2007,2009,2024,2046,2068,2078,2088,2104,2116,2116,2108,2105,2102,2072,2051,2037,2019,1992,1972,1962,1951,1934,1921,1919,1920,1915,1908,1916,1929,1938,1940,1955,1976,1992,1997,2010,2027,2038,2037,2034,2036,2033,2020,2002,1990,1978,1959,1934,1919,1911,1900,1882,1875,1877,1878,1872,1872,1884,1896,1901,1905,1922,1945,1959,1965,1980,1997,2006,2005,2005,2010,2009,1998,1985,1978,1971,1954,1935,1926,1921,1911,1896,1891,1893,1891,1882,1882,1892,1901,1903,1906,1923,1944,1958,1965,1979,1997,2005,2002,2002,2005,2003,1988,1975,1968,1960,1945,1931,1930,1933,1933,1930,1942,1961,1980,1991,2015,2050,2086,2113,2145,2190,2235,2269,2298,2332,2366,2388,2396,2406,2415,2403,2383,2370,2350,2320,2292,2268,2249,2223,2199,2187,2178,2163,2146,2144,2148,2148,2142,2148,2166,2180,2186,2194,2211,2226,2229,2226,2228,2227,2216,2196,2183,2169,2150,2122,2104,2091,2078,2058,2043,2041,2038,2030,2021,2027,2036,2039,2037,2052,2073,2091,2100,2115,2137,2155,2159,2160,2165,2166,2157,2139,2128,2116,2097,2071,2054,2041,2027,2005,1993,1990,1989,1982,1976,1983,1994,1997,1996,2010,2031,2048,2055,2071,2091,2106,2107,2109,2114,2113,2101,2083,2071,2057,2037,2008,1990,1977,1962,1939,1927,1925,1923,1912,1907,1913,1921,1922,1921,1936,1955,1967,1972,1987,2004,2016,2015,2018,2023,2024,2012,1999,1990,1981,1964,1942,1932,1925,1914,1897,1892,1893,1893,1884,1885,1895,1906,1910,1915,1934,1957,1973,1982,2001,2023,2037,2039,2044,2052,2052,2040,2025,2014,2001,1979,1954,1939,1929,1911,1892,1885,1884,1881,1873,1875,1887,1901,1908,1922,1952,1986,2013,2039,2076,2116,2147,2167,2192,2216,2232,2235,2239,2245,2243,2229,2228,2229,2224,2212,2211,2218,2220,2214,2215,2227,2238,2239,2241,2256,2274,2284,2287,2300,2315,2322,2318,2315,2314,2305,2282,2258,2237,2215,2183,2149,2127,2108,2084,2056,2042,2035,2026,2010,2006,2013,2019,2019,2025,2045,2068,2082,2093,2113,2134,2147,2146,2150,2156,2153,2139,2125,2115,2100,2076,2052,2039,2027,2009,1989,1984,1983,1978,1969,1971,1983,1994,1995,2006,2031,2055,2071,2084,2106,2126,2137,2136,2139,2142,2135,2115,2100,2087,2068,2040,2015,2001,1987,1969,1951,1947,1945,1940,1930,1934,1946,1956,1957,1968,1990,2010,2021,2032,2050,2066,2071,2066,2067,2065,2054,2018,2001,1982,1954,1932,1921,1909,1889,1875,1872,1873,1869,1863,1871,1887,1899,1904,1921,1947,1971,1983,1998,2020,2036,2041,2040,2041,2042,2031,2012,1999,1988,1972,1946,1929,1920,1909,1892,1881,1881,1882,1878,1873,1885,1902,1914,1920,1940,1966,1989,2001,2015,2035,2049,2050,2048,2051,2050,2040,2025,2020,2017,2010,2000,2001,2010,2017,2019,2028,2051,2075,2091,2110,2145,2183,2213,2237,2273,2312,2342,2358,2377,2396,2406,2401,2393,2378,2351,2323,2302,2280,2252,2217,2194,2178,2160,2136,2123,2120,2118,2109,2105,2118,2132,2141,2148,2168,2192,2207,2212,2224,2235,2237,2226,2218,2211,2196,2169,2147,2132,2115,2091,2070,2060,2053,2041,2026,2027,2036,2042,2041,2055,2079,2101,2113,2129,2152,2170,2177,2178,2185,2188,2181,2163,2152,2142,2124,2097,2078,2066,2052,2030,2014,2009,2006,1995,1985,1990,2001,2007,2008,2024,2049,2069,2077,2093,2112,2128,2130,2129,2132,2129,2117,2096,2082,2068,2046,2017,1997,1986,1970,1948,1937,1935,1935,1929,1924,1934,1949,1958,1962,1980,2005,2024,2033,2048,2067,2078,2077,2073,2072,2067,2050,2014,1992,1968,1937,1918,1904,1889,1867,1856,1856,1856,1848,1848,1862,1879,1889,1897,1928,1955,1974,1985,2005,