1783,1778,1771,1767,1763,1757,1751,1746,1742,1735,1731,1731,1729,1727,1727,1726,1726,1724,1720,1716,1712,1709,1707,1703,1700,1699,1698,1695,1691,1689,1686,1679,1672,1666,1659,1650,1642,1638,1633,1630,1624,1621,1617,1613,1605,1599,1593,1585,1578,1570,1565,1560,1556,1550,1548,1547,1546,1544,1543,1541,1538,1534,1532,1529,1527,1526,1523,1522,1521,1522,1525,1530,1537,1543,1548,1556,1562,1568,1579,1592,1610,1632,1655,1683,1714,1749,1787,1827,1872,1921,1970,2019,2069,2116,2161,2200,2237,2268,2294,2314,2332,2355,2367,2373,2377,2378,2376,2371,2365,2358,2347,2337,2326,2318,2309,2304,2300,2293,2288,2282,2276,2272,2270,2268,2266,2263,2262,2261,2260,2256,2253,2246,2240,2229,2220,2207,2196,2183,2168,2155,2141,2123,2111,2100,2092,2084,2076,2067,2056,2048,2040,2032,2025,2017,2010,2004,1998,1991,1983,1975,1968,1963,1959,1955,1952,1950,1946,1942,1938,1933,1926,1918,1910,1902,1895,1887,1881,1876,1871,1865,1857,1852,1843,1833,1821,1808,1795,1781,1770,1761,1755,1750,1744,1736,1732,1727,1723,1718,1713,1711,1707,1701,1695,1688,1680,1670,1659,1649,1641,1632,1625,1623,1620,1620,1620,1619,1619,1615,1614,1615,1616,1619,1623,1628,1630,1632,1634,1633,1632,1632,1631,1630,1630,1631,1635,1640,1644,1645,1646,1645,1642,1639,1637,1632,1628,1624,1621,1618,1618,1617,1619,1620,1619,1617,1615,1614,1612,1609,1610,1613,1620,1628,1644,1661,1683,1705,1735,1769,1807,1849,1895,1947,2001,2056,2110,2161,2210,2256,2294,2329,2357,2381,2399,2418,2424,2427,2424,2420,2414,2408,2400,2392,2383,2373,2361,2350,2340,2328,2318,2309,2302,2296,2291,2285,2280,2274,2270,2265,2259,2256,2253,2248,2243,2240,2237,2234,2231,2228,2226,2220,2215,2206,2194,2183,2168,2154,2138,2125,2110,2095,2085,2074,2063,2052,2043,2033,2028,2022,2016,2012,2007,2002,2000,1998,2001,2003,2006,2011,2015,2016,2019,2020,2016,2014,2011,2007,2001,1995,1990,1981,1974,1965,1953,1940,1925,1909,1893,1877,1865,1852,1841,1832,1822,1816,1809,1803,1797,1794,1791,1788,1782,1779,1773,1767,1760,1751,1742,1735,1729,1723,1721,1719,1717,1714,1712,1705,1697,1689,1681,1673,1666,1661,1657,1654,1647,1642,1635,1630,1622,1616,1608,1608,1609,1613,1616,1619,1620,1620,1618,1618,1616,1616,1617,1615,1613,1610,1604,1601,1598,1597,1598,1600,1601,1605,1606,1608,1609,1613,1617,1623,1632,1639,1649,1657,1666,1675,1683,1691,1702,1715,1732,1753,1773,1799,1827,1861,1898,1938,1981,2028,2075,2123,2171,2218,2261,2304,2342,2378,2410,2435,2457,2477,2496,2504,2508,2509,2508,2505,2502,2496,2489,2475,2464,2452,2439,2426,2410,2400,2388,2376,2364,2355,2344,2333,2324,2312,2303,2294,2285,2275,2268,2263,2256,2250,2243,2232,2220,2206,2190,2171,2152,2134,2118,2105,2091,2081,2072,2063,2054,2044,2035,2026,2017,2008,2000,1994,1988,1984,1978,1977,1976,1975,1973,1971,1969,1964,1959,1953,1946,1940,1933,1926,1923,1922,1920,1920,1923,1925,1927,1931,1932,1930,1926,1922,1916,1912,1908,1903,1897,1892,1885,1878,1867,1855,1844,1831,1821,1811,1802,1797,1791,1785,1779,1771,1764,1755,1747,1742,1740,1739,1737,1735,1733,1730,1726,1724,1724,1723,1721,1722,1722,1719,1718,1715,1711,1704,1698,1691,1688,1688,1690,1694,1698,1705,1711,1716,1722,1729,1736,1740,1743,1744,1742,1736,1726,1716,1702,1690,1677,1666,1654,1645,1632,1619,1608,1596,1586,1575,1569,1564,1562,1559,1559,1558,1557,1557,1559,1564,1570,1579,1594,1612,1631,1655,1683,1713,1746,1784,1822,1865,1910,1957,2005,2052,2098,2144,2186,2228,2268,2303,2336,2365,2406,2433,2449,2461,2471,2476,2476,2476,2472,2466,2457,2447,2436,2423,2411,2398,2386,2374,2363,2352,2342,2334,2323,2313,2304,2295,2285,2276,2269,2264,2258,2253,2248,2238,2227,2214,2198,2183,2167,2155,2143,2131,2119,2105,2089,2072,2055,2042,2027,2014,2001,1989,1978,1967,1959,1954,1953,1953,1955,1959,1964,1969,1970,1973,1973,1975,1975,1976,1977,1975,1973,1970,1967,1964,1961,1956,1950,1941,1932,1922,1913,1904,1894,1886,1879,1877,1873,1871,1867,1864,1861,1860,1855,1854,1847,1844,1838,1834,1826,1817,1809,1799,1790,1783,1776,1768,1761,1754,1745,1737,1727,1719,1712,1707,1705,1705,1707,1707,1706,1709,1710,1711,1713,1717,1723,1728,1733,1737,1740,1745,1745,1745,1744,1744,1742,1740,1736,1732,1723,1712,1703,1693,1683,1676,1671,1666,1666,1665,1663,1662,1663,1661,1659,1659,1659,1660,1657,1657,1658,1656,1655,1657,1662,1671,1682,1697,1716,1738,1765,1796,1833,1870,1913,1953,1995,2039,2079,2122,2163,2203,2240,2274,2305,2332,2356,2380,2393,2399,2404,2406,2402,2400,2394,2386,2380,2369,2359,2346,2334,2323,2311,2303,2291,2286,2281,2277,2273,2272,2272,2271,2271,2268,2267,2262,2255,2247,2240,2232,2220,2209,2197,2186,2173,2159,2144,2131,2116,2103,2092,2083,2075,2069,2060,2053,2045,2037,2028,2019,2010,2002,1995,1987,1978,1969,1959,1952,1945,1940,1937,1935,1936,1938,1939,1940,1940,1938,1935,1929,1922,1917,1908,1898,1888,1879,1869,1860,1851,1843,1838,1831,1827,1822,1818,1816,1811,1806,1803,1798,1792,1786,1783,1779,1774,1772,1768,1764,1755,1748,1740,1734,1730,1726,1721,1718,1712,1706,1701,1698,1695,1694,1691,1691,1692,1690,1687,1684,1679,1673,1669,1664,1663,1662,1664,1666,1668,1672,1672,1674,1676,1680,1685,1690,1695,1702,1709,1715,1721,1728,1736,1743,1745,1750,1752,1751,1749,1743,1738,1728,1720,1712,1706,1700,1694,1690,1688,1685,1683,1682,1681,1685,1688,1692,1697,1699,1705,1711,1719,1729,1744,1762,1783,1807,1837,1869,1904,1940,1981,2021,2064,2109,2154,2196,2235,2273,2308,2337,2365,2389,2411,2437,2454,2464,2469,2473,2474,2472,2471,2471,2467,2463,2457,2448,2438,2428,2415,2406,2397,2388,2383,2378,2374,2368,2362,2356,2347,2339,2332,2325,2319,2313,2306,2300,2292,2282,2272,2261,2248,2234,2218,2203,2186,2167,2148,2128,2110,2097,2085,2074,2066,2057,2050,2042,2033,2025,2017,2013,2006,2003,2001,2001,2003,2001,2002,2004,2004,2005,2004,2003,2002,2000,1997,1991,1985,1976,1968,1959,1949,1942,1933,1928,1923,1916,1909,1906,1902,1900,1897,1893,1890,1887,1883,1878,1872,1866,1859,1855,1851,1848,1843,1840,1833,1827,1821,1812,1804,1796,1788,1783,1779,1777,1775,1776,1777,1779,1778,1777,1779,1782,1783,1785,1785,1783,1780,1775,1768,1759,1751,1742,1738,1731,1728,1723,1720,1720,1719,1719,1721,1725,1728,1732,1735,1738,1740,1737,1734,1730,1725,1725,1723,1723,1721,1720,1715,1710,1703,1695,1688,1679,1672,1665,1662,1659,1656,1657,1658,1657,1658,1657,1661,1665,1675,1683,1696,1713,1731,1753,1779,1811,1847,1888,1932,1980,2030,2078,2125,2171,2213,2247,2279,2306,2332,2353,2370,2391,2405,2410,2411,2413,2415,2414,2412,2408,2403,2395,2386,2375,2364,2349,2340,2331,2322,2320,2316,2313,2307,2303,2297,2291,2286,2285,2285,2287,2290,2297,2302,2306,2310,2310,2308,2303,2296,2287,2273,2262,2249,2235,2223,2211,2197,2182,2165,2145,2122,2098,2075,2055,2035,2020,2006,1995,1986,1980,1976,1976,1978,1980,1983,1987,1992,1995,2000,2006,2012,2017,2019,2020,2019,2013,2007,1998,1988,1976,1965,1953,1943,1935,1930,1925,1921,1917,1910,1905,1900,1899,1896,1894,1890,1889,1887,1882,1878,1874,1869,1863,1855,1847,1839,1832,1825,1820,1818,1816,1818,1819,1818,1815,1807,1797,1787,1776,1764,1755,1750,1748,1749,1749,1751,1754,1755,1756,1758,1761,1763,1768,1772,1770,1770,1764,1759,1751,1743,1736,1730,1727,1724,1722,1720,1718,1716,1713,1707,1705,1701,1697,1695,1693,1692,1690,1689,1685,1680,1676,1670,1664,1660,1656,1656,1657,1661,1664,1673,1681,1689,1700,1715,1732,1754,1779,1810,1844,1879,1914,1953,1993,2029,2064,2099,2135,2168,2198,2226,2252,2275,2299,2314,2322,2326,2328,2327,2326,2324,2319,2315,2310,2305,2297,2290,2283,2274,2265,2257,2249,2240,2231,2224,2216,2203,2192,2180,2166,2155,2144,2134,2122,2112,2101,2089,2074,2061,2047,2033,2017,2008,1999,1992,1987,1982,1981,1978,1973,1967,1962,1955,1951,1949,1949,1951,1953,1952,1950,1948,1943,1936,1927,1919,1909,1900,1893,1886,1882,1879,1876,1875,1874,1875,1877,1878,1882,1886,1886,1883,1880,1876,1867,1861,1857,1853,1848,1845,1842,1839,1837,1834,1828,1824,1818,1814,1809,1808,1806,1807,1806,1803,1803,1799,1797,1796,1794,1794,1792,1792,1794,1794,1795,1792,1790,1790,1789,1789,1788,1787,1788,1786,1785,1785,1783,1777,1772,1769,1765,1762,1756,1754,1752,1748,1743,1738,1730,1722,1711,1701,1690,1679,1671,1663,1658,1654,1651,1649,1647,1649,1646,1642,1641,1642,1641,1640,1639,1640,1643,1646,1650,1654,1661,1666,1672,1684,1698,1719,1745,1774,1808,1846,1885,1926,1968,2007,2046,2085,2123,2158,2191,2220,2246,2266,2284,2299,2306,2309,2309,2308,2305,2302,2296,2291,2282,2273,2263,2250,2239,2229,2220,2212,2205,2199,2194,2188,2181,2173,2162,2148,2137,2127,2121,2113,2109,2107,2105,2102,2099,2093,2086,2079,2069,2059,2048,2040,2030,2018,2011,2003,1996,1988,1980,1973,1962,1952,1941,1931,1921,1912,1905,1900,1896,1895,1895,1893,1891,1889,1887,1882,1879,1875,1872,1872,1868,1870,1867,1866,1863,1861,1856,1849,1843,1837,1829,1826,1821,1818,1815,1812,1809,1805,1803,1799,1793,1789,1785,1782,1778,1773,1769,1767,1764,1761,1760,1760,1761,1761,1764,1768,1770,1771,1772,1771,1770,1766,1763,1760,1757,1754,1749,1744,1740,1737,1737,1738,1741,1745,1746,1746,1746,1744,1743,1740,1737,1738,1737,1734,1732,1726,1720,1712,1705,1699,1693,1686,1681,1681,1676,1675,1673,1671,1671,1668,1666,1665,1664,1662,1660,1661,1661,1660,1655,1656,1659,1663,1670,1682,1698,1718,1741,1770,1804,1846,1890,1939,1987,2040,2092,2143,2189,2234,2276,2312,2341,2370,2391,2408,2424,2428,2427,2420,2410,2400,2386,2369,2355,2340,2324,2308,2292,2279,2267,2255,2242,2231,2220,2210,2201,2193,2187,2183,2179,2177,2174,2174,2171,2166,2161,2157,2151,2146,2138,2132,2122,2114,2104,2097,2091,2084,2076,2070,2060,2051,2041,2031,2020,2007,1996,1986,1978,1970,1966,1959,1955,1949,1943,1936,1931,1928,1926,1925,1921,1920,1916,1913,1907,1903,1903,1900,1899,1899,1902,1903,1907,1911,1915,1919,1921,1921,1921,1920,1916,1913,1909,1905,1900,1895,1887,1879,1869,1862,1855,1847,1839,1832,1825,1820,1814,1809,1803,1798,1791,1784,1780,1775,1774,1774,1773,1774,1772,1769,1766,1765,1763,1763,1762,1761,1759,1757,1750,1745,1741,1737,1734,1733,1732,1732,1732,1731,1729,1728,1727,1728,1730,1732,1736,1741,1746,1749,1748,1749,1746,1745,1743,1738,1732,1723,1716,1706,1695,1685,1673,1662,1653,1639,1626,1617,1608,1601,1595,1592,1592,1594,1599,1607,1620,1632,1646,1668,1693,1721,1753,1788,1830,1873,1919,1966,2016,2070,2119,2169,2218,2265,2308,2345,2378,2405,2435,2450,2461,2467,2470,2472,2469,2463,2453,2442,2430,2421,2410,2399,2390,2380,2367,2357,2344,2335,2326,2318,2308,2299,2291,2285,2278,2271,2266,2258,2252,2247,2242,2237,2232,2225,2213,2200,2187,2170,2153,2137,2121,2104,2091,2077,2061,2046,2028,2015,2001,1987,1977,1969,1963,1960,1957,1952,1948,1943,1940,1939,1938,1937,1935,1932,1929,1926,1921,1917,1915,1912,1910,1907,1903,1898,1891,1882,1875,1869,1863,1859,1857,1856,1855,1853,1851,1847,1844,1841,1837,1836,1835,1835,1835,1835,1834,1835,1832,1828,1823,1814,1805,1794,1785,1777,1768,1762,1755,1748,1742,1736,1732,1729,1728,1727,1728,1728,1734,1738,1741,1743,1744,1746,1746,1747,1750,1751,1753,1753,1754,1752,1749,1747,1746,1746,1747,1746,1747,1748,1747,1741,1738,1735,1735,1732,1730,1729,1726,1725,1722,1720,1720,1721,1723,1724,1724,1724,1722,1719,1716,1713,1709,1707,1709,1712,1716,1718,1718,1720,1718,1717,1716,1719,1722,1725,1729,1737,1744,1755,1770,1788,1812,1840,1871,1905,1945,1984,2026,2069,2113,2155,2192,2230,2262,2295,2321,2343,2361,2374,2388,2394,2398,2400,2399,2394,2388,2379,2364,2351,2337,2324,2313,2302,2296,2291,2284,2279,2273,2270,2265,2262,2259,2255,2251,2245,2240,2237,2234,2229,2225,2224,2223,2223,2221,2217,2212,2208,2200,2191,2183,2174,2164,2154,2145,2132,2117,2100,2082,2069,2053,2039,2026,2018,2010,2005,2003,2003,2008,2014,2022,2029,2038,2041,2042,2041,2036,2030,2022,2012,2003,1994,1985,1977,1969,1960,1949,1940,1933,1927,1925,1922,1922,1921,1920,1914,1909,1902,1896,1889,1881,1877,1871,1870,1865,1862,1856,1849,1843,1840,1835,1832,1831,1829,1825,1822,1816,1810,1805,1799,1793,1788,1784,1779,1776,1773,1770,1768,1769,1772,1773,1773,1775,1777,1780,1784,1787,1792,1793,1795,1794,1791,1787,1781,1773,1764,1756,1746,1737,1726,1716,1708,1701,1699,1697,1698,1700,1702,1704,1703,1706,1705,1702,1698,1695,1691,1687,1685,1682,1680,1679,1675,1673,1671,1671,1671,1672,1675,1678,1685,1688,1693,1698,1702,1707,1712,1721,1729,1740,1753,1772,1794,1818,1846,1878,1913,1950,1991,2031,2076,2120,2162,2207,2248,2288,2324,2355,2385,2411,2433,2459,2472,2478,2481,2482,2480,2477,2472,2462,2450,2439,2426,2410,2394,2378,2361,2347,2334,2320,2307,2296,2284,2271,2261,2251,2242,2237,2232,2230,2227,2225,2221,2217,2210,2204,2198,2192,2187,2182,2175,2170,2164,2157,2150,2145,2139,2133,2123,2116,2104,2092,2080,2072,2061,2053,2044,2038,2032,2029,2028,2026,2023,2021,2018,2014,2012,2009,2007,2006,2005,2002,1999,1995,1990,1988,1984,1979,1974,1970,1966,1960,1955,1949,1944,1939,1932,1927,1921,1917,1909,1897,1886,1874,1864,1851,1842,1833,1826,1820,1816,1815,1811,1809,1807,1807,1805,1805,1806,1811,1815,1819,1824,1831,1836,1838,1841,1844,1846,1849,1849,1847,1845,1843,1838,1832,1825,1820,1813,1807,1801,1798,1794,1791,1788,1785,1782,1778,1779,1779,1782,1786,1793,1802,1809,1815,1821,1827,1833,1838,1843,1849,1858,1865,1871,1875,1877,1874,1868,1861,1851,1842,1830,1818,1807,1796,1784,1771,1758,1746,1733,1720,1711,1705,1700,1699,1703,1712,1726,1744,1764,1789,1818,1851,1887,1924,1967,2015,2063,2113,2162,2213,2258,2301,2342,2378,2410,2434,2462,2480,2486,2488,2488,2485,2480,2472,2466,2460,2451,2443,2435,2428,2418,2409,2399,2388,2382,2374,2366,2359,2351,2343,2335,2327,2320,2310,2301,2292,2284,2277,2268,2258,2249,2239,2227,2214,2201,2187,2171,2154,2140,2124,2109,2097,2085,2076,2065,2057,2052,2049,2049,2049,2051,2051,2051,2050,2046,2043,2042,2039,2036,2033,2036,2041,2046,2050,2052,2052,2047,2041,2035,2026,2017,2005,1993,1979,1965,1953,1942,1933,1929,1925,1922,1920,1917,1915,1912,1910,1910,1912,1914,1917,1920,1923,1925,1926,1927,1928,1927,1926,1922,1919,1914,1907,1901,1894,1890,1885,1882,1878,1875,1871,1868,1865,1862,1860,1857,1856,1858,1861,1863,1865,1867,1868,1869,1870,1870,1871,1870,1869,1867,1865,1862,1858,1856,1856,1854,1850,1847,1843,1840,1835,1830,1826,1822,1816,1811,1806,1799,1791,1784,1781,1783,1785,1789,1793,1797,1798,1798,1794,1789,1784,1779,1773,1768,1761,1755,1749,1742,1737,1734,1730,1728,1727,1728,1731,1733,1738,1747,1758,1772,1790,1811,1836,1864,1894,1928,1962,1999,2040,2081,2124,2166,2207,2247,2287,2323,2356,2386,2415,2439,2470,2488,2498,2502,2505,2504,2500,2494,2485,2478,2469,2459,2449,2437,2426,2415,2403,2392,2384,2374,2365,2357,2349,2339,2332,2326,2324,2324,2322,2321,2321,2319,2317,2313,2310,2307,2302,2297,2292,2283,2275,2265,2254,2241,2229,2216,2202,2188,2178,2169,2159,2149,2141,2132,2124,2116,2111,2106,2104,2102,2102,2103,2102,2101,2100,2100,2099,2097,2093,2091,2086,2079,2072,2065,2059,2050,2041,2033,2021,2009,1998,1987,1976,1966,1956,1946,1939,1931,1923,1915,1907,1902,1893,1890,1891,1895,1900,1909,1918,1926,1937,1945,1951,1958,1964,1969,1970,1971,1969,1965,1962,1960,1959,1959,1958,1956,1953,1947,1939,1931,1921,1911,1900,1887,1873,1856,1839,1822,1807,1798,1789,1786,1785,1785,1787,1786,1786,1785,1786,1787,1791,1797,1806,1814,1824,1832,1844,1854,1866,1874,1882,1886,1887,1882,1872,1861,1847,1834,1822,1811,1801,1792,1786,1782,1778,1776,1775,1775,1776,1774,1776,1776,1779,1781,1786,1794,1805,1820,1836,1855,1876,1902,1931,1964,2000,2041,2084,2127,2168,2208,2250,2287,2324,2357,2389,2415,2440,2461,2486,2500,2509,2517,2521,2523,2521,2517,2510,2501,2489,2477,2466,2453,2443,2435,2426,2421,2417,2414,2412,2412,2410,2409,2409,2406,2406,2407,2408,2410,2408,2405,2400,2391,2377,2364,2349,2336,2323,2311,2295,2281,2264,2244,2223,2204,2186,2169,2155,2143,2134,2123,2112,2099,2087,2076,2063,2052,2045,2040,2034,2030,2022,2016,2010,2003,1994,1984,1977,1970,1961,1955,1950,1944,1939,1935,1932,1928,1925,1922,1919,1915,1910,1908,1908,1907,1909,1910,1915,1916,1914,1914,1912,1912,1909,1906,1903,1901,1897,1894,1889,1886,1882,1877,1875,1874,1874,1874,1875,1874,1875,1875,1874,1876,1880,1883,1887,1891,1896,1898,1899,1900,1902,1902,1903,1900,1899,1898,1899,1896,1892,1887,1877,1866,1857,1849,1837,1825,1816,1807,1798,1792,1787,1783,1781,1777,1774,1772,1768,1761,1753,1749,1742,1737,1736,1734,1735,1736,1736,1737,1739,1743,1747,1756,1766,1779,1796,1812,1828,1845,1862,1881,1901,1922,1948,1976,2005,2036,2069,2106,2140,2174,2213,2250,2287,2322,2355,2382,2405,2421,2438,2457,2466,2469,2469,2465,2455,2440,2425,2409,2389,2369,2350,2330,2310,2290,2273,2260,2250,2242,2237,2232,2227,2221,2214,2209,2207,2204,2204,2206,2207,2207,2204,2200,2196,2189,2181,2170,2160,2150,2136,2123,2110,2095,2078,2064,2053,2041,2031,2022,2018,2014,2011,2009,2009,2010,2014,2016,2017,2018,2019,2016,2012,2009,2007,2003,1999,1998,1995,1992,1988,1984,1979,1976,1970,1965,1960,1956,1953,1948,1947,1942,1935,1931,1925,1919,1913,1907,1900,1896,1891,1884,1879,1872,1864,1858,1851,1846,1841,1840,1835,1835,1835,1837,1836,1836,1838,1840,1842,1846,1850,1852,1852,1850,1846,1841,1835,1829,1821,1815,1811,1804,1800,1795,1792,1786,1783,1779,1777,1773,1772,1771,1771,1771,1771,1770,1771,1770,1771,1773,1775,1778,1780,1781,1781,1782,1784,1787,1796,1805,1820,1837,1854,1873,1889,1905,1920,1939,1959,1983,2011,2040,2070,2101,2133,2165,2196,2226,2254,2284,2312,2340,2365,2387,2406,2428,2441,2450,2455,2459,2462,2461,2459,2452,2446,2439,2429,2421,2415,2407,2403,2399,2394,2388,2383,2375,2368,2360,2353,2347,2341,2336,2330,2323,2317,2308,2297,2286,2275,2263,2249,2238,2225,2213,2201,2190,2179,2169,2157,2147,2137,2130,2125,2119,2112,2107,2100,2090,2082,2073,2063,2055,2044,2036,2028,2020,2013,2008,2006,2004,2004,2005,2007,2009,2009,2011,2009,2009,2009,2007,2006,2006,2007,2007,2006,2007,2005,2003,1999,1994,1989,1982,1972,1966,1957,1949,1939,1931,1924,1915,1907,1904,1900,1900,1900,1904,1905,1908,1908,1907,1907,1902,1896,1891,1885,1880,1874,1869,1864,1860,1857,1853,1852,1849,1848,1847,1846,1845,1843,1840,1834,1830,1824,1821,1816,1811,1805,1800,1792,1783,1776,1768,1762,1757,1754,1755,1759,1765,1776,1792,1809,1831,1857,1888,1921,1957,1993,2035,2076,2119,2164,2210,2256,2302,2345,2385,2417,2444,2466,2490,2505,2512,2516,2516,2517,2517,2515,2514,2513,2512,2510,2509,2507,2505,2502,2499,2495,2491,2484,2478,2472,2467,2463,2457,2449,2438,2428,2414,2401,2392,2386,2379,2373,2368,2363,2354,2345,2336,2325,2314,2300,2287,2273,2260,2239,2223,2210,2196,2183,2171,2161,2152,2144,2136,2128,2116,2105,2095,2087,2082,2078,2078,2079,2081,2082,2082,2081,2078,2076,2071,2069,2069,2067,2063,2062,2060,2057,2055,2051,2048,2043,2039,2032,2027,2018,2009,1998,1986,1974,1961,1949,1938,1929,1925,1921,1920,1920,1920,1922,1922,1922,1921,1922,1918,1917,1916,1916,1917,1919,1920,1920,1919,1917,1912,1909,1903,1898,1893,1888,1882,1876,1867,1861,1852,1845,1836,1826,1819,1811,1805,1800,1798,1797,1799,1800,1803,1808,1815,1823,1835,1847,1862,1882,1905,1931,1962,1994,2031,2069,2110,2153,2196,2239,2284,2327,2365,2402,2436,2466,2493,2516,2541,2554,2560,2562,2560,2555,2551,2543,2536,2529,2521,2512,2506,2503,2502,2501,2501,2502,2503,2503,2501,2499,2500,2501,2505,2510,2515,2518,2520,2522,2523,2520,2515,2510,2505,2497,2488,2476,2461,2443,2425,2406,2390,2371,2355,2339,2327,2313,2303,2291,2280,2269,2261,2251,2241,2234,2227,2221,2218,2212,2209,2201,2194,2188,2180,2170,2161,2152,2144,2136,2128,2123,2117,2114,2112,2112,2116,2116,2119,2118,2120,2120,2117,2112,2106,2097,2087,2074,2063,2052,2043,2030,2020,2011,2001,1991,1979,1966,1955,1941,1931,1923,1918,1915,1912,1909,1906,1902,1897,1894,1892,1893,1892,1891,1892,1892,1889,1887,1884,1883,1878,1876,1872,1869,1864,1858,1852,1844,1840,1836,1831,1831,1833,1833,1834,1832,1832,1829,1827,1826,1826,1825,1826,1824,1823,1822,1820,1819,1821,1824,1828,1837,1850,1867,1890,1919,1953,1993,2037,2086,2136,2185,2233,2280,2324,2364,2407,2442,2475,2504,2531,2551,2576,2593,2603,2614,2620,2623,2622,2620,2613,2605,2599,2591,2585,2579,2573,2566,2557,2545,2534,2527,2518,2514,2507,2502,2497,2492,2490,2488,2490,2491,2493,2499,2497,2496,2491,2485,2479,2469,2457,2446,2435,2426,2413,2402,2390,2376,2359,2345,2331,2318,2305,2295,2284,2275,2264,2253,2246,2238,2233,2227,2219,2211,2203,2193,2183,2172,2164,2153,2143,2134,2125,2116,2109,2101,2095,2091,2085,2077,2074,2071,2065,2058,2056,2055,2054,2054,2055,2057,2058,2057,2054,2046,2037,2026,2013,2000,1989,1978,1968,1960,1953,1948,1943,1941,1941,1944,1947,1951,1955,1955,1954,1954,1952,1952,1949,1947,1943,1939,1934,1927,1919,1910,1902,1895,1886,1882,1877,1872,1865,1858,1852,1843,1833,1826,1818,1811,1804,1797,1791,1785,1781,1778,1777,1778,1779,1781,1784,1787,1789,1789,1789,1785,1783,1776,1769,1764,1759,1753,1748,1744,1740,1734,1731,1728,1730,1731,1736,1741,1749,1758,1771,1783,1802,1826,1855,1888,1928,1971,2015,2062,2108,2157,2202,2245,2287,2329,2367,2402,2434,2463,2488,2518,2537,2550,2559,2567,2576,2582,2585,2583,2578,2570,2560,2547,2534,2521,2511,2499,2488,2479,2469,2459,2449,2440,2435,2431,2427,2424,2422,2418,2418,2414,2412,2407,2405,2403,2400,2399,2394,2385,2376,2364,2349,2332,2313,2295,2279,2260,2241,2223,2206,2190,2176,2164,2154,2147,2142,2134,2130,2130,2127,2125,2125,2123,2119,2114,2109,2103,2098,2086,2079,2070,2061,2053,2047,2042,2037,2031,2023,2016,2010,2005,1999,1997,1996,1995,1995,1995,1997,1998,1996,1995,1993,1990,1987,1984,1979,1974,1967,1956,1945,1935,1922,1910,1896,1884,1871,1858,1847,1838,1831,1825,1824,1822,1827,1831,1838,1845,1851,1858,1865,1872,1878,1883,1885,1887,1887,1887,1884,1878,1875,1869,1864,1856,1849,1842,1832,1824,1813,1805,1796,1787,1777,1769,1761,1753,1746,1738,1731,1727,1720,1715,1708,1703,1700,1697,1694,1692,1692,1687,1679,1673,1664,1654,1647,1643,1642,1643,1648,1658,1669,1685,1708,1737,1772,1814,1860,1912,1966,2019,2075,2127,2178,2227,2275,2318,2357,2392,2420,2442,2461,2470,2472,2470,2467,2461,2451,2439,2428,2417,2405,2393,2382,2373,2364,2355,2346,2342,2334,2328,2325,2323,2323,2322,2323,2324,2326,2325,2325,2321,2317,2308,2297,2287,2273,2261,2248,2236,2227,2220,2215,2210,2205,2198,2188,2178,2164,2154,2142,2129,2117,2104,2093,2081,2069,2062,2055,2049,2047,2046,2046,2046,2047,2046,2045,2041,2040,2036,2034,2034,2034,2035,2036,2039,2038,2037,2036,2033,2029,2025,2018,2015,2008,2001,1992,1983,1972,1959,1945,1931,1918,1904,1891,1879,1869,1860,1852,1844,1837,1830,1827,1823,1822,1820,1820,1819,1821,1823,1825,1825,1827,1827,1827,1827,1828,1827,1824,1819,1814,1809,1803,1794,1786,1774,1764,1751,1739,1730,1720,1712,1706,1704,1700,1698,1697,1697,1701,1702,1705,1710,1712,1715,1716,1716,1718,1720,1720,1718,1718,1719,1719,1720,1720,1723,1727,1733,1745,1760,1783,1810,1842,1880,1918,1958,1999,2040,2084,2128,2170,2208,2243,2274,2298,2321,2341,2357,2377,2387,2393,2393,2393,2387,2383,2376,2369,2361,2359,2353,2348,2343,2338,2332,2329,2328,2327,2328,2330,2332,2332,2328,2325,2319,2312,2306,2299,2289,2280,2268,2258,2243,2229,2215,2201,2186,2172,2160,2149,2136,2123,2114,2104,2096,2089,2083,2078,2073,2071,2066,2062,2059,2053,2047,2040,2032,2025,2018,2009,2004,1999,1994,1989,1984,1980,1972,1964,1954,1945,1935,1928,1925,1921,1920,1919,1918,1916,1914,1910,1906,1902,1901,1900,1901,1897,1897,1897,1896,1896,1897,1899,1899,1901,1904,1905,1905,1904,1901,1899,1897,1891,1884,1875,1863,1854,1841,1830,1818,1810,1798,1786,1774,1762,1750,1742,1737,1735,1736,1739,1742,1748,1752,1753,1757,1759,1760,1759,1759,1757,1754,1749,1746,1744,1747,1749,1752,1759,1763,1766,1769,1770,1771,1773,1776,1782,1792,1801,1811,1824,1840,1858,1879,1903,1933,1966,2004,2045,2085,2124,2164,2200,2232,2261,2288,2310,2332,2349,2367,2382,2385,2382,2376,2367,2359,2352,2347,2342,2334,2331,2328,2325,2323,2321,2320,2318,2317,2317,2319,2319,2319,2317,2314,2310,2306,2300,2297,2292,2286,2279,2267,2256,2243,2227,2210,2195,2177,2162,2147,2132,2116,2099,2082,2064,2049,2034,2022,2009,2001,1994,1989,1983,1979,1974,1971,1968,1966,1965,1963,1962,1962,1963,1967,1971,1973,1977,1982,1983,1983,1980,1975,1967,1959,1951,1943,1933,1922,1909,1897,1881,1868,1853,1840,1829,1820,1813,1809,1810,1812,1814,1819,1824,1829,1832,1833,1835,1836,1837,1838,1840,1844,1845,1848,1845,1843,1835,1826,1816,1807,1800,1793,1787,1782,1777,1768,1759,1749,1741,1733,1725,1721,1720,1721,1723,1727,1732,1737,1742,1747,1754,1759,1759,1761,1761,1759,1756,1754,1752,1748,1743,1737,1732,1729,1726,1721,1720,1718,1718,1718,1720,1722,1727,1731,1735,1743,1755,1769,1788,1809,1834,1863,1895,1928,1970,2013,2060,2110,2158,2205,2246,2283,2315,2340,2362,2379,2392,2402,2407,2409,2408,2406,2407,2407,2407,2408,2407,2406,2402,2401,2395,2388,2380,2374,2367,2359,2351,2343,2337,2330,2322,2314,2306,2300,2293,2287,2281,2276,2272,2267,2260,2254,2247,2237,2230,2223,2217,2208,2201,2194,2184,2171,2156,2139,2120,2102,2083,2067,2050,2035,2024,2013,2008,2000,1995,1994,1995,1997,1999,1999,1999,1996,1991,1983,1978,1972,1966,1961,1958,1955,1952,1948,1943,1936,1929,1921,1914,1907,1896,1888,1879,1870,1862,1854,1850,1844,1839,1835,1825,1815,1804,1793,1784,1777,1771,1767,1761,1754,1749,1741,1734,1730,1728,1729,1732,1733,1737,1742,1744,1746,1748,1751,1755,1757,1757,1758,1756,1754,1751,1748,1745,1741,1738,1732,1727,1721,1713,1707,1698,1689,1677,1668,1658,1651,1644,1638,1634,1631,1631,1632,1633,1638,1645,1652,1658,1662,1665,1663,1661,1658,1655,1649,1642,1633,1623,1613,1601,1589,1580,1572,1568,1567,1570,1577,1589,1604,1626,1655,1692,1733,1779,1828,1879,1928,1979,2029,2078,2125,2169,2213,2253,2286,2314,2336,2355,2364,2367,2369,2368,2362,2353,2345,2337,2324,2313,2304,2297,2289,2279,2270,2257,2248,2237,2228,2217,2211,2204,2200,2200,2201,2205,2211,2216,2220,2223,2224,2225,2226,2225,2224,2219,2215,2209,2201,2190,2180,2166,2152,2137,2122,2106,2088,2074,2057,2047,2032,2019,2006,1994,1985,1977,1971,1964,1958,1954,1947,1943,1941,1937,1932,1931,1928,1926,1923,1917,1914,1912,1911,1908,1904,1902,1896,1889,1883,1881,1878,1876,1876,1874,1874,1873,1871,1868,1864,1857,1849,1840,1834,1829,1826,1821,1820,1817,1812,1807,1803,1802,1803,1805,1806,1805,1803,1800,1799,1799,1801,1802,1803,1804,1803,1802,1800,1798,1795,1792,1788,1786,1788,1789,1793,1798,1803,1809,1812,1815,1820,1821,1820,1818,1816,1813,1812,1810,1808,1806,1800,1792,1785,1776,1770,1763,1757,1752,1749,1745,1741,1738,1735,1733,1730,1731,1731,1731,1731,1730,1727,1725,1721,1716,1713,1710,1707,1703,1697,1691,1686,1680,1674,1674,1676,1678,1686,1698,1716,1737,1764,1794,1829,1867,1905,1944,1984,2021,2056,2093,2129,2161,2192,2220,2246,2270,2302,2323,2337,2346,2351,2350,2349,2344,2339,2330,2322,2316,2309,2299,2291,2283,2272,2264,2258,2253,2249,2247,2241,2236,2230,2222,2215,2207,2200,2196,2191,2186,2180,2176,2170,2163,2155,2143,2129,2114,2103,2092,2081,2068,2059,2049,2039,2029,2023,2015,2008,2002,1996,1992,1988,1984,1979,1977,1975,1975,1974,1975,1977,1976,1978,1979,1980,1981,1980,1981,1983,1985,1988,1987,1987,1984,1980,1975,1970,1963,1955,1949,1941,1934,1927,1923,1920,1918,1918,1916,1915,1917,1916,1915,1916,1915,1914,1911,1907,1902,1895,1889,1883,1876,1869,1860,1852,1842,1832,1823,1813,1802,1789,1775,1762,1748,1737,1728,1724,1721,1723,1727,1733,1737,1740,1743,1745,1746,1745,1745,1746,1745,1742,1735,1730,1725,1721,1720,1720,1721,1720,1718,1714,1709,1703,1697,1692,1686,1683,1677,1672,1670,1669,1669,1669,1672,1675,1678,1683,1684,1685,1684,1681,1676,1669,1662,1658,1652,1651,1650,1652,1655,1663,1672,1681,1693,1707,1723,1743,1766,1791,1825,1857,1892,1927,1961,1993,2026,2057,2090,2122,2154,2184,2213,2238,2269,2289,2300,2309,2315,2318,2319,2313,2308,2299,2289,2279,2266,2253,2241,2228,2216,2202,2186,2169,2154,2137,2126,2121,2118,2116,2115,2116,2116,2114,2109,2106,2100,2096,2095,2090,2086,2079,2071,2062,2054,2044,2037,2029,2024,2018,2013,2008,2001,1993,1985,1976,1966,1956,1949,1945,1941,1942,1943,1946,1946,1947,1947,1945,1942,1936,1935,1933,1931,1931,1929,1928,1922,1916,1907,1899,1891,1885,1879,1875,1873,1872,1871,1874,1874,1876,1877,1878,1876,1873,1869,1865,1862,1858,1856,1854,1853,1850,1846,1844,1840,1837,1834,1832,1832,1833,1833,1831,1828,1823,1816,1809,1802,1797,1794,1788,1785,1782,1783,1782,1783,1783,1784,1784,1782,1778,1772,1767,1758,1752,1746,1739,1735,1729,1727,1724,1720,1719,1718,1719,1719,1721,1721,1721,1719,1714,1713,1713,1712,1712,1712,1713,1713,1712,1710,1708,1706,1704,1699,1695,1688,1684,1679,1674,1673,1673,1677,1683,1691,1701,1715,1727,1740,1754,1770,1786,1805,1824,1848,1869,1893,1915,1936,1955,1972,1992,2014,2044,2069,2088,2104,2118,2127,2137,2142,2145,2145,2146,2147,2145,2144,2140,2141,2138,2138,2138,2139,2139,2137,2133,2127,2118,2110,2100,2092,2087,2084,2080,2078,2077,2077,2075,2075,2075,2075,2073,2074,2077,2078,2081,2079,2078,2075,2068,2061,2054,2045,2037,2028,2022,2016,2008,1997,1986,1973,1965,1956,1950,1947,1949,1952,1956,1961,1968,1972,1977,1981,1988,1993,1997,1999,1994,1987,1975,1963,1949,1935,1924,1915,1909,1903,1902,1895,1889,1882,1872,1864,1855,1847,1844,1842,1842,1844,1848,1852,1855,1858,1861,1863,1866,1870,1873,1873,1870,1866,1861,1856,1853,1849,1847,1847,1847,1847,1846,1844,1842,1842,1841,1845,1848,1854,1856,1858,1858,1853,1847,1840,1832,1827,1817,1807,1799,1790,1781,1771,1762,1756,1753,1744,1740,1733,1727,1723,1717,1716,1718,1720,1722,1726,1731,1732,1736,1740,1745,1752,1761,1769,1781,1792,1803,1814,1825,1835,1846,1859,1875,1891,1911,1930,1951,1971,1988,2003,2017,2028,2037,2043,2048,2051,2052,2053,2051,2048,2045,2039,2029,2025,2020,2012,2006,2004,2001,2001,2000,2003,2006,2010,2012,2017,2024,2032,2042,2052,2061,2070,2075,2076,2077,2077,2077,2072,2066,2059,2053,2047,2038,2034,2030,2027,2024,2020,2019,2015,2012,2007,2004,1999,1997,1995,1991,1989,1983,1979,1974,1970,1965,1962,1962,1962,1965,1965,1968,1970,1971,1973,1974,1975,1976,1975,1974,1970,1966,1963,1958,1954,1951,1948,1944,1939,1935,1931,1925,1918,1911,1903,1896,1890,1887,1884,1882,1879,1877,1878,1877,1878,1877,1878,1876,1874,1870,1865,1865,1863,1861,1859,1859,1857,1854,1853,1852,1851,1849,1847,1841,1837,1830,1823,1817,1813,1809,1804,1796,1788,1779,1768,1757,1747,1739,1736,1734,1734,1737,1742,1745,1753,1759,1769,1781,1794,1811,1827,1843,1861,1882,1901,1920,1938,1956,1979,2004,2028,2053,2078,2116,2145,2165,2181,2192,2201,2211,2220,2226,2231,2238,2244,2249,2253,2254,2253,2249,2245,2239,2234,2229,2224,2220,2212,2205,2196,2187,2178,2170,2165,2159,2155,2153,2153,2151,2151,2149,2149,2147,2144,2140,2136,2133,2129,2126,2125,2124,2122,2120,2118,2115,2112,2106,2099,2087,2076,2063,2053,2041,2031,2018,2008,1997,1987,1975,1966,1959,1957,1953,1953,1957,1958,1960,1963,1963,1964,1962,1961,1963,1965,1967,1966,1962,1957,1948,1939,1930,1923,1917,1910,1901,1896,1889,1880,1874,1866,1861,1858,1856,1856,1856,1860,1864,1868,1873,1878,1881,1882,1884,1885,1885,1883,1881,1883,1886,1887,1888,1887,1886,1884,1879,1876,1876,1877,1875,1874,1874,1871,1867,1862,1858,1855,1848,1844,1845,1843,1843,1846,1850,1858,1865,1876,1890,1907,1930,1953,1978,2002,2030,2055,2081,2110,2138,2164,2189,2212,2233,2250,2265,2286,2300,2312,2321,2328,2335,2340,2342,2342,2343,2345,2347,2350,2354,2358,2359,2362,2363,2365,2365,2365,2366,2369,2371,2372,2373,2374,2377,2377,2377,2378,2376,2373,2370,2365,2360,2356,2349,2341,2333,2322,2309,2296,2284,2273,2260,2249,2238,2227,2212,2199,2187,2178,2172,2167,2163,2160,2158,2155,2149,2145,2140,2135,2129,2128,2128,2125,2123,2119,2114,2107,2099,2090,2083,2075,2070,2065,2063,2062,2063,2065,2066,2068,2067,2065,2063,2060,2060,2059,2059,2060,2056,2054,2050,2046,2041,2037,2034,2030,2026,2024,2021,2017,2010,2006,1998,1996,1991,1991,1990,1991,1993,1994,1993,1991,1991,1990,1988,1987,1989,1991,1992,1992,1992,1992,1994,1994,1996,1998,2002,2005,2004,2002,1998,1994,1991,1990,1995,2005,2018,2040,2062,2085,2114,2144,2176,2213,2246,2277,2307,2337,2358,2379,2399,2416,2430,2443,2459,2471,2478,2482,2487,2493,2494,2495,2498,2500,2502,2506,2508,2517,2521,2528,2533,2537,2542,2547,2549,2552,2558,2563,2568,2571,2573,2574,2573,2569,2564,2556,2545,2532,2516,2499,2480,2460,2443,2425,2407,2390,2374,2355,2340,2322,2304,2288,2274,2260,2247,2233,2218,2203,2189,2174,2163,2153,2141,2133,2128,2125,2119,2120,2121,2123,2125,2127,2130,2133,2133,2132,2132,2131,2128,2127,2122,2118,2114,2107,2100,2094,2090,2087,2085,2087,2086,2087,2086,2085,2088,2089,2088,2087,2087,2085,2084,2081,2079,2075,2070,2065,2058,2054,2049,2042,2034,2025,2017,2006,1993,1981,1971,1962,1954,1948,1942,1937,1933,1932,1930,1931,1932,1933,1937,1939,1944,1946,1948,1949,1949,1947,1949,1951,1953,1956,1958,1961,1965,1971,1980,1990,2004,2020,2038,2061,2087,2116,2144,2177,2208,2236,2267,2295,2325,2354,2381,2405,2428,2447,2464,2483,2499,2510,2518,2526,2534,2538,2542,2545,2550,2555,2561,2565,2570,2577,2581,2585,2589,2595,2600,2607,2610,2616,2618,2619,2620,2622,2624,2625,2626,2625,2623,2616,2607,2594,2580,2565,2550,2537,2523,2508,2494,2477,2458,2439,2418,2403,2392,2382,2374,2365,2357,2348,2339,2329,2319,2314,2307,2301,2295,2286,2277,2269,2261,2253,2247,2244,2237,2233,2228,2220,2212,2205,2197,2192,2186,2181,2178,2174,2169,2165,2160,2153,2146,2140,2135,2129,2124,2116,2106,2095,2084,2071,2059,2050,2041,2034,2027,2020,2012,2007,2003,1997,1995,1993,1992,1993,1992,1989,1986,1984,1980,1976,1971,1968,1965,1961,1958,1951,1943,1937,1931,1927,1926,1927,1929,1934,1936,1937,1935,1931,1925,1919,1911,1904,1896,1887,1881,1875,1867,1859,1851,1839,1828,1819,1811,1804,1798,1796,1794,1792,1790,1785,1783,1781,1779,1780,1781,1781,1785,1787,1791,1794,1799,1804,1807,1811,1814,1816,1819,1821,1822,1822,1825,1828,1832,1838,1845,1853,1864,1878,1896,1915,1939,1965,1994,2024,2058,2095,2134,2174,2217,2258,2299,2337,2373,2410,2442,2474,2503,2529,2561,2581,2591,2599,2604,2609,2612,2617,2625,2633,2639,2645,2649,2650,2649,2649,2651,2655,2658,2663,2668,2674,2681,2686,2694,2701,2708,2715,2722,2727,2728,2729,2724,2718,2708,2695,2683,2666,2650,2633,2612,2590,2568,2546,2524,2502,2481,2460,2443,2426,2409,2396,2382,2369,2358,2350,2340,2329,2315,2302,2289,2275,2264,2257,2251,2244,2238,2235,2232,2229,2227,2225,2224,2223,2222,2219,2215,2211,2203,2194,2186,2179,2171,2161,2152,2142,2135,2124,2116,2105,2097,2088,2081,2074,2071,2066,2061,2055,2050,2043,2035,2028,2022,2017,2011,2005,2000,1995,1989,1984,1980,1977,1973,1968,1964,1960,1958,1952,1950,1944,1940,1935,1929,1922,1915,1906,1898,1890,1881,1872,1862,1852,1841,1831,1821,1814,1811,1809,1809,1810,1814,1818,1826,1831,1836,1840,1846,1854,1862,1870,1876,1880,1882,1883,1882,1878,1876,1874,1870,1867,1865,1864,1863,1861,1858,1853,1850,1846,1842,1840,1836,1832,1827,1821,1814,1808,1801,1796,1792,1786,1783,1779,1777,1779,1782,1787,1797,1809,1826,1844,1863,1885,1908,1933,1961,1990,2021,2053,2085,2121,2155,2193,2229,2263,2297,2331,2358,2396,2423,2443,2458,2470,2482,2493,2497,2503,2508,2512,2517,2527,2539,2550,2564,2575,2586,2595,2603,2609,2614,2620,2622,2620,2617,2613,2607,2602,2594,2587,2581,2577,2572,2572,2573,2575,2577,2576,2573,2568,2561,2553,2544,2536,2525,2510,2494,2477,2457,2437,2417,2397,2378,2361,2346,2331,2320,2309,2297,2287,2275,2265,2255,2245,2238,2229,2222,2220,2217,2214,2214,2210,2207,2201,2192,2180,2169,2156,2145,2132,2120,2109,2099,2090,2084,2078,2071,2062,2057,2050,2045,2041,2038,2036,2038,2038,2036,2034,2030,2025,2017,2012,2009,2004,2000,1995,1992,1988,1986,1983,1981,1980,1975,1972,1967,1961,1955,1948,1942,1937,1935,1933,1929,1924,1921,1916,1910,1907,1903,1902,1898,1899,1898,1898,1899,1898,1896,1892,1886,1879,1871,1864,1855,1849,1845,1837,1836,1834,1832,1828,1827,1825,1822,1823,1825,1825,1828,1828,1829,1828,1825,1822,1819,1816,1815,1812,1809,1808,1806,1803,1804,1805,1805,1803,1800,1801,1801,1803,1808,1815,1826,1839,1853,1873,1895,1919,1946,1975,2006,2036,2066,2092,2118,2141,2162,2182,2201,2220,2234,2251,2262,2268,2271,2275,2279,2283,2286,2288,2290,2292,2291,2288,2287,2282,2276,2274,2275,2278,2282,2285,2289,2293,2294,2295,2293,2292,2291,2287,2282,2278,2269,2260,2247,2233,2216,2200,2185,2167,2154,2144,2133,2122,2117,2110,2104,2100,2102,2104,2106,2108,2109,2111,2111,2108,2105,2101,2095,2087,2082,2075,2071,2066,2061,2055,2049,2041,2032,2025,2021,2016,2011,2007,2007,2005,2004,2003,2003,2002,1999,1996,1992,1991,1987,1985,1982,1979,1975,1970,1965,1962,1959,1956,1953,1953,1952,1950,1948,1943,1936,1926,1915,1903,1893,1886,1880,1876,1874,1871,1868,1867,1864,1862,1858,1850,1845,1837,1828,1820,1811,1805,1801,1797,1796,1794,1795,1795,1799,1801,1805,1806,1807,1807,1808,1808,1807,1806,1803,1802,1796,1791,1786,1778,1771,1761,1753,1745,1739,1734,1732,1733,1737,1743,1751,1760,1769,1781,1795,1815,1837,1860,1888,1915,1942,1967,1990,2012,2029,2045,2060,2075,2090,2110,2124,2134,2143,2151,2156,2162,2167,2169,2174,2176,2180,2182,2186,2188,2191,2195,2200,2202,2205,2208,2209,2211,2212,2214,2214,2211,2208,2202,2197,2187,2179,2170,2160,2153,2144,2136,2127,2116,2106,2096,2088,2081,2073,2065,2062,2059,2058,2057,2055,2052,2048,2043,2040,2039,2038,2038,2035,2034,2028,2023,2015,2010,2003,1996,1987,1980,1973,1965,1958,1953,1950,1946,1942,1940,1938,1937,1936,1934,1931,1928,1922,1918,1914,1912,1908,1906,1904,1902,1897,1893,1889,1885,1883,1879,1878,1875,1875,1875,1874,1872,1868,1864,1858,1852,1846,1840,1832,1825,1822,1819,1819,1818,1821,1824,1827,1829,1829,1832,1832,1830,1829,1823,1820,1817,1814,1812,1813,1815,1815,1819,1822,1822,1819,1813,1807,1802,1793,1786,1781,1778,1776,1777,1780,1783,1787,1793,1799,1808,1818,1829,1843,1858,1876,1896,1918,1942,1969,1994,2019,2043,2070,2094,2117,2139,2161,2179,2196,2218,2236,2247,2256,2267,2275,2285,2291,2301,2310,2315,2319,2321,2323,2325,2326,2329,2327,2327,2327,2324,2321,2321,2318,2317,2315,2315,2314,2314,2310,2306,2302,2295,2287,2280,2272,2264,2252,2245,2235,2225,2213,2200,2188,2175,2162,2150,2138,2126,2114,2103,2092,2084,2074,2068,2062,2055,2049,2043,2038,2034,2028,2021,2015,2010,2003,1999,1993,1988,1983,1977,1967,1958,1948,1938,1929,1924,1923,1924,1926,1930,1935,1936,1935,1931,1927,1922,1916,1911,1906,1902,1899,1898,1897,1896,1893,1890,1884,1879,1874,1870,1866,1862,1859,1854,1851,1846,1842,1835,1831,1827,1821,1816,1811,1808,1801,1796,1787,1778,1770,1761,1753,1745,1741,1736,1732,1731,1728,1729,1727,1723,1721,1718,1716,1713,1712,1711,1709,1708,1703,1698,1692,1687,1682,1677,1675,1674,1675,1680,1687,1696,1705,1716,1729,1740,1751,1764,1777,1793,1810,1832,1854,1880,1908,1937,1969,2000,2032,2065,2096,2124,2148,2169,2188,2206,2220,2233,2247,2255,2258,2259,2258,2260,2261,2261,2262,2264,2267,2267,2267,2266,2263,2260,2257,2255,2256,2256,2256,2257,2255,2255,2255,2257,2261,2267,2271,2278,2284,2288,2291,2289,2284,2276,2269,2260,2250,2242,2234,2223,2214,2203,2192,2179,2167,2155,2147,2141,2134,2125,2117,2109,2100,2092,2082,2071,2062,2053,2048,2044,2043,2041,2041,2040,2039,2035,2030,2022,2013,2002,1993,1985,1976,1966,1956,1946,1936,1925,1916,1906,1897,1891,1883,1879,1876,1874,1873,1871,1868,1870,1871,1873,1876,1877,1881,1882,1884,1884,1882,1879,1872,1866,1860,1855,1849,1844,1838,1829,1818,1806,1794,1784,1772,1763,1757,1752,1749,1750,1753,1757,1758,1760,1761,1759,1760,1757,1756,1753,1751,1745,1742,1738,1736,1733,1730,1728,1731,1733,1737,1737,1739,1737,1734,1730,1726,1722,1718,1711,1705,1698,1690,1682,1675,1670,1662,1655,1646,1638,1630,1622,1619,1618,1619,1625,1630,1640,1651,1663,1673,1685,1697,1709,1721,1737,1755,1773,1792,1814,1838,1866,1894,1925,1975,2016,2048,2074,2097,2115,2129,2141,2153,2164,2173,2181,2189,2195,2201,2205,2208,2210,2211,2213,2215,2218,2222,2229,2236,2246,2256,2266,2275,2285,2296,2306,2313,2319,2324,2326,2328,2327,2324,2321,2313,2303,2292,2283,2272,2263,2255,2244,2235,2224,2213,2202,2188,2176,2162,2151,2141,2131,2122,2112,2103,2093,2083,2073,2065,2058,2048,2039,2029,2020,2010,2000,1992,1984,1975,1968,1959,1953,1946,1939,1932,1927,1919,1911,1902,1893,1888,1882,1878,1873,1869,1865,1863,1860,1861,1862,1863,1865,1867,1867,1867,1863,1857,1850,1840,1829,1821,1813,1808,1803,1798,1795,1790,1786,1783,1779,1776,1771,1765,1763,1763,1762,1763,1763,1759,1758,1754,1753,1750,1747,1746,1748,1750,1754,1755,1757,1756,1757,1756,1750,1747,1743,1739,1735,1730,1727,1724,1720,1715,1713,1709,1705,1700,1692,1687,1678,1669,1659,1653,1647,1642,1639,1636,1637,1637,1636,1634,1635,1630,1625,1623,1622,1623,1622,1623,1625,1627,1626,1625,1623,1621,1620,1621,1625,1636,1648,1661,1678,1696,1714,1729,1742,1756,1770,1784,1798,1813,1829,1846,1862,1881,1901,1925,1947,1967,1986,2003,2021,2036,2049,2060,2068,2075,2082,2088,2095,2099,2102,2104,2105,2104,2100,2096,2090,2083,2077,2072,2066,2060,2055,2051,2048,2046,2047,2048,2052,2055,2057,2061,2064,2068,2070,2073,2075,2075,2075,2075,2074,2075,2074,2071,2067,2061,2053,2042,2031,2021,2008,2000,1987,1979,1968,1959,1951,1944,1939,1933,1927,1923,1918,1912,1907,1903,1901,1902,1901,1902,1905,1907,1910,1912,1913,1913,1908,1901,1896,1889,1879,1872,1865,1860,1854,1852,1852,1856,1859,1864,1869,1874,1876,1876,1873,1870,1864,1859,1848,1839,1833,1824,1816,1808,1798,1791,1784,1779,1775,1771,1770,1768,1769,1770,1768,1766,1761,1757,1752,1748,1743,1741,1740,1741,1741,1745,1748,1747,1748,1749,1750,1749,1749,1747,1746,1745,1745,1743,1741,1740,1737,1733,1732,1728,1726,1724,1721,1721,1718,1715,1711,1706,1702,1699,1696,1695,1695,1695,1694,1694,1690,1685,1676,1672,1667,1663,1660,1659,1659,1658,1656,1651,1645,1637,1630,1624,1620,1618,1618,1616,1614,1613,1611,1612,1613,1614,1617,1620,1625,1632,1642,1652,1664,1678,1694,1713,1731,1749,1770,1791,1811,1831,1855,1878,1901,1925,1950,1973,1994,2011,2031,2049,2061,2073,2083,2091,2096,2099,2101,2100,2099,2097,2098,2100,2100,2102,2102,2102,2101,2102,2101,2103,2105,2104,2102,2098,2092,2081,2074,2065,2060,2057,2056,2054,2054,2051,2047,2043,2037,2032,2025,2020,2015,2009,2004,1999,1989,1979,1970,1958,1950,1942,1937,1930,1927,1926,1928,1929,1927,1928,1929,1929,1929,1928,1929,1927,1927,1927,1927,1925,1922,1916,1912,1905,1898,1893,1891,1886,1881,1878,1873,1871,1868,1864,1857,1854,1851,1846,1845,1843,1840,1837,1834,1829,1824,1818,1813,1807,1803,1799,1796,1793,1790,1786,1779,1773,1767,1760,1756,1751,1747,1743,1740,1735,1732,1730,1728,1726,1725,1729,1731,1734,1738,1738,1735,1732,1725,1718,1711,1704,1697,1687,1682,1674,1670,1666,1661,1659,1658,1655,1653,1653,1651,1645,1641,1634,1628,1622,1617,1613,1611,1609,1610,1612,1614,1616,1615,1614,1615,1617,1621,1626,1633,1641,1650,1658,1665,1672,1676,1681,1686,1693,1700,1707,1717,1726,1738,1746,1759,1774,1787,1802,1816,1831,1846,1861,1875,1890,1904,1915,1927,1938,1947,1956,1966,1970,1969,1964,1959,1951,1944,1935,1928,1924,1921,1921,1920,1923,1925,1929,1932,1937,1946,1953,1960,1966,1971,1977,1980,1983,1985,1989,1993,1997,2001,2004,2007,2006,2005,2001,1994,1988,1979,1970,1964,1956,1946,1934,1923,1912,1902,1894,1888,1882,1879,1875,1873,1867,1865,1862,1862,1865,1868,1873,1877,1881,1885,1886,1885,1883,1880,1875,1869,1865,1862,1860,1859,1856,1856,1855,1851,1849,1847,1844,1841,1838,1835,1829,1824,1817,1814,1813,1810,1807,1802,1795,1787,1778,1768,1760,1752,1747,1744,1743,1740,1740,1737,1739,1742,1742,1744,1745,1747,1747,1746,1743,1739,1736,1731,1725,1721,1719,1716,1713,1710,1707,1701,1694,1688,1679,1672,1664,1658,1653,1649,1646,1643,1641,1637,1634,1630,1628,1625,1626,1626,1629,1634,1639,1646,1655,1667,1684,1703,1724,1747,1769,1789,1807,1825,1841,1857,1872,1887,1900,1912,1920,1932,1940,1949,1955,1963,1970,1976,1981,1982,1982,1984,1984,1986,1986,1989,1991,1992,1991,1991,1989,1986,1988,1988,1991,1994,1996,1999,2001,2003,2004,2007,2013,2017,2022,2029,2034,2039,2040,2038,2035,2030,2027,2024,2023,2023,2022,2017,2011,2006,1999,1993,1984,1980,1976,1970,1968,1965,1964,1959,1954,1949,1943,1937,1932,1930,1931,1929,1926,1924,1919,1915,1910,1905,1900,1896,1889,1882,1874,1862,1850,1836,1823,1812,1802,1795,1793,1793,1795,1796,1797,1798,1798,1799,1796,1796,1795,1794,1794,1793,1794,1794,1794,1792,1792,1789,1787,1786,1787,1788,1786,1782,1780,1775,1768,1761,1755,1750,1746,1742,1742,1746,1750,1755,1758,1765,1770,1774,1779,1784,1790,1794,1799,1801,1801,1797,1792,1788,1784,1779,1775,1772,1773,1773,1773,1771,1765,1758,1753,1745,1740,1736,1732,1728,1725,1725,1723,1724,1727,1732,1737,1741,1747,1755,1767,1780,1796,1812,1833,1855,1873,1895,1916,1937,1957,1976,1991,2001,2008,2013,2016,2022,2023,2024,2026,2024,2022,2019,2016,2012,2007,2003,2000,1998,1997,1995,1996,1997,1996,1995,1997,1998,2003,2007,2010,2015,2020,2019,2019,2018,2017,2016,2014,2016,2017,2022,2025,2027,2027,2028,2026,2024,2023,2019,2014,2011,2007,2004,2001,1997,1993,1988,1985,1982,1982,1985,1990,1996,2000,2004,2005,2007,2004,2002,2001,1996,1994,1991,1990,1989,1985,1980,1974,1966,1957,1950,1943,1937,1931,1926,1918,1911,1903,1897,1893,1892,1892,1891,1893,1896,1899,1900,1900,1900,1900,1899,1895,1893,1892,1891,1889,1887,1882,1876,1872,1868,1866,1865,1865,1862,1860,1855,1850,1845,1841,1835,1829,1827,1822,1819,1815,1812,1806,1799,1792,1784,1776,1770,1765,1759,1753,1748,1742,1738,1735,1734,1734,1735,1741,1747,1756,1764,1770,1775,1779,1783,1784,1787,1786,1787,1787,1785,1782,1776,1767,1757,1741,1727,1711,1698,1685,1677,1672,1670,1670,1676,1688,1700,1715,1732,1754,1777,1801,1828,1853,1880,1902,1924,1947,1970,1992,2010,2026,2040,2053,2063,2068,2071,2073,2075,2078,2082,2087,2092,2097,2103,2109,2113,2115,2121,2126,2131,2135,2140,2145,2147,2144,2141,2137,2134,2130,2127,2129,2129,2132,2136,2140,2142,2142,2140,2137,2134,2132,2129,2125,2121,2115,2108,2099,2090,2081,2071,2061,2049,2040,2029,2018,2010,2005,2004,2002,2004,2004,2006,2005,2005,2006,2006,2005,2001,2001,1999,1999,1995,1995,1995,1994,1993,1993,1991,1991,1987,1984,1983,1978,1975,1971,1967,1966,1963,1962,1961,1958,1955,1947,1939,1930,1920,1913,1906,1900,1893,1886,1877,1870,1864,1856,1853,1851,1853,1854,1860,1864,1868,1869,1870,1867,1867,1864,1858,1851,1842,1834,1826,1815,1804,1797,1787,1779,1771,1765,1761,1758,1758,1757,1759,1761,1762,1766,1772,1778,1784,1787,1792,1797,1801,1804,1809,1812,1811,1810,1809,1803,1794,1782,1772,1761,1751,1737,1724,1712,1699,1686,1674,1663,1655,1649,1645,1646,1651,1657,1664,1674,1688,1701,1714,1730,1746,1762,1779,1795,1808,1823,1838,1853,1870,1888,1920,1947,1968,1989,2007,2023,2035,2046,2056,2062,2070,2077,2082,2086,2089,2087,2088,2087,2085,2083,2083,2085,2085,2088,2089,2091,2092,2093,2094,2095,2097,2099,2099,2101,2102,2105,2110,2119,2127,2137,2146,2153,2156,2158,2158,2157,2157,2156,2157,2156,2155,2150,2144,2135,2128,2118,2109,2101,2093,2083,2071,2059,2050,2037,2029,2017,2006,1996,1987,1978,1971,1967,1964,1962,1963,1965,1970,1973,1980,1988,1994,2002,2007,2012,2016,2019,2022,2027,2032,2034,2037,2037,2036,2035,2029,2026,2019,2012,2005,1999,1994,1988,1983,1978,1971,1967,1963,1960,1961,1962,1962,1964,1963,1960,1957,1951,1944,1937,1929,1925,1919,1915,1912,1910,1906,1902,1898,1894,1887,1883,1880,1877,1875,1871,1868,1864,1862,1860,1859,1859,1858,1857,1857,1858,1858,1858,1860,1864,1867,1869,1872,1873,1876,1874,1873,1868,1863,1857,1850,1841,1835,1827,1821,1814,1807,1800,1793,1788,1784,1784,1782,1785,1786,1786,1787,1789,1794,1800,1810,1821,1832,1847,1862,1878,1892,1909,1925,1939,1952,1964,1975,1986,1995,2007,2021,2034,2042,2053,2063,2072,2082,2089,2096,2100,2104,2105,2112,2118,2124,2130,2138,2144,2148,2149,2151,2153,2154,2155,2153,2154,2155,2158,2160,2163,2167,2173,2177,2181,2185,2185,2183,2181,2177,2167,2155,2145,2135,2125,2114,2104,2093,2083,2070,2058,2048,2040,2030,2022,2017,2015,2014,2012,2013,2016,2021,2025,2029,2033,2035,2036,2039,2043,2049,2054,2057,2063,2066,2065,2061,2055,2048,2038,2027,2016,2006,1995,1983,1973,1964,1958,1953,1950,1947,1946,1949,1950,1951,1955,1958,1959,1960,1962,1965,1965,1966,1967,1965,1964,1962,1959,1955,1949,1941,1932,1924,1917,1909,1902,1893,1886,1879,1871,1864,1858,1852,1845,1840,1835,1830,1822,1816,1809,1803,1796,1789,1785,1783,1782,1780,1781,1779,1777,1772,1763,1758,1749,1743,1741,1740,1740,1739,1737,1736,1736,1734,1734,1736,1739,1740,1742,1745,1747,1748,1755,1761,1770,1783,1798,1812,1829,1844,1860,1877,1895,1913,1930,1947,1964,1980,1997,2011,2023,2033,2046,2059,2068,2075,2086,2094,2103,2112,2119,2121,2121,2120,2123,2123,2124,2124,2130,2133,2138,2144,2149,2154,2158,2162,2169,2176,2186,2194,2200,2206,2211,2210,2211,2209,2207,2202,2196,2187,2174,2162,2146,2133,2118,2105,2095,2086,2076,2071,2066,2064,2063,2063,2062,2063,2065,2066,2069,2071,2074,2075,2077,2077,2077,2080,2080,2081,2080,2081,2083,2081,2079,2078,2080,2076,2074,2071,2068,2065,2060,2057,2056,2054,2052,2050,2048,2047,2044,2040,2037,2033,2026,2020,2013,2005,1995,1987,1980,1974,1967,1959,1954,1949,1941,1935,1926,1922,1917,1913,1910,1911,1909,1909,1904,1900,1893,1885,1877,1872,1867,1865,1863,1861,1863,1863,1865,1865,1866,1866,1864,1861,1860,1860,1858,1856,1854,1851,1848,1847,1850,1854,1859,1867,1875,1884,1894,1906,1915,1928,1939,1952,1963,1973,1984,1998,2011,2028,2045,2063,2082,2108,2130,2144,2157,2170,2184,2196,2207,2215,2221,2224,2226,2227,2225,2224,2221,2216,2215,2212,2211,2209,2205,2202,2200,2196,2191,2187,2182,2177,2175,2174,2177,2180,2184,2188,2195,2198,2201,2202,2201,2200,2195,2186,2179,2172,2164,2157,2152,2145,2142,2135,2129,2121,2114,2106,2101,2101,2103,2107,2113,2118,2123,2124,2125,2120,2114,2108,2099,2092,2088,2084,2084,2083,2082,2083,2084,2083,2082,2080,2077,2073,2068,2060,2052,2045,2040,2034,2029,2025,2022,2018,2014,2008,2001,1994,1988,1981,1973,1969,1963,1960,1957,1955,1953,1954,1956,1958,1958,1962,1963,1963,1963,1963,1964,1963,1961,1960,1963,1962,1961,1959,1958,1953,1947,1942,1937,1933,1929,1926,1922,1918,1913,1907,1902,1895,1889,1886,1882,1878,1875,1869,1865,1865,1867,1870,1876,1885,1896,1904,1916,1927,1938,1950,1962,1979,1997,2020,2043,2068,2094,2120,2145,2172,2198,2224,2249,2272,2294,2314,2329,2340,2353,2361,2365,2367,2367,2366,2363,2357,2352,2348,2344,2341,2341,2340,2339,2341,2343,2345,2347,2347,2350,2351,2355,2357,2361,2363,2368,2370,2372,2374,2372,2372,2372,2372,2368,2366,2363,2358,2354,2349,2340,2334,2323,2317,2309,2303,2297,2292,2288,2283,2282,2278,2274,2270,2264,2261,2257,2253,2249,2247,2243,2236,2228,2217,2205,2191,2178,2164,2153,2139,2128,2118,2110,2102,2096,2093,2092,2093,2094,2094,2095,2096,2095,2094,2093,2093,2094,2093,2094,2093,2090,2084,2077,2074,2070,2064,2058,2050,2041,2029,2015,2006,1997,1991,1988,1986,1985,1983,1981,1982,1984,1986,1989,1994,1998,2002,2008,2010,2011,2013,2011,2011,2011,2009,2006,2002,1995,1989,1979,1972,1963,1955,1948,1940,1933,1929,1926,1924,1923,1925,1928,1932,1934,1936,1939,1945,1949,1957,1963,1973,1983,1995,2012,2032,2056,2082,2111,2141,2171,2201,2231,2259,2286,2313,2334,2356,2376,2391,2406,2419,2441,2457,2466,2474,2481,2486,2490,2495,2498,2501,2502,2504,2504,2502,2501,2501,2506,2511,2517,2527,2533,2539,2541,2541,2540,2536,2529,2522,2518,2512,2507,2500,2490,2482,2473,2465,2457,2453,2450,2448,2447,2450,2451,2451,2449,2445,2442,2436,2427,2418,2408,2396,2381,2364,2344,2323,2303,2281,2264,2249,2240,2233,2226,2224,2221,2221,2222,2225,2230,2235,2241,2249,2257,2265,2270,2272,2273,2270,2266,2259,2251,2243,2234,2225,2216,2204,2191,2177,2160,2145,2129,2114,2102,2092,2086,2078,2073,2070,2066,2062,2061,2059,2060,2063,2065,2069,2073,2075,2078,2075,2076,2072,2067,2061,2056,2052,2046,2040,2033,2025,2018,2008,2000,1993,1986,1980,1975,1972,1967,1963,1958,1953,1946,1940,1934,1930,1925,1920,1913,1903,1895,1883,1873,1865,1856,1852,1849,1846,1845,1847,1849,1854,1862,1873,1885,1902,1917,1933,1951,1968,1990,2013,2041,2069,2098,2132,2167,2202,2238,2272,2305,2333,2359,2382,2404,2423,2450,2469,2484,2497,2507,2518,2530,2540,2549,2557,2564,2571,2575,2581,2584,2587,2588,2589,2591,2596,2600,2605,2612,2618,2622,2624,2626,2633,2637,2642,2645,2648,2647,2646,2637,2627,2612,2594,2571,2548,2528,2507,2489,2470,2454,2438,2424,2410,2399,2389,2385,2381,2381,2383,2386,2386,2388,2392,2392,2393,2393,2392,2389,2385,2378,2372,2363,2355,2345,2338,2330,2321,2309,2296,2283,2269,2253,2238,2225,2213,2201,2189,2177,2167,2157,2146,2138,2133,2131,2129,2128,2130,2130,2128,2129,2130,2132,2134,2136,2136,2137,2137,2135,2131,2126,2121,2117,2112,2108,2103,2097,2092,2089,2083,2082,2077,2075,2073,2071,2066,2058,2051,2043,2036,2027,2020,2013,2007,1998,1989,1981,1973,1966,1961,1956,1951,1944,1939,1934,1929,1923,1919,1919,1918,1919,1918,1916,1914,1911,1905,1901,1896,1892,1888,1884,1879,1874,1868,1862,1861,1859,1860,1865,1870,1877,1884,1893,1901,1911,1924,1940,1957,1978,2005,2036,2066,2098,2133,2164,2196,2227,2255,2286,2313,2341,2373,2400,2426,2461,2487,2501,2512,2522,2529,2532,2535,2538,2538,2538,2537,2537,2535,2534,2533,2532,2533,2537,2540,2545,2550,2553,2557,2559,2559,2560,2558,2558,2559,2561,2561,2559,2553,2546,2538,2526,2512,2498,2483,2468,2452,2435,2419,2403,2389,2372,2357,2342,2328,2315,2306,2301,2295,2293,2292,2293,2294,2296,2301,2304,2309,2311,2314,2316,2317,2316,2312,2307,2302,2293,2285,2279,2273,2267,2261,2251,2243,2232,2219,2205,2186,2167,2147,2129,2114,2100,2091,2084,2079,2076,2073,2072,2072,2073,2075,2077,2080,2085,2089,2091,2093,2093,2091,2085,2079,2073,2068,2059,2053,2045,2038,2029,2023,2014,2005,1996,1987,1979,1973,1970,1969,1968,1969,1970,1971,1972,1974,1976,1978,1981,1982,1985,1986,1983,1978,1971,1965,1956,1948,1937,1928,1917,1907,1898,1889,1880,1874,1867,1865,1864,1864,1867,1871,1880,1889,1897,1905,1913,1924,1937,1957,1978,2002,2030,2055,2083,2110,2137,2163,2189,2212,2234,2254,2272,2287,2299,2313,2318,2320,2321,2321,2320,2320,2323,2323,2325,2327,2329,2332,2335,2340,2349,2353,2359,2368,2374,2381,2387,2395,2400,2404,2408,2412,2415,2414,2412,2409,2407,2402,2396,2389,2381,2369,2356,2340,2325,2309,2290,2271,2255,2237,2221,2207,2193,2182,2172,2163,2151,2142,2134,2123,2113,2107,2101,2095,2094,2090,2090,2088,2086,2083,2080,2074,2069,2061,2058,2054,2052,2050,2050,2051,2051,2047,2045,2041,2037,2031,2024,2017,2009,2002,1994,1986,1979,1974,1966,1961,1954,1949,1941,1936,1936,1937,1939,1942,1946,1948,1947,1945,1942,1938,1932,1926,1921,1916,1912,1906,1901,1895,1887,1878,1871,1862,1855,1846,1840,1834,1830,1826,1823,1817,1815,1808,1803,1798,1801,1801,1805,1807,1808,1810,1808,1807,1807,1808,1810,1816,1822,1830,1841,1853,1869,1883,1902,1921,1943,1968,1995,2025,2053,2080,2110,2134,2157,2177,2196,2212,2229,2245,2272,2287,2296,2305,2315,2323,2332,2341,2348,2355,2360,2364,2368,2371,2372,2370,2369,2368,2366,2365,2363,2361,2359,2355,2353,2351,2349,2347,2346,2345,2342,2336,2327,2318,2307,2296,2280,2265,2252,2237,2224,2211,2203,2195,2189,2182,2177,2176,2173,2173,2176,2177,2181,2183,2183,2184,2181,2176,2169,2163,2154,2146,2139,2133,2128,2121,2117,2112,2109,2103,2099,2095,2090,2087,2081,2078,2073,2066,2058,2052,2045,2037,2029,2023,2018,2014,2013,2010,2005,2003,1997,1991,1986,1983,1977,1972,1965,1959,1951,1944,1937,1931,1924,1917,1909,1902,1897,1892,1888,1883,1879,1873,1865,1858,1851,1845,1837,1829,1825,1822,1817,1817,1818,1821,1825,1829,1833,1838,1840,1840,1838,1835,1829,1824,1816,1809,1800,1792,1783,1773,1765,1758,1753,1748,1745,1745,1746,1750,1756,1765,1774,1785,1795,1809,1823,1838,1856,1873,1891,1910,1929,1951,1973,1997,2019,2042,2063,2094,2118,2135,2152,2169,2184,2200,2213,2227,2238,2247,2253,2258,2260,2258,2256,2253,2248,2246,2245,2246,2246,2250,2252,2257,2263,2268,2273,2279,2283,2286,2286,2287,2287,2282,2276,2272,2267,2264,2260,2261,2259,2261,2262,2261,2261,2258,2250,2242,2235,2225,2214,2203,2195,2185,2174,2165,2155,2148,2142,2136,2131,2129,2123,2118,2111,2106,2100,2098,2095,2094,2092,2092,2094,2091,2091,2087,2085,2083,2081,2081,2079,2078,2076,2074,2070,2066,2064,2060,2059,2054,2050,2048,2042,2038,2032,2029,2024,2020,2016,2011,2011,2008,2008,2008,2009,2007,2006,2004,2001,1995,1988,1981,1976,1973,1969,1968,1969,1969,1967,1968,1966,1963,1959,1955,1950,1944,1936,1928,1920,1909,1901,1892,1884,1877,1869,1861,1853,1848,1846,1841,1841,1838,1835,1831,1825,1816,1811,1803,1795,1790,1786,1784,1782,1779,1779,1781,1784,1786,1791,1797,1804,1811,1819,1829,1839,1849,1861,1874,1888,1902,1916,1934,1953,1971,1990,2009,2030,2051,2070,2088,2108,2125,2143,2159,2175,2188,2203,2210,2216,2221,2224,2226,2229,2231,2233,2233,2233,2231,2229,2224,2216,2207,2197,2187,2176,2169,2160,2151,2144,2137,2132,2126,2121,2116,2113,2108,2104,2102,2100,2094,2086,2081,2074,2067,2057,2047,2042,2035,2030,2024,2020,2017,2015,2012,2010,2010,2007,2004,2003,2001,2000,2002,2003,2003,2004,2004,2001,2000,1998,1996,1993,1988,1984,1980,1975,1968,1964,1960,1956,1953,1952,1951,1949,1951,1953,1955,1956,1958,1961,1962,1963,1962,1963,1962,1959,1955,1949,1942,1932,1924,1913,1904,1895,1888,1881,1874,1867,1861,1856,1851,1848,1848,1848,1849,1853,1854,1857,1858,1860,1859,1859,1857,1858,1856,1857,1854,1852,1852,1850,1847,1841,1834,1824,1815,1804,1794,1784,1776,1768,1760,1756,1749,1744,1740,1740,1741,1743,1748,1754,1761,1767,1775,1784,1794,1804,1813,1826,1841,1856,1872,1891,1910,1932,1951,1972,1994,2013,2034,2051,2069,2087,2103,2116,2130,2146,2154,2157,2159,2158,2155,2149,2141,2133,2122,2113,2106,2098,2091,2087,2083,2082,2082,2086,2089,2094,2097,2099,2099,2099,2099,2097,2095,2091,2088,2083,2076,2070,2065,2061,2055,2050,2047,2043,2038,2032,2030,2027,2025,2023,2025,2025,2028,2029,2029,2033,2034,2037,2040,2042,2045,2045,2043,2039,2035,2029,2018,2010,2001,1998,1993,1988,1984,1979,1972,1966,1959,1951,1944,1937,1931,1924,1919,1911,1905,1899,1893,1888,1882,1881,1881,1882,1885,1890,1895,1900,1903,1908,1910,1914,1916,1917,1918,1916,1916,1915,1914,1914,1910,1906,1900,1895,1886,1878,1867,1858,1848,1841,1832,1825,1819,1814,1809,1803,1799,1794,1791,1790,1790,1791,1792,1796,1798,1801,1804,1802,1805,1811,1819,1829,1842,1857,1874,1889,1906,1922,1939,1955,1972,1991,2007,2026,2041,2060,2077,2092,2106,2133,2151,2164,2174,2183,2189,2194,2195,2199,2200,2201,2202,2206,2206,2211,2213,2216,2218,2216,2213,2210,2208,2205,2199,2196,2192,2188,2186,2181,2175,2165,2159,2152,2148,2144,2139,2135,2132,2128,2122,2116,2109,2104,2097,2089,2084,2078,2072,2066,2060,2052,2047,2039,2036,2032,2029,2027,2025,2024,2025,2024,2024,2022,2021,2021,2021,2020,2020,2021,2018,2015,2012,2008,2003,1999,1995,1991,1987,1986,1982,1979,1977,1974,1970,1967,1965,1964,1959,1955,1952,1948,1941,1937,1931,1927,1921,1913,1905,1897,1891,1884,1879,1877,1875,1872,1870,1868,1866,1862,1861,1857,1855,1853,1850,1846,1845,1841,1835,1832,1830,1828,1828,1828,1828,1828,1827,1827,1829,1832,1832,1833,1839,1845,1855,1865,1877,1891,1905,1923,1940,1958,1977,1997,2017,2036,2056,2078,2099,2121,2140,2160,2178,2193,2219,2231,2240,2249,2254,2258,2263,2268,2275,2279,2286,2293,2299,2302,2306,2308,2309,2309,2308,2307,2307,2307,2307,2306,2302,2298,2296,2289,2281,2275,2269,2260,2251,2241,2233,2224,2217,2211,2210,2209,2208,2206,2204,2199,2193,2184,2174,2165,2155,2143,2137,2130,2123,2119,2115,2112,2107,2102,2098,2094,2090,2088,2087,2087,2084,2081,2076,2071,2064,2057,2047,2041,2035,2027,2020,2014,2007,2001,1998,1994,1993,1992,1988,1984,1980,1977,1974,1973,1972,1971,1970,1971,1971,1973,1976,1977,1980,1980,1979,1976,1971,1966,1960,1952,1946,1937,1929,1920,1912,1902,1896,1886,1878,1873,1867,1864,1856,1851,1846,1842,1835,1834,1831,1831,1832,1831,1832,1836,1838,1841,1846,1852,1860,1869,1879,1889,1903,1918,1934,1951,1972,1994,2016,2041,2067,2093,2118,2144,2168,2193,2218,2239,2259,2276,2290,2306,2318,2325,2331,2337,2340,2346,2348,2349,2353,2353,2349,2347,2343,2339,2333,2328,2323,2321,2316,2313,2311,2309,2308,2306,2303,2299,2294,2287,2281,2272,2263,2253,2242,2231,2222,2213,2206,2196,2190,2185,2180,2177,2174,2171,2168,2166,2163,2161,2161,2159,2156,2155,2154,2154,2155,2155,2153,2150,2146,2141,2134,2127,2120,2115,2111,2107,2104,2100,2098,2093,2087,2079,2071,2063,2054,2046,2040,2034,2029,2024,2018,2014,2009,2003,1995,1984,1974,1964,1954,1946,1938,1932,1928,1923,1922,1923,1926,1931,1937,1943,1945,1947,1946,1944,1940,1937,1934,1933,1931,1929,1927,1926,1925,1922,1920,1917,1911,1904,1896,1890,1882,1874,1864,1853,1843,1833,1826,1820,1815,1814,1814,1814,1815,1820,1823,1829,1836,1843,1854,1865,1879,1893,1909,1926,1942,1962,1982,2003,2027,2053,2078,2106,2133,2159,2183,2207,2227,2248,2267,2285,2300,2321,2335,2341,2346,2351,2354,2355,2358,2359,2362,2366,2366,2368,2369,2371,2374,2375,2379,2382,2382,2382,2383,2381,2377,2374,2369,2364,2359,2351,2343,2335,2326,2316,2305,2294,2285,2276,2267,2259,2253,2246,2239,2233,2229,2222,2214,2204,2194,2184,2173,2162,2153,2146,2138,2128,2119,2113,2106,2098,2088,2079,2071,2061,2054,2043,2037,2028,2020,2013,2005,2000,1996,1992,1988,1981,1976,1967,1961,1950,1940,1932,1923,1914,1906,1898,1889,1884,1878,1874,1868,1864,1861,1857,1854,1854,1852,1851,1851,1851,1850,1848,1845,1841,1837,1833,1826,1820,1813,1807,1801,1797,1797,1799,1801,1802,1803,1806,1809,1808,1807,1805,1803,1796,1788,1783,1778,1771,1765,1762,1758,1752,1746,1741,1737,1734,1731,1729,1727,1727,1725,1721,1717,1716,1712,1707,1704,1700,1694,1689,1684,1678,1671,1664,1655,1649,1643,1636,1630,1624,1619,1616,1617,1619,1622,1628,1637,1651,1666,1686,1708,1736,1766,1801,1838,1879,1919,1961,1999,2036,2074,2110,2143,2172,2199,2224,2245,2270,2286,2295,2301,2302,2301,2299,2295,2291,2288,2285,2283,2282,2282,2283,2284,2286,2288,2291,2296,2298,2298,2298,2299,2298,2295,2291,2289,2288,2286,2281,2278,2274,2270,2265,2259,2251,2243,2236,2227,2217,2208,2201,2193,2185,2176,2167,2157,2148,2139,2129,2120,2110,2101,2094,2085,2077,2072,2062,2055,2047,2042,2036,2031,2027,2022,2019,2018,2018,2020,2024,2028,2034,2040,2045,2049,2054,2059,2063,2066,2066,2068,2067,2069,2069,2066,2063,2059,2053,2045,2035,2027,2018,2009,1999,1991,1979,1968,1956,1942,1931,1918,1908,1900,1891,1885,1880,1876,1872,1867,1867,1866,1870,1875,1879,1885,1891,1896,1899,1900,1904,1905,1909,1913,1915,1920,1922,1920,1918,1913,1908,1899,1889,1880,1872,1861,1848,1834,1821,1808,1794,1783,1776,1772,1768,1765,1764,1760,1759,1758,1757,1756,1755,1752,1747,1744,1738,1733,1725,1719,1710,1702,1692,1685,1680,1674,1669,1666,1667,1666,1666,1669,1672,1679,1686,1694,1710,1725,1744,1767,1794,1823,1851,1880,1913,1943,1973,2003,2033,2065,2097,2127,2156,2184,2209,2238,2258,2269,2275,2280,2282,2281,2278,2274,2271,2266,2263,2260,2255,2252,2250,2247,2244,2240,2234,2226,2217,2207,2199,2188,2178,2168,2159,2150,2143,2136,2131,2124,2119,2113,2109,2105,2100,2094,2090,2085,2081,2076,2071,2066,2063,2061,2057,2054,2048,2042,2035,2028,2021,2015,2012,2012,2013,2015,2015,2014,2012,2010,2006,2002,2000,1996,1992,1987,1982,1978,1974,1971,1965,1961,1957,1951,1946,1939,1933,1927,1922,1917,1913,1909,1906,1904,1902,1900,1898,1897,1898,1899,1900,1900,1901,1901,1899,1896,1892,1886,1882,1876,1872,1874,1875,1878,1880,1885,1890,1893,1896,1900,1902,1904,1904,1901,1896,1893,1886,1879,1873,1867,1860,1851,1844,1835,1826,1817,1809,1800,1790,1781,1768,1759,1748,1736,1728,1722,1715,1708,1703,1699,1694,1692,1685,1681,1676,1671,1667,1665,1662,1661,1659,1657,1658,1661,1666,1669,1676,1682,1690,1696,1700,1705,1709,1713,1720,1726,1733,1738,1745,1750,1755,1757,1759,1761,1763,1765,1766,1767,1772,1774,1779,1782,1789,1795,1802,1809,1817,1828,1835,1844,1855,1867,1879,1894,1907,1925,1942,1957,1973,1990,2008,2023,2037,2050,2063,2072,2081,2086,2091,2095,2095,2096,2095,2092,2087,2079,2070,2061,2049,2038,2029,2025,2021,2018,2016,2018,2023,2024,2029,2035,2041,2047,2052,2061,2072,2080,2087,2094,2101,2106,2107,2108,2110,2109,2108,2105,2103,2102,2098,2095,2091,2087,2081,2074,2067,2061,2056,2051,2048,2044,2042,2036,2032,2027,2024,2019,2014,2007,2003,1998,1991,1987,1981,1976,1970,1963,1953,1946,1937,1926,1916,1908,1898,1889,1884,1880,1876,1874,1872,1874,1874,1874,1876,1880,1884,1886,1888,1891,1890,1888,1888,1885,1885,1881,1878,1875,1872,1866,1860,1852,1844,1836,1827,1821,1816,1811,1807,1803,1801,1801,1802,1804,1810,1815,1820,1820,1821,1819,1813,1806,1798,1792,1785,1779,1776,1774,1776,1779,1780,1779,1776,1772,1763,1753,1744,1734,1723,1709,1697,1690,1681,1677,1673,1673,1674,1675,1680,1686,1691,1698,1702,1705,1705,1702,1700,1694,1691,1683,1680,1675,1671,1670,1670,1673,1675,1677,1678,1684,1686,1687,1688,1688,1689,1690,1689,1691,1695,1701,1710,1720,1733,1747,1760,1774,1789,1806,1823,1841,1859,1879,1899,1917,1936,1955,1972,1986,2001,2016,2026,2035,2046,2052,2060,2067,2072,2078,2083,2087,2091,2091,2092,2092,2090,2087,2082,2078,2071,2065,2060,2056,2056,2055,2055,2058,2056,2055,2052,2050,2048,2048,2042,2037,2034,2025,2018,2009,2003,1997,1993,1991,1992,1993,1999,2004,2011,2017,2024,2030,2037,2042,2043,2043,2042,2044,2041,2040,2037,2036,2031,2026,2020,2014,2008,2001,1996,1991,1989,1988,1986,1985,1986,1988,1989,1989,1992,1995,1996,1992,1985,1978,1968,1956,1943,1929,1915,1901,1887,1871,1857,1843,1829,1818,1806,1797,1788,1782,1777,1776,1777,1777,1782,1787,1791,1793,1798,1800,1801,1803,1805,1806,1807,1805,1805,1807,1808,1809,1808,1806,1803,1802,1798,1795,1790,1786,1781,1776,1768,1763,1760,1756,1753,1750,1747,1742,1740,1737,1736,1734,1733,1733,1733,1732,1729,1725,1719,1714,1709,1705,1700,1696,1695,1692,1689,1683,1679,1673,1668,1662,1657,1651,1648,1645,1646,1650,1657,1668,1682,1698,1718,1736,1756,1776,1796,1815,1832,1848,1867,1884,1900,1916,1932,1943,1964,1980,1991,2002,2016,2029,2040,2049,2057,2065,2073,2079,2084,2089,2094,2096,2097,2096,2097,2097,2094,2089,2083,2076,2068,2059,2049,2038,2025,2016,2006,1999,1994,1987,1983,1981,1977,1974,1974,1972,1973,1973,1976,1978,1979,1979,1978,1976,1973,1969,1967,1962,1957,1952,1946,1939,1935,1932,1933,1933,1935,1937,1936,1936,1937,1939,1940,1941,1940,1941,1940,1939,1935,1933,1928,1925,1921,1919,1915,1911,1908,1902,1901,1899,1898,1896,1895,1891,1890,1891,1891,1892,1893,1894,1897,1900,1900,1901,1898,1895,1889,1879,1869,1862,1853,1845,1840,1834,1831,1826,1826,1826,1825,1823,1823,1821,1821,1823,1821,1817,1814,1812,1809,1806,1804,1804,1803,1800,1801,1802,1802,1803,1803,1802,1801,1796,1790,1784,1776,1766,1757,1749,1743,1739,1738,1739,1745,1749,1753,1759,1766,1772,1777,1784,1794,1806,1817,1833,1852,1871,1892,1911,1933,1956,1977,1999,2021,2041,2058,2072,2088,2098,2109,2117,2125,2132,2137,2141,2145,2145,2146,2145,2144,2145,2146,2146,2146,2148,2151,2154,2157,2162,2170,2177,2186,2195,2203,2212,2217,2217,2217,2218,2216,2214,2211,2209,2203,2196,2186,2176,2164,2153,2141,2128,2119,2109,2100,2090,2085,2078,2072,2066,2064,2060,2057,2055,2057,2057,2061,2064,2066,2069,2073,2074,2077,2078,2078,2077,2073,2066,2057,2049,2039,2030,2019,2010,2000,1994,1988,1980,1973,1967,1964,1959,1956,1950,1947,1942,1939,1936,1934,1932,1928,1926,1923,1920,1919,1917,1917,1918,1919,1919,1917,1916,1913,1908,1905,1904,1904,1905,1906,1908,1911,1910,1910,1910,1907,1904,1899,1890,1880,1867,1852,1837,1823,1808,1792,1779,1768,1760,1757,1755,1758,1763,1769,1777,1786,1797,1810,1822,1838,1855,1876,1896,1914,1931,1950,1970,1987,1999,2017,2046,2064,2082,2097,2108,2119,2128,2137,2144,2147,2152,2157,2159,2158,2156,2156,2153,2152,2149,2147,2149,2150,2151,2156,2161,2168,2174,2181,2189,2198,2207,2217,2225,2234,2240,2247,2254,2259,2262,2263,2260,2256,2252,2243,2235,2226,2220,2213,2206,2204,2202,2199,2195,2193,2191,2182,2175,2168,2159,2151,2142,2132,2122,2112,2099,2086,2073,2062,2052,2042,2036,2030,2023,2018,2017,2018,2019,2020,2021,2024,2026,2026,2025,2024,2024,2021,2019,2022,2021,2022,2023,2022,2024,2022,2019,2019,2015,2013,2011,2008,2003,2002,2000,1997,1995,1994,1993,1992,1991,1989,1986,1983,1978,1972,1964,1954,1945,1936,1928,1919,1912,1908,1903,1901,1900,1898,1900,1900,1904,1906,1909,1911,1913,1913,1915,1915,1918,1920,1923,1929,1936,1942,1949,1959,1970,1984,1999,2016,2036,2056,2079,2101,2126,2148,2169,2188,2209,2226,2242,2257,2272,2285,2300,2313,2322,2331,2339,2349,2357,2364,2367,2370,2372,2372,2373,2372,2373,2373,2372,2373,2373,2374,2376,2379,2381,2383,2386,2388,2390,2393,2397,2400,2403,2404,2404,2403,2402,2400,2399,2399,2398,2397,2397,2395,2393,2389,2385,2382,2378,2371,2369,2363,2356,2350,2340,2332,2325,2316,2307,2299,2291,2283,2271,2262,2253,2244,2235,2228,2222,2218,2214,2214,2212,2212,2212,2213,2216,2219,2222,2224,2225,2223,2219,2213,2207,2200,2193,2186,2179,2176,2172,2172,2169,2167,2164,2162,2155,2151,2143,2134,2123,2114,2105,2097,2087,2081,2074,2068,2062,2058,2056,2056,2054,2055,2056,2056,2060,2059,2059,2056,2055,2047,2039,2028,2015,2003,1993,1984,1974,1964,1957,1949,1941,1936,1930,1925,1920,1919,1917,1916,1919,1925,1936,1945,1960,1974,1989,2006,2022,2039,2056,2074,2094,2116,2139,2159,2184,2207,2231,2255,2291,2324,2350,2374,2398,2424,2448,2470,2489,2505,2519,2532,2545,2554,2563,2570,2573,2576,2579,2580,2580,2578,2576,2573,2570,2569,2567,2563,2561,2557,2554,2553,2550,2549,2553,2555,2557,2559,2558,2558,2558,2557,2555,2553,2552,2551,2549,2547,2548,2550,2548,2547,2544,2539,2531,2522,2512,2501,2489,2476,2462,2451,2437,2424,2414,2405,2397,2391,2383,2377,2370,2363,2353,2343,2334,2323,2312,2302,2290,2282,2273,2266,2258,2253,2246,2241,2237,2231,2227,2223,2224,2226,2226,2227,2229,2230,2229,2230,2231,2232,2234,2233,2232,2230,2226,2221,2211,2203,2195,2182,2169,2156,2141,2127,2111,2094,2078,2061,2043,2030,2020,2012,2009,2006,2006,2006,2011,2013,2017,2024,2030,2034,2038,2040,2040,2037,2034,2031,2028,2024,2015,2008,2004,2000,1994,1986,1978,1970,1966,1964,1961,1957,1952,1947,1942,1934,1929,1922,1916,1913,1909,1906,1908,1910,1909,1910,1912,1913,1914,1916,1920,1924,1928,1930,1935,1940,1946,1954,1963,1974,1992,2008,2029,2053,2078,2107,2136,2169,2202,2231,2260,2289,2318,2345,2370,2393,2416,2433,2452,2466,2482,2496,2508,2518,2525,2531,2535,2538,2541,2545,2549,2553,2560,2566,2571,2577,2583,2589,2593,2600,2607,2611,2615,2618,2616,2616,2617,2618,2617,2615,2614,2614,2611,2606,2603,2596,2589,2579,2569,2558,2548,2537,2526,2517,2506,2495,2484,2473,2464,2455,2446,2438,2432,2425,2418,2412,2404,2395,2389,2384,2382,2379,2379,2378,2379,2378,2375,2372,2364,2356,2348,2334,2321,2308,2295,2283,2273,2265,2258,2253,2248,2244,2240,2235,2227,2221,2214,2205,2195,2186,2173,2163,2150,2139,2131,2123,2115,2107,2102,2095,2088,2081,2074,2068,2060,2054,2048,2045,2043,2042,2042,2046,2050,2052,2054,2056,2057,2056,2053,2047,2041,2035,2026,2019,2012,2006,1999,1992,1985,1980,1977,1972,1969,1965,1961,1955,1950,1944,1939,1933,1930,1926,1924,1921,1914,1906,1901,1893,1888,1883,1880,1875,1870,1864,1861,1854,1850,1845,1841,1836,1831,1827,1825,1821,1818,1819,1816,1815,1815,1814,1815,1817,1819,1822,1828,1835,1842,1853,1864,1878,1890,1905,1919,1936,1951,1969,1988,2007,2029,2050,2071,2093,2116,2139,2160,2181,2203,2225,2253,2275,2291,2306,2318,2333,2348,2362,2376,2386,2398,2409,2418,2427,2437,2447,2454,2458,2462,2461,2460,2456,2454,2454,2451,2451,2451,2452,2453,2455,2458,2461,2465,2468,2470,2470,2471,2468,2466,2462,2460,2458,2455,2451,2444,2438,2426,2413,2396,2380,2365,2350,2334,2321,2308,2295,2286,2281,2273,2268,2262,2259,2257,2257,2257,2257,2258,2257,2256,2257,2257,2258,2256,2253,2249,2243,2235,2227,2219,2210,2199,2192,2181,2174,2163,2154,2147,2139,2133,2129,2126,2125,2125,2124,2125,2122,2122,2119,2118,2114,2111,2108,2102,2097,2089,2082,2074,2062,2051,2038,2025,2013,2002,1989,1978,1968,1957,1948,1938,1931,1926,1922,1921,1919,1916,1916,1916,1915,1915,1917,1922,1925,1927,1930,1930,1928,1924,1916,1909,1900,1892,1882,1876,1871,1868,1862,1861,1859,1856,1854,1849,1842,1840,1836,1834,1832,1832,1830,1831,1831,1834,1833,1834,1833,1832,1830,1826,1820,1815,1809,1803,1799,1796,1797,1796,1798,1802,1805,1809,1811,1816,1822,1827,1831,1835,1839,1844,1849,1857,1868,1882,1895,1910,1928,1945,1962,1979,1994,2008,2023,2037,2050,2065,2078,2089,2100,2111,2128,2141,2151,2164,2175,2187,2198,2211,2221,2231,2239,2244,2249,2250,2252,2255,2260,2264,2268,2271,2273,2275,2273,2271,2270,2270,2269,2271,2272,2272,2273,2275,2276,2278,2279,2278,2276,2271,2263,2255,2244,2236,2225,2214,2204,2195,2188,2184,2178,2172,2168,2165,2159,2153,2151,2148,2144,2143,2141,2140,2139,2140,2140,2142,2142,2142,2138,2133,2126,2119,2113,2109,2107,2105,2103,2101,2102,2098,2096,2092,2091,2088,2086,2082,2078,2075,2069,2063,2057,2052,2046,2040,2035,2031,2027,2023,2018,2010,2005,1996,1988,1985,1983,1979,1977,1974,1972,1968,1960,1952,1941,1931,1920,1912,1909,1906,1907,1909,1914,1920,1923,1925,1923,1919,1915,1908,1902,1900,1898,1896,1896,1898,1896,1897,1896,1897,1897,1895,1892,1889,1887,1885,1881,1879,1876,1873,1867,1861,1856,1850,1841,1836,1831,1829,1824,1820,1820,1818,1813,1808,1801,1794,1786,1778,1769,1761,1752,1741,1729,1716,1702,1688,1677,1665,1661,1655,1653,1655,1660,1667,1675,1684,1697,1708,1722,1738,1755,1774,1793,1811,1833,1853,1876,1901,1925,1950,1975,2009,2035,2053,2068,2083,2096,2107,2119,2130,2140,2149,2159,2163,2170,2172,2173,2172,2170,2167,2167,2166,2165,2165,2166,2168,2167,2167,2166,2163,2160,2156,2152,2147,2143,2137,2133,2130,2125,2121,2117,2116,2113,2110,2107,2105,2104,2102,2099,2096,2093,2089,2085,2080,2076,2074,2073,2077,2082,2087,2092,2095,2095,2095,2089,2086,2082,2079,2075,2073,2072,2071,2068,2063,2056,2050,2042,2035,2026,2021,2015,2010,2008,2005,2000,1996,1988,1981,1971,1965,1960,1956,1955,1956,1955,1953,1951,1946,1942,1938,1932,1927,1922,1916,1912,1909,1905,1902,1903,1900,1898,1894,1891,1888,1886,1884,1880,1878,1873,1869,1863,1857,1851,1847,1844,1841,1838,1836,1835,1835,1835,1838,1841,1843,1847,1851,1853,1852,1850,1845,1842,1834,1828,1825,1818,1813,1807,1805,1802,1800,1799,1798,1799,1802,1804,1805,1807,1808,1808,1808,1810,1811,1814,1819,1825,1838,1852,1870,1890,1913,1933,1955,1973,1991,2005,2017,2026,2035,2042,2046,2049,2054,2060,2062,2068,2073,2078,2085,2088,2093,2096,2099,2098,2097,2095,2093,2091,2090,2092,2097,2102,2110,2119,2128,2135,2142,2150,2160,2170,2181,2190,2200,2206,2211,2213,2210,2206,2200,2193,2190,2184,2178,2168,2157,2145,2132,2117,2101,2090,2077,2068,2061,2055,2051,2047,2047,2048,2050,2052,2053,2054,2054,2054,2053,2053,2054,2054,2052,2051,2047,2043,2040,2035,2032,2028,2025,2022,2019,2015,2012,2008,2005,2003,2002,1998,1996,1996,1994,1992,1989,1987,1985,1981,1974,1970,1965,1960,1954,1946,1939,1932,1926,1919,1915,1911,1906,1903,1898,1894,1890,1886,1881,1880,1878,1876,1873,1871,1871,1869,1866,1865,1862,1860,1854,1852,1849,1848,1846,1845,1845,1845,1849,1848,1849,1850,1850,1848,1846,1847,1844,1840,1836,1835,1832,1831,1830,1832,1834,1839,1842,1846,1850,1856,1861,1870,1880,1891,1905,1921,1938,1958,1978,2003,2028,2057,2082,2111,2137,2164,2186,2208,2228,2245,2261,2272,2283,2292,2296,2292,2288,2282,2276,2271,2267,2266,2264,2262,2262,2263,2263,2265,2266,2270,2271,2274,2278,2280,2281,2282,2279,2276,2270,2266,2261,2258,2254,2248,2246,2242,2240,2236,2235,2230,2228,2225,2223,2221,2218,2218,2217,2216,2217,2220,2222,2222,2222,2221,2216,2210,2205,2196,2189,2181,2172,2161,2151,2139,2126,2114,2101,2089,2076,2063,2050,2036,2023,2013,2002,1992,1981,1970,1960,1952,1943,1937,1934,1933,1932,1934,1937,1942,1948,1951,1954,1955,1953,1951,1946,1940,1935,1927,1918,1911,1904,1897,1889,1882,1875,1870,1862,1858,1853,1852,1850,1849,1850,1852,1853,1853,1856,1857,1858,1858,1858,1858,1859,1858,1857,1854,1850,1844,1838,1830,1822,1813,1804,1795,1789,1782,1778,1774,1775,1776,1780,1783,1790,1799,1806,1814,1824,1833,1844,1854,1862,1872,1881,1891,1903,1918,1932,1953,1974,1990,2011,2030,2052,2073,2095,2116,2135,2156,2178,2198,2216,2233,2249,2264,2278,2292,2306,2319,2329,2339,2349,2357,2361,2363,2366,2366,2364,2360,2356,2355,2354,2351,2349,2347,2345,2341,2335,2330,2325,2320,2317,2316,2312,2311,2308,2303,2296,2287,2279,2269,2260,2248,2236,2224,2213,2201,2192,2181,2176,2171,2169,2169,2170,2171,2171,2171,2171,2171,2170,2168,2166,2165,2167,2167,2168,2170,2174,2178,2181,2182,2185,2189,2190,2191,2191,2191,2187,2181,2177,2174,2168,2162,2156,2149,2141,2130,2121,2110,2099,2087,2075,2063,2052,2041,2029,2017,2006,1996,1987,1980,1973,1966,1959,1949,1944,1940,1937,1931,1927,1923,1916,1911,1904,1900,1894,1891,1886,1885,1884,1882,1882,1881,1882,1882,1881,1880,1881,1882,1883,1885,1885,1885,1883,1880,1877,1873,1868,1863,1858,1855,1851,1845,1843,1839,1834,1831,1829,1829,1828,1829,1831,1838,1845,1855,1866,1878,1890,1900,1912,1924,1936,1947,1962,1976,1991,2008,2023,2040,2059,2089,2112,2133,2155,2174,2196,2216,2233,2250,2263,2276,2285,2292,2296,2298,2298,2297,2295,2294,2296,2298,2301,2305,2310,2316,2323,2329,2337,2346,2355,2362,2370,2376,2383,2388,2390,2392,2393,2393,2389,2387,2385,2379,2371,2362,2352,2341,2329,2316,2302,2289,2274,2258,2243,2229,2214,2200,2188,2179,2170,2164,2157,2153,2152,2152,2152,2152,2152,2151,2150,2148,2143,2139,2132,2124,2117,2107,2098,2087,2078,2070,2062,2054,2050,2048,2043,2039,2036,2033,2029,2027,2027,2025,2025,2027,2030,2033,2040,2041,2041,2041,2040,2038,2033,2025,2016,2006,1990,1976,1962,1946,1930,1918,1905,1894,1883,1875,1868,1861,1855,1851,1851,1852,1856,1859,1865,1870,1874,1880,1885,1890,1896,1902,1904,1905,1905,1906,1900,1894,1887,1877,1868,1857,1844,1834,1824,1811,1801,1788,1776,1766,1753,1742,1732,1723,1716,1711,1705,1701,1700,1700,1701,1700,1698,1698,1698,1696,1696,1695,1692,1689,1685,1681,1678,1676,1676,1679,1685,1693,1702,1717,1731,1748,1766,1788,1809,1834,1857,1883,1912,1940,1969,1998,2026,2054,2080,2105,2130,2152,2185,2205,2220,2235,2249,2261,2274,2288,2297,2303,2309,2314,2318,2322,2326,2330,2333,2333,2337,2342,2347,2351,2355,2362,2367,2374,2378,2385,2387,2391,2393,2395,2395,2396,2393,2389,2384,2377,2372,2367,2363,2359,2353,2347,2343,2339,2335,2332,2325,2318,2307,2292,2278,2262,2245,2229,2216,2203,2195,2189,2183,2178,2175,2171,2166,2163,2160,2159,2158,2157,2153,2150,2145,2140,2133,2129,2121,2115,2108,2102,2098,2092,2087,2081,2075,2066,2056,2046,2035,2025,2013,2006,2002,1996,1988,1984,1979,1974,1969,1965,1961,1956,1950,1944,1939,1936,1935,1932,1931,1929,1925,1920,1916,1910,1905,1899,1895,1891,1885,1878,1873,1868,1865,1863,1860,1857,1854,1849,1843,1839,1833,1829,1824,1820,1821,1819,1818,1815,1811,1804,1797,1787,1780,1776,1773,1772,1774,1779,1784,1787,1790,1795,1800,1804,1806,1809,1811,1812,1809,1805,1801,1796,1790,1781,1775,1769,1762,1753,1745,1740,1731,1726,1720,1714,1710,1704,1699,1695,1692,1688,1684,1681,1680,1677,1679,1684,1692,1702,1715,1731,1751,1769,1788,1809,1832,1854,1875,1895,1915,1934,1953,1971,1988,2011,2032,2064,2094,2113,2132,2146,2159,2171,2182,2192,2202,2211,2221,2231,2238,2246,2250,2257,2260,2266,2271,2275,2278,2279,2279,2278,2273,2268,2262,2257,2252,2247,2243,2239,2234,2230,2224,2218,2215,2212,2210,2210,2211,2210,2212,2212,2214,2215,2217,2221,2222,2224,2223,2221,2216,2209,2202,2192,2182,2169,2159,2150,2143,2136,2131,2128,2125,2123,2121,2120,2118,2116,2113,2108,2104,2099,2089,2080,2072,2063,2054,2044,2036,2028,2018,2011,2006,2001,1995,1989,1983,1977,1972,1967,1964,1963,1962,1962,1963,1960,1960,1960,1957,1955,1953,1953,1951,1947,1941,1935,1926,1914,1900,1885,1871,1858,1848,1840,1836,1832,1832,1833,1834,1837,1841,1842,1843,1844,1843,1843,1843,1840,1836,1829,1823,1818,1809,1801,1794,1786,1776,1767,1756,1747,1737,1730,1725,1719,1717,1715,1716,1723,1729,1735,1742,1751,1758,1765,1768,1773,1777,1779,1780,1779,1778,1775,1772,1767,1764,1762,1755,1751,1743,1737,1730,1722,1715,1709,1703,1697,1695,1690,1687,1685,1681,1678,1675,1673,1671,1671,1669,1669,1665,1666,1662,1660,1660,1663,1668,1677,1687,1699,1714,1728,1742,1758,1777,1796,1815,1836,1859,1882,1903,1925,1947,1968,1991,2012,2034,2064,2089,2106,2121,2137,2153,2165,2174,2183,2190,2193,2195,2193,2191,2186,2178,2173,2170,2166,2163,2161,2161,2163,2166,2171,2177,2183,2188,2192,2195,2197,2195,2192,2188,2184,2178,2171,2164,2159,2154,2147,2142,2135,2130,2122,2117,2112,2107,2103,2101,2100,2100,2098,2099,2097,2095,2095,2093,2092,2089,2087,2082,2078,2073,2066,2060,2055,2049,2040,2032,2022,2016,2012,2008,2006,2006,2007,2007,2008,2006,2008,2008,2006,2005,2003,2002,2000,1998,1997,1999,1997,1993,1991,1987,1985,1981,1978,1972,1968,1962,1954,1946,1938,1930,1921,1914,1907,1900,1896,1891,1888,1885,1881,1878,1872,1868,1863,1858,1850,1842,1837,1831,1826,1822,1819,1814,1810,1806,1799,1792,1784,1777,1771,1763,1756,1754,1751,1750,1750,1748,1751,1753,1755,1759,1760,1762,1766,1767,1769,1771,1774,1774,1777,1781,1785,1788,1790,1789,1787,1784,1779,1773,1766,1757,1748,1736,1726,1716,1706,1697,1689,1684,1679,1675,1670,1666,1660,1654,1648,1640,1632,1626,1620,1616,1612,1602,1593,1583,1572,1562,1547,1537,1530,1525,1521,1519,1522,1524,1527,1535,1544,1554,1568,1584,1601,1620,1642,1662,1685,1709,1732,1755,1780,1802,1824,1847,1874,1900,1947,1984,2016,2047,2076,2105,2132,2157,2178,2197,2211,2223,2231,2236,2239,2243,2246,2248,2251,2252,2255,2253,2251,2248,2246,2244,2242,2240,2241,2242,2243,2244,2245,2248,2252,2252,2252,2253,2252,2249,2246,2244,2240,2237,2234,2229,2227,2225,2224,2226,2231,2235,2238,2244,2249,2251,2253,2250,2246,2239,2228,2218,2207,2197,2185,2173,2162,2153,2142,2132,2122,2114,2104,2095,2086,2077,2069,2059,2052,2045,2042,2036,2033,2028,2023,2019,2013,2006,1997,1989,1979,1969,1961,1953,1944,1934,1924,1918,1909,1903,1897,1896,1893,1891,1888,1884,1878,1870,1861,1851,1841,1829,1816,1806,1796,1785,1774,1761,1749,1739,1728,1719,1713,1710,1706,1705,1703,1699,1696,1689,1684,1681,1678,1675,1671,1670,1666,1661,1655,1649,1645,1639,1634,1630,1627,1623,1619,1616,1612,1606,1601,1593,1589,1583,1579,1576,1576,1576,1576,1577,1578,1578,1576,1576,1575,1573,1568,1564,1559,1553,1544,1537,1531,1524,1517,1510,1500,1491,1481,1472,1460,1451,1442,1435,1432,1429,1429,1430,1430,1432,1435,1438,1439,1440,1439,1439,1439,1442,1444,1453,1465,1479,1498,1522,1552,1587,1633,1687,1749,1817,1888,1965,2043,2124,2204,2284,2359,2431,2493,2550,2600,2643,2679,2712,2753,2781,2797,2807,2815,2816,2812,2804,2791,2777,2759,2738,2717,2699,2679,2659,2639,2621,2607,2592,2581,2572,2563,2555,2548,2541,2536,2531,2527,2525,2524,2524,2525,2523,2522,2517,2513,2503,2495,2486,2477,2467,2460,2450,2443,2432,2424,2413,2405,2395,2386,2377,2367,2357,2347,2340,2334,2330,2326,2323,2321,2321,2318,2317,2315,2313,2312,2310,2310,2310,2307,2304,2299,2293,2283,2273,2265,2258,2250,2245,2239,2235,2230,2226,2223,2215,2211,2205,2198,2194,2189,2185,2178,2170,2161,2152,2143,2136,2130,2124,2117,2107,2100,2093,2084,2077,2067,2061,2053,2046,2041,2037,2037,2038,2040,2043,2047,2048,2049,2050,2049,2046,2042,2037,2031,2024,2018,2012,2005,2000,1992,1985,1978,1969,1963,1954,1947,1939,1933,1926,1920,1918,1915,1912,1911,1907,1906,1904,1900,1896,1892,1886,1880,1874,1869,1865,1863,1861,1861,1860,1858,1856,1856,1852,1848,1843,1839,1834,1830,1829,1827,1829,1831,1832,1834,1834,1835,1838,1837,1840,1842,1845,1844,1844,1843,1843,1842,1839,1840,1841,1846,1851,1860,1869,1880,1895,1914,1931,1957,1986,2019,2059,2101,2147,2196,2247,2299,2349,2402,2451,2500,2544,2586,2626,2663,2694,2721,2755,2779,2795,2804,2813,2818,2821,2823,2823,2824,2824,2823,2819,2816,2812,2807,2798,2793,2783,2775,2764,2755,2748,2739,2733,2726,2721,2717,2710,2703,2695,2685,2672,2654,2641,2625,2612,2598,2588,2579,2569,2559,2548,2539,2531,2520,2512,2504,2499,2491,2486,2482,2476,2469,2460,2453,2445,2436,2428,2423,2416,2408,2403,2398,2392,2386,2379,2370,2362,2352,2347,2338,2334,2330,2325,2318,2312,2304,2297,2291,2286,2282,2279,2274,2269,2266,2262,2258,2255,2254,2252,2250,2245,2239,2233,2226,2216,2207,2200,2193,2184,2178,2173,2168,2161,2153,2146,2140,2133,2124,2115,2106,2097,2086,2077,2068,2059,2052,2044,2041,2038,2035,2034,2033,2031,2030,2030,2029,2031,2034,2038,2038,2041,2041,2042,2042,2045,2047,2049,2050,2051,2051,2050,2047,2045,2041,2038,2034,2029,2027,2026,2022,2021,2017,2017,2015,2014,2013,2017,2017,2014,2013,2007,2000,1990,1980,1971,1962,1954,1948,1945,1945,1944,1945,1945,1944,1944,1941,1940,1939,1940,1937,1935,1935,1932,1930,1928,1926,1926,1924,1923,1922,1922,1925,1926,1928,1937,1948,1961,1981,2008,2041,2079,2125,2177,2233,2293,2353,2414,2474,2532,2585,2638,2682,2726,2761,2793,2818,2841,2865,2877,2883,2885,2884,2881,2879,2875,2870,2865,2860,2856,2852,2845,2838,2834,2828,2819,2810,2801,2790,2777,2764,2752,2739,2728,2715,2705,2698,2688,2681,2673,2665,2656,2644,2634,2627,2618,2611,2605,2600,2594,2586,2573,2560,2549,2538,2527,2517,2509,2504,2497,2492,2486,2482,2477,2472,2469,2464,2458,2450,2446,2441,2434,2428,2419,2414,2409,2399,2390,2380,2370,2363,2353,2341,2329,2317,2305,2290,2278,2263,2252,2240,2232,2227,2223,2221,2220,2220,2219,2217,2216,2215,2213,2209,2203,2198,2192,2186,2179,2175,2171,2166,2160,2156,2149,2142,2134,2126,2120,2110,2102,2094,2088,2082,2076,2070,2067,2063,2061,2061,2065,2068,2073,2079,2085,2095,2103,2108,2111,2115,2115,2111,2109,2102,2096,2089,2078,2069,2056,2045,2031,2019,2007,1995,1984,1973,1962,1952,1942,1933,1924,1917,1912,1907,1904,1902,1899,1898,1893,1890,1886,1883,1880,1878,1877,1879,1883,1890,1900,1913,1929,1948,1974,2001,2029,2063,2100,2139,2182,2225,2275,2327,2379,2433,2487,2543,2597,2650,2700,2746,2788,2825,2856,2893,2914,2926,2933,2938,2938,2934,2929,2922,2914,2906,2897,2888,2880,2871,2863,2857,2851,2848,2843,2841,2839,2838,2835,2833,2831,2830,2829,2828,2827,2827,2822,2818,2808,2798,2784,2767,2750,2732,2713,2694,2675,2659,2645,2631,2622,2613,2608,2600,2595,2592,2588,2583,2581,2580,2580,2579,2579,2581,2584,2585,2587,2589,2590,2592,2590,2588,2582,2577,2569,2561,2549,2540,2529,2519,2510,2501,2493,2482,2473,2460,2444,2431,2419,2405,2393,2380,2369,2359,2349,2340,2331,2325,2321,2317,2313,2310,2307,2305,2303,2301,2299,2297,2293,2289,2286,2286,2283,2279,2274,2267,2257,2246,2233,2221,2207,2193,2180,2169,2156,2144,2129,2116,2102,2088,2076,2067,2058,2051,2048,2043,2042,2040,2042,2041,2045,2045,2046,2044,2041,2038,2031,2025,2018,2011,2006,2000,1996,1993,1990,1989,1989,1993,2004,2019,2039,2066,2099,2138,2180,2228,2280,2337,2396,2456,2515,2574,2630,2685,2740,2788,2835,2878,2914,2945,2984,3009,3024,3036,3044,3046,3048,3050,3048,3046,3044,3043,3041,3038,3039,3039,3040,3042,3044,3046,3047,3048,3046,3049,3051,3054,3056,3056,3058,3058,3052,3046,3041,3036,3027,3019,3010,2999,2991,2981,2976,2970,2966,2961,2957,2952,2945,2935,2923,2911,2895,2879,2864,2849,2836,2824,2812,2802,2792,2782,2773,2765,2759,2753,2747,2740,2732,2724,2714,2703,2691,2681,2667,2652,2638,2622,2605,2587,2568,2545,2524,2503,2480,2458,2438,2417,2400,2383,2368,2356,2342,2331,2321,2310,2301,2292,2287,2283,2281,2279,2280,2282,2280,2279,2278,2278,2277,2276,2273,2268,2261,2251,2241,2231,2217,2204,2189,2173,2158,2143,2126,2109,2095,2081,2067,2055,2045,2035,2028,2020,2013,2010,2007,2002,2001,1999,1998,1998,1999,2001,2004,2008,2015,2024,2037,2053,2075,2100,2133,2172,2214,2263,2318,2377,2440,2505,2574,2642,2712,2781,2850,2918,2980,3039,3094,3146,3192,3248,3287,3312,3332,3350,3364,3379,3391,3399,3407,3414,3421,3428,3435,3441,3448,3453,3459,3465,3475,3485,3495,3505,3518,3530,3542,3552,3564,3572,3576,3579,3581,3580,3578,3573,3567,3557,3546,3529,3512,3493,3471,3449,3428,3406,3387,3364,3347,3333,3319,3304,3291,3280,3268,3257,3246,3236,3226,3214,3201,3187,3176,3163,3149,3135,3120,3108,3094,3083,3074,3063,3053,3041,3029,3016,3001,2984,2965,2946,2926,2905,2883,2863,2844,2826,2809,2796,2785,2774,2762,2750,2738,2724,2707,2691,2676,2661,2644,2627,2608,2588,2565,2540,2518,2494,2472,2450,2431,2413,2394,2378,2364,2354,2345,2336,2328,2320,2314,2305,2297,2294,2288,2283,2276,2267,2256,2243,2231,2218,2208,2196,2184,2173,2164,2152,2142,2131,2121,2113,2102,2090,2078,2067,2057,2046,2037,2028,2023,2020,2025,2037,2053,2076,2108,2147,2194,2247,2307,2374,2444,2517,2593,2671,2749,2826,2899,2969,3037,3097,3155,3205,3251,3312,3355,3387,3416,3443,3467,3489,3511,3535,3555,3573,3592,3609,3625,3641,3658,3676,3693,3709,3724,3737,3751,3764,3776,3787,3797,3808,3817,3821,3826,3827,3826,3825,3819,3814,3806,3796,3786,3774,3758,3740,3720,3697,3672,3646,3620,3589,3563,3540,3518,3500,3481,3463,3448,3434,3421,3409,3397,3385,3370,3355,3339,3321,3306,3287,3270,3253,3236,3218,3198,3177,3158,3138,3120,3103,3088,3071,3052,3035,3014,2994,2971,2950,2927,2907,2887,2867,2848,2828,2810,2788,2768,2747,2729,2711,2691,2671,2651,2630,2606,2580,2555,2530,2507,2485,2466,2448,2428,2408,2390,2372,2352,2337,2323,2310,2297,2284,2270,2256,2242,2229,2211,2197,2184,2167,2152,2137,2124,2112,2100,2088,2079,2070,2057,2046,2038,2026,2013,2000,1991,1979,1968,1955,1942,1929,1916,1902,1888,1872,1856,1840,1822,1807,1794,1780,1766,1753,1741,1731,1720,1711,1703,1697,1687,1678,1671,1666,1659,1653,1647,1646,1645,1645,1650,1655,1664,1678,1695,1722,1755,1794,1842,1898,1961,2029,2104,2181,2259,2341,2421,2499,2577,2650,2720,2786,2845,2903,2955,3026,3080,3118,3152,3184,3213,3238,3261,3282,3299,3315,3328,3342,3353,3365,3375,3386,3397,3407,3417,3427,3436,3447,3457,3466,3474,3483,3492,3500,3507,3518,3526,3532,3536,3535,3531,3523,3512,3499,3483,3464,3443,3422,3399,3376,3352,3327,3304,3279,3255,3229,3206,3181,3156,3133,3109,3088,3068,3048,3030,3012,2997,2982,2965,2948,2930,2910,2892,2873,2856,2842,2829,2817,2807,2797,2786,2774,2762,2751,2739,2726,2714,2700,2686,2672,2656,2641,2627,2609,2592,2574,2556,2536,2515,2492,2471,2449,2426,2407,2385,2366,2346,2331,2316,2305,2293,2284,2277,2268,2259,2250,2241,2232,2221,2209,2197,2183,2169,2156,2139,2125,2111,2092,2077,2059,2041,2022,2002,1981,1960,1939,1917,1896,1878,1861,1846,1829,1812,1796,1780,1766,1752,1738,1725,1711,1697,1685,1673,1661,1649,1635,1621,1605,1593,1580,1567,1555,1542,1533,1525,1516,1507,1500,1490,1481,1471,1458,1448,1437,1427,1417,1411,1403,1398,1393,1389,1386,1382,1377,1376,1371,1365,1359,1354,1352,1351,1351,1359,1371,1388,1411,1439,1473,1514,1560,1610,1667,1731,1800,1873,1950,2026,2103,2178,2250,2318,2380,2438,2490,2540,2585,2644,2683,2712,2736,2756,2771,2788,2804,2819,2834,2849,2863,2878,2892,2906,2919,2932,2945,2956,2966,2976,2985,2992,3002,3009,3016,3025,3035,3045,3055,3062,3070,3075,3078,3077,3074,3070,3064,3057,3045,3032,3017,2999,2980,2958,2934,2913,2889,2870,2853,2839,2823,2808,2794,2781,2765,2751,2737,2724,2708,2693,2675,2660,2643,2627,2612,2598,2586,2572,2558,2544,2529,2514,2497,2483,2469,2455,2441,2425,2410,2392,2372,2352,2333,2313,2294,2273,2253,2234,2212,2192,2175,2158,2144,2130,2119,2107,2095,2082,2070,2059,2047,2037,2025,2014,2004,1992,1981,1968,1955,1942,1928,1915,1902,1889,1874,1859,1842,1828,1811,1794,1776,1760,1743,1726,1711,1697,1684,1672,1662,1654,1647,1642,1635,1629,1625,1618,1614,1608,1603,1597,1589,1582,1575,1568,1557,1548,1541,1534,1526,1515,1505,1499,1490,1483,1474,1466,1458,1451,1442,1434,1425,1418,1413,1411,1410,1412,1412,1413,1413,1414,1413,1410,1408,1402,1396,1387,1377,1364,1351,1340,1330,1325,1322,1322,1326,1332,1342,1354,1373,1396,1428,1464,1505,1553,1604,1660,1719,1781,1845,1911,1976,2039,2097,2150,2198,2239,2277,2309,2351,2381,2400,2420,2436,2449,2463,2475,2487,2498,2511,2522,2532,2544,2553,2562,2571,2580,2587,2597,2604,2609,2616,2620,2623,2625,2626,2626,2623,2620,2613,2605,2592,2579,2565,2550,2536,2521,2502,2485,2467,2448,2432,2416,2403,2391,2377,2366,2353,2343,2330,2320,2309,2300,2290,2282,2275,2272,2268,2263,2260,2260,2259,2255,2253,2250,2244,2238,2233,2223,2214,2203,2192,2177,2161,2141,2120,2097,2075,2053,2030,2010,1990,1968,1947,1926,1906,1885,1865,1850,1835,1820,1808,1794,1781,1771,1764,1755,1746,1738,1728,1717,1707,1696,1688,1678,1671,1663,1655,1647,1638,1629,1620,1610,1601,1589,1578,1571,1563,1556,1549,1542,1538,1533,1528,1526,1525,1521,1518,1514,1508,1503,1496,1489,1483,1474,1466,1456,1450,1443,1438,1431,1427,1425,1422,1416,1411,1405,1398,1387,1379,1370,1360,1351,1343,1334,1330,1321,1314,1306,1300,1295,1291,1290,1294,1301,1314,1329,1354,1384,1421,1465,1516,1570,1628,1687,1749,1814,1879,1943,2005,2065,2119,2167,2210,2249,2282,2321,2350,2368,2383,2396,2408,2419,2429,2434,2442,2448,2450,2451,2452,2454,2457,2457,2460,2465,2466,2470,2473,2479,2485,2491,2492,2493,2494,2492,2488,2486,2482,2476,2467,2457,2448,2434,2419,2405,2389,2371,2354,2337,2320,2307,2294,2280,2270,2261,2252,2245,2236,2232,2228,2227,2223,2222,2221,2219,2216,2210,2205,2199,2188,2178,2164,2151,2136,2120,2102,2086,2070,2054,2038,2025,2013,2001,1991,1981,1971,1960,1946,1932,1916,1901,1883,1867,1853,1838,1824,1814,1803,1794,1785,1776,1769,1762,1752,1745,1740,1733,1729,1721,1714,1705,1695,1684,1675,1665,1656,1644,1633,1624,1614,1603,1596,1592,1589,1584,1581,1577,1571,1568,1556,1545,1535,1520,1507,1493,1481,1469,1458,1449,1441,1432,1427,1420,1418,1415,1415,1414,1411,1408,1406,1403,1400,1401,1402,1405,1407,1410,1415,1423,1434,1450,1472,1501,1534,1571,1616,1666,1721,1780,1841,1905,1966,2030,2089,2146,2198,2246,2288,2328,2360,2392,2430,2456,2470,2484,2492,2496,2501,2505,2507,2510,2512,2514,2517,2521,2523,2524,2527,2530,2534,2539,2546,2554,2564,2573,2582,2590,2595,2599,2600,2600,2600,2597,2592,2588,2582,2576,2568,2560,2550,2538,2525,2512,2497,2481,2462,2440,2419,2400,2380,2359,2341,2326,2311,2299,2290,2281,2273,2266,2260,2252,2245,2235,2228,2219,2212,2202,2192,2178,2167,2154,2142,2129,2116,2104,2090,2076,2063,2048,2033,2017,2002,1983,1967,1950,1935,1920,1910,1902,1897,1894,1892,1892,1891,1890,1890,1888,1886,1881,1877,1870,1864,1857,1850,1844,1835,1825,1815,1803,1790,1773,1754,1733,1710,1685,1660,1636,1614,1593,1574,1556,1540,1526,1515,1505,1498,1493,1490,1489,1487,1487,1484,1486,1488,1492,1497,1502,1504,1507,1507,1506,1500,1495,1490,1481,1471,1462,1451,1439,1431,1420,1412,1406,1400,1397,1399,1403,1410,1423,1443,1472,1507,1551,1604,1666,1735,1811,1888,1969,2050,2128,2204,2277,2342,2404,2459,2510,2552,2590,2640,2675,2700,2722,2742,2759,2775,2787,2796,2806,2812,2819,2822,2826,2830,2835,2841,2849,2857,2865,2873,2882,2890,2896,2904,2910,2916,2920,2922,2921,2921,2919,2916,2913,2912,2909,2905,2898,2891,2882,2869,2855,2838,2819,2799,2777,2757,2736,2716,2696,2674,2653,2629,2609,2586,2563,2543,2527,2509,2494,2478,2464,2450,2437,2426,2415,2408,2397,2389,2381,2368,2358,2343,2327,2311,2293,2278,2260,2244,2228,2211,2193,2177,2162,2145,2129,2115,2100,2087,2073,2062,2050,2039,2029,2021,2013,2007,2001,1993,1985,1973,1962,1945,1929,1916,1900,1885,1870,1856,1838,1822,1809,1795,1783,1773,1763,1755,1746,1739,1734,1728,1724,1717,1708,1700,1688,1677,1663,1645,1629,1613,1596,1580,1567,1555,1543,1529,1519,1510,1501,1489,1483,1476,1471,1467,1462,1461,1459,1456,1454,1453,1453,1452,1452,1452,1454,1454,1453,1448,1444,1439,1434,1426,1420,1414,1408,1404,1403,1403,1409,1415,1427,1444,1468,1498,1536,1579,1629,1686,1745,1811,1879,1947,2012,2075,2137,2197,2250,2301,2347,2390,2430,2481,2519,2546,2568,2588,2608,2627,2643,2658,2671,2683,2695,2707,2720,2731,2742,2752,2762,2774,2785,2792,2800,2805,2807,2806,2805,2800,2794,2787,2781,2775,2771,2765,2761,2757,2752,2744,2736,2723,2711,2696,2679,2659,2641,2623,2602,2581,2563,2546,2528,2512,2496,2482,2466,2450,2433,2418,2401,2386,2371,2353,2341,2330,2320,2312,2304,2295,2285,2274,2262,2246,2230,2213,2193,2176,2156,2135,2111,2087,2065,2040,2016,1994,1975,1957,1942,1929,1916,1906,1897,1891,1884,1881,1877,1874,1871,1866,1861,1855,1849,1839,1832,1823,1817,1812,1804,1797,1786,1772,1757,1741,1726,1712,1695,1682,1667,1655,1643,1630,1625,1620,1614,1612,1607,1607,1605,1602,1601,1601,1599,1595,1590,1582,1575,1564,1553,1543,1532,1522,1510,1503,1494,1485,1477,1470,1464,1461,1459,1452,1449,1444,1438,1433,1428,1421,1415,1405,1395,1384,1375,1364,1352,1341,1333,1325,1319,1314,1309,1304,1300,1293,1287,1281,1274,1269,1262,1259,1255,1252,1251,1252,1252,1251,1253,1255,1259,1263,1269,1277,1289,1301,1313,1330,1350,1379,1413,1455,1502,1553,1611,1675,1742,1811,1882,1953,2021,2089,2152,2210,2267,2321,2371,2414,2455,2508,2544,2567,2588,2603,2612,2619,2623,2627,2627,2629,2629,2630,2632,2633,2635,2638,2640,2641,2643,2645,2648,2651,2653,2656,2660,2663,2664,2668,2669,2669,2667,2661,2653,2643,2630,2615,2599,2583,2565,2546,2527,2506,2485,2462,2438,2416,2391,2367,2345,2322,2298,2276,2257,2238,2221,2205,2190,2178,2167,2156,2143,2132,2121,2110,2102,2095,2091,2088,2087,2085,2083,2082,2079,2074,2068,2062,2055,2048,2044,2041,2036,2030,2024,2018,2011,2004,1994,1984,1975,1965,1953,1944,1933,1922,1911,1899,1888,1877,1866,1854,1844,1835,1825,1814,1805,1797,1787,1778,1765,1752,1740,1726,1712,1701,1687,1671,1656,1640,1623,1609,1593,1580,1567,1554,1543,1531,1520,1511,1503,1497,1494,1489,1487,1483,1480,1478,1476,1477,1479,1479,1482,1483,1484,1483,1479,1469,1456,1440,1420,1399,1377,1358,1340,1324,1308,1296,1287,1277,1273,1269,1265,1266,1266,1269,1273,1278,1282,1287,1293,1299,1305,1307,1308,1307,1305,1302,1295,1290,1283,1275,1267,1260,1253,1247,1242,1240,1237,1237,1240,1247,1259,1273,1290,1313,1339,1368,1401,1441,1483,1533,1586,1644,1706,1770,1836,1906,1974,2041,2105,2162,2214,2261,2301,2336,2376,2401,2414,2422,2424,2424,2419,2414,2408,2403,2398,2392,2388,2387,2385,2387,2389,2390,2391,2394,2395,2399,2403,2408,2411,2415,2418,2418,2417,2417,2416,2415,2416,2417,2418,2419,2417,2412,2407,2397,2386,2371,2357,2339,2322,2302,2284,2265,2248,2230,2212,2196,2184,2171,2161,2152,2145,2140,2134,2128,2125,2120,2116,2114,2113,2110,2105,2102,2096,2089,2078,2064,2050,2038,2023,2010,1997,1986,1975,1966,1955,1946,1940,1934,1925,1918,1911,1901,1894,1885,1874,1863,1853,1843,1834,1826,1815,1807,1795,1787,1776,1766,1753,1741,1728,1715,1703,1690,1679,1666,1657,1646,1634,1623,1612,1604,1594,1586,1577,1571,1565,1559,1553,1549,1546,1542,1537,1531,1526,1520,1511,1502,1493,1485,1474,1467,1461,1455,1452,1443,1436,1428,1417,1407,1396,1387,1379,1368,1360,1352,1345,1340,1333,1329,1327,1326,1324,1321,1319,1318,1315,1313,1312,1310,1308,1307,1304,1302,1300,1297,1296,1298,1301,1308,1317,1331,1347,1364,1386,1408,1435,1463,1496,1533,1576,1625,1673,1725,1776,1826,1874,1919,1963,2002,2036,2066,2094,2121,2157,2184,2205,2223,2241,2253,2264,2271,2276,2277,2278,2275,2269,2265,2258,2254,2250,2245,2240,2242,2242,2245,2247,2253,2259,2263,2267,2269,2269,2267,2262,2254,2247,2238,2229,2218,2209,2201,2195,2186,2181,2172,2163,2153,2143,2132,2121,2112,2102,2093,2082,2070,2059,2049,2041,2034,2030,2026,2025,2025,2024,2025,2026,2025,2024,2022,2017,2011,2004,1996,1989,1983,1977,1968,1958,1948,1938,1927,1917,1908,1899,1891,1882,1875,1869,1862,1855,1850,1845,1838,1832,1827,1821,1813,1806,1798,1790,1782,1773,1766,1759,1752,1744,1738,1734,1729,1724,1716,1707,1698,1686,1673,1659,1644,1627,1612,1595,1580,1566,1552,1540,1530,1522,1517,1511,1508,1506,1505,1506,1506,1506,1504,1500,1496,1494,1488,1485,1480,1477,1474,1474,1470,1467,1466,1465,1464,1464,1466,1470,1474,1477,1480,1483,1485,1487,1487,1491,1497,1501,1511,1520,1533,1547,1568,1589,1614,1642,1675,1710,1749,1789,1835,1882,1934,1986,2035,2084,2127,2167,2202,2231,2255,2273,2286,2303,2313,2321,2323,2326,2326,2326,2326,2324,2325,2328,2329,2329,2331,2333,2335,2337,2339,2344,2348,2350,2353,2351,2347,2341,2334,2324,2314,2306,2294,2284,2273,2261,2250,2235,2223,2210,2200,2191,2186,2178,2171,2163,2158,2153,2147,2140,2136,2133,2131,2129,2130,2132,2136,2137,2138,2142,2142,2142,2139,2134,2128,2118,2106,2090,2075,2059,2041,2021,2009,1995,1981,1967,1952,1938,1921,1906,1890,1880,1869,1860,1855,1853,1851,1848,1846,1841,1834,1825,1817,1805,1795,1787,1778,1770,1764,1757,1752,1745,1741,1735,1732,1728,1727,1722,1718,1713,1709,1707,1704,1699,1697,1693,1689,1683,1677,1669,1661,1653,1644,1635,1626,1620,1613,1606,1598,1590,1579,1573,1565,1557,1547,1536,1525,1514,1504,1493,1485,1478,1474,1470,1471,1474,1480,1488,1500,1512,1529,1546,1568,1590,1618,1647,1683,1722,1765,1811,1860,1914,1968,2024,2078,2136,2192,2247,2298,2349,2398,2442,2483,2520,2572,2610,2636,2662,2683,2702,2718,2731,2740,2748,2754,2758,2762,2763,2762,2762,2759,2763,2767,2770,2776,2778,2784,2785,2789,2792,2794,2795,2797,2798,2797,2796,2791,2786,2776,2763,2747,2729,2709,2687,2664,2641,2618,2597,2573,2551,2529,2510,2491,2474,2459,2449,2438,2430,2422,2418,2413,2409,2404,2400,2395,2388,2382,2376,2368,2363,2358,2353,2350,2347,2340,2333,2327,2317,2307,2295,2284,2270,2255,2239,2225,2208,2192,2178,2165,2154,2145,2137,2132,2128,2122,2114,2105,2094,2083,2068,2053,2039,2023,2006,1991,1977,1960,1945,1929,1915,1902,1888,1875,1861,1847,1835,1820,1808,1797,1783,1774,1763,1751,1739,1730,1720,1708,1697,1687,1675,1667,1659,1652,1645,1641,1638,1635,1632,1631,1629,1629,1631,1633,1633,1633,1634,1631,1630,1626,1626,1623,1620,1618,1615,1613,1615,1619,1629,1642,1663,1688,1726,1769,1819,1879,1945,2017,2093,2171,2251,2333,2415,2492,2571,2641,2708,2768,2818,2865,2904,2948,2974,2988,2997,3003,3008,3012,3017,3022,3028,3035,3044,3054,3067,3081,3097,3114,3130,3147,3164,3180,3195,3207,3218,3228,3235,3240,3242,3240,3235,3229,3224,3216,3208,3196,3184,3170,3155,3139,3121,3104,3085,3066,3048,3032,3018,3003,2991,2979,2967,2954,2941,2926,2910,2896,2882,2866,2853,2841,2830,2821,2812,2804,2793,2783,2772,2762,2751,2739,2727,2714,2703,2690,2676,2663,2649,2636,2622,2609,2598,2585,2571,2556,2541,2524,2509,2492,2474,2460,2444,2428,2412,2397,2382,2366,2349,2331,2313,2293,2274,2255,2236,2217,2197,2179,2163,2146,2128,2114,2098,2083,2067,2054,2039,2027,2014,2002,1988,1977,1962,1947,1935,1920,1908,1894,1882,1870,1861,1849,1841,1834,1827,1822,1818,1813,1808,1801,1793,1785,1776,1769,1760,1753,1743,1731,1716,1699,1683,1666,1648,1634,1622,1614,1605,1598,1591,1586,1584,1581,1580,1580,1583,1589,1599,1614,1635,1661,1694,1735,1784,1839,1900,1965,2039,2111,2187,2264,2340,2417,2490,2562,2632,2700,2763,2821,2874,2946,2994,3027,3053,3077,3096,3110,3124,3135,3143,3150,3157,3167,3175,3183,3191,3201,3208,3214,3221,3225,3231,3233,3233,3232,3232,3232,3227,3225,3224,3221,3219,3217,3214,3209,3204,3197,3189,3180,3166,3151,3134,3116,3096,3076,3057,3039,3022,3005,2989,2973,2957,2939,2921,2903,2884,2865,2846,2828,2810,2796,2781,2768,2756,2745,2734,2723,2713,2699,2687,2675,2663,2648,2632,2615,2595,2576,2554,2533,2512,2492,2473,2452,2433,2413,2395,2377,2358,2344,2332,2318,2308,2294,2284,2270,2260,2246,2233,2222,2209,2197,2182,2165,2148,2127,2110,2090,2072,2052,2035,2018,2006,1993,1983,1975,1965,1957,1946,1936,1926,1914,1903,1891,1880,1869,1858,1845,1834,1819,1805,1788,1771,1757,1742,1728,1714,1702,1688,1677,1665,1657,1649,1642,1633,1626,1620,1612,1606,1601,1593,1590,1586,1583,1581,1575,1570,1568,1565,1561,1557,1552,1548,1540,1532,1523,1515,1509,1502,1496,1488,1481,1473,1467,1464,1462,1459,1458,1459,1464,1475,1489,1512,1542,1579,1624,1675,1730,1792,1856,1924,1993,2063,2133,2204,2272,2341,2408,2470,2529,2582,2629,2691,2734,2766,2794,2819,2841,2861,2880,2896,2912,2927,2939,2949,2957,2960,2961,2959,2956,2953,2948,2944,2941,2940,2941,2942,2946,2951,2955,2961,2968,2972,2979,2986,2990,2992,2993,2993,2988,2983,2976,2966,2952,2935,2913,2888,2861,2834,2804,2777,2749,2724,2694,2674,2656,2641,2627,2618,2607,2600,2593,2584,2577,2569,2561,2551,2543,2535,2527,2518,2511,2502,2493,2480,2465,2449,2430,2412,2394,2376,2361,2345,2330,2316,2301,2286,2271,2257,2243,2227,2213,2197,2183,2170,2155,2140,2126,2114,2099,2086,2077,2066,2057,2043,2028,2012,1992,1972,1951,1931,1910,1890,1872,1857,1843,1829,1816,1802,1790,1778,1766,1754,1745,1737,1729,1722,1717,1713,1707,1700,1691,1681,1670,1660,1648,1640,1629,1621,1612,1604,1597,1591,1583,1580,1577,1573,1572,1570,1568,1567,1563,1560,1554,1547,1540,1532,1523,1515,1504,1492,1481,1468,1454,1441,1431,1419,1407,1397,1387,1376,1367,1356,1347,1339,1335,1330,1324,1320,1316,1312,1306,1301,1294,1287,1280,1273,1267,1258,1253,1250,1251,1255,1266,1287,1316,1354,1404,1464,1533,1611,1695,1784,1873,1968,2062,2154,2244,2331,2414,2486,2549,2604,2652,2694,2740,2770,2790,2804,2812,2814,2815,2811,2806,2801,2798,2794,2790,2790,2790,2788,2787,2784,2784,2782,2782,2783,2785,2789,2794,2799,2804,2810,2815,2819,2821,2825,2828,2827,2825,2821,2812,2799,2783,2766,2748,2728,2709,2692,2674,2659,2640,2621,2604,2587,2571,2558,2546,2535,2523,2511,2499,2486,2473,2460,2447,2434,2423,2409,2396,2384,2373,2362,2350,2338,2328,2317,2307,2296,2286,2276,2263,2251,2241,2231,2221,2212,2203,2197,2188,2180,2171,2161,2149,2135,2119,2103,2087,2073,2056,2041,2023,2006,1989,1974,1960,1947,1934,1922,1912,1902,1894,1885,1877,1868,1859,1847,1834,1822,1811,1802,1792,1782,1771,1761,1749,1738,1727,1716,1703,1690,1675,1664,1653,1646,1642,1640,1642,1641,1642,1644,1645,1645,1642,1638,1633,1623,1613,1606,1595,1584,1573,1562,1555,1545,1537,1527,1515,1500,1487,1473,1462,1449,1439,1430,1422,1416,1411,1408,1406,1403,1402,1400,1397,1393,1389,1383,1376,1369,1363,1357,1351,1348,1343,1341,1337,1329,1323,1315,1307,1302,1294,1291,1292,1298,1310,1328,1352,1383,1422,1473,1529,1595,1672,1753,1835,1922,2005,2091,2170,2247,2322,2392,2455,2514,2565,2609,2661,2693,2711,2724,2732,2736,2735,2733,2729,2721,2717,2712,2704,2699,2691,2685,2681,2675,2674,2674,2674,2675,2677,2678,2678,2680,2682,2685,2689,2693,2697,2701,2703,2705,2705,2703,2700,2696,2689,2680,2671,2657,2643,2626,2609,2594,2575,2559,2542,2524,2507,2491,2475,2460,2444,2431,2419,2408,2396,2386,2377,2370,2360,2352,2345,2337,2330,2322,2313,2307,2298,2291,2280,2274,2266,2259,2253,2246,2238,2231,2222,2215,2207,2200,2189,2179,2168,2155,2141,2126,2108,2096,2080,2065,2050,2035,2018,1999,1984,1969,1953,1938,1924,1912,1900,1888,1877,1865,1852,1841,1828,1815,1803,1788,1773,1758,1745,1735,1725,1715,1706,1700,1694,1686,1679,1671,1666,1657,1648,1639,1631,1623,1612,1601,1590,1580,1566,1553,1540,1527,1513,1501,1487,1475,1466,1456,1448,1439,1432,1427,1422,1418,1417,1413,1413,1413,1415,1419,1421,1426,1432,1439,1438,1438,1438,1432,1427,1418,1409,1399,1385,1373,1360,1347,1336,1327,1318,1313,1309,1304,1303,1303,1303,1302,1302,1303,1304,1305,1309,1315,1321,1333,1349,1368,1395,1426,1467,1515,1571,1635,1706,1784,1865,1949,2036,2119,2200,2281,2355,2422,2485,2541,2588,2629,2667,2710,2735,2749,2760,2766,2769,2768,2764,2758,2748,2738,2726,2715,2702,2691,2682,2674,2666,2659,2655,2652,2651,2650,2652,2655,2659,2663,2667,2668,2670,2671,2669,2666,2664,2660,2655,2648,2641,2633,2622,2609,2594,2578,2560,2542,2521,2500,2480,2460,2440,2420,2403,2385,2370,2352,2340,2329,2320,2311,2307,2303,2301,2300,2300,2298,2297,2296,2293,2291,2284,2279,2272,2263,2251,2238,2223,2206,2186,2165,2145,2124,2107,2088,2068,2051,2033,2018,2005,1993,1983,1978,1971,1967,1962,1959,1956,1949,1942,1935,1923,1912,1898,1881,1864,1845,1827,1809,1794,1781,1766,1757,1746,1735,1721,1710,1697,1687,1673,1663,1653,1645,1637,1630,1624,1622,1618,1614,1610,1606,1602,1597,1592,1587,1581,1574,1567,1564,1560,1555,1552,1548,1541,1536,1529,1525,1521,1517,1515,1513,1513,1511,1509,1509,1508,1505,1502,1499,1495,1492,1488,1483,1477,1471,1466,1460,1458,1457,1457,1457,1454,1456,1456,1456,1456,1456,1454,1452,1450,1447,1441,1436,1431,1426,1419,1413,1408,1404,1400,1399,1397,1402,1408,1419,1434,1458,1490,1531,1581,1635,1697,1766,1839,1914,1993,2075,2155,2234,2308,2379,2445,2505,2556,2601,2642,2690,2721,2737,2746,2750,2749,2741,2733,2722,2709,2695,2684,2673,2664,2657,2656,2655,2656,2659,2665,2673,2684,2694,2707,2719,2730,2739,2747,2753,2758,2759,2757,2756,2749,2741,2729,2712,2696,2677,2659,2641,2625,2609,2593,2580,2566,2552,2537,2523,2510,2498,2485,2472,2460,2451,2441,2428,2418,2406,2392,2378,2365,2354,2342,2331,2318,2303,2289,2273,2258,2240,2227,2212,2199,2187,2176,2167,2156,2146,2137,2127,2117,2106,2094,2083,2071,2058,2045,2031,2016,1999,1984,1969,1955,1941,1928,1918,1906,1896,1885,1876,1867,1858,1849,1840,1830,1820,1808,1796,1783,1771,1756,1744,1732,1721,1709,1699,1690,1681,1671,1662,1653,1645,1635,1626,1618,1610,1603,1596,1587,1583,1575,1567,1559,1552,1546,1537,1532,1526,1523,1518,1514,1508,1506,1504,1498,1495,1493,1492,1489,1484,1480,1475,1468,1458,1447,1439,1427,1413,1403,1392,1384,1374,1371,1370,1370,1374,1378,1383,1389,1394,1398,1402,1403,1405,1406,1410,1419,1436,1457,1482,1516,1555,1602,1655,1715,1779,1847,1918,1991,2062,2134,2203,2265,2325,2380,2426,2468,2507,2540,2582,2610,2627,2637,2641,2641,2640,2634,2627,2618,2608,2598,2588,2578,2573,2568,2566,2562,2560,2560,2558,2554,2551,2549,2546,2541,2534,2528,2521,2514,2507,2497,2488,2480,2469,2461,2450,2439,2426,2412,2399,2387,2373,2361,2350,2343,2333,2322,2314,2309,2305,2301,2298,2298,2296,2295,2292,2293,2292,2289,2285,2281,2273,2263,2253,2243,2233,2220,2208,2196,2183,2168,2152,2138,2123,2111,2098,2085,2075,2064,2054,2042,2028,2014,2000,1986,1972,1958,1945,1932,1923,1914,1905,1898,1890,1883,1875,1866,1861,1850,1840,1827,1816,1802,1792,1779,1768,1756,1748,1739,1731,1723,1713,1708,1702,1696,1692,1689,1687,1685,1680,1678,1674,1672,1667,1663,1662,1660,1659,1656,1656,1654,1648,1641,1633,1625,1614,1602,1589,1578,1565,1552,1540,1528,1519,1513,1507,1502,1501,1501,1504,1511,1518,1530,1544,1562,1586,1614,1647,1684,1728,1777,1834,1893,1957,2022,2090,2158,2226,2291,2352,2412,2466,2513,2555,2594,2627,2668,2694,2709,2719,2725,2725,2722,2713,2702,2688,2672,2653,2634,2619,2605,2593,2582,2576,2571,2569,2572,2578,2583,2590,2593,2596,2596,2592,2588,2582,2574,2563,2553,2541,2526,2511,2493,2477,2459,2441,2424,2411,2399,2389,2380,2373,2366,2357,2349,2337,2327,2318,2308,2301,2293,2287,2282,2278,2272,2265,2258,2251,2245,2236,2230,2222,2213,2206,2198,2189,2181,2173,2167,2160,2156,2150,2143,2135,2126,2117,2110,2099,2089,2077,2065,2050,2035,2017,1997,1982,1967,1951,1938,1928,1919,1913,1908,1904,1900,1898,1891,1885,1875,1868,1859,1850,1840,1829,1817,1805,1795,1783,1774,1763,1753,1741,1730,1720,1709,1696,1683,1668,1654,1640,1627,1614,1601,1591,1579,1569,1559,1548,1541,1532,1527,1524,1521,1518,1517,1514,1514,1513,1513,1517,1523,1529,1543,1562,1586,1618,1658,1702,1754,1812,1877,1947,2019,2094,2168,2242,2313,2385,2452,2514,2572,2626,2676,2718,2777,2818,2847,2873,2894,2913,2928,2938,2947,2952,2954,2955,2955,2956,2958,2962,2967,2972,2979,2986,2989,2993,2998,3001,3004,3006,3009,3010,3013,3013,3015,3016,3017,3016,3012,3009,3002,2991,2981,2970,2957,2944,2930,2916,2902,2887,2868,2846,2829,2808,2786,2769,2753,2738,2722,2708,2694,2683,2671,2658,2646,2636,2624,2613,2604,2593,2584,2574,2565,2554,2546,2537,2529,2523,2518,2514,2507,2501,2493,2484,2474,2464,2452,2439,2425,2410,2395,2381,2367,2354,2339,2326,2310,2296,2282,2269,2254,2240,2226,2211,2197,2185,2173,2161,2152,2143,2134,2123,2111,2098,2083,2068,2051,2037,2024,2011,2000,1990,1981,1970,1964,1956,1950,1941,1932,1923,1912,1901,1887,1873,1857,1843,1830,1817,1807,1798,1788,1781,1773,1765,1755,1750,1744,1742,1741,1741,1748,1755,1770,1789,1820,1857,1901,1953,2011,2075,2139,2207,2276,2346,2415,2486,2555,2622,2687,2744,2799,2851,2896,2955,2996,3023,3048,3065,3077,3087,3093,3096,3097,3098,3097,3097,3099,3100,3100,3103,3106,3113,3119,3128,3137,3147,3158,3170,3181,3193,3205,3215,3224,3228,3232,3231,3228,3221,3216,3209,3198,3186,3173,3161,3148,3133,3118,3101,3083,3062,3043,3022,3003,2984,2962,2940,2918,2894,2872,2851,2830,2810,2790,2773,2755,2740,2725,2711,2699,2687,2676,2662,2651,2639,2628,2615,2603,2589,2575,2558,2540,2523,2509,2495,2478,2463,2447,2429,2410,2390,2370,2350,2326,2306,2287,2268,2251,2236,2223,2210,2197,2185,2176,2167,2158,2151,2146,2140,2136,2131,2124,2118,2112,2102,2089,2077,2064,2049,2034,2017,2002,1986,1972,1959,1948,1936,1926,1916,1909,1900,1894,1888,1884,1878,1873,1867,1862,1855,1849,1842,1833,1826,1820,1812,1804,1795,1783,1772,1755,1740,1723,1707,1689,1674,1658,1645,1632,1622,1616,1609,1603,1599,1600,1605,1616,1631,1654,1685,1724,1770,1823,1883,1947,2014,2085,2156,2233,2306,2378,2449,2519,2584,2645,2703,2757,2806,2872,2919,2950,2977,2999,3020,3038,3053,3070,3080,3089,3096,3101,3105,3110,3113,3117,3121,3127,3133,3137,3140,3146,3150,3152,3154,3157,3158,3160,3160,3160,3159,3158,3155,3151,3147,3143,3137,3132,3123,3113,3101,3087,3069,3050,3028,3003,2978,2953,2929,2907,2887,2869,2853,2836,2817,2801,2783,2768,2752,2738,2726,2714,2704,2695,2688,2679,2671,2659,2647,2634,2621,2607,2591,2576,2561,2548,2533,2519,2506,2490,2475,2462,2449,2433,2418,2406,2395,2380,2367,2353,2337,2319,2301,2282,2265,2246,2229,2208,2189,2171,2153,2136,2119,2099,2080,2056,2034,2014,1995,1978,1963,1951,1939,1925,1913,1902,1889,1878,1865,1854,1843,1831,1818,1804,1790,1778,1766,1755,1745,1738,1726,1713,1702,1691,1678,1665,1653,1642,1631,1620,1608,1596,1585,1571,1560,1549,1537,1525,1514,1505,1497,1489,1481,1474,1465,1456,1447,1437,1429,1421,1413,1408,1405,1401,1395,1388,1379,1368,1355,1344,1330,1316,1302,1290,1279,1273,1270,1273,1281,1296,1319,1350,1391,1438,1496,1557,1625,1698,1775,1855,1935,2014,2095,2168,2239,2302,2362,2415,2463,2508,2564,2601,2625,2645,2663,2677,2687,2697,2703,2709,2711,2709,2706,2703,2700,2699,2699,2703,2709,2717,2724,2729,2734,2734,2736,2736,2737,2733,2732,2729,2727,2724,2720,2716,2714,2711,2708,2704,2700,2694,2688,2678,2667,2652,2635,2617,2598,2578,2559,2538,2517,2497,2478,2460,2445,2433,2423,2412,2400,2388,2378,2365,2354,2342,2334,2325,2314,2305,2294,2282,2269,2254,2238,2220,2205,2189,2172,2159,2143,2128,2113,2096,2078,2061,2043,2028,2012,1998,1983,1969,1953,1936,1918,1900,1882,1865,1850,1836,1825,1814,1807,1799,1792,1786,1779,1774,1770,1765,1758,1750,1738,1725,1710,1694,1679,1665,1652,1638,1625,1613,1601,1588,1575,1563,1550,1540,1528,1517,1508,1499,1489,1477,1467,1453,1441,1429,1416,1407,1398,1389,1380,1372,1364,1356,1348,1338,1331,1319,1313,1305,1296,1287,1278,1269,1261,1252,1245,1240,1236,1229,1224,1221,1218,1216,1215,1217,1217,1219,1219,1218,1216,1213,1212,1211,1207,1207,1202,1198,1192,1186,1182,1175,1171,1170,1170,1175,1186,1207,1234,1269,1314,1363,1422,1485,1551,1622,1695,1767,1839,1908,1975,2040,2098,2155,2205,2252,2291,2339,2370,2388,2404,2414,2421,2426,2426,2423,2421,2416,2413,2407,2403,2401,2401,2406,2412,2420,2428,2436,2442,2447,2452,2458,2462,2466,2470,2471,2472,2472,2470,2473,2471,2470,2468,2468,2464,2459,2451,2442,2429,2414,2396,2373,2349,2325,2299,2273,2245,2217,2190,2164,2140,2117,2098,2085,2073,2063,2056,2049,2043,2039,2035,2034,2035,2034,2035,2033,2031,2027,2023,2017,2010,2002,1991,1980,1966,1953,1938,1925,1910,1896,1880,1865,1851,1837,1825,1811,1800,1789,1782,1773,1764,1756,1748,1741,1732,1725,1720,1713,1708,1702,1696,1689,1679,1668,1655,1642,1630,1618,1604,1590,1579,1564,1551,1541,1532,1522,1514,1510,1506,1502,1497,1493,1491,1489,1486,1482,1475,1467,1457,1447,1436,1425,1415,1401,1387,1375,1365,1355,1347,1337,1329,1321,1313,1307,1301,1298,1294,1290,1286,1281,1275,1267,1258,1248,1238,1227,1219,1210,1201,1192,1184,1176,1168,1162,1156,1149,1145,1141,1138,1136,1133,1131,1130,1129,1131,1133,1137,1139,1144,1148,1153,1160,1168,1174,1182,1188,1195,1201,1206,1212,1222,1237,1257,1283,1320,1363,1413,1471,1535,1604,1677,1749,1825,1900,1974,2043,2112,2175,2233,2284,2328,2367,2400,2434,2454,2462,2464,2460,2453,2444,2431,2419,2409,2398,2388,2380,2370,2364,2357,2351,2344,2337,2331,2324,2316,2309,2304,2297,2293,2290,2289,2291,2292,2292,2296,2299,2299,2298,2294,2288,2280,2270,2259,2247,2235,2219,2204,2192,2177,2165,2152,2141,2131,2123,2112,2103,2096,2088,2082,2072,2063,2054,2043,2033,2022,2013,2005,1998,1991,1985,1979,1970,1964,1956,1947,1935,1925,1916,1905,1893,1881,1869,1858,1846,1835,1823,1815,1806,1795,1785,1776,1766,1756,1744,1732,1720,1707,1695,1683,1672,1660,1649,1638,1629,1617,1607,1598,1590,1580,1570,1558,1546,1534,1521,1508,1493,1479,1467,1455,1444,1439,1434,1432,1431,1430,1430,1428,1425,1421,1419,1416,1414,1410,1408,1405,1401,1397,1398,1397,1399,1401,1405,1407,1411,1412,1412,1412,1411,1408,1407,1403,1399,1393,1385,1378,1370,1361,1354,1346,1338,1329,1319,1312,1306,1299,1290,1284,1278,1274,1272,1268,1267,1264,1261,1260,1258,1253,1250,1248,1245,1239,1233,1224,1213,1201,1192,1184,1176,1174,1176,1179,1185,1195,1210,1230,1253,1285,1326,1373,1428,1488,1556,1627,1702,1777,1857,1933,2009,2082,2150,2215,2275,2327,2371,2407,2445,2464,2473,2478,2481,2479,2472,2464,2452,2439,2430,2419,2409,2400,2391,2385,2378,2373,2370,2366,2366,2364,2365,2368,2370,2376,2380,2384,2388,2390,2392,2393,2394,2394,2393,2393,2392,2391,2387,2380,2373,2365,2356,2341,2329,2312,2294,2277,2259,2241,2223,2205,2186,2170,2153,2137,2122,2108,2096,2084,2073,2062,2053,2045,2037,2030,2024,2022,2019,2016,2016,2013,2009,2001,1997,1989,1985,1981,1976,1971,1964,1957,1949,1938,1925,1908,1891,1872,1854,1836,1818,1802,1786,1771,1755,1738,1725,1713,1701,1690,1678,1666,1655,1644,1633,1624,1614,1608,1603,1598,1591,1581,1571,1563,1550,1539,1527,1515,1505,1493,1480,1469,1460,1453,1443,1433,1427,1420,1416,1408,1401,1392,1382,1374,1364,1359,1349,1345,1337,1332,1328,1323,1320,1319,1320,1320,1320,1323,1323,1323,1323,1324,1326,1326,1329,1332,1335,1341,1346,1350,1352,1357,1362,1363,1363,1363,1361,1355,1349,1342,1332,1325,1320,1315,1310,1307,1304,1302,1297,1294,1292,1291,1291,1291,1292,1294,1298,1304,1314,1326,1346,1373,1406,1448,1495,1552,1613,1679,1749,1822,1898,1975,2046,2118,2185,2246,2300,2350,2394,2430,2461,2499,2521,2531,2533,2533,2527,2513,2500,2483,2466,2450,2431,2415,2397,2381,2367,2356,2346,2340,2334,2329,2324,2323,2322,2321,2324,2326,2327,2327,2327,2323,2321,2315,2310,2302,2292,2280,2265,2249,2233,2214,2193,2172,2148,2125,2103,2084,2067,2052,2038,2025,2015,2009,2004,2002,2001,2004,2003,2005,2005,2008,2010,2011,2010,2009,2007,2004,2004,2004,2004,2004,1997,1991,1982,1969,1956,1942,1929,1913,1899,1885,1871,1857,1846,1833,1822,1814,1805,1797,1789,1780,1774,1765,1759,1750,1742,1734,1724,1715,1707,1699,1693,1688,1684,1678,1674,1670,1666,1661,1656,1652,1646,1643,1637,1633,1630,1627,1623,1620,1618,1616,1613,1610,1606,1603,1598,1593,1588,1582,1579,1572,1564,1556,1550,1540,1530,1523,1512,1503,1493,1483,1476,1469,1461,1455,1450,1446,1441,1436,1426,1418,1409,1401,1394,1389,1385,1381,1379,1379,1377,1376,1375,1375,1375,1379,1385,1397,1413,1437,1467,1507,1552,1603,1659,1720,1783,1848,1914,1979,2046,2110,2173,2233,2292,2344,2392,2433,2467,2504,2521,2528,2533,2535,2534,2531,2526,2517,2509,2498,2490,2483,2474,2466,2458,2450,2441,2432,2424,2418,2411,2404,2400,2396,2393,2389,2385,2379,2376,2370,2361,2350,2339,2325,2307,2289,2269,2251,2230,2213,2196,2179,2166,2153,2143,2135,2127,2119,2113,2105,2099,2091,2082,2078,2073,2066,2063,2059,2056,2050,2045,2041,2034,2029,2022,2016,2011,2007,2001,1999,1994,1990,1984,1978,1972,1964,1956,1947,1938,1926,1911,1894,1879,1863,1848,1834,1823,1812,1802,1791,1779,1770,1760,1748,1736,1726,1718,1710,1705,1701,1700,1699,1696,1696,1695,1696,1695,1695,1692,1689,1681,1673,1661,1649,1637,1623,1611,1600,1590,1580,1572,1567,1561,1556,1551,1546,1544,1543,1543,1545,1550,1553,1556,1560,1564,1568,1569,1572,1571,1569,1565,1559,1550,1543,1532,1520,1509,1500,1488,1479,1471,1466,1465,1469,1476,1491,1513,1541,1574,1615,1665,1722,1784,1852,1922,1995,2070,2145,2218,2289,2353,2412,2467,2517,2559,2595,2641,2667,2682,2692,2698,2701,2701,2699,2696,2690,2684,2677,2667,2658,2651,2644,2639,2634,2632,2631,2632,2633,2636,2637,2640,2642,2646,2646,2649,2649,2649,2647,2642,2636,2631,2624,2615,2603,2591,2576,2561,2545,2528,2512,2494,2473,2450,2430,2406,2385,2364,2347,2331,2319,2305,2297,2292,2290,2287,2286,2286,2286,2287,2285,2285,2284,2278,2273,2266,2255,2241,2227,2211,2194,2178,2160,2144,2128,2112,2095,2082,2069,2058,2045,2037,2028,2021,2013,2002,1992,1982,1972,1959,1947,1933,1919,1905,1891,1879,1868,1858,1845,1833,1819,1805,1790,1776,1763,1750,1741,1732,1727,1720,1713,1707,1700,1692,1686,1679,1670,1664,1656,1649,1643,1635,1627,1620,1613,1606,1596,1588,1579,1571,1565,1557,1550,1546,1541,1539,1538,1535,1536,1534,1533,1530,1524,1519,1511,1504,1494,1488,1479,1473,1465,1457,1452,1448,1447,1452,1456,1465,1477,1494,1517,1542,1577,1621,1670,1726,1791,1862,1938,2019,2102,2186,2270,2351,2428,2498,2565,2623,2676,2720,2759,2807,2836,2855,2869,2878,2883,2882,2879,2872,2862,2850,2839,2829,2819,2810,2803,2798,2792,2786,2781,2779,2778,2778,2779,2780,2784,2785,2784,2784,2783,2781,2776,2767,2759,2750,2738,2726,2714,2700,2684,2669,2651,2636,2617,2600,2583,2569,2556,2540,2526,2511,2495,2481,2467,2453,2439,2428,2416,2404,2393,2380,2366,2351,2337,2322,2308,2297,2284,2274,2267,2260,2257,2253,2249,2244,2238,2232,2224,2213,2201,2188,2174,2159,2148,2136,2123,2111,2100,2088,2075,2064,2051,2039,2027,2016,2006,1995,1986,1976,1968,1960,1952,1942,1930,1920,1908,1897,1886,1877,1869,1860,1851,1842,1832,1822,1813,1803,1793,1783,1773,1765,1756,1746,1734,1721,1709,1697,1686,1676,1665,1656,1648,1641,1632,1627,1625,1620,1618,1616,1613,1612,1609,1609,1608,1607,1606,1604,1601,1597,1591,1584,1577,1570,1560,1551,1541,1531,1521,1512,1503,1493,1486,1477,1474,1467,1462,1457,1452,1446,1442,1439,1435,1436,1438,1446,1458,1476,1501,1529,1567,1609,1661,1719,1784,1854,1927,2004,2083,2163,2240,2317,2391,2462,2525,2584,2637,2683,2722,2768,2798,2815,2828,2835,2837,2837,2830,2823,2812,2800,2788,2778,2765,2756,2745,2735,2728,2722,2718,2716,2720,2725,2731,2741,2752,2762,2771,2778,2785,2791,2796,2799,2799,2796,2791,2782,2773,2762,2751,2738,2725,2710,2695,2679,2660,2641,2623,2606,2590,2573,2557,2545,2532,2519,2508,2499,2491,2485,2480,2477,2477,2476,2475,2475,2474,2472,2470,2465,2461,2453,2446,2434,2423,2409,2393,2375,2357,2338,2320,2299,2278,2256,2235,2213,2192,2174,2156,2139,2122,2104,2090,2075,2062,2050,2038,2025,2014,2002,1990,1978,1964,1950,1934,1917,1899,1884,1867,1851,1837,1821,1809,1797,1785,1773,1764,1759,1753,1750,1749,1748,1746,1745,1741,1738,1734,1725,1715,1705,1695,1684,1672,1661,1650,1637,1626,1615,1605,1596,1587,1580,1573,1565,1560,1554,1550,1546,1542,1535,1530,1524,1520,1514,1508,1503,1497,1489,1481,1472,1462,1450,1438,1429,1417,1410,1400,1393,1385,1377,1372,1366,1364,1360,1357,1353,1354,1356,1356,1359,1367,1374,1387,1406,1434,1474,1524,1583,1652,1730,1817,1908,1998,2091,2181,2268,2349,2425,2497,2561,2619,2668,2711,2744,2781,2802,2811,2816,2818,2818,2817,2815,2810,2806,2805,2803,2802,2802,2804,2807,2809,2812,2817,2823,2829,2832,2837,2839,2843,2845,2845,2845,2844,2842,2837,2832,2823,2814,2803,2790,2778,2763,2748,2731,2713,2695,2676,2659,2642,2624,2605,2587,2566,2548,2529,2510,2492,2474,2454,2438,2421,2407,2394,2380,2369,2360,2351,2341,2334,2327,2321,2314,2306,2297,2289,2277,2268,2258,2249,2239,2228,2218,2205,2195,2184,2174,2162,2150,2133,2113,2096,2080,2062,2045,2030,2016,2003,1991,1979,1967,1958,1949,1940,1932,1926,1919,1912,1903,1891,1880,1867,1853,1837,1820,1802,1783,1764,1746,1726,1706,1687,1670,1654,1641,1630,1622,1612,1607,1600,1596,1592,1588,1583,1581,1576,1571,1567,1563,1561,1559,1555,1551,1550,1544,1540,1533,1527,1517,1507,1498,1488,1477,1465,1452,1439,1429,1420,1411,1406,1401,1395,1393,1390,1387,1387,1383,1381,1380,1381,1382,1386,1392,1399,1407,1415,1421,1427,1434,1439,1447,1457,1465,1477,1494,1514,1541,1574,1616,1666,1722,1784,1856,1933,2014,2098,2183,2264,2343,2419,2490,2555,2611,2663,2704,2737,2771,2785,2790,2792,2789,2783,2776,2765,2757,2748,2740,2734,2728,2728,2729,2730,2734,2740,2749,2756,2766,2775,2784,2790,2798,2804,2812,2818,2821,2819,2818,2812,2806,2797,2792,2782,2771,2757,2741,2723,2702,2680,2658,2638,2619,2600,2579,2559,2540,2521,2500,2476,2455,2433,2411,2390,2372,2353,2337,2321,2306,2294,2283,2274,2266,2260,2255,2248,2244,2242,2239,2235,2232,2228,2225,2221,2214,2208,2196,2183,2167,2150,2130,2111,2092,2074,2057,2042,2024,2004,1987,1967,1946,1927,1910,1893,1877,1862,1850,1840,1831,1823,1819,1818,1816,1815,1814,1812,1809,1803,1796,1790,1782,1772,1761,1751,1741,1732,1722,1712,1702,1693,1683,1671,1661,1648,1635,1622,1607,1595,1581,1566,1553,1539,1528,1515,1502,1491,1481,1469,1459,1452,1441,1432,1421,1411,1401,1390,1379,1370,1363,1355,1346,1339,1332,1327,1319,1316,1315,1315,1316,1316,1318,1318,1319,