1507,1507,1509,1510,1513,1514,1515,1516,1519,1526,1536,1552,1575,1605,1639,1682,1731,1785,1844,1908,1974,2043,2111,2182,2251,2320,2387,2451,2516,2579,2640,2696,2750,2816,2859,2883,2900,2911,2915,2915,2909,2899,2887,2872,2857,2839,2823,2803,2784,2765,2744,2723,2700,2679,2655,2632,2606,2582,2558,2537,2508,2487,2465,2442,2418,2393,2366,2339,2312,2283,2256,2230,2207,2183,2162,2146,2130,2121,2112,2106,2100,2096,2094,2094,2096,2096,2098,2102,2105,2111,2112,2114,2115,2115,2115,2115,2113,2112,2111,2112,2111,2110,2110,2108,2107,2105,2100,2093,2086,2079,2067,2057,2046,2036,2024,2016,2008,1997,1989,1978,1965,1949,1931,1913,1897,1879,1863,1849,1835,1823,1810,1798,1784,1773,1761,1749,1737,1726,1715,1705,1697,1690,1681,1673,1665,1655,1646,1638,1627,1616,1609,1599,1592,1586,1581,1579,1576,1576,1575,1575,1578,1576,1579,1581,1582,1585,1585,1586,1587,1590,1591,1593,1595,1595,1595,1596,1592,1591,1588,1586,1584,1584,1592,1601,1615,1635,1663,1693,1733,1777,1828,1884,1945,2008,2075,2142,2209,2278,2343,2409,2470,2528,2580,2632,2677,2717,2766,2796,2816,2826,2829,2828,2822,2812,2797,2782,2763,2742,2719,2697,2673,2649,2622,2596,2569,2543,2514,2486,2456,2427,2399,2373,2348,2324,2301,2279,2255,2233,2211,2192,2171,2153,2139,2123,2107,2091,2078,2065,2055,2045,2037,2031,2026,2023,2022,2022,2022,2024,2025,2026,2029,2033,2037,2043,2049,2055,2063,2071,2077,2083,2086,2086,2087,2086,2084,2080,2076,2070,2064,2056,2049,2039,2027,2015,2003,1991,1980,1967,1954,1942,1927,1913,1898,1882,1864,1848,1834,1820,1806,1793,1780,1769,1760,1748,1740,1729,1721,1711,1699,1691,1681,1669,1658,1646,1636,1624,1614,1601,1592,1582,1573,1566,1561,1557,1554,1554,1552,1554,1554,1554,1556,1557,1559,1561,1564,1565,1568,1569,1570,1570,1568,1566,1564,1557,1553,1551,1549,1546,1546,1542,1544,1546,1551,1559,1572,1592,1616,1646,1681,1724,1770,1821,1873,1929,1984,2042,2101,2159,2218,2277,2337,2393,2448,2500,2553,2617,2666,2700,2727,2748,2762,2772,2777,2775,2770,2758,2743,2728,2708,2689,2666,2641,2616,2588,2559,2532,2503,2475,2447,2417,2391,2363,2338,2312,2288,2267,2244,2225,2205,2184,2164,2145,2123,2100,2080,2059,2042,2025,2011,1998,1986,1979,1972,1970,1969,1971,1969,1970,1971,1975,1979,1986,1993,2000,2009,2020,2032,2042,2054,2065,2074,2083,2091,2097,2102,2103,2103,2103,2098,2093,2087,2078,2067,2057,2046,2033,2020,2005,1988,1973,1957,1941,1925,1908,1892,1876,1862,1845,1829,1813,1798,1781,1765,1752,1740,1727,1717,1705,1695,1689,1681,1675,1668,1662,1656,1649,1642,1634,1627,1620,1614,1610,1605,1605,1603,1600,1599,1596,1593,1591,1590,1588,1585,1584,1583,1580,1581,1579,1577,1575,1573,1571,1568,1567,1567,1568,1576,1586,1600,1622,1647,1679,1717,1760,1807,1860,1919,1980,2042,2108,2173,2238,2302,2366,2429,2486,2542,2594,2643,2687,2744,2779,2801,2819,2827,2831,2830,2823,2814,2801,2787,2770,2751,2729,2708,2686,2663,2639,2613,2587,2559,2530,2500,2473,2446,2420,2392,2367,2344,2321,2297,2274,2245,2221,2197,2176,2152,2130,2109,2087,2070,2053,2035,2022,2010,2000,1993,1986,1982,1980,1979,1979,1985,1991,1999,2008,2021,2030,2041,2051,2061,2071,2078,2085,2087,2091,2091,2093,2092,2090,2090,2089,2088,2086,2084,2078,2074,2066,2056,2044,2034,2021,2009,1994,1981,1965,1949,1933,1917,1901,1886,1871,1854,1838,1820,1802,1786,1770,1753,1740,1728,1717,1707,1698,1690,1681,1673,1666,1660,1655,1650,1645,1639,1634,1630,1625,1620,1613,1607,1602,1597,1592,1589,1587,1586,1585,1585,1587,1588,1590,1591,1596,1598,1600,1603,1606,1609,1611,1613,1614,1614,1611,1608,1606,1602,1601,1600,1601,1603,1607,1616,1627,1645,1666,1694,1725,1764,1808,1856,1910,1971,2033,2098,2164,2235,2304,2372,2440,2505,2564,2621,2671,2716,2756,2809,2844,2865,2883,2894,2901,2900,2895,2887,2873,2857,2838,2815,2792,2765,2739,2712,2685,2659,2628,2601,2571,2541,2510,2482,2451,2423,2395,2369,2345,2322,2303,2285,2268,2251,2234,2221,2206,2191,2177,2163,2150,2137,2121,2109,2096,2083,2071,2058,2051,2042,2035,2032,2029,2028,2028,2030,2036,2041,2048,2055,2065,2071,2079,2084,2087,2089,2091,2087,2086,2083,2079,2074,2070,2063,2058,2052,2045,2039,2031,2023,2015,2003,1991,1977,1962,1946,1930,1915,1901,1887,1874,1861,1851,1840,1829,1820,1811,1801,1790,1779,1766,1752,1736,1721,1707,1694,1682,1671,1663,1655,1646,1639,1630,1623,1617,1611,1604,1598,1592,1587,1580,1577,1572,1570,1568,1567,1565,1565,1563,1560,1560,1556,1553,1551,1547,1543,1540,1534,1531,1528,1525,1523,1523,1525,1528,1533,1542,1557,1573,1595,1622,1656,1695,1737,1787,1837,1891,1948,2006,2066,2127,2186,2246,2307,2365,2422,2475,2522,2568,2625,2665,2691,2710,2723,2731,2736,2734,2730,2719,2708,2692,2672,2649,2625,2599,2573,2545,2518,2491,2464,2440,2415,2392,2367,2344,2322,2299,2278,2256,2235,2211,2191,2169,2150,2129,2112,2095,2079,2066,2055,2044,2036,2027,2021,2014,2010,2007,2005,2005,2004,2004,2005,2004,2005,2007,2009,2014,2020,2027,2034,2043,2052,2062,2067,2073,2076,2078,2079,2076,2074,2071,2065,2061,2054,2045,2037,2026,2016,2005,1993,1980,1968,1954,1940,1925,1909,1892,1875,1860,1844,1830,1817,1803,1790,1778,1766,1753,1741,1730,1716,1705,1697,1686,1675,1665,1655,1643,1630,1619,1609,1598,1587,1577,1567,1557,1548,1537,1526,1516,1506,1498,1491,1484,1478,1474,1470,1469,1467,1467,1464,1463,1462,1460,1458,1454,1449,1441,1437,1431,1423,1416,1411,1408,1406,1403,1403,1404,1407,1414,1418,1429,1445,1460,1484,1513,1548,1590,1637,1691,1752,1817,1886,1959,2032,2105,2179,2248,2313,2377,2436,2490,2538,2581,2620,2671,2704,2724,2739,2749,2752,2751,2745,2732,2715,2695,2673,2647,2620,2592,2565,2539,2511,2485,2456,2428,2397,2367,2337,2308,2270,2241,2212,2182,2153,2126,2099,2075,2052,2031,2012,1994,1980,1965,1953,1940,1931,1924,1917,1912,1910,1910,1911,1916,1924,1933,1942,1954,1966,1977,1991,2002,2016,2026,2039,2049,2056,2065,2071,2075,2078,2081,2085,2083,2081,2079,2075,2072,2068,2059,2049,2037,2026,2008,1991,1975,1958,1940,1927,1910,1895,1882,1868,1854,1840,1828,1813,1801,1787,1774,1760,1746,1732,1719,1707,1694,1685,1675,1668,1662,1655,1650,1645,1639,1633,1627,1621,1615,1608,1603,1600,1595,1595,1592,1591,1589,1588,1587,1585,1583,1581,1573,1568,1560,1556,1549,1544,1541,1541,1544,1548,1557,1571,1590,1613,1642,1676,1714,1756,1804,1856,1911,1968,2028,2090,2153,2218,2281,2344,2406,2467,2525,2580,2632,2697,2743,2772,2795,2810,2821,2828,2831,2830,2824,2817,2804,2791,2774,2748,2728,2705,2682,2656,2630,2606,2579,2554,2527,2499,2470,2443,2414,2385,2359,2335,2310,2284,2259,2237,2214,2192,2173,2154,2135,2116,2101,2085,2072,2061,2052,2044,2039,2035,2034,2036,2039,2042,2046,2053,2060,2069,2078,2088,2097,2106,2116,2126,2136,2145,2152,2158,2161,2165,2169,2173,2176,2176,2176,2173,2171,2168,2163,2155,2147,2136,2124,2111,2096,2081,2064,2047,2030,2012,1992,1975,1957,1938,1922,1905,1890,1874,1861,1851,1840,1831,1823,1814,1808,1800,1791,1784,1775,1765,1755,1746,1740,1732,1725,1719,1714,1707,1702,1697,1692,1688,1684,1680,1678,1674,1670,1667,1664,1663,1658,1658,1655,1653,1652,1653,1655,1657,1660,1665,1666,1671,1674,1675,1678,1683,1690,1702,1719,1743,1773,1810,1855,1905,1961,2023,2089,2160,2232,2306,2382,2456,2528,2595,2661,2721,2774,2823,2864,2901,2946,2976,2992,3005,3012,3014,3011,3005,2994,2981,2966,2948,2929,2907,2882,2855,2826,2799,2772,2743,2718,2690,2665,2640,2615,2590,2565,2542,2517,2495,2473,2450,2428,2405,2382,2357,2333,2309,2284,2263,2243,2225,2210,2198,2188,2183,2177,2176,2178,2181,2187,2194,2201,2209,2216,2223,2228,2233,2235,2236,2235,2235,2231,2227,2224,2219,2216,2211,2209,2205,2205,2200,2196,2193,2188,2180,2172,2163,2151,2138,2123,2108,2090,2072,2052,2030,2011,1993,1972,1956,1940,1927,1914,1901,1889,1879,1867,1856,1845,1833,1823,1812,1804,1797,1789,1784,1779,1776,1771,1767,1763,1756,1750,1741,1733,1724,1715,1706,1699,1694,1689,1686,1681,1678,1677,1675,1671,1670,1665,1663,1661,1658,1655,1651,1646,1642,1636,1633,1630,1629,1627,1625,1628,1631,1637,1645,1657,1673,1690,1715,1742,1775,1813,1857,1906,1959,2017,2076,2140,2205,2269,2334,2399,2461,2522,2582,2637,2691,2738,2782,2842,2883,2909,2929,2944,2952,2954,2951,2942,2928,2912,2894,2874,2853,2832,2810,2787,2764,2739,2713,2689,2663,2639,2616,2590,2565,2542,2518,2495,2472,2450,2428,2405,2382,2360,2336,2312,2290,2267,2238,2217,2198,2180,2166,2154,2144,2138,2135,2131,2131,2133,2133,2134,2136,2138,2139,2141,2143,2146,2149,2152,2153,2156,2158,2156,2156,2154,2152,2149,2144,2139,2134,2129,2121,2113,2103,2094,2083,2071,2060,2047,2034,2020,2007,1994,1983,1971,1957,1946,1933,1920,1906,1892,1877,1861,1847,1831,1820,1809,1798,1789,1779,1770,1759,1747,1737,1726,1715,1703,1693,1680,1671,1660,1652,1646,1641,1635,1629,1625,1623,1619,1615,1614,1609,1604,1598,1593,1586,1582,1578,1575,1572,1573,1571,1573,1573,1576,1578,1580,1581,1584,1586,1588,1593,1599,1607,1618,1631,1649,1668,1692,1720,1752,1791,1833,1882,1934,1990,2049,2112,2177,2242,2309,2375,2437,2498,2554,2605,2655,2698,2738,2789,2822,2844,2863,2874,2880,2878,2873,2861,2844,2822,2796,2768,2737,2705,2677,2638,2608,2578,2550,2523,2497,2470,2445,2421,2395,2369,2345,2322,2299,2276,2254,2234,2213,2193,2173,2154,2134,2115,2099,2083,2069,2056,2047,2038,2035,2032,2031,2032,2035,2040,2047,2053,2063,2074,2084,2094,2104,2113,2122,2130,2135,2142,2145,2149,2149,2148,2144,2140,2134,2126,2119,2108,2098,2086,2075,2064,2051,2038,2025,2011,2001,1989,1975,1962,1947,1933,1918,1905,1890,1875,1862,1850,1836,1823,1808,1794,1781,1768,1756,1742,1730,1722,1713,1702,1694,1684,1674,1667,1658,1650,1643,1637,1633,1629,1623,1620,1614,1610,1604,1602,1599,1597,1594,1594,1590,1586,1582,1576,1570,1566,1563,1559,1558,1557,1556,1560,1563,1569,1579,1590,1605,1623,1642,1667,1695,1730,1769,1814,1863,1914,1971,2031,2091,2152,2212,2272,2331,2386,2441,2493,2544,2590,2631,2684,2722,2747,2769,2786,2798,2806,2809,2808,2802,2794,2781,2765,2746,2723,2699,2671,2642,2612,2581,2549,2517,2484,2450,2419,2388,2357,2329,2302,2274,2248,2224,2199,2176,2157,2136,2115,2095,2076,2057,2042,2027,2014,2001,1991,1983,1976,1971,1968,1967,1969,1974,1983,1991,2001,2011,2021,2031,2044,2054,2062,2069,2076,2083,2086,2091,2094,2097,2097,2097,2096,2091,2086,2079,2071,2062,2049,2038,2025,2012,1999,1983,1971,1956,1942,1930,1918,1907,1896,1885,1873,1861,1848,1834,1820,1806,1792,1776,1761,1747,1733,1722,1711,1697,1687,1673,1661,1647,1635,1625,1615,1603,1593,1584,1574,1569,1563,1557,1553,1551,1549,1547,1546,1545,1548,1547,1547,1546,1544,1543,1540,1536,1533,1529,1523,1518,1512,1508,1504,1501,1501,1502,1505,1512,1523,1539,1557,1580,1609,1644,1685,1729,1779,1837,1901,1967,2036,2108,2181,2255,2330,2404,2474,2540,2604,2663,2715,2764,2828,2870,2898,2920,2936,2947,2956,2959,2960,2956,2948,2937,2921,2903,2883,2861,2838,2812,2785,2758,2731,2704,2673,2644,2613,2582,2550,2519,2488,2457,2429,2398,2371,2344,2319,2295,2274,2254,2236,2217,2202,2188,2175,2163,2153,2144,2139,2133,2128,2125,2124,2123,2123,2124,2125,2127,2129,2128,2128,2127,2129,2129,2132,2133,2136,2139,2141,2144,2145,2146,2145,2143,2138,2134,2130,2121,2113,2102,2090,2077,2062,2047,2031,2013,1994,1977,1960,1942,1927,1909,1894,1879,1864,1849,1835,1822,1806,1794,1780,1766,1751,1739,1728,1717,1706,1695,1687,1674,1664,1654,1644,1632,1621,1612,1601,1592,1585,1576,1571,1567,1560,1558,1558,1558,1558,1557,1559,1561,1563,1564,1564,1563,1562,1561,1560,1558,1559,1557,1556,1556,1556,1554,1551,1547,1544,1538,1537,1538,1540,1545,1554,1567,1584,1606,1632,1666,1706,1748,1799,1854,1914,1978,2047,2117,2191,2264,2340,2413,2485,2554,2619,2678,2735,2786,2831,2886,2922,2942,2956,2967,2970,2971,2969,2963,2954,2939,2923,2903,2880,2856,2830,2802,2772,2743,2714,2683,2645,2618,2590,2562,2534,2508,2483,2457,2435,2411,2388,2365,2345,2323,2303,2285,2266,2248,2232,2213,2198,2183,2170,2158,2148,2139,2131,2125,2122,2121,2119,2117,2115,2114,2115,2116,2119,2123,2130,2137,2143,2151,2158,2165,2169,2172,2175,2174,2172,2169,2163,2155,2145,2135,2122,2110,2094,2077,2057,2040,2017,1997,1976,1956,1937,1921,1903,1888,1872,1858,1844,1830,1815,1801,1787,1773,1760,1747,1734,1720,1708,1699,1692,1685,1678,1673,1667,1663,1658,1654,1651,1649,1645,1641,1636,1632,1627,1624,1621,1618,1615,1614,1613,1612,1610,1607,1605,1602,1600,1598,1598,1598,1597,1596,1592,1590,1587,1584,1580,1574,1569,1561,1554,1546,1539,1531,1526,1518,1515,1513,1508,1510,1516,1523,1533,1548,1567,1591,1620,1652,1690,1734,1782,1836,1894,1956,2023,2092,2162,2235,2311,2385,2458,2527,2596,2658,2718,2769,2816,2873,2913,2938,2956,2969,2975,2977,2975,2967,2954,2940,2920,2898,2873,2845,2815,2786,2755,2722,2691,2661,2629,2599,2569,2540,2513,2487,2461,2437,2411,2387,2362,2335,2311,2286,2263,2238,2218,2196,2177,2157,2140,2124,2112,2100,2091,2083,2078,2075,2077,2077,2082,2088,2094,2102,2110,2120,2129,2137,2147,2155,2164,2169,2173,2175,2176,2175,2172,2168,2162,2155,2147,2139,2128,2117,2105,2094,2080,2067,2054,2041,2029,2016,2004,1990,1979,1965,1950,1936,1920,1905,1889,1873,1856,1842,1828,1814,1802,1791,1781,1770,1758,1749,1738,1728,1718,1710,1699,1692,1685,1679,1673,1671,1669,1665,1660,1657,1653,1648,1643,1638,1632,1627,1621,1618,1613,1610,1606,1604,1600,1595,1591,1589,1587,1586,1585,1583,1584,1584,1585,1585,1588,1591,1597,1608,1622,1641,1664,1692,1727,1766,1811,1860,1915,1974,2034,2095,2156,2218,2279,2342,2403,2460,2517,2569,2620,2666,2727,2772,2801,2826,2845,2860,2868,2870,2868,2861,2849,2833,2815,2794,2769,2744,2718,2687,2659,2629,2598,2567,2537,2508,2480,2451,2425,2396,2370,2343,2318,2291,2266,2240,2216,2194,2171,2150,2122,2104,2086,2071,2058,2046,2038,2033,2027,2027,2028,2033,2037,2042,2049,2056,2064,2076,2086,2098,2110,2119,2130,2141,2150,2159,2165,2169,2174,2177,2177,2176,2171,2165,2157,2146,2134,2123,2110,2097,2080,2065,2050,2032,2015,1999,1982,1968,1952,1937,1921,1906,1891,1874,1858,1843,1827,1810,1794,1780,1764,1751,1739,1724,1713,1701,1692,1680,1667,1657,1647,1635,1626,1617,1609,1602,1596,1592,1586,1582,1576,1570,1566,1562,1558,1556,1552,1552,1549,1547,1546,1545,1543,1544,1544,1545,1550,1555,1563,1575,1589,1608,1632,1660,1695,1734,1780,1830,1882,1940,2003,2068,2133,2198,2266,2332,2401,2467,2532,2595,2654,2709,2761,2828,2875,2906,2931,2950,2965,2974,2981,2982,2979,2972,2963,2949,2931,2909,2886,2861,2834,2804,2775,2742,2710,2677,2645,2616,2578,2545,2514,2485,2455,2427,2400,2376,2353,2330,2306,2287,2268,2252,2237,2223,2209,2197,2187,2179,2171,2165,2160,2157,2154,2154,2151,2150,2149,2151,2154,2157,2161,2165,2169,2172,2178,2182,2188,2193,2197,2199,2202,2201,2200,2197,2194,2189,2184,2177,2167,2155,2142,2125,2108,2090,2069,2049,2027,2007,1987,1964,1943,1924,1905,1886,1869,1852,1837,1822,1808,1796,1784,1772,1761,1749,1738,1728,1716,1706,1697,1685,1676,1668,1661,1656,1651,1646,1642,1640,1637,1635,1634,1634,1632,1631,1630,1629,1629,1629,1629,1631,1632,1634,1633,1633,1632,1629,1626,1624,1620,1617,1614,1609,1606,1603,1598,1596,1594,1594,1598,1606,1618,1638,1665,1698,1737,1784,1837,1894,1956,2025,2095,2167,2242,2317,2392,2467,2540,2609,2675,2737,2793,2846,2914,2962,2992,3016,3035,3049,3057,3061,3061,3055,3047,3037,3023,3007,2988,2968,2946,2924,2899,2874,2850,2825,2801,2776,2749,2724,2696,2668,2640,2612,2584,2555,2528,2503,2478,2453,2428,2406,2383,2363,2343,2327,2314,2302,2292,2282,2274,2268,2261,2256,2254,2252,2251,2251,2252,2251,2253,2255,2258,2262,2266,2274,2279,2286,2290,2292,2293,2293,2293,2288,2284,2279,2272,2262,2251,2237,2222,2205,2186,2166,2147,2128,2109,2090,2072,2053,2034,2015,1997,1983,1968,1952,1939,1927,1916,1906,1895,1886,1876,1865,1855,1846,1836,1827,1818,1808,1799,1790,1781,1775,1765,1759,1750,1744,1737,1730,1722,1717,1712,1706,1701,1698,1695,1694,1692,1690,1689,1687,1686,1684,1682,1680,1679,1678,1676,1673,1670,1665,1663,1657,1652,1647,1641,1637,1631,1626,1622,1621,1622,1624,1629,1637,1650,1667,1690,1715,1747,1784,1826,1873,1927,1984,2044,2108,2177,2245,2314,2383,2451,2519,2583,2644,2700,2754,2804,2866,2908,2937,2960,2978,2989,2998,3001,3000,2995,2985,2974,2958,2939,2919,2898,2876,2852,2826,2802,2776,2752,2725,2700,2675,2651,2627,2604,2580,2559,2540,2518,2499,2478,2459,2438,2421,2405,2389,2373,2357,2344,2328,2317,2305,2291,2280,2270,2261,2252,2246,2239,2236,2231,2226,2224,2221,2221,2221,2223,2225,2226,2230,2234,2237,2239,2240,2241,2239,2232,2225,2216,2206,2194,2182,2169,2155,2139,2122,2105,2089,2070,2054,2039,2023,2007,1992,1977,1961,1944,1928,1913,1898,1881,1865,1850,1835,1821,1807,1794,1784,1773,1765,1756,1748,1741,1734,1727,1720,1713,1705,1699,1692,1688,1683,1680,1679,1675,1674,1673,1672,1669,1669,1667,1668,1666,1666,1666,1664,1663,1664,1662,1659,1656,1653,1648,1642,1635,1630,1622,1614,1607,1598,1591,1585,1579,1576,1572,1572,1575,1579,1590,1604,1623,1647,1677,1712,1752,1800,1853,1912,1976,2042,2111,2180,2251,2321,2389,2458,2525,2585,2642,2695,2742,2801,2839,2864,2882,2895,2905,2908,2907,2903,2896,2885,2871,2855,2836,2815,2792,2771,2746,2722,2689,2665,2641,2616,2593,2568,2545,2520,2499,2477,2455,2435,2413,2395,2373,2351,2330,2307,2286,2265,2245,2225,2206,2188,2174,2162,2152,2146,2142,2140,2140,2142,2141,2147,2153,2159,2167,2176,2185,2193,2201,2207,2212,2216,2220,2222,2222,2222,2220,2218,2213,2207,2200,2190,2177,2165,2150,2133,2115,2096,2076,2056,2036,2015,1997,1978,1962,1944,1928,1914,1899,1884,1871,1856,1844,1831,1821,1811,1803,1792,1785,1776,1769,1760,1752,1743,1736,1729,1721,1714,1708,1701,1696,1692,1689,1686,1686,1684,1684,1684,1683,1682,1682,1678,1674,1670,1667,1662,1656,1652,1647,1643,1640,1637,1633,1629,1625,1622,1619,1618,1622,1628,1638,1650,1667,1687,1710,1740,1773,1811,1854,1902,1954,2009,2068,2127,2189,2251,2312,2377,2439,2498,2556,2609,2661,2708,2769,2812,2839,2863,2882,2894,2904,2905,2905,2901,2891,2878,2863,2844,2824,2803,2779,2752,2725,2698,2671,2641,2612,2584,2557,2532,2506,2480,2456,2431,2407,2380,2360,2334,2310,2287,2265,2245,2224,2206,2188,2173,2158,2146,2136,2130,2124,2122,2122,2123,2125,2130,2134,2138,2143,2150,2155,2163,2169,2173,2178,2181,2185,2189,2192,2193,2193,2193,2193,2188,2184,2179,2173,2163,2153,2142,2130,2116,2099,2082,2064,2043,2024,2005,1985,1966,1951,1932,1915,1898,1882,1866,1850,1833,1818,1798,1783,1769,1755,1744,1735,1725,1717,1712,1707,1704,1700,1697,1694,1689,1684,1679,1673,1668,1663,1659,1654,1652,1649,1647,1644,1643,1638,1637,1635,1631,1630,1627,1621,1616,1612,1607,1605,1602,1598,1597,1595,1594,1591,1589,1584,1582,1578,1576,1573,1574,1578,1584,1596,1610,1631,1657,1689,1726,1768,1817,1871,1928,1991,2055,2122,2189,2258,2328,2398,2467,2535,2598,2656,2711,2761,2825,2874,2906,2932,2953,2969,2979,2985,2987,2986,2979,2970,2956,2940,2920,2899,2876,2852,2826,2802,2775,2749,2723,2698,2673,2648,2623,2597,2573,2547,2523,2499,2477,2455,2435,2414,2395,2376,2361,2345,2330,2313,2300,2285,2271,2258,2246,2234,2224,2217,2209,2204,2200,2196,2193,2192,2191,2192,2193,2196,2198,2200,2203,2204,2207,2209,2211,2210,2209,2207,2204,2196,2188,2180,2169,2156,2142,2128,2113,2097,2081,2063,2047,2029,2014,1995,1982,1966,1952,1938,1921,1908,1896,1881,1867,1854,1843,1829,1817,1806,1793,1781,1772,1764,1755,1750,1744,1741,1737,1733,1732,1728,1722,1719,1715,1708,1701,1695,1690,1686,1680,1674,1669,1662,1656,1652,1645,1640,1633,1627,1624,1620,1616,1612,1609,1606,1601,1598,1594,1592,1587,1584,1581,1577,1575,1571,1569,1568,1569,1571,1577,1585,1595,1611,1630,1654,1683,1719,1759,1804,1855,1912,1973,2039,2107,2178,2249,2321,2394,2464,2534,2599,2660,2719,2770,2818,2883,2927,2958,2983,3000,3013,3019,3021,3020,3012,3001,2985,2965,2945,2921,2897,2873,2846,2820,2784,2757,2730,2704,2677,2651,2625,2602,2578,2555,2532,2513,2491,2472,2453,2433,2414,2395,2376,2357,2338,2319,2302,2285,2269,2255,2242,2231,2221,2211,2203,2194,2188,2181,2174,2171,2167,2166,2167,2167,2169,2172,2174,2176,2178,2179,2178,2175,2175,2170,2164,2157,2150,2140,2128,2116,2105,2090,2076,2057,2042,2024,2005,1987,1968,1950,1934,1917,1902,1887,1873,1858,1844,1830,1814,1800,1785,1771,1759,1745,1732,1721,1711,1703,1696,1689,1682,1678,1674,1667,1663,1657,1652,1647,1641,1636,1634,1629,1626,1620,1618,1617,1614,1614,1612,1610,1607,1605,1601,1596,1589,1583,1579,1571,1563,1556,1547,1539,1532,1524,1517,1510,1506,1500,1496,1495,1497,1498,1504,1512,1525,1541,1563,1589,1621,1659,1701,1748,1799,1854,1913,1974,2040,2106,2175,2245,2315,2382,2448,2510,2570,2623,2675,2722,2784,2827,2854,2875,2893,2903,2910,2912,2907,2899,2887,2872,2854,2834,2810,2784,2758,2731,2703,2675,2647,2619,2592,2565,2540,2513,2489,2463,2439,2414,2392,2370,2347,2327,2308,2289,2271,2253,2234,2218,2201,2186,2171,2157,2147,2137,2129,2121,2115,2110,2107,2103,2101,2101,2102,2103,2105,2109,2114,2117,2119,2123,2126,2127,2129,2129,2127,2124,2117,2109,2098,2087,2077,2064,2053,2039,2027,2011,1997,1982,1965,1949,1932,1914,1899,1881,1864,1848,1832,1817,1803,1789,1775,1762,1751,1741,1732,1720,1708,1698,1688,1675,1663,1653,1642,1630,1619,1607,1596,1587,1579,1573,1568,1566,1563,1563,1560,1560,1560,1559,1558,1557,1555,1554,1554,1549,1546,1540,1534,1529,1525,1519,1515,1513,1506,1505,1503,1499,1499,1500,1502,1506,1510,1517,1527,1541,1556,1577,1601,1627,1663,1702,1747,1796,1849,1906,1967,2032,2099,2166,2236,2302,2368,2430,2489,2543,2593,2641,2683,2737,2774,2798,2814,2826,2834,2838,2840,2833,2826,2816,2805,2789,2774,2755,2735,2712,2686,2658,2631,2600,2570,2538,2506,2475,2445,2414,2385,2357,2329,2303,2277,2251,2228,2202,2180,2157,2136,2118,2102,2088,2074,2063,2057,2051,2048,2047,2048,2048,2053,2055,2058,2062,2066,2072,2077,2082,2089,2094,2101,2107,2113,2117,2121,2122,2121,2121,2119,2114,2108,2101,2092,2082,2071,2061,2049,2035,2019,2002,1985,1966,1949,1929,1910,1892,1873,1857,1838,1822,1803,1786,1771,1757,1744,1732,1721,1711,1701,1692,1681,1673,1663,1653,1644,1636,1629,1621,1614,1609,1600,1594,1585,1581,1571,1565,1559,1551,1545,1538,1533,1527,1523,1519,1515,1515,1513,1509,1508,1506,1502,1501,1501,1501,1506,1515,1525,1542,1561,1586,1616,1650,1689,1735,1785,1838,1896,1959,2022,2088,2155,2222,2291,2358,2424,2485,2543,2598,2647,2691,2749,2785,2807,2824,2836,2844,2845,2844,2836,2824,2809,2792,2770,2747,2721,2694,2669,2641,2616,2589,2561,2535,2507,2479,2453,2425,2399,2374,2350,2325,2294,2270,2245,2219,2196,2171,2149,2125,2105,2086,2069,2056,2042,2032,2024,2019,2015,2014,2013,2014,2016,2020,2025,2030,2037,2043,2051,2056,2063,2070,2073,2078,2082,2083,2084,2084,2080,2075,2069,2062,2055,2045,2033,2020,2008,1993,1979,1963,1946,1929,1914,1898,1882,1867,1852,1834,1819,1803,1786,1768,1754,1740,1724,1710,1697,1684,1672,1662,1648,1636,1625,1614,1602,1594,1584,1577,1571,1565,1559,1552,1549,1544,1539,1535,1531,1526,1522,1517,1512,1507,1505,1501,1499,1498,1496,1494,1491,1489,1485,1486,1483,1481,1481,1478,1476,1475,1475,1480,1485,1495,1508,1522,1543,1567,1598,1634,1674,1719,1771,1826,1887,1953,2021,2092,2165,2240,2315,2388,2460,2530,2594,2656,2713,2765,2813,2877,2920,2946,2969,2987,2999,3007,3009,3006,2999,2989,2976,2959,2940,2919,2895,2870,2844,2817,2789,2761,2732,2702,2672,2646,2619,2590,2565,2539,2512,2489,2462,2438,2414,2390,2367,2343,2320,2298,2278,2262,2245,2233,2221,2211,2202,2194,2189,2185,2183,2180,2178,2179,2178,2179,2179,2181,2181,2183,2184,2186,2187,2187,2186,2185,2185,2179,2172,2166,2158,2150,2138,2127,2115,2102,2089,2073,2058,2045,2027,2013,1996,1978,1960,1941,1923,1905,1885,1867,1847,1828,1809,1791,1771,1753,1733,1715,1697,1682,1667,1653,1640,1629,1620,1609,1601,1593,1585,1578,1571,1565,1560,1556,1552,1550,1549,1548,1548,1547,1545,1545,1545,1545,1544,1542,1542,1539,1538,1534,1532,1527,1521,1516,1507,1499,1490,1483,1476,1469,1463,1457,1454,1451,1449,1449,1453,1461,1471,1489,1509,1536,1566,1605,1648,1697,1751,1813,1877,1946,2018,2095,2171,2246,2325,2400,2474,2544,2610,2670,2726,2777,2845,2890,2921,2945,2965,2977,2984,2985,2984,2976,2965,2952,2937,2918,2899,2877,2855,2833,2808,2785,2759,2733,2706,2678,2652,2625,2602,2577,2556,2535,2515,2495,2473,2455,2435,2415,2395,2377,2359,2341,2325,2307,2292,2277,2262,2248,2235,2223,2210,2201,2193,2187,2181,2177,2173,2171,2170,2169,2167,2165,2163,2160,2159,2159,2157,2155,2153,2148,2145,2139,2134,2123,2113,2099,2086,2070,2053,2036,2019,1999,1980,1959,1938,1918,1898,1877,1858,1839,1820,1803,1787,1771,1757,1742,1730,1719,1708,1699,1690,1680,1674,1665,1657,1646,1637,1625,1617,1607,1595,1586,1577,1568,1562,1557,1551,1547,1543,1537,1535,1529,1525,1521,1512,1508,1501,1494,1486,1478,1470,1465,1458,1451,1444,1440,1435,1430,1427,1424,1420,1417,1414,1410,1407,1407,1409,1415,1423,1437,1455,1480,1509,1544,1586,1633,1685,1741,1804,1870,1938,2011,2085,2160,2236,2311,2385,2456,2524,2589,2648,2703,2776,2828,2863,2890,2911,2927,2935,2940,2937,2930,2918,2903,2883,2860,2837,2810,2783,2755,2727,2699,2670,2641,2614,2586,2560,2535,2510,2484,2460,2436,2411,2386,2361,2336,2311,2288,2258,2235,2214,2193,2174,2156,2138,2121,2109,2097,2085,2077,2071,2065,2062,2059,2059,2060,2062,2068,2070,2076,2084,2091,2096,2103,2110,2117,2121,2124,2126,2129,2125,2123,2120,2111,2103,2094,2082,2068,2054,2039,2022,2008,1991,1975,1959,1940,1920,1901,1882,1862,1843,1824,1807,1790,1774,1760,1746,1732,1719,1706,1695,1683,1674,1662,1653,1642,1632,1621,1611,1602,1594,1585,1581,1574,1568,1565,1562,1561,1558,1556,1553,1550,1544,1537,1531,1524,1516,1510,1501,1495,1487,1482,1476,1471,1466,1463,1461,1464,1470,1478,1492,1508,1531,1558,1588,1620,1659,1701,1746,1796,1850,1909,1970,2034,2100,2167,2236,2301,2366,2428,2489,2544,2594,2640,2700,2737,2762,2780,2791,2797,2797,2793,2786,2777,2765,2750,2734,2714,2695,2673,2651,2625,2599,2571,2542,2513,2480,2452,2421,2389,2357,2325,2293,2262,2233,2202,2173,2146,2119,2094,2072,2050,2029,2013,1996,1983,1973,1964,1959,1957,1960,1963,1967,1973,1981,1989,1995,2007,2016,2024,2031,2041,2047,2053,2058,2062,2064,2065,2063,2060,2055,2051,2043,2035,2027,2017,2006,1995,1984,1970,1958,1944,1930,1917,1900,1885,1867,1849,1829,1808,1787,1766,1745,1725,1703,1686,1668,1651,1635,1618,1604,1587,1571,1556,1544,1533,1524,1514,1507,1500,1493,1485,1482,1475,1472,1468,1463,1460,1456,1454,1451,1449,1448,1447,1445,1443,1442,1442,1440,1439,1436,1434,1430,1427,1423,1421,1419,1417,1416,1417,1416,1419,1422,1430,1438,1450,1466,1485,1510,1540,1578,1621,1671,1726,1787,1852,1926,2000,2076,2153,2230,2307,2382,2453,2521,2588,2649,2705,2756,2820,2864,2892,2913,2928,2936,2939,2937,2929,2916,2901,2880,2857,2834,2807,2780,2751,2724,2694,2663,2633,2602,2572,2543,2514,2487,2461,2436,2411,2386,2364,2340,2318,2297,2275,2252,2232,2212,2193,2174,2156,2141,2126,2113,2098,2087,2075,2066,2055,2048,2041,2037,2033,2030,2031,2031,2030,2030,2031,2035,2037,2041,2043,2049,2053,2056,2060,2060,2062,2063,2059,2056,2050,2045,2037,2026,2014,1999,1983,1964,1948,1931,1913,1897,1881,1865,1850,1836,1822,1808,1795,1780,1766,1750,1735,1720,1704,1689,1674,1660,1646,1635,1624,1614,1605,1596,1586,1577,1567,1560,1551,1543,1535,1529,1524,1519,1514,1510,1507,1501,1498,1494,1490,1489,1485,1484,1482,1480,1479,1478,1476,1473,1471,1465,1459,1456,1450,1445,1437,1432,1424,1421,1418,1415,1417,1423,1433,1448,1470,1500,1533,1575,1621,1673,1729,1792,1859,1927,1999,2074,2147,2220,2291,2360,2425,2488,2547,2602,2653,2721,2769,2800,2829,2851,2869,2880,2886,2886,2883,2873,2860,2843,2826,2806,2783,2760,2736,2712,2686,2660,2634,2608,2581,2555,2528,2501,2475,2450,2425,2401,2380,2357,2337,2315,2293,2272,2253,2232,2213,2195,2178,2164,2150,2137,2124,2112,2099,2089,2078,2069,2062,2056,2052,2049,2047,2046,2048,2049,2054,2059,2063,2068,2073,2077,2080,2082,2084,2086,2085,2084,2079,2074,2067,2057,2046,2032,2019,2004,1987,1973,1958,1940,1923,1907,1891,1876,1858,1842,1826,1810,1792,1776,1758,1741,1724,1708,1695,1680,1668,1655,1642,1630,1619,1608,1600,1591,1582,1572,1563,1556,1549,1544,1537,1532,1524,1519,1513,1507,1501,1494,1489,1485,1480,1476,1473,1473,1471,1468,1468,1466,1467,1468,1469,1468,1468,1469,1468,1467,1464,1459,1456,1453,1449,1446,1447,1450,1454,1464,1475,1492,1514,1539,1571,1606,1651,1698,1753,1812,1874,1941,2010,2081,2150,2223,2293,2362,2427,2488,2543,2593,2642,2700,2744,2770,2790,2807,2815,2820,2821,2815,2807,2794,2779,2759,2737,2714,2690,2664,2638,2611,2584,2557,2530,2503,2477,2451,2425,2401,2377,2353,2329,2304,2278,2254,2229,2205,2186,2165,2148,2135,2123,2111,2101,2092,2082,2076,2070,2064,2062,2061,2059,2062,2064,2068,2071,2074,2077,2082,2085,2089,2093,2095,2100,2103,2106,2109,2110,2114,2113,2113,2112,2110,2105,2100,2094,2083,2073,2061,2048,2036,2023,2011,1999,1984,1970,1956,1940,1925,1908,1893,1878,1864,1851,1839,1826,1813,1802,1788,1776,1763,1750,1737,1723,1710,1695,1683,1671,1661,1651,1642,1635,1629,1625,1622,1621,1622,1623,1623,1624,1624,1626,1626,1628,1628,1626,1625,1624,1621,1618,1614,1610,1606,1602,1596,1589,1585,1579,1571,1566,1562,1561,1561,1565,1574,1588,1604,1628,1657,1692,1734,1781,1833,1887,1946,2007,2071,2135,2199,2262,2323,2383,2437,2488,2536,2578,2617,2666,2700,2721,2736,2748,2755,2755,2751,2744,2732,2717,2699,2679,2660,2635,2612,2589,2563,2540,2515,2490,2466,2441,2416,2391,2368,2342,2317,2293,2266,2239,2214,2190,2166,2143,2118,2095,2073,2053,2034,2016,2001,1988,1978,1970,1965,1964,1965,1969,1974,1981,1989,1998,2009,2018,2028,2038,2048,2057,2066,2076,2083,2093,2098,2100,2100,2098,2094,2092,2086,2078,2071,2062,2050,2041,2028,2013,1999,1986,1971,1956,1940,1924,1908,1892,1876,1859,1842,1826,1808,1791,1775,1760,1744,1731,1718,1705,1693,1681,1670,1659,1649,1640,1632,1624,1618,1612,1607,1601,1597,1593,1587,1585,1581,1578,1577,1574,1572,1573,1573,1571,1570,1570,1568,1564,1562,1558,1555,1550,1548,1543,1542,1538,1537,1539,1541,1548,1557,1567,1583,1600,1622,1650,1683,1721,1766,1814,1868,1926,1989,2054,2119,2186,2251,2316,2378,2438,2494,2546,2595,2641,2680,2737,2773,2797,2816,2830,2837,2839,2835,2828,2816,2799,2783,2761,2738,2712,2684,2655,2626,2595,2564,2535,2504,2477,2449,2422,2397,2375,2352,2332,2311,2289,2271,2254,2235,2219,2204,2188,2174,2159,2143,2131,2115,2102,2087,2078,2065,2058,2052,2048,2043,2042,2040,2041,2044,2050,2057,2063,2070,2076,2081,2087,2089,2092,2093,2096,2097,2099,2100,2099,2097,2094,2091,2084,2075,2064,2054,2042,2029,2017,2001,1984,1967,1949,1931,1913,1895,1877,1857,1840,1820,1801,1784,1765,1748,1732,1717,1702,1689,1677,1663,1650,1638,1624,1614,1602,1591,1581,1571,1562,1557,1548,1544,1539,1534,1533,1534,1532,1535,1539,1539,1540,1541,1541,1539,1539,1539,1534,1532,1529,1525,1520,1516,1512,1508,1504,1500,1498,1496,1493,1490,1490,1489,1490,1494,1503,1513,1528,1550,1573,1604,1639,1679,1725,1776,1833,1890,1952,2015,2080,2148,2213,2279,2344,2409,2469,2529,2582,2634,2699,2743,2773,2799,2820,2838,2846,2851,2852,2848,2841,2831,2817,2802,2783,2762,2741,2717,2693,2664,2638,2608,2581,2553,2525,2499,2472,2448,2423,2400,2377,2352,2334,2315,2298,2281,2266,2250,2236,2220,2207,2194,2183,2171,2161,2150,2143,2137,2132,2126,2125,2125,2127,2132,2134,2138,2143,2146,2150,2154,2158,2159,2159,2159,2160,2158,2156,2153,2151,2146,2142,2134,2127,2119,2110,2098,2086,2073,2059,2041,2026,2007,1989,1971,1953,1935,1916,1898,1880,1862,1848,1832,1817,1803,1792,1778,1766,1756,1743,1733,1722,1712,1701,1694,1682,1671,1662,1653,1645,1637,1632,1625,1619,1613,1606,1601,1596,1593,1591,1587,1583,1580,1577,1574,1573,1572,1570,1571,1573,1575,1578,1583,1590,1596,1604,1614,1628,1646,1665,1691,1722,1758,1800,1845,1895,1949,2002,2061,2118,2180,2238,2298,2356,2410,2462,2513,2559,2602,2641,2692,2727,2749,2765,2775,2784,2784,2783,2774,2761,2749,2732,2714,2693,2669,2646,2620,2594,2568,2543,2518,2494,2471,2450,2428,2406,2384,2367,2348,2329,2311,2295,2279,2261,2245,2227,2211,2193,2177,2160,2145,2129,2115,2100,2088,2076,2066,2056,2049,2043,2041,2040,2041,2047,2052,2058,2067,2074,2081,2086,2092,2097,2100,2100,2101,2100,2099,2095,2090,2083,2075,2067,2055,2046,2035,2021,2010,1999,1986,1975,1963,1953,1941,1928,1915,1902,1891,1880,1867,1854,1840,1826,1812,1801,1789,1779,1771,1761,1751,1742,1733,1724,1713,1705,1695,1685,1678,1668,1660,1650,1640,1631,1622,1613,1603,1594,1585,1574,1568,1559,1552,1548,1544,1542,1542,1545,1548,1553,1560,1567,1577,1589,1603,1622,1645,1672,1703,1741,1781,1826,1875,1927,1986,2045,2107,2168,2230,2293,2353,2412,2467,2520,2568,2610,2650,2696,2727,2746,2760,2769,2775,2775,2771,2763,2752,2739,2723,2704,2684,2663,2641,2616,2592,2568,2542,2516,2493,2467,2443,2419,2395,2372,2349,2327,2303,2280,2256,2232,2210,2187,2165,2143,2123,2104,2084,2068,2053,2041,2032,2025,2020,2016,2014,2011,2009,2010,2009,2013,2015,2020,2027,2030,2037,2042,2048,2051,2056,2056,2055,2055,2056,2053,2053,2051,2047,2042,2036,2029,2022,2014,2005,1994,1984,1972,1958,1942,1926,1909,1893,1876,1859,1844,1830,1816,1804,1790,1777,1765,1753,1741,1728,1718,1708,1699,1692,1685,1678,1672,1667,1662,1658,1653,1648,1643,1639,1632,1628,1621,1614,1607,1601,1596,1591,1586,1582,1578,1574,1567,1563,1556,1552,1545,1538,1533,1527,1525,1522,1521,1526,1531,1539,1552,1567,1587,1613,1644,1681,1722,1768,1821,1876,1938,2000,2067,2134,2202,2268,2334,2395,2454,2506,2556,2599,2638,2693,2722,2740,2755,2765,2769,2768,2764,2757,2745,2730,2714,2696,2680,2659,2639,2616,2594,2572,2548,2523,2497,2469,2445,2418,2392,2366,2341,2316,2291,2267,2244,2222,2201,2181,2161,2144,2128,2112,2096,2084,2073,2063,2056,2048,2045,2042,2042,2041,2044,2044,2044,2046,2048,2049,2050,2052,2053,2055,2057,2057,2060,2060,2061,2062,2060,2058,2055,2049,2044,2035,2026,2014,2003,1991,1977,1963,1950,1937,1926,1913,1900,1887,1873,1859,1843,1828,1811,1798,1783,1768,1756,1742,1728,1717,1707,1695,1684,1673,1662,1650,1638,1627,1615,1605,1594,1584,1574,1565,1556,1549,1540,1534,1526,1521,1514,1510,1508,1506,1505,1505,1505,1505,1505,1506,1506,1508,1510,1514,1521,1526,1538,1553,1569,1590,1615,1642,1678,1716,1759,1806,1857,1910,1965,2023,2079,2137,2196,2253,2312,2367,2420,2472,2522,2568,2627,2670,2696,2717,2735,2745,2751,2752,2749,2743,2733,2720,2705,2687,2665,2644,2616,2588,2559,2529,2498,2466,2437,2409,2381,2353,2326,2299,2275,2250,2224,2198,2173,2145,2119,2092,2068,2038,2017,1997,1979,1965,1952,1942,1936,1931,1930,1931,1933,1938,1945,1951,1959,1969,1977,1987,1997,2006,2015,2026,2035,2042,2047,2052,2054,2059,2060,2061,2058,2056,2052,2044,2036,2028,2015,2002,1988,1974,1957,1943,1927,1911,1895,1880,1866,1851,1838,1825,1812,1802,1790,1779,1770,1757,1747,1735,1724,1714,1705,1696,1686,1676,1664,1656,1643,1634,1625,1614,1605,1595,1586,1577,1569,1560,1551,1545,1539,1534,1530,1526,1520,1516,1511,1508,1506,1506,1507,1512,1522,1534,1549,1566,1589,1615,1644,1681,1723,1769,1822,1876,1935,1998,2062,2127,2193,2257,2323,2382,2442,2494,2543,2589,2631,2692,2727,2751,2770,2784,2794,2799,2798,2792,2780,2763,2743,2721,2698,2674,2651,2629,2606,2583,2559,2535,2511,2487,2464,2441,2417,2391,2367,2343,2318,2293,2268,2240,2215,2190,2164,2141,2119,2100,2082,2067,2054,2042,2034,2026,2021,2016,2015,2016,2020,2025,2030,2036,2043,2047,2052,2057,2059,2061,2061,2061,2063,2062,2062,2060,2057,2053,2048,2040,2032,2022,2016,2008,1999,1990,1980,1968,1958,1949,1937,1925,1913,1902,1888,1874,1860,1845,1827,1811,1796,1781,1766,1753,1741,1731,1720,1709,1697,1686,1675,1662,1653,1642,1634,1624,1616,1609,1602,1594,1588,1584,1582,1578,1576,1573,1571,1569,1565,1561,1555,1551,1544,1538,1534,1530,1524,1520,1514,1510,1507,1506,1506,1507,1512,1519,1531,1546,1566,1590,1620,1653,1693,1738,1788,1843,1900,1962,2026,2092,2160,2228,2296,2364,2430,2493,2554,2611,2661,2708,2765,2803,2829,2849,2864,2875,2880,2881,2878,2872,2862,2847,2831,2808,2785,2759,2730,2702,2674,2647,2618,2590,2564,2538,2513,2489,2467,2444,2423,2400,2380,2360,2339,2320,2301,2285,2267,2252,2237,2222,2208,2194,2182,2170,2158,2149,2139,2130,2125,2121,2118,2114,2113,2111,2110,2110,2110,2109,2109,2110,2109,2109,2110,2108,2106,2104,2100,2097,2091,2087,2080,2075,2066,2058,2051,2040,2029,2015,2003,1991,1976,1962,1945,1931,1916,1901,1885,1872,1859,1845,1831,1819,1806,1793,1782,1769,1756,1743,1731,1721,1707,1694,1681,1669,1657,1646,1635,1626,1617,1611,1605,1599,1595,1588,1582,1577,1570,1565,1558,1553,1548,1541,1537,1532,1527,1525,1524,1523,1523,1525,1525,1525,1524,1524,1524,1522,1520,1518,1516,1516,1518,1525,1537,1552,1571,1597,1627,1661,1701,1747,1796,1849,1905,1965,2032,2097,2165,2233,2301,2367,2432,2495,2555,2611,2663,2710,2771,2812,2841,2862,2879,2891,2898,2899,2898,2890,2880,2866,2849,2827,2804,2779,2753,2726,2698,2669,2639,2610,2578,2549,2520,2490,2461,2434,2408,2380,2355,2331,2305,2284,2262,2243,2227,2210,2194,2179,2165,2153,2141,2129,2119,2111,2102,2098,2092,2089,2083,2079,2074,2070,2068,2064,2062,2060,2059,2058,2057,2055,2055,2053,2052,2050,2049,2045,2040,2036,2029,2019,2010,1999,1988,1976,1960,1948,1935,1921,1910,1897,1884,1874,1862,1852,1842,1831,1821,1810,1799,1789,1776,1765,1754,1742,1731,1720,1709,1700,1689,1677,1667,1656,1650,1641,1633,1623,1615,1607,1600,1593,1586,1581,1575,1572,1567,1564,1559,1556,1551,1547,1540,1534,1528,1523,1518,1511,1505,1497,1491,1484,1480,1476,1473,1470,1468,1468,1469,1470,1469,1473,1474,1475,1480,1485,1491,1501,1516,1533,1555,1586,1620,1662,1707,1760,1815,1876,1939,2005,2073,2140,2207,2274,2337,2399,2460,2518,2573,2623,2669,2731,2774,2803,2827,2845,2859,2866,2869,2866,2858,2846,2828,2809,2787,2762,2734,2705,2675,2643,2611,2581,2550,2519,2488,2457,2426,2399,2369,2338,2310,2283,2256,2230,2204,2183,2160,2138,2119,2098,2082,2065,2050,2040,2029,2022,2016,2009,2007,2007,2009,2013,2021,2028,2036,2048,2058,2069,2077,2089,2097,2105,2110,2117,2120,2124,2123,2123,2122,2119,2115,2110,2103,2094,2085,2072,2057,2040,2022,2004,1986,1966,1946,1927,1907,1889,1870,1852,1835,1817,1802,1786,1772,1760,1747,1736,1724,1713,1704,1696,1688,1681,1673,1668,1662,1657,1650,1644,1638,1632,1627,1619,1612,1605,1596,1590,1584,1578,1575,1571,1569,1564,1561,1559,1557,1554,1551,1548,1546,1543,1539,1538,1535,1531,1528,1527,1523,1523,1527,1531,1539,1550,1564,1579,1600,1625,1658,1693,1736,1782,1831,1887,1944,2004,2066,2130,2195,2260,2327,2392,2453,2513,2568,2619,2665,2717,2750,2770,2784,2792,2795,2793,2786,2776,2764,2748,2732,2711,2690,2665,2639,2611,2583,2553,2522,2488,2455,2423,2389,2356,2323,2294,2264,2236,2209,2184,2159,2137,2114,2095,2076,2059,2042,2027,2013,2001,1991,1984,1975,1971,1969,1968,1969,1975,1981,1987,1996,2004,2014,2023,2031,2040,2048,2056,2062,2068,2072,2075,2075,2075,2076,2073,2072,2068,2063,2058,2052,2042,2033,2021,2008,1995,1982,1970,1960,1946,1934,1922,1910,1896,1882,1869,1855,1841,1825,1808,1791,1774,1757,1745,1730,1717,1706,1693,1684,1676,1668,1660,1655,1647,1640,1633,1626,1621,1614,1606,1598,1589,1580,1572,1564,1557,1549,1543,1536,1530,1527,1522,1518,1517,1516,1514,1513,1513,1512,1509,1509,1508,1509,1511,1515,1520,1530,1543,1561,1581,1610,1643,1680,1727,1776,1832,1893,1957,2024,2092,2163,2236,2309,2381,2454,2523,2589,2653,2711,2766,2814,2875,2914,2939,2954,2966,2973,2971,2965,2954,2938,2920,2898,2877,2851,2825,2798,2768,2736,2705,2674,2638,2607,2574,2543,2511,2482,2453,2427,2400,2373,2348,2323,2298,2273,2250,2227,2205,2184,2163,2143,2126,2110,2096,2086,2078,2072,2068,2066,2066,2065,2068,2071,2075,2078,2084,2089,2095,2101,2108,2114,2120,2123,2127,2130,2131,2130,2127,2123,2116,2111,2104,2098,2090,2081,2071,2059,2046,2033,2016,2002,1986,1967,1949,1932,1915,1898,1881,1868,1854,1840,1826,1811,1799,1785,1772,1761,1748,1736,1726,1716,1706,1696,1688,1680,1672,1663,1655,1647,1640,1632,1625,1617,1613,1607,1600,1594,1590,1588,1585,1585,1584,1582,1581,1582,1584,1588,1591,1598,1603,1609,1612,1615,1617,1616,1612,1606,1600,1592,1582,1573,1565,1558,1551,1546,1543,1546,1550,1557,1570,1591,1616,1647,1684,1728,1777,1833,1894,1961,2028,2100,2170,2244,2316,2387,2456,2521,2583,2641,2694,2742,2808,2855,2885,2911,2931,2944,2953,2955,2953,2948,2939,2926,2909,2892,2872,2849,2826,2798,2770,2741,2712,2682,2653,2624,2589,2562,2535,2510,2485,2462,2438,2417,2396,2375,2353,2334,2315,2298,2279,2262,2246,2229,2216,2202,2193,2184,2176,2171,2167,2165,2163,2166,2167,2171,2175,2181,2185,2192,2199,2208,2214,2220,2223,2228,2231,2233,2232,2231,2227,2222,2216,2207,2197,2184,2172,2156,2138,2120,2099,2078,2057,2034,2012,1990,1968,1949,1931,1913,1897,1883,1872,1859,1848,1838,1828,1817,1810,1799,1791,1781,1770,1760,1749,1739,1728,1717,1705,1698,1688,1678,1669,1662,1656,1651,1647,1644,1643,1644,1642,1643,1643,1644,1641,1641,1638,1637,1633,1631,1626,1619,1612,1603,1595,1585,1579,1569,1561,1554,1548,1542,1537,1529,1526,1522,1519,1517,1520,1524,1530,1538,1550,1566,1584,1610,1639,1673,1713,1758,1807,1861,1920,1981,2047,2114,2185,2256,2325,2394,2463,2528,2589,2647,2699,2748,2809,2850,2877,2897,2912,2923,2927,2928,2922,2912,2899,2882,2863,2839,2815,2788,2761,2735,2706,2678,2650,2624,2597,2568,2541,2515,2487,2462,2436,2413,2388,2365,2344,2322,2301,2280,2260,2240,2223,2204,2187,2172,2160,2148,2137,2129,2124,2119,2116,2116,2118,2118,2121,2125,2130,2136,2142,2151,2158,2165,2171,2178,2181,2185,2188,2187,2185,2181,2173,2164,2152,2140,2127,2112,2096,2080,2063,2046,2028,2008,1986,1967,1949,1930,1910,1888,1870,1851,1833,1816,1799,1787,1772,1760,1749,1739,1729,1722,1713,1704,1696,1686,1678,1668,1659,1649,1641,1633,1627,1621,1617,1613,1611,1608,1606,1602,1598,1596,1594,1591,1587,1583,1580,1576,1573,1570,1566,1563,1560,1557,1554,1554,1552,1550,1546,1543,1538,1533,1527,1521,1517,1508,1501,1494,1486,1480,1475,1475,1475,1479,1488,1500,1517,1542,1571,1606,1649,1694,1747,1801,1864,1927,1993,2063,2134,2205,2276,2346,2415,2482,2544,2602,2656,2705,2766,2807,2833,2852,2866,2873,2876,2871,2865,2853,2840,2821,2803,2781,2760,2737,2716,2690,2668,2641,2612,2585,2555,2525,2496,2463,2432,2400,2368,2338,2307,2276,2248,2218,2191,2165,2138,2116,2093,2075,2060,2050,2041,2036,2033,2033,2036,2041,2044,2053,2060,2070,2079,2091,2103,2115,2127,2139,2148,2158,2163,2169,2173,2176,2178,2178,2176,2174,2171,2166,2163,2158,2149,2138,2128,2115,2101,2088,2073,2055,2040,2024,2008,1991,1972,1951,1931,1910,1890,1868,1850,1831,1814,1798,1783,1767,1754,1742,1732,1721,1713,1707,1701,1697,1693,1690,1688,1684,1682,1679,1675,1671,1668,1664,1660,1656,1652,1649,1641,1637,1632,1629,1627,1620,1617,1613,1612,1611,1610,1612,1614,1617,1620,1623,1631,1638,1647,1660,1675,1693,1713,1736,1765,1797,1834,1877,1921,1967,2018,2072,2130,2189,2251,2312,2374,2436,2495,2551,2606,2653,2697,2736,2784,2817,2835,2850,2858,2862,2860,2854,2842,2828,2812,2793,2772,2749,2723,2696,2668,2639,2610,2580,2550,2519,2489,2458,2427,2397,2359,2331,2304,2278,2254,2231,2209,2189,2170,2153,2137,2123,2112,2105,2100,2096,2100,2102,2105,2110,2113,2119,2128,2138,2149,2162,2175,2187,2200,2212,2225,2233,2241,2247,2249,2250,2249,2244,2238,2229,2219,2206,2195,2181,2169,2155,2142,2127,2109,2091,2071,2051,2030,2010,1987,1966,1944,1924,1905,1889,1872,1858,1846,1833,1822,1812,1801,1791,1780,1771,1762,1754,1749,1742,1737,1733,1732,1728,1725,1723,1719,1715,1712,1709,1706,1701,1698,1695,1693,1688,1684,1678,1672,1665,1658,1649,1639,1630,1621,1615,1609,1605,1602,1602,1603,1602,1601,1602,1604,1606,1611,1618,1632,1649,1673,1701,1738,1779,1825,1880,1940,2004,2075,2150,2226,2306,2385,2463,2540,2616,2687,2754,2816,2872,2922,2966,3021,3055,3073,3086,3094,3096,3094,3088,3077,3063,3046,3026,2997,2972,2946,2918,2890,2861,2832,2804,2775,2748,2720,2692,2664,2637,2613,2585,2559,2534,2507,2480,2454,2427,2401,2376,2352,2329,2309,2289,2274,2260,2247,2238,2230,2224,2222,2221,2223,2226,2232,2238,2246,2253,2260,2267,2273,2278,2282,2284,2286,2287,2288,2286,2284,2281,2277,2271,2264,2256,2246,2235,2222,2206,2191,2172,2154,2135,2115,2095,2076,2056,2040,2018,2002,1984,1968,1953,1937,1922,1906,1889,1873,1858,1844,1828,1813,1797,1783,1767,1755,1745,1738,1730,1723,1716,1711,1707,1704,1701,1701,1701,1704,1707,1708,1711,1713,1714,1714,1710,1706,1699,1693,1686,1678,1668,1659,1651,1641,1633,1622,1615,1609,1603,1599,1595,1594,1593,1595,1597,1600,1606,1615,1627,1642,1663,1690,1719,1755,1796,1840,1890,1941,1997,2055,2118,2183,2249,2315,2381,2446,2510,2572,2632,2688,2740,2789,2853,2897,2927,2954,2974,2987,2997,3002,3002,2997,2988,2977,2961,2942,2921,2898,2876,2852,2829,2804,2780,2756,2733,2712,2692,2673,2654,2635,2614,2594,2574,2552,2529,2506,2485,2460,2436,2415,2393,2373,2351,2334,2315,2300,2286,2274,2264,2258,2252,2247,2246,2246,2245,2246,2248,2248,2248,2250,2250,2250,2250,2250,2250,2247,2244,2240,2235,2229,2222,2214,2206,2196,2187,2175,2163,2153,2140,2127,2114,2098,2083,2067,2049,2028,2007,1987,1965,1948,1927,1910,1893,1878,1864,1851,1837,1825,1813,1804,1792,1783,1775,1768,1761,1757,1751,1745,1739,1731,1724,1716,1708,1701,1692,1684,1677,1672,1664,1656,1649,1641,1633,1626,1620,1613,1607,1602,1595,1590,1588,1586,1585,1581,1579,1575,1571,1568,1564,1559,1554,1553,1550,1549,1550,1555,1562,1572,1585,1603,1625,1653,1686,1724,1767,1816,1871,1929,1992,2056,2123,2192,2261,2330,2396,2461,2524,2582,2638,2690,2736,2798,2841,2871,2894,2910,2923,2929,2931,2929,2922,2912,2899,2883,2863,2842,2817,2792,2767,2738,2712,2684,2658,2632,2605,2580,2553,2527,2502,2477,2452,2427,2403,2379,2354,2332,2310,2288,2268,2248,2231,2212,2200,2189,2179,2171,2164,2161,2158,2158,2159,2159,2161,2161,2164,2166,2168,2169,2173,2174,2175,2176,2175,2174,2174,2170,2168,2164,2160,2153,2145,2137,2127,2117,2104,2092,2075,2060,2047,2030,2016,2000,1984,1968,1950,1932,1914,1893,1876,1856,1836,1817,1799,1779,1762,1746,1729,1713,1702,1690,1679,1671,1662,1653,1646,1638,1631,1624,1619,1613,1607,1599,1593,1588,1581,1574,1567,1560,1554,1549,1542,1538,1535,1533,1531,1530,1527,1527,1523,1520,1516,1514,1511,1510,1509,1511,1515,1522,1531,1544,1557,1577,1597,1625,1656,1692,1731,1777,1827,1881,1940,2002,2068,2137,2205,2275,2342,2408,2472,2532,2589,2641,2687,2729,2781,2816,2837,2855,2866,2873,2874,2870,2860,2847,2828,2806,2784,2755,2727,2697,2666,2634,2602,2568,2536,2503,2472,2440,2409,2370,2342,2311,2281,2253,2226,2197,2172,2147,2123,2101,2082,2064,2048,2034,2023,2015,2009,2005,2002,2004,2005,2011,2017,2027,2036,2047,2058,2070,2081,2090,2100,2109,2118,2125,2132,2137,2142,2146,2148,2149,2145,2141,2131,2120,2105,2091,2074,2055,2037,2018,1998,1980,1961,1943,1925,1907,1889,1871,1853,1836,1817,1800,1782,1765,1748,1732,1716,1701,1687,1675,1663,1653,1645,1634,1625,1615,1605,1594,1587,1578,1572,1565,1560,1556,1553,1550,1548,1547,1545,1543,1544,1542,1540,1534,1529,1524,1518,1512,1508,1502,1502,1500,1501,1503,1508,1514,1525,1542,1563,1590,1623,1662,1708,1759,1815,1875,1940,2004,2073,2143,2214,2284,2353,2422,2484,2546,2602,2656,2704,2768,2812,2841,2865,2883,2895,2901,2902,2897,2888,2874,2856,2836,2813,2788,2762,2733,2705,2676,2647,2620,2594,2565,2540,2516,2490,2465,2442,2417,2390,2365,2339,2314,2289,2266,2243,2224,2202,2183,2169,2156,2145,2136,2130,2125,2121,2119,2116,2113,2112,2113,2114,2113,2115,2115,2116,2119,2122,2125,2127,2131,2136,2138,2141,2144,2146,2147,2145,2143,2137,2130,2118,2107,2095,2081,2065,2050,2033,2014,1996,1977,1956,1937,1918,1896,1874,1853,1832,1812,1793,1776,1759,1744,1730,1716,1704,1692,1681,1670,1659,1648,1639,1628,1620,1611,1601,1594,1587,1581,1575,1570,1568,1564,1560,1555,1552,1548,1543,1542,1541,1540,1538,1535,1531,1525,1520,1512,1509,1503,1499,1497,1494,1492,1490,1489,1490,1492,1495,1498,1504,1516,1527,1543,1563,1587,1615,1649,1688,1731,1778,1830,1887,1946,2010,2077,2145,2215,2285,2356,2424,2490,2553,2612,2668,2716,2761,2818,2857,2883,2905,2923,2934,2940,2944,2941,2935,2926,2912,2895,2876,2855,2831,2805,2780,2753,2728,2702,2678,2653,2629,2606,2583,2562,2539,2518,2496,2475,2453,2434,2414,2397,2378,2358,2340,2323,2310,2297,2285,2273,2263,2254,2243,2237,2228,2222,2217,2211,2208,2205,2202,2200,2198,2197,2195,2192,2188,2184,2180,2175,2170,2165,2160,2153,2145,2137,2127,2116,2105,2090,2077,2064,2049,2035,2021,2007,1992,1980,1966,1953,1940,1924,1908,1895,1879,1864,1848,1832,1815,1800,1784,1769,1755,1741,1728,1715,1703,1690,1680,1671,1659,1650,1639,1628,1617,1607,1597,1589,1579,1574,1565,1558,1553,1549,1545,1542,1540,1540,1540,1542,1541,1542,1542,1544,1543,1542,1540,1537,1534,1529,1524,1517,1507,1499,1491,1485,1479,1473,1470,1469,1470,1474,1478,1485,1493,1504,1517,1533,1551,1573,1599,1628,1661,1700,1747,1798,1856,1916,1981,2049,2119,2191,2261,2331,2398,2462,2522,2576,2629,2675,2717,2771,2806,2829,2847,2860,2869,2875,2875,2872,2864,2852,2837,2819,2801,2780,2756,2727,2700,2670,2639,2608,2579,2550,2521,2493,2466,2443,2419,2399,2378,2361,2343,2328,2314,2298,2283,2265,2245,2227,2206,2187,2167,2142,2124,2106,2093,2081,2072,2064,2058,2054,2051,2051,2051,2052,2053,2057,2060,2065,2072,2077,2083,2087,2093,2095,2094,2092,2088,2081,2075,2066,2058,2048,2040,2029,2019,2007,1994,1980,1963,1945,1926,1909,1889,1869,1853,1839,1825,1810,1798,1785,1772,1761,1750,1738,1725,1712,1699,1685,1670,1658,1647,1637,1626,1618,1611,1605,1598,1594,1587,1581,1574,1570,1562,1553,1548,1539,1532,1524,1517,1512,1506,1502,1498,1492,1491,1489,1488,1487,1483,1484,1482,1479,1474,1467,1462,1458,1452,1450,1449,1447,1450,1452,1458,1464,1474,1488,1505,1526,1553,1586,1624,1669,1720,1775,1834,1898,1964,2032,2099,2167,2236,2302,2366,2429,2487,2539,2590,2635,2690,2728,2751,2768,2778,2781,2779,2774,2762,2746,2730,2713,2693,2672,2651,2628,2607,2583,2559,2536,2511,2488,2464,2440,2417,2392,2368,2342,2317,2291,2263,2236,2209,2181,2155,2129,2104,2079,2058,2041,2025,2014,2005,2001,1997,1998,2001,2004,2010,2015,2023,2032,2039,2047,2055,2064,2072,2081,2090,2099,2106,2111,2114,2113,2111,2108,2099,2093,2085,2078,2070,2060,2050,2040,2029,2014,1999,1984,1967,1951,1933,1915,1898,1879,1864,1849,1834,1820,1806,1793,1778,1765,1752,1738,1724,1710,1695,1683,1670,1658,1646,1635,1624,1615,1605,1597,1591,1585,1581,1576,1574,1572,1570,1568,1566,1564,1560,1558,1553,1544,1539,1530,1523,1516,1513,1508,1508,1509,1513,1516,1525,1537,1551,1567,1586,1611,1639,1672,1709,1751,1797,1847,1901,1954,2013,2071,2130,2186,2243,2300,2352,2402,2449,2492,2532,2581,2616,2641,2659,2674,2686,2692,2695,2693,2689,2679,2668,2650,2633,2615,2594,2572,2547,2523,2498,2471,2444,2418,2395,2368,2343,2319,2295,2272,2247,2223,2198,2175,2150,2126,2105,2083,2063,2045,2026,2010,1995,1980,1968,1959,1952,1947,1944,1943,1946,1950,1956,1960,1968,1977,1986,1992,2000,2006,2011,2017,2024,2032,2038,2045,2049,2054,2056,2057,2057,2056,2048,2041,2032,2020,2007,1989,1969,1949,1926,1904,1882,1861,1839,1821,1802,1784,1766,1752,1737,1723,1710,1696,1682,1668,1655,1642,1627,1617,1605,1596,1587,1581,1571,1564,1555,1547,1542,1536,1529,1523,1514,1509,1502,1497,1490,1487,1482,1478,1474,1470,1466,1463,1459,1457,1456,1455,1457,1457,1458,1460,1458,1459,1461,1462,1465,1472,1485,1499,1519,1547,1579,1618,1662,1712,1768,1828,1895,1963,2035,2108,2182,2256,2326,2396,2464,2529,2589,2643,2695,2741,2801,2841,2865,2883,2896,2902,2902,2900,2890,2879,2863,2843,2822,2799,2772,2744,2716,2686,2658,2630,2602,2576,2550,2528,2507,2486,2466,2445,2425,2405,2386,2367,2348,2328,2307,2288,2267,2248,2230,2212,2196,2182,2169,2155,2144,2135,2127,2120,2113,2108,2103,2100,2095,2090,2088,2085,2085,2083,2085,2086,2086,2083,2084,2082,2077,2074,2069,2062,2056,2050,2044,2039,2031,2025,2015,2004,1992,1982,1968,1953,1939,1924,1908,1895,1881,1867,1855,1842,1829,1816,1804,1791,1778,1763,1748,1735,1721,1708,1696,1687,1676,1670,1664,1655,1650,1642,1637,1632,1624,1617,1609,1604,1597,1591,1583,1579,1575,1571,1569,1568,1566,1563,1558,1557,1555,1554,1548,1548,1545,1540,1535,1531,1526,1520,1514,1510,1505,1498,1492,1485,1480,1474,1471,1468,1469,1469,1474,1482,1492,1507,1526,1551,1583,1619,1661,1710,1763,1821,1884,1952,2019,2093,2167,2241,2315,2387,2459,2525,2589,2649,2703,2751,2813,2853,2879,2897,2911,2920,2921,2919,2911,2899,2883,2865,2844,2824,2800,2774,2749,2723,2696,2672,2645,2620,2593,2566,2541,2517,2493,2470,2448,2428,2412,2393,2377,2361,2345,2328,2312,2294,2278,2260,2244,2228,2212,2198,2185,2176,2165,2157,2149,2144,2138,2135,2135,2133,2132,2131,2131,2133,2133,2135,2138,2140,2140,2142,2143,2143,2143,2142,2140,2135,2130,2121,2112,2101,2087,2072,2056,2040,2024,2008,1993,1975,1957,1939,1920,1901,1885,1865,1848,1832,1817,1801,1786,1771,1755,1743,1730,1719,1706,1694,1681,1669,1656,1646,1635,1627,1619,1612,1607,1602,1597,1594,1591,1586,1584,1580,1576,1573,1567,1565,1561,1558,1555,1553,1552,1550,1546,1544,1540,1536,1530,1527,1522,1515,1512,1509,1507,1505,1501,1500,1500,1498,1496,1496,1492,1491,1489,1488,1488,1489,1496,1506,1521,1539,1565,1595,1632,1674,1722,1774,1830,1890,1955,2023,2090,2161,2233,2302,2371,2435,2499,2556,2609,2660,2704,2761,2799,2824,2844,2859,2867,2871,2871,2866,2856,2842,2826,2807,2783,2761,2735,2707,2679,2648,2620,2590,2560,2532,2502,2476,2450,2421,2393,2366,2338,2310,2283,2259,2234,2214,2194,2176,2159,2145,2131,2119,2111,2104,2099,2093,2090,2085,2079,2074,2069,2067,2066,2064,2061,2061,2062,2063,2066,2068,2071,2073,2075,2078,2080,2083,2085,2085,2086,2084,2081,2076,2070,2061,2051,2039,2027,2013,1996,1978,1960,1944,1927,1911,1894,1877,1862,1846,1830,1814,1798,1783,1769,1757,1746,1733,1724,1715,1705,1696,1688,1682,1673,1665,1657,1647,1637,1628,1619,1613,1606,1601,1597,1592,1586,1581,1578,1574,1570,1569,1568,1567,1567,1564,1563,1561,1560,1559,1559,1558,1557,1554,1551,1549,1545,1541,1536,1531,1528,1526,1527,1531,1540,1553,1572,1594,1621,1657,1695,1739,1789,1842,1900,1963,2030,2099,2168,2237,2305,2369,2432,2488,2542,2591,2635,2674,2725,2758,2777,2790,2799,2803,2801,2795,2786,2773,2757,2738,2716,2692,2666,2640,2611,2582,2555,2527,2499,2471,2443,2415,2388,2359,2331,2302,2273,2243,2213,2185,2154,2126,2099,2074,2051,2028,2008,1989,1975,1964,1956,1951,1948,1947,1950,1955,1962,1973,1983,1997,2013,2027,2042,2057,2070,2082,2090,2097,2103,2109,2112,2112,2113,2114,2110,2103,2096,2085,2073,2059,2048,2032,2016,2001,1985,1966,1951,1934,1916,1900,1885,1869,1853,1838,1825,1811,1797,1785,1774,1763,1749,1737,1723,1708,1694,1678,1666,1651,1640,1630,1621,1614,1608,1604,1600,1594,1591,1586,1580,1574,1570,1565,1561,1558,1558,1556,1555,1553,1552,1552,1549,1545,1542,1540,1536,1532,1528,1524,1522,1519,1515,1513,1511,1509,1511,1516,1524,1538,1558,1583,1613,1647,1688,1733,1783,1836,1895,1955,2021,2089,2158,2226,2295,2364,2431,2496,2558,2615,2668,2715,2774,2811,2836,2853,2865,2872,2873,2872,2868,2859,2846,2831,2813,2791,2767,2736,2708,2680,2652,2622,2591,2564,2536,2506,2479,2451,2423,2398,2370,2344,2319,2297,2272,2251,2231,2211,2191,2174,2156,2139,2122,2107,2092,2079,2066,2057,2049,2044,2043,2043,2048,2053,2058,2066,2074,2083,2090,2098,2104,2109,2113,2118,2123,2125,2127,2127,2127,2124,2119,2115,2109,2101,2092,2082,2071,2061,2047,2034,2020,2005,1988,1973,1955,1936,1917,1896,1876,1856,1835,1816,1796,1778,1761,1744,1730,1717,1705,1691,1682,1672,1662,1654,1648,1642,1634,1627,1621,1616,1610,1603,1595,1591,1586,1581,1575,1569,1564,1560,1556,1553,1548,1545,1544,1541,1540,1541,1540,1541,1540,1538,1536,1533,1535,1536,1535,1537,1539,1539,1541,1540,1540,1538,1541,1540,1544,1552,1557,1569,1587,1608,1635,1666,1705,1751,1802,1860,1924,1992,2062,2135,2210,2284,2359,2430,2502,2569,2633,2692,2744,2792,2835,2887,2919,2936,2949,2953,2954,2946,2934,2918,2901,2879,2856,2830,2805,2777,2750,2724,2697,2671,2645,2621,2596,2573,2551,2531,2514,2495,2474,2454,2431,2410,2388,2365,2342,2318,2295,2271,2250,2229,2211,2194,2179,2166,2154,2146,2140,2135,2131,2128,2126,2124,2125,2125,2125,2127,2127,2127,2128,2127,2126,2124,2122,2121,2121,2116,2113,2108,2102,2093,2086,2077,2069,2060,2054,2044,2032,2020,2008,1997,1983,1967,1951,1934,1917,1898,1879,1861,1844,1828,1812,1797,1787,1776,1763,1753,1740,1728,1718,1706,1697,1685,1676,1665,1657,1647,1640,1633,1628,1622,1617,1611,1609,1602,1598,1593,1589,1587,1585,1583,1584,1582,1583,1583,1583,1580,1578,1575,1572,1569,1565,1562,1558,1555,1551,1545,1540,1535,1532,1526,1518,1510,1502,1491,1483,1473,1463,1457,1450,1448,1445,1446,1451,1459,1473,1489,1513,1544,1579,1623,1672,1727,1789,1853,1923,1996,2075,2150,2229,2305,2378,2449,2514,2578,2636,2691,2740,2807,2857,2889,2914,2934,2947,2954,2954,2948,2937,2922,2904,2881,2856,2831,2803,2776,2748,2719,2692,2665,2636,2611,2584,2559,2531,2506,2479,2452,2425,2401,2376,2352,2330,2306,2285,2264,2243,2222,2202,2182,2165,2148,2134,2122,2112,2102,2095,2090,2087,2086,2082,2080,2078,2080,2081,2083,2088,2090,2094,2099,2104,2110,2113,2116,2120,2120,2118,2115,2112,2106,2100,2090,2081,2072,2059,2047,2034,2021,2007,1991,1977,1960,1944,1926,1910,1893,1876,1859,1841,1825,1807,1789,1771,1755,1738,1724,1709,1695,1682,1670,1659,1650,1643,1634,1628,1621,1614,1607,1600,1595,1587,1583,1577,1572,1565,1561,1558,1556,1554,1551,1551,1550,1547,1547,1547,1547,1545,1545,1545,1543,1542,1541,1541,1538,1537,1534,1532,1528,1524,1523,1520,1517,1516,1511,1508,1503,1499,1495,1492,1491,1494,1500,1512,1528,1550,1578,1612,1650,1696,1744,1800,1860,1925,1995,2065,2139,2215,2290,2363,2436,2503,2566,2623,2676,2722,2778,2813,2834,2849,2860,2864,2860,2853,2841,2823,2803,2779,2755,2726,2698,2666,2636,2605,2572,2541,2511,2479,2448,2420,2394,2368,2344,2320,2296,2271,2249,2225,2199,2175,2153,2129,2107,2088,2069,2052,2035,2022,2010,2002,1996,1992,1990,1990,1991,1997,2003,2011,2020,2031,2042,2052,2063,2071,2080,2088,2097,2105,2112,2118,2124,2124,2126,2123,2121,2112,2104,2092,2079,2064,2047,2028,2011,1991,1974,1954,1936,1916,1899,1883,1866,1849,1832,1817,1800,1787,1772,1758,1743,1731,1721,1711,1702,1695,1687,1679,1672,1665,1657,1651,1641,1634,1627,1620,1612,1607,1601,1596,1591,1585,1578,1570,1564,1558,1550,1542,1532,1525,1517,1511,1505,1500,1496,1494,1489,1490,1488,1490,1491,1494,1496,1502,1507,1516,1525,1539,1554,1575,1597,1626,1658,1696,1740,1789,1843,1902,1963,2026,2092,2158,2224,2291,2356,2419,2478,2534,2585,2634,2676,2733,2768,2792,2805,2817,2824,2827,2825,2818,2808,2793,2775,2753,2726,2700,2672,2644,2613,2584,2554,2524,2496,2469,2442,2417,2391,2366,2342,2318,2292,2267,2242,2215,2191,2169,2147,2128,2110,2094,2080,2068,2056,2047,2040,2031,2027,2025,2021,2021,2023,2024,2026,2032,2038,2042,2047,2052,2056,2061,2065,2067,2070,2070,2071,2070,2070,2068,2063,2060,2053,2046,2040,2032,2024,2017,2010,2001,1988,1980,1969,1957,1944,1931,1915,1901,1883,1866,1849,1832,1815,1798,1780,1762,1746,1728,1714,1700,1689,1676,1667,1659,1651,1643,1636,1628,1622,1614,1606,1598,1591,1583,1575,1567,1560,1554,1549,1543,1539,1537,1533,1531,1530,1527,1527,1525,1525,1524,1524,1523,1523,1523,1522,1522,1522,1521,1520,1517,1516,1514,1511,1509,1506,1505,1501,1500,1500,1504,1508,1520,1534,1553,1577,1608,1642,1683,1731,1784,1843,1907,1976,2049,2126,2205,2283,2361,2437,2512,2583,2648,2710,2767,2817,2880,2919,2943,2960,2973,2978,2978,2973,2967,2954,2940,2920,2897,2872,2846,2818,2789,2761,2733,2705,2677,2651,2622,2597,2572,2548,2524,2500,2477,2452,2428,2404,2379,2356,2333,2313,2293,2276,2259,2243,2227,2211,2197,2183,2171,2161,2151,2141,2137,2133,2130,2130,2131,2135,2139,2145,2152,2158,2165,2169,2174,2176,2178,2178,2178,2178,2174,2169,2165,2157,2149,2138,2125,2110,2095,2078,2063,2046,2031,2014,2002,1984,1967,1955,1939,1924,1910,1898,1883,1871,1857,1843,1830,1816,1802,1789,1776,1760,1744,1729,1714,1696,1682,1667,1653,1640,1628,1618,1610,1603,1598,1596,1592,1591,1591,1593,1592,1594,1597,1599,1600,1601,1600,1597,1595,1592,1587,1584,1581,1575,1574,1571,1568,1567,1564,1563,1562,1560,1556,1552,1546,1541,1535,1530,1528,1525,1525,1527,1529,1536,1546,1558,1575,1597,1624,1655,1692,1732,1779,1830,1884,1944,2005,2069,2134,2204,2271,2338,2405,2470,2530,2584,2637,2683,2726,2779,2815,2838,2854,2866,2873,2874,2871,2864,2855,2842,2829,2813,2794,2774,2751,2728,2703,2676,2649,2622,2593,2566,2539,2513,2488,2463,2441,2419,2397,2374,2354,2332,2312,2293,2276,2258,2241,2227,2210,2195,2181,2166,2154,2143,2133,2125,2118,2113,2107,2103,2099,2097,2094,2093,2093,2093,2093,2095,2095,2096,2098,2099,2100,2101,2100,2098,2097,2094,2088,2080,2072,2063,2052,2041,2026,2012,1996,1980,1966,1951,1936,1918,1905,1888,1873,1858,1843,1831,1817,1803,1789,1776,1763,1750,1737,1725,1714,1701,1688,1678,1664,1653,1642,1631,1622,1614,1608,1602,1598,1590,1583,1579,1572,1566,1561,1556,1552,1550,1549,1547,1545,1543,1541,1540,1537,1534,1532,1529,1528,1526,1526,1526,1524,1524,1520,1516,1510,1505,1500,1497,1492,1485,1478,1470,1463,1457,1453,1450,1454,1457,1472,1488,1512,1543,1579,1626,1679,1737,1799,1868,1938,2012,2086,2161,2233,2306,2376,2441,2506,2566,2621,2670,2733,2776,2803,2824,2839,2849,2853,2853,2846,2838,2823,2805,2785,2762,2738,2711,2681,2652,2621,2590,2560,2528,2499,2468,2440,2409,2381,2351,2324,2301,2276,2252,2229,2208,2187,2167,2148,2130,2112,2097,2084,2072,2060,2053,2046,2042,2042,2045,2051,2058,2067,2078,2089,2098,2109,2118,2128,2134,2141,2147,2152,2155,2158,2160,2160,2158,2156,2151,2144,2136,2127,2116,2105,2092,2080,2064,2050,2035,2020,2003,1986,1970,1950,1934,1917,1902,1887,1874,1860,1847,1834,1822,1811,1801,1789,1778,1768,1756,1746,1735,1724,1713,1705,1696,1687,1680,1673,1668,1662,1658,1654,1651,1648,1642,1639,1634,1630,1625,1622,1620,1613,1611,1606,1604,1600,1595,1592,1589,1586,1582,1581,1577,1574,1572,1569,1570,1572,1578,1587,1600,1618,1641,1670,1703,1744,1786,1835,1887,1943,2002,2064,2129,2191,2255,2318,2377,2433,2485,2533,2575,2613,2661,2693,2713,2728,2737,2743,2746,2744,2738,2730,2719,2704,2688,2670,2649,2628,2605,2581,2559,2535,2511,2485,2460,2430,2401,2372,2343,2315,2284,2254,2225,2196,2169,2142,2117,2094,2073,2054,2038,2022,2011,1999,1993,1987,1986,1987,1991,1997,2006,2012,2022,2033,2043,2055,2068,2077,2088,2098,2108,2117,2125,2133,2136,2138,2137,2134,2127,2120,2111,2100,2089,2078,2067,2055,2041,2028,2014,2001,1986,1974,1959,1946,1933,1916,1902,1887,1873,1860,1847,1835,1823,1814,1804,1792,1781,1770,1758,1747,1736,1724,1715,1704,1696,1686,1679,1670,1663,1656,1648,1641,1635,1631,1624,1619,1616,1612,1610,1606,1604,1602,1602,1599,1595,1592,1591,1587,1586,1582,1581,1577,1575,1571,1569,1569,1568,1568,1573,1581,1592,1608,1630,1657,1690,1727,1772,1819,1872,1926,1984,2045,2106,2169,2232,2294,2358,2418,2477,2535,2589,2641,2685,2745,2786,2813,2835,2855,2870,2882,2887,2889,2887,2880,2868,2856,2838,2820,2799,2777,2754,2730,2706,2680,2654,2630,2599,2578,2558,2537,2520,2500,2481,2462,2442,2421,2402,2383,2366,2347,2332,2317,2304,2292,2280,2273,2266,2262,2259,2258,2257,2256,2257,2259,2259,2259,2258,2259,2260,2258,2259,2258,2259,2258,2257,2253,2250,2244,2238,2232,2224,2214,2206,2194,2183,2172,2162,2150,2139,2128,2116,2104,2090,2076,2061,2045,2029,2012,1996,1980,1963,1946,1930,1912,1895,1879,1862,1848,1833,1819,1805,1791,1778,1767,1758,1749,1742,1736,1733,1728,1722,1717,1715,1714,1713,1714,1714,1714,1713,1713,1712,1711,1710,1710,1709,1709,1707,1705,1701,1696,1690,1684,1677,1671,1664,1656,1650,1642,1634,1629,1623,1620,1616,1613,1611,1608,1604,1599,1596,1590,1586,1583,1583,1583,1587,1594,1602,1618,1635,1658,1685,1717,1754,1796,1842,1894,1948,2007,2069,2132,2197,2264,2332,2400,2466,2528,2589,2645,2697,2745,2804,2842,2869,2890,2904,2915,2922,2925,2924,2920,2912,2901,2888,2872,2855,2837,2817,2797,2777,2757,2738,2717,2699,2678,2657,2638,2618,2598,2577,2558,2539,2523,2503,2485,2469,2454,2437,2420,2403,2388,2373,2357,2344,2330,2319,2307,2299,2288,2280,2275,2269,2264,2263,2260,2259,2259,2259,2261,2261,2262,2262,2258,2254,2247,2240,2233,2224,2217,2207,2200,2191,2182,2172,2162,2148,2136,2124,2108,2089,2074,2056,2037,2016,1998,1978,1960,1944,1929,1913,1901,1889,1876,1866,1854,1844,1834,1824,1815,1803,1792,1783,1773,1764,1754,1744,1735,1727,1720,1714,1708,1702,1698,1693,1690,1688,1684,1680,1678,1673,1671,1668,1667,1664,1659,1656,1652,1648,1643,1641,1637,1636,1632,1629,1625,1620,1618,1615,1614,1609,1606,1601,1596,1593,1587,1582,1578,1570,1563,1556,1548,1541,1534,1527,1522,1517,1514,1510,1506,1502,1498,1494,1491,1487,1485,1485,1486,1488,1492,1502,1515,1531,1551,1577,1607,1646,1686,1736,1787,1843,1900,1963,2026,2092,2160,2226,2294,2362,2425,2487,2544,2596,2644,2708,2754,2784,2809,2830,2845,2856,2863,2865,2864,2860,2852,2842,2832,2818,2803,2786,2769,2751,2733,2715,2697,2679,2660,2640,2623,2603,2583,2565,2545,2527,2507,2488,2466,2447,2427,2407,2387,2368,2349,2334,2318,2305,2291,2281,2270,2259,2251,2242,2237,2230,2225,2221,2217,2213,2211,2209,2209,2206,2206,2203,2198,2194,2192,2185,2181,2176,2171,2166,2160,2155,2147,2137,2128,2117,2106,2094,2082,2070,2058,2045,2030,2016,2001,1983,1965,1948,1929,1913,1896,1879,1866,1853,1840,1830,1818,1808,1796,1787,1775,1765,1753,1742,1731,1720,1712,1706,1700,1697,1694,1692,1694,1692,1694,1694,1691,1688,1686,1681,1678,1672,1668,1664,1659,1654,1651,1646,1646,1643,1645,1644,1644,1642,1639,1635,1631,1626,1620,1616,1612,1609,1605,1600,1594,1587,1578,1572,1562,1553,1546,1536,1529,1524,1518,1511,1505,1500,1496,1491,1487,1483,1480,1477,1474,1472,1468,1467,1467,1472,1480,1491,1506,1525,1550,1577,1611,1650,1695,1745,1798,1856,1916,1979,2044,2112,2178,2243,2306,2366,2423,2478,2527,2572,2612,2661,2694,2715,2730,2740,2746,2747,2745,2740,2732,2722,2709,2697,2681,2663,2643,2622,2600,2577,2553,2530,2504,2481,2455,2430,2406,2384,2360,2342,2319,2300,2282,2264,2248,2232,2217,2203,2190,2177,2164,2154,2145,2137,2131,2128,2126,2124,2124,2124,2126,2128,2129,2130,2132,2134,2136,2140,2142,2145,2149,2152,2153,2157,2158,2158,2159,2157,2157,2152,2149,2141,2133,2122,2111,2099,2087,2075,2057,2043,2028,2012,1994,1978,1960,1942,1923,1905,1886,1869,1851,1836,1820,1808,1799,1790,1782,1775,1769,1762,1757,1752,1745,1739,1734,1728,1721,1717,1713,1707,1702,1697,1690,1686,1681,1677,1675,1673,1671,1671,1671,1669,1669,1670,1669,1668,1669,1670,1669,1668,1666,1664,1660,1656,1650,1645,1640,1634,1628,1622,1617,1612,1605,1601,1594,1587,1582,1579,1576,1574,1574,1577,1583,1592,1606,1626,1651,1682,1716,1753,1794,1838,1885,1934,1985,2040,2091,2144,2197,2248,2299,2346,2390,2431,2468,2517,2550,2571,2591,2609,2619,2627,2632,2629,2626,2619,2608,2594,2578,2560,2541,2520,2498,2474,2452,2429,2406,2384,2362,2341,2319,2298,2277,2254,2235,2213,2192,2172,2151,2132,2112,2094,2077,2063,2048,2036,2024,2014,2005,1998,1993,1991,1991,1990,1993,1997,2002,2009,2016,2026,2035,2043,2053,2062,2071,2076,2081,2085,2088,2086,2085,2081,2076,2070,2063,2057,2047,2039,2029,2019,2008,1994,1984,1971,1960,1945,1931,1919,1903,1888,1874,1861,1847,1834,1821,1806,1793,1779,1765,1752,1738,1723,1713,1703,1694,1689,1683,1678,1675,1670,1665,1661,1657,1651,1647,1642,1637,1633,1629,1626,1623,1620,1617,1613,1611,1607,1604,1601,1597,1593,1589,1583,1580,1574,1570,1567,1565,1563,1561,1563,1562,1564,1563,1562,1561,1558,1556,1552,1548,1546,1542,1539,1536,1535,1534,1537,1543,1552,1566,1584,1606,1634,1664,1700,1741,1786,1837,1890,1948,2007,2070,2137,2203,2271,2337,2401,2462,2521,2575,2626,2671,2726,2765,2788,2809,2823,2833,2840,2843,2842,2836,2828,2815,2802,2786,2767,2748,2727,2708,2688,2666,2645,2625,2607,2588,2568,2550,2528,2510,2491,2473,2454,2435,2418,2400,2383,2367,2352,2336,2321,2305,2291,2276,2262,2249,2237,2222,2211,2201,2191,2183,2174,2168,2164,2161,2159,2160,2161,2163,2162,2163,2163,2162,2161,2158,2156,2155,2152,2150,2148,2145,2142,2135,2128,2118,2107,2095,2081,2066,2050,2034,2017,2000,1982,1966,1948,1932,1916,1899,1884,1869,1854,1839,1824,1808,1794,1779,1766,1754,1743,1732,1724,1716,1708,1701,1694,1687,1682,1678,1675,1670,1666,1662,1658,1654,1651,1645,1642,1640,1636,1636,1634,1635,1634,1634,1632,1630,1629,1627,1625,1624,1623,1620,1618,1616,1613,1610,1608,1602,1599,1596,1593,1592,1588,1586,1583,1580,1576,1571,1567,1562,1558,1553,1549,1545,1540,1534,1530,1524,1520,1516,1514,1518,1523,1535,1551,1574,1600,1633,1669,1712,1759,1811,1867,1926,1989,2053,2119,2186,2253,2319,2383,2447,2506,2560,2610,2656,2713,2751,2775,2795,2809,2817,2821,2822,2818,2811,2801,2788,2773,2758,2741,2723,2705,2688,2668,2648,2627,2608,2588,2568,2551,2532,2514,2496,2478,2459,2440,2420,2399,2377,2354,2331,2309,2289,2268,2249,2232,2217,2202,2189,2176,2166,2157,2152,2145,2140,2138,2134,2134,2132,2133,2131,2131,2132,2133,2132,2135,2136,2136,2136,2136,2137,2135,2133,2128,2122,2116,2107,2098,2088,2076,2065,2050,2039,2026,2013,2002,1990,1979,1967,1956,1941,1928,1913,1897,1882,1867,1850,1834,1819,1803,1787,1771,1754,1740,1726,1715,1703,1693,1684,1678,1672,1667,1661,1657,1652,1647,1640,1636,1632,1625,1621,1616,1612,1608,1604,1598,1594,1591,1586,1582,1577,1573,1569,1565,1559,1555,1552,1548,1545,1543,1543,1542,1540,1539,1537,1534,1533,1531,1529,1529,1527,1528,1529,1528,1528,1525,1524,1519,1514,1508,1501,1494,1486,1482,1474,1469,1463,1456,1453,1447,1446,1446,1450,1458,1465,1483,1501,1528,1559,1594,1637,1686,1739,1798,1862,1928,1996,2065,2135,2209,2281,2350,2420,2485,2547,2605,2655,2700,2756,2793,2815,2831,2843,2848,2850,2848,2843,2833,2821,2800,2782,2760,2735,2710,2685,2658,2630,2603,2577,2552,2527,2502,2479,2455,2431,2408,2383,2360,2335,2312,2288,2266,2245,2226,2206,2190,2174,2158,2144,2130,2120,2110,2101,2093,2087,2084,2081,2083,2082,2085,2086,2089,2094,2098,2105,2110,2116,2120,2123,2126,2129,2130,2131,2133,2130,2130,2126,2123,2117,2110,2101,2090,2077,2063,2048,2030,2013,1997,1979,1961,1945,1929,1914,1899,1883,1868,1852,1836,1818,1802,1784,1768,1750,1735,1721,1707,1693,1680,1670,1662,1653,1645,1636,1628,1623,1621,1616,1614,1611,1611,1609,1606,1606,1606,1604,1603,1604,1603,1603,1601,1600,1597,1593,1591,1587,1583,1577,1573,1568,1565,1558,1553,1546,1540,1533,1527,1520,1514,1507,1499,1489,1484,1478,1473,1470,1469,1471,1475,1485,1497,1514,1536,1563,1594,1632,1676,1726,1777,1837,1899,1966,2031,2099,2167,2233,2297,2359,2418,2472,2524,2570,2613,2667,2703,2725,2742,2754,2762,2766,2765,2759,2749,2737,2721,2702,2680,2657,2634,2609,2585,2560,2535,2510,2485,2460,2434,2409,2383,2359,2332,2306,2279,2255,2229,2206,2182,2158,2138,2120,2102,2086,2072,2060,2048,2036,2027,2018,2012,2006,2001,1996,1993,1991,1991,1994,1999,2007,2015,2027,2037,2049,2061,2070,2078,2086,2089,2092,2093,2093,2091,2086,2079,2072,2064,2055,2045,2037,2026,2015,2003,1991,1977,1966,1952,1940,1924,1910,1894,1879,1860,1844,1825,1808,1790,1774,1756,1742,1726,1711,1697,1684,1671,1661,1654,1646,1638,1632,1627,1621,1617,1615,1613,1613,1610,1609,1607,1605,1602,1599,1596,1593,1590,1585,1579,1574,1569,1563,1558,1554,1552,1551,1550,1548,1547,1548,1547,1550,1551,1553,1553,1553,1551,1548,1546,1541,1539,1534,1527,1521,1515,1507,1499,1492,1482,1473,1466,1462,1461,1463,1468,1480,1495,1516,1543,1576,1615,1660,1710,1767,1829,1895,1966,2040,2117,2195,2275,2354,2432,2507,2578,2644,2706,2762,2813,2877,2920,2949,2968,2983,2993,2998,3000,2997,2990,2982,2971,2959,2942,2926,2905,2883,2860,2835,2811,2786,2761,2737,2713,2690,2666,2642,2621,2597,2575,2552,2531,2508,2484,2463,2439,2418,2395,2373,2351,2332,2312,2293,2275,2258,2242,2228,2214,2202,2193,2185,2180,2178,2178,2180,2183,2189,2193,2198,2200,2203,2206,2205,2206,2206,2203,2200,2197,2193,2188,2180,2170,2164,2151,2141,2130,2120,2106,2094,2079,2066,2051,2038,2021,2008,1993,1977,1963,1948,1934,1919,1906,1891,1877,1864,1849,1835,1820,1807,1791,1776,1761,1744,1730,1715,1700,1686,1674,1662,1653,1646,1640,1636,1634,1633,1633,1634,1635,1636,1639,1642,1640,1640,1641,1640,1641,1639,1640,1638,1636,1633,1628,1623,1617,1608,1601,1593,1588,1581,1575,1572,1568,1564,1559,1552,1548,1542,1537,1532,1526,1520,1517,1511,1507,1504,1501,1496,1494,1490,1488,1484,1481,1482,1483,1490,1498,1514,1534,1557,1589,1629,1672,1720,1776,1839,1905,1975,2047,2124,2198,2274,2351,2426,2500,2571,2637,2699,2756,2808,2874,2921,2952,2977,2995,3010,3017,3020,3018,3011,3001,2987,2971,2951,2929,2906,2882,2857,2831,2806,2782,2756,2730,2703,2678,2655,2632,2609,2588,2566,2543,2522,2498,2475,2452,2429,2408,2387,2370,2352,2334,2317,2303,2289,2276,2266,2258,2247,2243,2238,2233,2227,2227,2224,2224,2224,2227,2230,2234,2235,2237,2239,2240,2242,2241,2241,2240,2238,2235,2232,2229,2222,2212,2201,2191,2177,2161,2145,2127,2106,2084,2062,2042,2023,2004,1986,1970,1954,1938,1924,1913,1901,1887,1876,1862,1849,1837,1823,1811,1796,1784,1770,1756,1743,1729,1716,1703,1692,1680,1671,1662,1653,1644,1636,1629,1621,1615,1608,1605,1600,1598,1595,1594,1594,1593,1594,1591,1592,1591,1590,1586,1584,1580,1577,1574,1572,1570,1566,1562,1557,1553,1548,1545,1541,1538,1533,1529,1524,1518,1512,1505,1498,1490,1484,1474,1470,1464,1457,1454,1449,1445,1442,1440,1439,1443,1449,1455,1468,1487,1508,1536,1569,1610,1656,1710,1767,1832,1901,1974,2050,2128,2208,2286,2365,2441,2515,2585,2652,2712,2769,2819,2882,2922,2948,2966,2977,2985,2987,2982,2975,2963,2947,2927,2905,2882,2855,2827,2798,2767,2739,2708,2680,2651,2622,2594,2567,2541,2512,2486,2460,2436,2412,2389,2364,2342,2320,2301,2283,2266,2251,2237,2225,2213,2203,2192,2186,2182,2180,2180,2181,2185,2192,2197,2203,2209,2214,2216,2220,2224,2228,2231,2236,2236,2240,2239,2241,2240,2237,2233,2230,2224,2219,2210,2202,2193,2183,2171,2159,2146,2132,2121,2104,2089,2071,2054,2034,2015,1995,1972,1951,1929,1907,1886,1866,1845,1825,1809,1794,1780,1769,1759,1752,1746,1740,1734,1731,1726,1721,1717,1713,1709,1706,1703,1699,1695,1691,1688,1687,1684,1682,1679,1677,1672,1669,1666,1665,1663,1663,1662,1660,1659,1661,1661,1659,1655,1652,1648,1643,1638,1631,1625,1620,1611,1605,1599,1594,1591,1591,1595,1601,1614,1630,1651,1680,1712,1751,1796,1844,1896,1952,2013,2078,2143,2211,2281,2349,2416,2483,2547,2607,2662,2713,2759,2816,2854,2877,2893,2903,2908,2907,2903,2894,2883,2868,2851,2829,2806,2782,2756,2728,2700,2672,2636,2609,2580,2550,2520,2489,2459,2429,2399,2369,2340,2314,2288,2262,2239,2213,2191,2169,2151,2135,2121,2109,2097,2088,2081,2076,2073,2074,2075,2080,2088,2098,2109,2120,2134,2143,2155,2166,2175,2182,2187,2192,2196,2199,2203,2206,2206,2205,2202,2196,2191,2181,2174,2165,2154,2140,2124,2106,2086,2063,2038,2013,1990,1964,1944,1922,1900,1880,1861,1843,1828,1812,1796,1783,1771,1760,1747,1736,1725,1714,1705,1696,1686,1678,1669,1660,1653,1645,1639,1632,1625,1619,1611,1609,1601,1597,1589,1587,1582,1580,1578,1576,1574,1573,1575,1573,1573,1573,1570,1569,1565,1565,1562,1561,1560,1557,1557,1556,1554,1552,1549,1544,1540,1533,1527,1520,1514,1510,1507,1506,1506,1512,1521,1541,1565,1597,1637,1683,1734,1794,1856,1924,1996,2072,2148,2228,2310,2390,2471,2546,2618,2687,2748,2806,2858,2926,2972,3001,3026,3044,3059,3067,3068,3067,3061,3052,3037,3022,3006,2985,2964,2939,2915,2888,2862,2834,2804,2773,2741,2711,2682,2653,2626,2600,2576,2553,2530,2508,2487,2466,2445,2424,2404,2385,2368,2351,2334,2320,2305,2292,2284,2275,2270,2264,2260,2260,2261,2261,2262,2263,2265,2265,2267,2267,2270,2273,2275,2277,2279,2279,2281,2279,2276,2273,2265,2257,2247,2235,2222,2209,2194,2179,2163,2147,2131,2113,2096,2078,2058,2041,2022,2004,1986,1967,1949,1932,1913,1895,1879,1863,1848,1832,1816,1802,1788,1774,1761,1749,1739,1731,1719,1710,1701,1691,1681,1673,1665,1657,1649,1641,1631,1624,1616,1611,1604,1600,1597,1595,1594,1594,1594,1593,1593,1593,1593,1592,1591,1590,1585,1580,1575,1568,1558,1552,1546,1539,1534,1527,1522,1518,1514,1510,1507,1506,1503,1498,1495,1492,1487,1481,1475,1470,1467,1466,1465,1466,1473,1481,1490,1505,1524,1550,1580,1617,1659,1708,1766,1829,1897,1972,2050,2131,2213,2295,2379,2457,2535,2609,2678,2744,2803,2859,2929,2981,3017,3045,3068,3086,3096,3102,3102,3097,3089,3077,3063,3046,3024,3002,2976,2951,2922,2894,2866,2837,2802,2773,2744,2717,2690,2664,2638,2612,2588,2566,2541,2519,2497,2474,2455,2436,2419,2404,2390,2376,2366,2354,2343,2334,2327,2321,2314,2308,2301,2295,2288,2282,2275,2270,2265,2261,2258,2255,2255,2255,2255,2251,2247,2243,2240,2235,2233,2229,2225,2222,2215,2209,2204,2196,2187,2179,2167,2155,2142,2126,2110,2092,2074,2057,2038,2021,2003,1986,1971,1952,1936,1920,1905,1885,1868,1849,1831,1814,1798,1782,1769,1755,1741,1728,1714,1700,1686,1673,1659,1645,1634,1623,1613,1602,1593,1583,1577,1572,1570,1568,1566,1565,1564,1564,1564,1563,1562,1560,1559,1554,1555,1553,1551,1549,1548,1546,1545,1543,1542,1542,1541,1540,1536,1534,1528,1524,1517,1511,1503,1492,1484,1474,1468,1461,1457,1454,1453,1452,1454,1458,1466,1476,1492,1511,1537,1568,1605,1647,1697,1753,1814,1880,1952,2025,2103,2181,2258,2340,2418,2494,2567,2636,2700,2759,2814,2883,2930,2960,2986,3002,3015,3022,3026,3024,3015,3007,2995,2979,2961,2940,2917,2889,2861,2831,2802,2773,2744,2715,2686,2660,2634,2609,2585,2561,2539,2515,2489,2465,2442,2420,2399,2380,2361,2343,2326,2308,2292,2276,2260,2246,2233,2221,2214,2206,2202,2200,2199,2202,2203,2206,2210,2215,2218,2221,2222,2226,2229,2231,2231,2231,2232,2231,2229,2224,2220,2214,2206,2199,2194,2184,2176,2167,2154,2141,2124,2110,2093,2077,2059,2041,2026,2007,1990,1972,1956,1939,1921,1902,1886,1870,1854,1841,1828,1815,1801,1789,1777,1766,1755,1746,1737,1728,1719,1710,1702,1692,1686,1677,1668,1658,1649,1641,1631,1622,1613,1605,1599,1595,1592,1589,1584,1583,1580,1576,1572,1566,1564,1559,1554,1552,1550,1549,1548,1548,1546,1547,1545,1546,1546,1551,1558,1566,1579,1594,1613,1636,1665,1699,1737,1783,1831,1886,1943,2002,2068,2134,2202,2271,2338,2405,2471,2533,2591,2645,2694,2737,2793,2831,2855,2871,2882,2888,2888,2882,2872,2858,2840,2821,2799,2775,2747,2720,2692,2663,2633,2603,2574,2544,2516,2486,2459,2429,2402,2376,2352,2328,2306,2284,2262,2241,2221,2202,2183,2163,2145,2130,2117,2107,2098,2093,2089,2089,2088,2092,2094,2098,2105,2113,2117,2124,2132,2136,2144,2151,2159,2167,2171,2177,2181,2182,2183,2181,2178,2171,2163,2155,2144,2135,2124,2112,2099,2085,2069,2054,2035,2017,1998,1979,1959,1940,1922,1904,1887,1868,1850,1830,1811,1793,1775,1759,1742,1726,1711,1699,1687,1677,1668,1659,1650,1644,1637,1634,1628,1623,1620,1618,1614,1614,1610,1607,1603,1598,1593,1587,1583,1581,1578,1575,1572,1568,1564,1560,1556,1553,1548,1544,1541,1539,1538,1536,1534,1532,1531,1532,1531,1532,1535,1541,1550,1558,1568,1585,1604,1627,1654,1688,1726,1770,1817,1873,1931,1995,2065,2137,2211,2287,2364,2441,2514,2587,2655,2722,2783,2841,2892,2956,2999,3026,3046,3061,3071,3074,3072,3064,3049,3034,3016,2994,2968,2943,2914,2885,2854,2821,2790,2761,2731,2703,2673,2646,2617,2590,2561,2534,2507,2481,2456,2432,2407,2385,2362,2339,2318,2296,2277,2261,2248,2234,2223,2212,2204,2198,2195,2194,2196,2198,2202,2205,2210,2216,2222,2229,2237,2244,2250,2256,2258,2259,2258,2255,2252,2249,2246,2240,2233,2228,2218,2208,2198,2189,2176,2162,2148,2134,2118,2102,2084,2064,2046,2027,2007,1986,1968,1949,1932,1914,1896,1879,1861,1845,1828,1811,1796,1780,1765,1751,1737,1724,1713,1700,1689,1676,1666,1656,1647,1639,1629,1620,1611,1603,1595,1588,1584,1581,1579,1578,1577,1576,1575,1574,1572,1570,1570,1570,1572,1573,1574,1572,1571,1569,1567,1566,1565,1565,1566,1567,1564,1564,1564,1559,1557,1553,1546,1539,1532,1524,1521,1518,1519,1525,1532,1548,1570,1599,1631,1673,1720,1772,1829,1892,1961,2033,2109,2186,2267,2351,2432,2512,2588,2661,2729,2792,2850,2903,2972,3017,3046,3070,3088,3099,3105,3105,3102,3094,3082,3067,3050,3032,3013,2991,2968,2944,2918,2892,2867,2841,2817,2794,2770,2746,2723,2698,2672,2646,2620,2592,2563,2537,2507,2478,2451,2426,2400,2378,2360,2344,2332,2319,2311,2305,2298,2294,2292,2288,2285,2285,2283,2286,2288,2292,2295,2298,2301,2301,2301,2303,2302,2302,2300,2297,2296,2293,2291,2287,2283,2278,2270,2259,2246,2233,2217,2201,2183,2166,2148,2130,2112,2094,2075,2054,2039,2020,2003,1986,1968,1947,1928,1907,1885,1865,1844,1826,1808,1792,1777,1764,1751,1739,1726,1714,1700,1687,1675,1663,1654,1645,1635,1628,1622,1616,1611,1609,1608,1608,1608,1608,1606,1604,1600,1596,1592,1586,1582,1578,1573,1570,1565,1559,1553,1549,1544,1539,1533,1528,1524,1519,1515,1511,1508,1505,1503,1500,1497,1494,1490,1488,1485,1481,1476,1472,1471,1474,1480,1492,1509,1534,1565,1600,1644,1694,1750,1812,1879,1951,2026,2106,2187,2270,2353,2434,2513,2590,2662,2730,2793,2852,2928,2979,3013,3041,3063,3076,3085,3086,3082,3072,3058,3042,3022,3000,2975,2950,2924,2897,2869,2840,2810,2782,2753,2724,2698,2671,2644,2619,2592,2569,2547,2524,2499,2476,2453,2431,2406,2385,2364,2341,2321,2303,2286,2272,2259,2247,2238,2230,2220,2212,2204,2201,2200,2202,2205,2209,2215,2219,2226,2231,2237,2241,2245,2250,2252,2254,2255,2255,2255,2251,2247,2241,2232,2223,2210,2195,2180,2163,2145,2126,2107,2087,2066,2043,2022,2000,1976,1955,1932,1912,1893,1874,1859,1844,1828,1814,1801,1789,1776,1765,1756,1746,1741,1735,1730,1725,1724,1721,1716,1711,1706,1698,1694,1687,1683,1677,1672,1664,1657,1651,1643,1637,1630,1625,1619,1612,1608,1602,1599,1595,1592,1590,1587,1587,1583,1581,1577,1574,1571,1566,1564,1564,1564,1567,1573,1579,1592,1610,1631,1658,1691,1727,1770,1815,1866,1921,1978,2039,2104,2170,2239,2308,2377,2443,2509,2571,2629,2682,2732,2777,2833,2872,2895,2912,2925,2934,2939,2939,2935,2927,2915,2900,2881,2861,2836,2810,2784,2757,2729,2701,2674,2645,2616,2586,2556,2525,2496,2464,2432,2402,2372,2344,2318,2295,2272,2255,2237,2221,2205,2191,2179,2168,2156,2146,2138,2131,2127,2128,2130,2137,2144,2154,2162,2173,2184,2194,2201,2210,2219,2226,2232,2236,2237,2237,2234,2231,2226,2220,2212,2202,2190,2178,2164,2150,2134,2117,2100,2082,2063,2041,2019,1996,1975,1953,1933,1911,1892,1874,1856,1838,1822,1805,1791,1779,1766,1755,1744,1734,1726,1717,1709,1704,1699,1695,1691,1686,1681,1676,1667,1661,1652,1645,1635,1626,1617,1610,1602,1596,1594,1590,1588,1586,1585,1583,1581,1580,1577,1575,1575,1571,1570,1566,1566,1564,1560,1558,1555,1554,1553,1552,1554,1557,1561,1569,1581,1599,1619,1644,1675,1710,1752,1802,1857,1919,1985,2058,2137,2217,2299,2379,2457,2533,2605,2672,2737,2798,2852,2902,2963,3002,3025,3043,3054,3059,3060,3054,3044,3030,3012,2992,2968,2944,2918,2890,2865,2837,2812,2789,2765,2740,2718,2694,2669,2644,2618,2591,2564,2540,2513,2490,2467,2444,2423,2401,2382,2363,2346,2329,2312,2297,2281,2269,2258,2251,2245,2240,2238,2236,2237,2237,2239,2242,2246,2248,2253,2256,2259,2261,2263,2265,2263,2259,2257,2251,2245,2237,2230,2221,2211,2200,2187,2171,2156,2140,2121,2104,2085,2064,2043,2023,2004,1981,1962,1941,1921,1902,1883,1861,1843,1822,1802,1783,1763,1743,1726,1709,1693,1681,1671,1663,1654,1649,1642,1636,1630,1624,1618,1611,1605,1600,1594,1590,1585,1584,1581,1578,1577,1575,1574,1575,1574,1576,1576,1576,1577,1577,1577,1578,1578,1576,1575,1574,1573,1569,1565,1560,1555,1548,1542,1537,1532,1525,1517,1509,1503,1493,1485,1477,1471,1467,1463,1461,1466,1474,1488,1509,1537,1572,1613,1660,1712,1770,1838,1907,1982,2061,2144,2226,2309,2392,2470,2548,2616,2684,2745,2800,2848,2909,2949,2972,2991,3006,3014,3018,3018,3014,3007,2994,2979,2959,2936,2912,2885,2858,2830,2801,2773,2746,2721,2695,2671,2646,2622,2599,2575,2551,2527,2503,2480,2457,2435,2416,2396,2377,2359,2344,2333,2320,2310,2302,2295,2286,2276,2269,2261,2254,2249,2244,2240,2237,2234,2234,2233,2232,2234,2237,2237,2237,2236,2234,2228,2223,2217,2210,2203,2192,2181,2169,2153,2139,2124,2108,2092,2075,2056,2039,2023,2004,1987,1969,1950,1934,1918,1902,1886,1872,1857,1842,1827,1814,1799,1786,1772,1760,1749,1738,1730,1721,1712,1703,1694,1685,1676,1665,1655,1645,1633,1624,1615,1607,1602,1594,1590,1586,1582,1578,1578,1573,1570,1568,1564,1562,1560,1557,1556,1551,1547,1542,1536,1531,1525,1519,1514,1508,1506,1500,1497,1495,1493,1492,1492,1492,1493,1495,1494,1493,1490,1488,1481,1474,1465,1455,1445,1437,1430,1425,1423,1422,1428,1438,1451,1472,1498,1530,1570,1615,1666,1722,1784,1850,1920,1995,2075,2155,2234,2314,2390,2465,2536,2604,2667,2726,2778,2846,2893,2922,2946,2963,2976,2980,2979,2971,2958,2940,2918,2894,2868,2843,2813,2786,2757,2731,2704,2675,2649,2622,2596,2571,2545,2519,2495,2470,2448,2425,2403,2384,2365,2345,2327,2309,2292,2276,2263,2249,2238,2227,2217,2207,2198,2191,2182,2176,2170,2164,2159,2157,2155,2156,2159,2166,2172,2177,2182,2189,2195,2200,2205,2208,2208,2207,2202,2196,2188,2176,2164,2151,2137,2123,2109,2094,2077,2063,2047,2028,2011,1995,1976,1956,1938,1918,1898,1880,1862,1845,1830,1815,1801,1790,1776,1764,1750,1738,1725,1713,1701,1689,1675,1663,1654,1644,1638,1632,1628,1625,1622,1618,1615,1610,1605,1600,1595,1591,1585,1583,1579,1575,1575,1574,1575,1575,1579,1581,1583,1585,1587,1590,1591,1593,1592,1593,1590,1590,1584,1580,1575,1568,1565,1560,1556,1551,1549,1547,1551,1558,1572,1588,1609,1638,1673,1713,1760,1811,1867,1926,1989,2054,2121,2186,2255,2321,2386,2447,2507,2562,2611,2656,2712,2747,2772,2789,2801,2808,2811,2809,2801,2790,2773,2754,2735,2711,2687,2662,2635,2609,2580,2552,2525,2498,2472,2443,2418,2391,2366,2340,2315,2290,2265,2238,2214,2189,2163,2137,2113,2090,2067,2048,2031,2015,2005,1997,1993,1995,1997,2002,2011,2020,2033,2046,2057,2070,2082,2093,2107,2120,2132,2145,2154,2159,2164,2168,2170,2170,2168,2166,2159,2151,2141,2129,2115,2099,2081,2061,2039,2019,1999,1977,1959,1939,1921,1904,1888,1873,1859,1844,1830,1816,1804,1791,1781,1767,1755,1743,1731,1720,1709,1700,1692,1683,1676,1670,1663,1654,1648,1638,1632,1626,1620,1616,1612,1609,1608,1603,1602,1600,1597,1596,1596,1593,1594,1593,1593,1593,1594,1593,1594,1592,1592,1589,1587,1581,1576,1571,1564,1556,1547,1538,1531,1522,1515,1516,1516,1522,1532,1548,1570,1599,1632,1676,1723,1776,1835,1899,1965,2035,2106,2178,2250,2321,2392,2459,2524,2584,2639,2692,2759,2805,2837,2862,2881,2894,2902,2905,2903,2894,2882,2868,2851,2832,2810,2789,2767,2744,2722,2698,2674,2651,2626,2602,2576,2549,2523,2499,2475,2451,2419,2396,2372,2349,2326,2306,2289,2270,2258,2243,2228,2214,2200,2188,2174,2164,2152,2142,2134,2127,2123,2119,2116,2115,2117,2121,2125,2129,2136,2143,2147,2150,2154,2155,2155,2153,2150,2145,2141,2135,2126,2120,2109,2098,2088,2077,2064,2051,2038,2022,2005,1989,1970,1952,1932,1913,1895,1878,1861,1845,1830,1817,1805,1790,1779,1767,1756,1744,1733,1721,1709,1697,1687,1675,1664,1656,1646,1637,1628,1619,1610,1604,1596,1591,1587,1585,1587,1587,1590,1592,1594,1597,1598,1600,1601,1599,1599,1597,1595,1592,1588,1583,1580,1575,1569,1563,1558,1551,1545,1541,1534,1531,1525,1521,1517,1510,1504,1498,1492,1486,1480,1475,1474,1472,1477,1483,1491,1502,1518,1539,1567,1600,1638,1681,1731,1785,1847,1911,1977,2044,2114,2184,2254,2324,2392,2457,2521,2580,2637,2689,2759,2807,2840,2866,2886,2899,2909,2910,2907,2897,2884,2865,2842,2816,2785,2754,2722,2688,2654,2620,2589,2558,2530,2507,2484,2467,2450,2434,2417,2401,2384,2367,2351,2334,2316,2300,2283,2266,2250,2232,2218,2205,2192,2180,2171,2162,2153,2146,2142,2136,2133,2127,2121,2114,2109,2106,2102,2100,2100,2098,2100,2101,2104,2106,2109,2110,2110,2109,2105,2101,2094,2086,2077,2068,2057,2046,2035,2020,2005,1990,1975,1957,1942,1924,1907,1889,1874,1859,1843,1828,1815,1798,1782,1769,1753,1739,1724,1710,1698,1686,1676,1668,1660,1652,1643,1633,1625,1618,1610,1605,1599,1595,1590,1584,1580,1576,1573,1572,1571,1569,1568,1566,1565,1566,1563,1560,1558,1556,1554,1552,1549,1546,1543,1541,1537,1533,1528,1523,1518,1511,1507,1497,1492,1486,1479,1471,1463,1454,1446,1436,1427,1419,1412,1406,1401,1398,1396,1395,1399,1406,1415,1431,1449,1474,1503,1539,1576,1620,1668,1722,1779,1839,1902,1968,2034,2103,2174,2239,2305,2369,2429,2484,2535,2581,2642,2679,2702,2718,2729,2735,2736,2732,2726,2714,2701,2684,2666,2647,2624,2602,2578,2553,2528,2504,2482,2461,2440,2417,2398,2379,2358,2338,2316,2294,2266,2244,2220,2195,2173,2149,2128,2110,2095,2081,2071,2062,2054,2046,2041,2035,2032,2028,2024,2021,2020,2018,2018,2018,2023,2025,2027,2031,2035,2039,2043,2044,2046,2046,2047,2046,2042,2037,2034,2025,2018,2010,2001,1994,1986,1975,1966,1953,1939,1926,1912,1898,1883,1867,1852,1838,1821,1809,1793,1776,1765,1750,1738,1725,1711,1699,1686,1675,1665,1654,1643,1635,1625,1615,1607,1599,1592,1587,1582,1578,1575,1573,1571,1570,1571,1571,1569,1568,1567,1567,1565,1566,1564,1563,1562,1560,1557,1555,1550,1546,1540,1534,1529,1521,1513,1505,1498,1490,1484,1477,1474,1472,1474,1477,1484,1494,1513,1533,1559,1592,1631,1676,1723,1775,1828,1883,1942,2000,2057,2116,2172,2225,2274,2320,2361,2399,2449,2484,2505,2524,2538,2549,2555,2557,2556,2552,2544,2536,2518,2505,2487,2468,2447,2427,2405,2380,2356,2331,2305,2281,2256,2230,2204,2180,2155,2131,2106,2083,2061,2041,2020,2002,1983,1967,1952,1939,1929,1920,1915,1907,1904,1900,1898,1896,1894,1893,1895,1897,1900,1906,1912,1919,1930,1941,1952,1963,1974,1983,1990,1996,2000,2000,1998,1993,1988,1980,1971,1963,1955,1944,1936,1926,1919,1910,1900,1891,1879,1867,1852,1837,1820,1805,1789,1774,1759,1744,1732,1717,1705,1690,1679,1666,1655,1643,1635,1626,1617,1607,1600,1590,1581,1574,1568,1561,1556,1551,1546,1540,1537,1533,1532,1531,1532,1531,1531,1531,1531,1531,1530,1527,1526,1524,1520,1518,1515,1512,1508,1502,1495,1490,1482,1473,1467,1460,1456,1454,1454,1456,1461,1470,1480,1494,1512,1533,1558,1589,1626,1664,1709,1757,1808,1863,1921,1981,2044,2108,2169,2230,2289,2345,2397,2444,2486,2523,2573,2607,2627,2645,2656,2664,2667,2665,2661,2653,2640,2623,2603,2581,2559,2536,2511,2485,2463,2441,2420,2400,2383,2362,2345,2327,2309,2291,2271,2252,2232,2212,2192,2170,2150,2130,2113,2097,2079,2066,2052,2041,2029,2019,2010,2003,1995,1992,1990,1990,1989,1992,1998,2004,2012,2021,2030,2037,2041,2047,2050,2049,2052,2050,2044,2038,2031,2023,2015,2008,2001,1995,1990,1986,1982,1976,1971,1967,1959,1951,1941,1932,1920,1908,1895,1883,1870,1856,1842,1825,1808,1792,1774,1758,1742,1726,1711,1696,1683,1672,1661,1653,1646,1642,1639,1635,1633,1631,1628,1624,1620,1616,1611,1608,1604,1600,1596,1593,1588,1585,1583,1582,1583,1585,1584,1584,1584,1583,1581,1576,1572,1567,1561,1555,1550,1544,1541,1535,1532,1527,1521,1515,1508,1500,1494,1488,1482,1480,1480,1481,1488,1498,1510,1529,1551,1581,1617,1656,1700,1747,1798,1852,1906,1964,2021,2080,2137,2195,2253,2305,2355,2400,2442,2492,2526,2549,2569,2584,2592,2600,2604,2603,2602,2595,2585,2573,2558,2543,2524,2504,2483,2460,2437,2413,2390,2365,2343,2321,2298,2277,2257,2239,2222,2208,2193,2179,2164,2150,2129,2115,2099,2082,2066,2052,2036,2022,2008,1995,1983,1974,1966,1960,1956,1953,1951,1951,1953,1956,1961,1967,1971,1976,1981,1984,1988,1991,1993,1995,1996,1998,2002,2003,2005,2005,2002,1999,1993,1986,1976,1965,1953,1940,1925,1912,1897,1883,1870,1856,1843,1829,1815,1802,1787,1773,1757,1745,1733,1723,1712,1706,1698,1690,1685,1678,1673,1664,1658,1649,1642,1632,1626,1619,1614,1607,1603,1597,1592,1584,1578,1568,1560,1553,1546,1539,1535,1531,1527,1527,1527,1526,1526,1527,1527,1526,1525,1525,1523,1521,1519,1516,1513,1510,1507,1502,1498,1494,1489,1485,1478,1472,1466,1461,1457,1456,1456,1458,1463,1470,1482,1494,1511,1532,1561,1592,1628,1670,1718,1768,1822,1878,1937,1995,2053,2111,2165,2219,2268,2314,2358,2398,2434,2479,2506,2524,2537,2545,2548,2545,2538,2528,2512,2495,2477,2455,2431,2408,2383,2360,2335,2310,2289,2267,2248,2228,2210,2191,2172,2152,2132,2111,2095,2076,2057,2038,2018,2000,1982,1965,1950,1936,1924,1914,1907,1902,1898,1896,1895,1895,1898,1903,1910,1921,1930,1942,1953,1964,1975,1984,1991,1997,2001,2004,2009,2012,2012,2014,2012,2011,2007,2001,1994,1985,1977,1966,1955,1944,1933,1922,1911,1903,1895,1887,1878,1869,1858,1850,1838,1827,1817,1805,1793,1783,1772,1760,1749,1737,1725,1712,1698,1686,1676,1665,1657,1650,1643,1635,1630,1623,1619,1613,1608,1602,1598,1596,1594,1594,1594,1594,1594,1591,1589,1586,1583,1582,1579,1576,1572,1566,1560,1554,1549,1545,1543,1538,1536,1536,1538,1541,1542,1549,1553,1561,1573,1589,1609,1632,1658,1688,1722,1758,1798,1842,1888,1936,1986,2037,2087,2137,2185,2229,2270,2307,2342,2375,2419,2450,2471,2487,2499,2506,2508,2505,2500,2489,2477,2463,2449,2433,2417,2399,2379,2359,2338,2316,2291,2271,2248,2228,2209,2191,2172,2154,2136,2119,2099,2080,2061,2042,2022,2003,1985,1968,1953,1939,1926,1916,1906,1900,1895,1890,1890,1887,1889,1891,1893,1898,1904,1909,1914,1922,1929,1937,1941,1950,1956,1962,1967,1972,1975,1979,1982,1983,1984,1984,1981,1978,1973,1967,1960,1950,1939,1928,1917,1904,1892,1881,1870,1861,1849,1838,1826,1814,1800,1789,1776,1763,1753,1742,1734,1724,1716,1707,1698,1688,1677,1668,1658,1649,1642,1635,1630,1623,1615,1612,1605,1598,1592,1587,1583,1578,1575,1575,1574,1572,1573,1573,1575,1575,1573,1574,1574,1573,1574,1571,1570,1567,1564,1562,1560,1557,1555,1551,1548,1544,1541,1538,1538,1539,1543,1550,1564,1581,1602,1632,1663,1699,1741,1784,1833,1884,1937,1996,2053,2111,2169,2224,2279,2333,2382,2428,2469,2507,2556,2589,2610,2625,2635,2641,2640,2636,2627,2614,2599,2582,2565,2546,2530,2514,2497,2482,2466,2450,2435,2416,2396,2376,2357,2335,2315,2293,2275,2257,2239,2221,2205,2186,2169,2153,2137,2120,2102,2086,2071,2057,2044,2034,2025,2021,2017,2013,2011,2006,2005,2005,2006,2008,2013,2019,2024,2033,2039,2045,2051,2054,2055,2055,2053,2052,2051,2051,2049,2047,2044,2038,2033,2027,2022,2016,2011,2002,1994,1985,1979,1970,1962,1954,1942,1931,1919,1905,1894,1883,1871,1859,1846,1837,1823,1813,1804,1790,1780,1767,1758,1748,1739,1731,1724,1717,1712,1708,1705,1700,1692,1688,1683,1676,1672,1667,1665,1659,1657,1652,1650,1648,1645,1642,1639,1638,1636,1635,1633,1632,1631,1628,1623,1621,1616,1611,1609,1606,1603,1601,1598,1598,1596,1594,1591,1587,1585,1583,1581,1579,1579,1579,1579,1581,1585,1592,1603,1615,1635,1659,1687,1720,1757,1798,1844,1894,1944,1996,2051,2107,2164,2219,2274,2324,2375,2422,2466,2505,2539,2582,2609,2624,2636,2643,2646,2644,2637,2627,2614,2598,2581,2561,2540,2518,2495,2474,2451,2429,2405,2385,2362,2341,2319,2299,2278,2260,2242,2226,2209,2195,2180,2167,2152,2139,2126,2113,2101,2089,2078,2066,2057,2048,2041,2033,2024,2020,2018,2016,2013,2013,2013,2015,2018,2022,2027,2032,2039,2044,2049,2053,2054,2056,2056,2054,2050,2045,2042,2037,2032,2025,2018,2011,2003,1998,1990,1980,1973,1964,1952,1942,1933,1924,1917,1907,1897,1887,1875,1862,1849,1837,1825,1813,1802,1793,1786,1779,1772,1765,1758,1750,1743,1732,1723,1716,1709,1704,1698,1693,1689,1687,1683,1679,1675,1672,1667,1663,1659,1656,1653,1652,1650,1649,1649,1647,1646,1644,1643,1642,1640,1639,1640,1640,1641,1640,1637,1633,1628,1619,1611,1602,1591,1585,1577,1571,1566,1561,1558,1554,1550,1550,1549,1553,1562,1575,1593,1613,1639,1667,1703,1741,1786,1834,1884,1937,1993,2048,2104,2161,2217,2269,2318,2363,2405,2443,2478,2522,2552,2571,2587,2597,2603,2605,2601,2593,2582,2568,2551,2531,2509,2487,2462,2437,2412,2387,2363,2340,2317,2296,2275,2255,2237,2219,2200,2180,2160,2142,2124,2105,2089,2074,2057,2044,2032,2019,2010,2001,1993,1986,1980,1977,1973,1974,1974,1975,1981,1985,1991,1998,2008,2016,2023,2034,2042,2052,2061,2071,2078,2085,2093,2096,2099,2101,2100,2097,2094,2088,2080,2070,2058,2045,2035,2020,2005,1991,1978,1964,1950,1936,1924,1908,1896,1884,1872,1861,1850,1840,1829,1819,1810,1801,1793,1784,1774,1766,1758,1750,1744,1739,1734,1729,1725,1721,1719,1715,1714,1712,1710,1708,1708,1707,1708,1707,1708,1710,1711,1711,1710,1707,1705,1700,1695,1688,1685,1682,1678,1673,1671,1670,1671,1669,1667,1668,1667,1669,1672,1679,1687,1703,1721,1743,1771,1801,1836,1872,1913,1955,2002,2050,2100,2149,2198,2248,2295,2341,2385,2427,2465,2502,2546,2576,2596,2611,2624,2628,2630,2627,2619,2609,2595,2580,2563,2545,2525,2505,2485,2464,2443,2420,2398,2375,2354,2331,2311,2289,2271,2253,2237,2221,2205,2190,2171,2156,2140,2123,2108,2091,2076,2062,2052,2041,2034,2026,2023,2021,2021,2021,2026,2031,2036,2043,2049,2054,2060,2067,2071,2076,2079,2085,2089,2094,2098,2101,2103,2103,2103,2102,2097,2091,2084,2074,2063,2051,2039,2025,2014,2003,1990,1980,1968,1958,1947,1938,1928,1920,1911,1901,1889,1880,1867,1857,1845,1836,1826,1819,1810,1803,1796,1787,1782,1776,1771,1769,1763,1760,1755,1750,1745,1739,1734,1726,1722,1717,1713,1708,1703,1700,1696,1691,1687,1681,1677,1673,1670,1666,1663,1662,1662,1660,1663,1665,1663,1664,1663,1661,1657,1652,1649,1646,1644,1645,1649,1657,1669,1687,1708,1735,1768,1803,1845,1888,1936,1988,2042,2098,2156,2214,2276,2336,2394,2451,2503,2552,2594,2634,2680,2711,2730,2744,2754,2761,2764,2765,2764,2759,2752,2741,2729,2715,2693,2676,2657,2638,2617,2597,2579,2560,2540,2522,2503,2482,2464,2446,2427,2411,2392,2374,2356,2336,2319,2303,2290,2278,2267,2260,2252,2246,2239,2232,2225,2219,2214,2210,2208,2207,2207,2211,2214,2219,2224,2227,2231,2235,2236,2236,2236,2233,2231,2227,2224,2217,2213,2206,2200,2195,2188,2182,2176,2169,2163,2156,2149,2141,2134,2126,2119,2110,2101,2094,2083,2070,2057,2040,2023,2005,1985,1967,1949,1931,1917,1905,1893,1882,1873,1866,1859,1851,1844,1838,1830,1821,1815,1809,1804,1798,1795,1793,1792,1790,1790,1789,1787,1786,1783,1781,1778,1775,1772,1769,1767,1765,1761,1758,1753,1748,1740,1733,1724,1716,1707,1699,1691,1686,1681,1676,1672,1669,1669,1668,1669,1671,1674,1676,1682,1688,1694,1703,1716,1729,1746,1767,1793,1822,1855,1891,1932,1977,2026,2080,2135,2193,2250,2308,2364,2419,2471,2519,2564,2605,2642,2673,2713,2739,2756,2768,2775,2781,2782,2782,2779,2772,2763,2750,2737,2721,2703,2683,2662,2639,2616,2594,2571,2551,2530,2512,2493,2477,2458,2440,2422,2404,2390,2371,2354,2337,2321,2303,2286,2270,2253,2237,2223,2207,2194,2177,2166,2153,2143,2135,2128,2124,2122,2125,2128,2137,2145,2154,2164,2176,2186,2197,2205,2211,2215,2218,2218,2216,2214,2211,2204,2197,2188,2179,2169,2160,2149,2137,2125,2114,2102,2088,2072,2061,2046,2034,2022,2009,1998,1987,1975,1964,1952,1939,1925,1910,1894,1879,1867,1854,1842,1828,1818,1807,1798,1790,1782,1777,1771,1768,1765,1761,1758,1755,1752,1752,1751,1750,1751,1751,1753,1754,1756,1753,1751,1749,1744,1738,1732,1724,1715,1705,1694,1682,1674,1664,1658,1650,1644,1639,1635,1631,1628,1624,1621,1621,1621,1621,1623,1631,1644,1662,1684,1712,1744,1780,1818,1860,1906,1954,2004,2058,2114,2170,2227,2283,2336,2390,2439,2486,2529,2570,2624,2657,2680,2696,2706,2711,2713,2709,2704,2697,2686,2677,2665,2650,2635,2621,2600,2582,2560,2537,2513,2487,2460,2434,2406,2376,2348,2320,2294,2267,2243,2220,2193,2169,2149,2131,2114,2100,2088,2077,2067,2058,2051,2044,2040,2036,2034,2034,2036,2039,2044,2050,2058,2064,2072,2078,2086,2090,2099,2109,2118,2126,2134,2142,2151,2156,2160,2166,2170,2172,2174,2172,2169,2163,2154,2143,2128,2112,2094,2078,2057,2039,2018,1998,1977,1958,1937,1918,1897,1881,1865,1848,1834,1821,1810,1801,1790,1782,1773,1764,1755,1744,1734,1726,1718,1710,1704,1699,1693,1690,1686,1683,1681,1678,1675,1671,1667,1663,1658,1656,1652,1648,1647,1646,1645,1644,1644,1644,1644,1645,1645,1646,1650,1652,1657,1666,1680,1695,1713,1738,1764,1797,1832,1872,1914,1961,2010,2061,2113,2167,2222,2276,2329,2382,2431,2480,2523,2563,2600,2647,2680,2701,2716,2730,2742,2747,2753,2752,2750,2744,2734,2721,2707,2690,2671,2650,2628,2605,2583,2560,2529,2507,2486,2466,2444,2422,2402,2381,2360,2339,2318,2299,2279,2261,2245,2229,2214,2200,2188,2178,2170,2162,2155,2149,2144,2140,2137,2136,2134,2134,2134,2135,2136,2138,2139,2144,2151,2156,2162,2167,2172,2175,2177,2177,2175,2171,2164,2156,2146,2140,2131,2121,2113,2104,2095,2088,2080,2070,2061,2051,2041,2030,2018,2005,1989,1975,1962,1946,1931,1915,1897,1882,1865,1848,1832,1818,1803,1791,1779,1767,1758,1747,1738,1728,1719,1713,1705,1699,1694,1690,1687,1684,1682,1681,1678,1678,1675,1674,1670,1670,1669,1669,1667,1664,1661,1657,1650,1643,1637,1631,1629,1627,1624,1623,1623,1624,1624,1624,1623,1624,1625,1626,1631,1639,1650,1666,1685,1709,1737,1769,1805,1845,1887,1933,1983,2035,2093,2152,2213,2277,2340,2403,2465,2523,2580,2633,2682,2725,2765,2812,2845,2865,2878,2885,2886,2883,2874,2862,2846,2830,2811,2794,2775,2756,2737,2719,2698,2679,2659,2640,2621,2603,2585,2568,2550,2535,2517,2501,2483,2466,2448,2430,2413,2394,2379,2364,2348,2331,2315,2301,2286,2271,2258,2246,2238,2229,2226,2221,2219,2218,2217,2217,2216,2215,2212,2213,2212,2211,2210,2209,2209,2207,2206,2204,2203,2203,2200,2196,2192,2186,2178,2173,2164,2156,2145,2135,2124,2112,2099,2084,2069,2052,2037,2021,2006,1988,1975,1959,1944,1930,1914,1897,1882,1866,1850,1835,1822,1809,1797,1790,1780,1773,1766,1761,1755,1751,1746,1740,1734,1729,1723,1717,1710,1704,1699,1696,1690,1687,1683,1680,1675,1670,1666,1662,1657,1651,1649,1643,1642,1644,1644,1645,1646,1647,1650,1650,1649,1649,1649,1647,1644,1641,1637,1632,1628,1622,1616,1611,1608,1603,1603,1605,1613,1624,1642,1663,1690,1721,1758,1799,1845,1893,1945,2002,2062,2126,2189,2256,2323,2388,2452,2514,2571,2626,2674,2720,2777,2816,2841,2861,2876,2888,2893,2897,2894,2887,2875,2860,2842,2823,2801,2777,2753,2729,2704,2678,2650,2622,2596,2572,2548,2526,2505,2486,2467,2450,2431,2413,2397,2381,2364,2348,2331,2315,2292,2276,2260,2245,2231,2218,2206,2196,2187,2179,2172,2167,2163,2159,2159,2160,2162,2166,2172,2176,2183,2187,2191,2195,2197,2198,2198,2193,2191,2186,2181,2175,2170,2163,2155,2145,2133,2121,2107,2094,2080,2064,2052,2038,2021,2005,1992,1977,1962,1946,1930,1914,1898,1880,1863,1847,1828,1813,1797,1785,1772,1763,1754,1746,1740,1732,1726,1722,1715,1712,1705,1702,1698,1694,1688,1685,1681,1676,1671,1667,1664,1661,1657,1655,1653,1651,1651,1648,1646,1644,1639,1638,1632,1627,1623,1618,1615,1612,1608,1604,1600,1596,1593,1588,1584,1578,1574,1569,1564,1564,1563,1567,1573,1583,1597,1617,1638,1666,1699,1735,1776,1821,1872,1924,1980,2042,2105,2167,2232,2294,2356,2417,2475,2527,2577,2622,2663,2712,2743,2762,2775,2782,2786,2785,2782,2776,2765,2753,2731,2710,2689,2665,2641,2615,2589,2566,2544,2523,2503,2482,2460,2440,2416,2395,2370,2346,2323,2299,2275,2251,2230,2208,2188,2170,2153,2139,2127,2117,2109,2102,2096,2094,2092,2093,2097,2102,2109,2117,2125,2132,2139,2147,2152,2158,2166,2169,2175,2178,2181,2185,2189,2190,2189,2187,2182,2173,2165,2154,2142,2130,2116,2104,2088,2075,2063,2050,2039,2028,2016,2003,1990,1975,1961,1945,1928,1913,1897,1882,1866,1850,1837,1823,1810,1798,1785,1773,1760,1748,1735,1722,1708,1697,1686,1676,1666,1656,1649,1643,1639,1637,1636,1635,1636,1637,1639,1638,1638,1636,1633,1630,1625,1624,1622,1622,1622,1622,1624,1625,1627,1626,1626,1625,1625,1628,1633,1642,1652,1669,1689,1715,1745,1780,1818,1861,1905,1953,2004,2057,2112,2167,2224,2280,2336,2388,2440,2489,2536,2579,2617,2670,2705,2729,2748,2760,2768,2772,2770,2763,2757,2744,2731,2715,2697,2680,2663,2645,2626,2609,2587,2567,2544,2518,2493,2468,2441,2414,2386,2360,2333,2308,2281,2255,2227,2199,2174,2147,2123,2100,2079,2061,2044,2032,2023,2016,2014,2013,2014,2016,2019,2025,2031,2039,2049,2059,2073,2087,2100,2110,2120,2128,2136,2140,2143,2144,2142,2143,2139,2133,2125,2116,2103,2088,2075,2057,2040,2023,2004,1987,1969,1951,1934,1919,1905,1890,1877,1865,1852,1840,1828,1815,1805,1793,1786,1778,1772,1766,1759,1754,1747,1739,1729,1719,1708,1699,1688,1679,1670,1662,1655,1647,1642,1637,1630,1625,1619,1615,1612,1606,1602,1597,1594,1591,1588,1588,1585,1585,1584,1584,1582,1579,1573,1567,1560,1553,1545,1539,1531,1525,1522,1520,1520,1523,1526,1533,1542,1551,1563,1581,1599,1624,1650,1683,1722,1763,1811,1866,1923,1985,2050,2118,2188,2258,2326,2394,2459,2524,2583,2640,2693,2741,2785,2840,2875,2897,2912,2920,2924,2923,2919,2914,2903,2891,2875,2859,2838,2818,2793,2767,2741,2714,2688,2664,2640,2622,2601,2583,2566,2548,2529,2510,2490,2469,2447,2425,2401,2378,2355,2333,2312,2293,2277,2263,2248,2238,2229,2223,2216,2210,2206,2200,2198,2196,2194,2193,2193,2194,2196,2196,2197,2198,2200,2200,2203,2206,2208,2207,2209,2207,2205,2200,2194,2183,2173,2160,2146,2131,2117,2103,2088,2073,2057,2042,2026,2009,1993,1975,1957,1940,1920,1902,1885,1867,1848,1835,1820,1805,1792,1779,1767,1755,1743,1732,1722,1712,1705,1694,1685,1678,1669,1662,1656,1649,1645,1640,1638,1635,1635,1634,1633,1630,1628,1624,1620,1615,1613,1610,1608,1608,1609,1607,1608,1608,1608,1607,1605,1603,1599,1595,1588,1582,1574,1563,1555,1544,1537,1529,1521,1514,1509,1508,1508,1508,1511,1516,1527,1543,1562,1586,1616,1654,1699,1745,1798,1857,1921,1991,2061,2133,2207,2278,2351,2418,2482,2540,2597,2647,2695,2738,2797,2839,2866,2888,2903,2912,2917,2915,2908,2897,2882,2864,2837,2817,2795,2774,2753,2733,2714,2693,2670,2649,2628,2607,2586,2569,2548,2530,2511,2491,2469,2446,2425,2402,2379,2360,2339,2318,2299,2282,2264,2247,2231,2218,2205,2194,2185,2176,2169,2163,2157,2152,2147,2143,2140,2139,2138,2140,2141,2142,2142,2142,2140,2139,2136,2133,2128,2122,2113,2104,2093,2081,2067,2054,2037,2024,2009,1993,1979,1963,1949,1934,1921,1907,1892,1874,1858,1841,1825,1809,1796,1781,1769,1756,1744,1730,1717,1703,1688,1676,1664,1651,1640,1628,1619,1610,1601,1592,1582,1578,1570,1567,1562,1559,1556,1551,1548,1545,1542,1541,1538,1536,1535,1534,1534,1532,1532,1531,1529,1527,1525,1520,1518,1513,1507,1503,1499,1496,1494,1494,1494,1494,1496,1496,1496,1495,1495,1491,1487,1482,1477,1469,1466,1463,1464,1469,1475,1487,1503,1524,1550,1580,1614,1653,1700,1751,1809,1871,1938,2007,2076,2147,2218,2289,2358,2426,2490,2553,2610,2665,2715,2780,2825,2854,2875,2892,2902,2908,2910,2906,2898,2886,2871,2853,2834,2813,2791,2768,2745,2721,2696,2669,2643,2615,2589,2561,2534,2507,2480,2452,2427,2403,2377,2351,2329,2307,2286,2267,2249,2232,2216,2200,2182,2168,2155,2141,2132,2123,2117,2115,2116,2119,2123,2129,2135,2143,2152,2160,2168,2177,2185,2192,2200,2204,2208,2210,2210,2208,2202,2196,2187,2178,2169,2158,2144,2130,2117,2103,2088,2073,2058,2044,2032,2019,2007,1996,1982,1971,1956,1942,1924,1908,1891,1875,1858,1842,1828,1815,1801,1788,1777,1766,1758,1747,1738,1729,1719,1710,1699,1691,1684,1676,1673,1669,1666,1665,1662,1659,1657,1652,1648,1644,1640,1636,1632,1627,1622,1617,1610,1607,1604,1600,1598,1596,1596,1597,1599,1600,1603,1609,1616,1625,1636,1651,1670,1693,1722,1754,1792,1833,1880,1932,1985,2043,2104,2165,2227,2288,2349,2405,2460,2518,2568,2615,2657,2695,2743,2773,2792,2804,2813,2814,2814,2809,2800,2788,2772,2751,2728,2703,2675,2643,2612,2581,2547,2515,2483,2453,2424,2396,2368,2341,2313,2287,2263,2240,2211,2189,2167,2146,2125,2105,2088,2070,2055,2042,2031,2022,2015,2008,2004,2001,2002,2003,2006,2013,2017,2024,2031,2039,2048,2057,2067,2076,2086,2096,2103,2114,2117,2123,2126,2124,2124,2119,2112,2103,2091,2080,2068,2053,2038,2020,2003,1985,1966,1946,1926,1906,1888,1868,1850,1833,1814,1798,1781,1767,1753,1738,1725,1713,1701,1691,1682,1674,1663,1657,1647,1641,1631,1623,1615,1607,1598,1589,1583,1576,1572,1567,1563,1561,1560,1560,1560,1561,1562,1561,1559,1557,1553,1550,1546,1540,1535,1528,1522,1517,1513,1508,1505,1503,1503,1504,1506,1510,1518,1530,1543,1561,1584,1615,1652,1695,1743,1797,1855,1917,1983,2049,2118,2190,2262,2333,2405,2472,2540,2601,2660,2714,2764,2825,2867,2894,2915,2935,2950,2961,2966,2969,2968,2960,2954,2942,2926,2909,2882,2858,2833,2806,2780,2753,2724,2698,2672,2645,2618,2595,2572,2548,2522,2498,2475,2451,2428,2406,2385,2364,2346,2326,2308,2289,2274,2259,2246,2236,2226,2215,2206,2200,2195,2191,2188,2187,2184,2182,2182,2180,2180,2182,2182,2185,2187,2189,2191,2192,2193,2194,2195,2196,2196,2195,2192,2190,2186,2181,2174,2165,2157,2145,2131,2115,2100,2082,2063,2043,2023,2002,1981,1961,1940,1917,1897,1876,1856,1836,1817,1801,1785,1769,1754,1741,1728,1716,1704,1695,1684,1677,1668,1660,1653,1648,1642,1638,1636,1633,1630,1628,1626,1625,1620,1619,1617,1614,1612,1609,1606,1601,1596,1593,1589,1583,1578,1571,1566,1558,1552,1545,1538,1532,1527,1523,1519,1517,1519,1521,1526,1534,1546,1562,1580,1605,1633,1666,1704,1751,1801,1857,1916,1981,2048,2119,2191,2264,2336,2408,2478,2545,2609,2667,2721,2770,2814,2870,2906,2928,2945,2957,2964,2971,2972,2970,2963,2954,2941,2927,2907,2885,2863,2839,2815,2791,2766,2742,2720,2696,2670,2647,2623,2599,2576,2553,2530,2509,2489,2469,2449,2430,2410,2390,2371,2353,2335,2317,2302,2286,2271,2257,2245,2234,2222,2214,2208,2202,2198,2195,2195,2195,2197,2199,2204,2207,2210,2214,2217,2218,2220,2222,2224,2224,2224,2221,2216,2211,2203,2195,2180,2166,2150,2132,2112,2091,2070,2047,2025,2004,1986,1968,1952,1938,1922,1907,1894,1877,1862,1845,1830,1813,1798,1781,1765,1749,1733,1720,1707,1697,1685,1675,1668,1659,1651,1643,1637,1629,1625,1619,1617,1614,1611,1609,1608,1605,1604,1600,1599,1595,1591,1587,1580,1578,1571,1566,1561,1555,1552,1549,1546,1541,1539,1537,1532,1529,1528,1526,1525,1522,1520,1518,1519,1518,1516,1517,1520,1525,1532,1548,1567,1590,1617,1653,1694,1739,1790,1849,1910,1978,2047,2124,2200,2279,2355,2431,2504,2573,2637,2698,2753,2805,2851,2910,2948,2974,2991,3003,3008,3009,3003,2995,2983,2966,2946,2925,2900,2872,2844,2815,2788,2760,2730,2703,2674,2649,2623,2596,2572,2546,2521,2499,2476,2454,2427,2406,2387,2366,2346,2325,2305,2286,2267,2247,2229,2215,2204,2196,2189,2187,2186,2188,2193,2197,2204,2212,2222,2230,2239,2246,2253,2259,2263,2264,2268,2267,2267,2267,2267,2265,2262,2255,2248,2240,2230,2218,2202,2187,2171,2152,2134,2114,2094,2076,2056,2039,2021,2003,1983,1965,1949,1930,1914,1895,1879,1860,1841,1822,1804,1785,1770,1756,1743,1731,1721,1712,1703,1696,1692,1687,1684,1680,1678,1673,1672,1668,1664,1661,1658,1655,1652,1647,1645,1640,1637,1632,1629,1625,1624,1620,1619,1618,1617,1616,1616,1616,1615,1617,1621,1628,1636,1649,1666,1689,1717,1748,1786,1831,1880,1933,1993,2054,2118,2184,2249,2317,2381,2446,2509,2569,2626,2680,2728,2770,2824,2858,2879,2894,2904,2910,2912,2908,2901,2891,2878,2861,2842,2821,2799,2774,2750,2724,2689,2659,2627,2596,2564,2531,2498,2466,2434,2402,2372,2344,2315,2288,2262,2235,2209,2188,2169,2151,2137,2125,2114,2107,2101,2096,2094,2091,2092,2096,2099,2104,2111,2117,2124,2132,2141,2150,2159,2168,2176,2184,2188,2194,2199,2202,2207,2207,2206,2203,2198,2190,2181,2172,2161,2150,2136,2122,2106,2088,2070,2051,2028,2006,1984,1961,1938,1916,1896,1877,1862,1849,1838,1829,1820,1812,1805,1798,1789,1780,1771,1759,1751,1741,1730,1722,1716,1709,1703,1699,1695,1692,1689,1685,1681,1679,1676,1673,1670,1668,1665,1661,1657,1654,1649,1645,1641,1635,1629,1624,1619,1610,1606,1601,1597,1594,1593,1594,1599,1607,1620,1635,1655,1679,1709,1744,1785,1829,1878,1932,1991,2055,2124,2197,2271,2348,2426,2502,2576,2647,2713,2775,2831,2884,2930,2990,3030,3053,3073,3088,3096,3100,3102,3097,3088,3075,3059,3039,3019,2994,2967,2939,2912,2884,2856,2830,2801,2774,2747,2723,2698,2675,2652,2629,2609,2588,2567,2544,2521,2499,2477,2454,2432,2412,2393,2373,2355,2340,2328,2314,2308,2302,2298,2295,2296,2296,2298,2301,2305,2309,2312,2316,2320,2323,2327,2330,2332,2333,2333,2330,2326,2321,2314,2305,2297,2286,2272,2258,2240,2224,2205,2188,2169,2151,2132,2116,2096,2081,2067,2050,2037,2023,2010,1994,1979,1964,1947,1933,1916,1901,1889,1876,1863,1851,1840,1829,1818,1807,1796,1783,1771,1759,1750,1737,1729,1722,1716,1712,1708,1706,1703,1701,1699,1696,1696,1691,1689,1686,1683,1678,1674,1670,1664,1659,1653,1649,1643,1639,1633,1627,1622,1616,1611,1608,1605,1602,1602,1600,1600,1600,1602,1606,1610,1619,1631,1649,1670,1697,1729,1765,1809,1860,1912,1971,2033,2099,2169,2240,2314,2387,2461,2534,2605,2673,2737,2797,2852,2902,2966,3010,3038,3062,3079,3094,3101,3103,3102,3095,3085,3072,3056,3035,3012,2987,2963,2937,2910,2883,2855,2829,2803,2776,2749,2722,2698,2676,2654,2633,2613,2595,2578,2561,2544,2527,2508,2488,2471,2450,2430,2413,2395,2378,2363,2347,2329,2315,2302,2292,2283,2276,2271,2270,2270,2270,2272,2274,2277,2279,2283,2286,2291,2293,2293,2293,2290,2284,2277,2266,2253,2239,2222,2207,2192,2174,2157,2138,2119,2100,2080,2059,2041,2021,2002,1983,1966,1945,1929,1910,1892,1874,1858,1845,1832,1820,1809,1799,1790,1780,1772,1763,1755,1744,1737,1728,1718,1710,1702,1694,1686,1679,1672,1666,1661,1656,1653,1650,1647,1644,1641,1637,1635,1632,1631,1630,1627,1625,1625,1624,1620,1617,1612,1605,1600,1593,1587,1580,1574,1568,1564,1558,1554,1551,1549,1549,1545,1544,1539,1535,1530,1527,1521,1514,1509,1505,1504,1508,1515,1530,1551,1580,1616,1657,1705,1760,1819,1881,1951,2023,2098,2175,2252,2331,2408,2483,2554,2623,2690,2751,2808,2885,2937,2971,3001,3022,3037,3046,3049,3047,3041,3031,3016,2997,2968,2944,2915,2887,2857,2825,2794,2763,2732,2702,2674,2645,2619,2591,2567,2542,2518,2496,2476,2456,2436,2418,2402,2385,2369,2355,2341,2328,2316,2306,2295,2288,2280,2273,2269,2266,2264,2262,2263,2260,2259,2259,2257,2255,2253,2251,2251,2251,2252,2255,2257,2259,2259,2258,2256,2251,2246,2238,2231,2221,2209,2196,2184,2170,2152,2137,2118,2099,2080,2059,2040,2016,1995,1974,1953,1932,1913,1896,1881,1866,1848,1835,1819,1804,1789,1773,1760,1746,1733,1720,1710,1702,1692,1686,1681,1676,1671,1668,1663,1661,1658,1656,1653,1648,1646,1643,1641,1639,1635,1633,1631,1629,1625,1620,1615,1610,1604,1599,1595,1589,1585,1580,1574,1569,1564,1559,1552,1544,1537,1530,1525,1521,1520,1520,1525,1531,1542,1555,1573,1597,1625,1658,1698,1743,1794,1849,1910,1974,2042,2111,2185,2256,2328,2398,2464,2530,2588,2642,2692,2735,2790,2828,2851,2870,2884,2893,2896,2896,2891,2882,2872,2858,2844,2828,2807,2787,2766,2742,2717,2689,2658,2627,2595,2563,2528,2495,2461,2430,2397,2366,2334,2305,2276,2249,2222,2195,2171,2148,2128,2110,2095,2083,2075,2067,2063,2064,2067,2071,2076,2083,2091,2099,2109,2118,2127,2137,2145,2155,2162,2170,2174,2179,2179,2180,2179,2175,2172,2169,2163,2156,2148,2139,2127,2117,2103,2091,2076,2060,2044,2026,2009,1988,1968,1949,1928,1909,1890,1873,1855,1837,1820,1804,1788,1774,1762,1749,1737,1726,1715,1705,1693,1682,1671,1660,1651,1644,1636,1630,1625,1620,1616,1613,1610,1610,1609,1609,1611,1612,1613,1615,1617,1617,1617,1615,1612,1608,1605,1601,1596,1591,1588,1582,1575,1569,1562,1553,1547,1538,1530,1525,1524,1525,1531,1541,1555,1575,1599,1632,1669,1712,1760,1813,1872,1933,1998,2067,2137,2210,2282,2355,2425,2492,2557,2619,2679,2733,2805,2857,2894,2926,2952,2973,2989,3000,3007,3009,3005,2998,2987,2973,2956,2938,2917,2895,2874,2851,2829,2806,2782,2758,2732,2707,2680,2655,2628,2601,2576,2548,2522,2494,2466,2441,2414,2389,2357,2334,2310,2290,2272,2257,2241,2232,2221,2217,2212,2209,2208,2209,2209,2211,2213,2216,2218,2220,2223,2227,2228,2230,2230,2229,2228,2225,2222,2217,2211,2204,2195,2186,2176,2165,2154,2140,2128,2112,2096,2078,2059,2040,2020,1999,1978,1958,1936,1915,1895,1876,1859,1843,1828,1815,1802,1790,1777,1766,1755,1745,1736,1727,1719,1710,1701,1693,1685,1676,1668,1660,1654,1648,1642,1638,1635,1630,1627,1625,1625,1624,1625,1625,1628,1627,1628,1625,1623,1621,1620,1618,1614,1612,1611,1608,1605,1599,1593,1587,1582,1576,1568,1562,1555,1549,1543,1536,1529,1521,1516,1510,1505,1500,1497,1492,1492,1490,1488,1486,1484,1486,1490,1496,1506,1521,1542,1569,1601,1640,1685,1737,1793,1856,1923,1994,2070,2148,2226,2307,2385,2464,2542,2616,2687,2753,2814,2869,2949,2998,3029,3053,3073,3086,3095,3098,3096,3090,3080,3067,3051,3033,3010,2988,2965,2941,2917,2891,2867,2845,2820,2798,2776,2754,2732,2708,2684,2659,2632,2606,2580,2552,2524,2498,2472,2448,2425,2403,2382,2361,2342,2325,2309,2298,2286,2277,2267,2260,2253,2248,2242,2239,2237,2233,2229,2227,2225,2223,2222,2222,2220,2220,2217,2216,2212,2209,2205,2199,2190,2180,2169,2158,2143,2130,2113,2098,2080,2062,2044,2024,2004,1983,1962,1941,1919,1897,1877,1858,1839,1824,1807,1794,1778,1766,1753,1742,1730,1720,1711,1701,1691,1681,1672,1663,1653,1644,1634,1626,1619,1611,1603,1596,1588,1582,1572,1564,1556,1549,1540,1534,1529,1526,1522,1522,1524,1525,1527,1527,1527,1529,1527,1526,1526,1523,1520,1517,1514,1511,1506,1503,1499,1495,1489,1484,1480,1475,1471,1467,1461,1457,1453,1446,1441,1436,1432,1426,1423,1419,1421,1423,1430,1441,1460,1484,1514,1551,1595,1646,1703,1766,1833,1908,1986,2068,2148,2231,2315,2395,2473,2547,2616,2681,2742,2795,2866,2915,2947,2971,2989,3001,3009,3011,3008,3002,2991,2979,2963,2944,2924,2902,2879,2854,2828,2803,2777,2752,2726,2700,2675,2647,2619,2593,2566,2538,2512,2486,2463,2438,2414,2393,2371,2353,2334,2316,2296,2278,2260,2242,2226,2211,2198,2186,2177,2172,2170,2170,2173,2177,2182,2186,2192,2194,2201,2205,2211,2215,2218,2219,2219,2217,2214,2206,2197,2184,2172,2158,2143,2128,2112,2096,2079,2061,2044,2026,2008,1990,1972,1952,1935,1916,1897,1878,1860,1840,1822,1805,1786,1770,1753,1738,1724,1709,1696,1685,1674,1665,1656,1647,1640,1632,1626,1620,1615,1608,1603,1600,1596,1593,1590,1589,1588,1584,1582,1578,1574,1569,1564,1559,1555,1553,1552,1547,1543,1539,1533,1529,1524,1521,1514,1512,1508,1503,1500,1497,1497,1496,1498,1503,1506,1511,1517,1525,1533,1544,1556,1574,1593,1615,1643,1674,1714,1756,1803,1859,1918,1982,2049,2118,2190,2263,2336,2407,2475,2541,2602,2660,2713,2760,2802,2854,2888,2911,2929,2937,2939,2939,2934,2923,2908,2890,2870,2847,2823,2795,2767,2737,2706,2675,2644,2612,2580,2548,2516,2484,2450,2418,2386,2356,2327,2298,2272,2247,2224,2201,2178,2155,2134,2114,2097,2081,2066,2054,2045,2038,2032,2028,2028,2028,2030,2033,2037,2042,2048,2056,2061,2071,2077,2085,2092,2100,2107,2112,2117,2118,2119,2117,2116,2112,2106,2100,2092,2084,2074,2060,2046,2031,2010,1989,1968,1944,1920,1894,1867,1842,1819,1794,1773,1750,1729,1710,1691,1673,1658,1645,1633,1621,1612,1603,1596,1586,1581,1573,1566,1561,1555,1550,1545,1543,1542,1543,1541,1541,1541,1539,1537,1536,1532,1529,1525,1521,1516,1513,1507,1503,1497,1489,1486,1482,1478,1474,1473,1470,1467,1462,1459,1454,1449,1443,1437,1430,1424,1418,1412,1408,1406,1406,1410,1417,1428,1444,1465,1493,1526,1564,1609,1662,1721,1782,1852,1926,2004,2086,2168,2251,2338,2421,2503,2581,2658,2729,2796,2857,2938,2996,3034,3065,3091,3108,3120,3125,3125,3119,3108,3094,3077,3055,3032,3007,2981,2953,2924,2893,2861,2833,2802,2774,2747,2720,2696,2672,2648,2625,2600,2574,2552,2530,2507,2484,2462,2437,2415,2393,2371,2348,2328,2309,2291,2275,2260,2246,2236,2228,2223,2218,2217,2216,2218,2219,2221,2221,2222,2223,2223,2224,2223,2223,2222,2219,2215,2210,2205,2198,2190,2181,2172,2160,2147,2133,2118,2105,2090,2075,2060,2044,2026,2010,1991,1970,1950,1930,1908,1885,1864,1842,1817,1795,1774,1753,1732,1715,1699,1684,1671,1657,1646,1634,1623,1614,1604,1598,1590,1586,1582,1578,1574,1572,1568,1566,1562,1556,1549,1544,1538,1531,1527,1521,1520,1518,1519,1519,1519,1519,1519,1518,1516,1515,1513,1513,1510,1509,1508,1506,1503,1502,1500,1498,1493,1488,1484,1474,1467,1459,1451,1441,1433,1422,1413,1404,1395,1388,1385,1382,1380,1385,1389,1400,1416,1439,1468,1505,1549,1600,1660,1725,1797,1873,1955,2042,2128,2217,2306,2394,2480,2562,2643,2719,2792,2859,2920,3001,3056,3093,3122,3144,3159,3171,3175,3173,3167,3157,3141,3124,3104,3081,3054,3026,2996,2966,2934,2903,2871,2840,2809,2777,2746,2717,2689,2660,2634,2608,2582,2557,2535,2510,2487,2462,2439,2415,2392,2371,2350,2333,2315,2299,2285,2271,2256,2247,2240,2233,2229,2225,2221,2219,2218,2218,2221,2223,2227,2231,2233,2237,2239,2239,2239,2235,2230,2221,2214,2203,2190,2176,2160,2143,2124,2104,2084,2064,2043,2022,2002,1982,1962,1943,1921,1899,1875,1852,1830,1810,1790,1772,1755,1740,1726,1711,1699,1688,1676,1665,1654,1642,1633,1624,1612,1604,1594,1585,1576,1564,1558,1551,1545,1540,1535,1527,1523,1517,1510,1506,1499,1495,1491,1489,1486,1487,1486,1487,1488,1489,1491,1495,1497,1500,1502,1502,1501,1497,1494,1490,1485,1480,1472,1464,1456,1450,1443,1438,1433,1430,1425,1423,1416,1410,1403,1396,1388,1381,1373,1368,1364,1365,1366,1373,1384,1399,1418,1444,1476,1513,1558,1607,1664,1727,1796,1870,1947,2029,2116,2201,2289,2377,2462,2545,2625,2700,2772,2837,2896,2972,3024,3055,3081,3101,3114,3119,3122,3117,3107,3093,3075,3053,3025,2997,2965,2933,2902,2871,2838,2807,2773,2741,2708,2674,2638,2603,2569,2537,2505,2471,2442,2411,2382,2352,2325,2298,2274,2253,2233,2215,2199,2186,2176,2167,2160,2156,2154,2155,2157,2161,2167,2174,2182,2188,2197,2204,2211,2219,2224,2231,2236,2241,2243,2242,2241,2237,2234,2230,2224,2215,2206,2195,2182,2166,2148,2129,2110,2090,2069,2047,2024,2002,1983,1961,1940,1921,1902,1883,1864,1845,1826,1807,1791,1770,1751,1732,1713,1693,1675,1658,1640,1625,1611,1598,1587,1579,1571,1565,1559,1554,1551,1548,1546,1541,1540,1537,1534,1530,1528,1525,1524,1522,1521,1519,1518,1514,1511,1504,1498,1492,1483,1475,1465,1457,1450,1443,1437,1431,1424,1419,1414,1410,1407,1406,1408,1409,1416,1426,1441,1460,1486,1516,1554,1596,1643,1697,1753,1817,1884,1954,2025,2100,2176,2250,2326,2400,2473,2542,2608,2668,2726,2803,2857,2894,2921,2945,2961,2969,2970,2966,2956,2942,2924,2900,2876,2848,2819,2788,2757,2724,2690,2656,2622,2586,2553,2519,2484,2449,2417,2383,2351,2319,2287,2256,2222,2193,2163,2133,2107,2082,2062,2045,2029,2019,2010,2008,2008,2012,2017,2025,2035,2045,2056,2071,2081,2095,2110,2125,2139,2154,2166,2178,2187,2196,2200,2201,2199,2196,2189,2181,2169,2156,2142,2127,2110,2094,2075,2056,2036,2014,1993,1968,1945,1919,1895,1873,1851,1830,1807,1786,1765,1745,1726,1710,1692,1679,1663,1650,1637,1626,1615,1607,1597,1587,1581,1572,1567,1558,1553,1547,1542,1537,1531,1527,1519,1514,1509,1504,1501,1498,1494,1491,1489,1486,1481,1479,1476,1473,1471,1469,1467,1465,1464,1464,1462,1463,1461,1461,1462,1460,1460,1460,1460,1462,1465,1474,1484,1501,1522,1550,1583,1624,1667,1719,1774,1834,1900,1970,2043,2123,2204,2288,2374,2457,2541,2621,2698,2771,2841,2902,2957,3028,3074,3104,3125,3141,3151,3156,3155,3148,3136,3119,3101,3077,3049,3021,2989,2956,2921,2887,2852,2817,2783,2751,2720,2690,2660,2632,2596,2568,2542,2515,2487,2460,2434,2408,2384,2361,2337,2318,2297,2279,2264,2249,2238,2226,2217,2212,2206,2203,2200,2200,2201,2203,2205,2208,2212,2216,2220,2223,2228,2232,2234,2236,2234,2233,2232,2229,2226,2222,2215,2206,2197,2185,2173,2162,2148,2132,2116,2098,2081,2062,2042,2020,2001,1980,1959,1938,1916,1894,1876,1853,1829,1805,1780,1756,1733,1709,1689,1669,1651,1636,1621,1608,1597,1590,1579,1572,1564,1557,1551,1543,1536,1534,1529,1528,1528,1527,1527,1525,1524,1522,1520,1517,1516,1515,1515,1515,1518,1520,1521,1525,1524,1524,1521,1520,1518,1515,1510,1507,1498,1490,1484,1475,1470,1463,1455,1449,1443,1438,1433,1429,1427,1428,1433,1443,1457,1475,1502,1535,1572,1619,1670,1727,1793,1863,1939,2019,2103,2188,2277,2365,2453,2541,2624,2707,2786,2858,2923,2986,3065,3118,3152,3179,3199,3214,3223,3226,3223,3214,3201,3185,3163,3139,3114,3086,3057,3026,2995,2965,2934,2903,2872,2843,2813,2783,2755,2725,2697,2669,2642,2616,2587,2560,2534,2508,2485,2461,2437,2416,2395,2375,2358,2342,2327,2315,2301,2289,2279,2271,2264,2258,2257,2256,2257,2257,2260,2258,2258,2258,2257,2257,2257,2255,2255,2252,2249,2244,2236,2228,2219,2207,2194,2179,2163,2147,2129,2111,2093,2072,2053,2032,2014,1993,1975,1955,1934,1913,1892,1872,1853,1834,1815,1798,1781,1764,1749,1731,1714,1697,1682,1667,1654,1640,1628,1618,1608,1598,1589,1582,1573,1568,1562,1557,1552,1548,1542,1534,1530,1524,1515,1509,1503,1498,1492,1490,1488,1487,1485,1484,1481,1480,1479,1476,1478,1476,1475,1473,1470,1467,1462,1457,1452,1449,1444,1439,1434,1428,1421,1415,1406,1399,1392,1384,1381,1378,1375,1373,1376,1380,1386,1397,1413,1435,1463,1499,1545,1595,1656,1722,1796,1876,1961,2050,2140,2230,2322,2413,2502,2586,2667,2743,2814,2877,2935,3007,3056,3085,3111,3129,3140,3144,3144,3139,3130,3115,3097,3076,3052,3028,2999,2970,2940,2907,2874,2838,2804,2769,2736,2702,2670,2639,2597,2568,2536,2506,2477,2448,2421,2394,2368,2343,2321,2300,2280,2262,2246,2231,2219,2207,2198,2191,2187,2185,2184,2185,2186,2190,2193,2196,2202,2207,2212,2215,2217,2218,2218,2218,2216,2214,2212,2209,2204,2196,2187,2177,2168,2157,2146,2134,2122,2108,2091,2076,2057,2038,2018,1997,1975,1954,1931,1910,1887,1867,1847,1829,1810,1793,1777,1760,1745,1730,1713,1698,1684,1670,1655,1642,1629,1618,1607,1596,1584,1575,1566,1556,1549,1543,1540,1533,1529,1524,1521,1518,1516,1514,1514,1515,1515,1517,1518,1517,1518,1517,1516,1513,1510,1506,1499,1492,1487,1481,1475,1468,1464,1460,1458,1455,1453,1451,1453,1458,1465,1475,1489,1506,1529,1559,1590,1629,1674,1723,1778,1838,