2040,2021,2005,1987,1970,1952,1936,1924,1913,1903,1895,1887,1876,1866,1851,1838,1824,1809,1793,1777,1762,1748,1736,1727,1718,1709,1700,1695,1692,1693,1695,1700,1708,1718,1725,1730,1732,1731,1729,1722,1712,1697,1679,1661,1641,1621,1600,1583,1566,1555,1545,1538,1533,1529,1527,1524,1524,1525,1527,1531,1534,1541,1546,1552,1553,1552,1551,1550,1545,1541,1540,1534,1531,1526,1527,1526,1529,1528,1529,1531,1529,1530,1530,1529,1530,1529,1529,1528,1525,1525,1523,1522,1520,1518,1519,1518,1515,1512,1506,1496,1484,1473,1460,1450,1445,1442,1444,1448,1453,1461,1473,1483,1499,1520,1544,1573,1607,1647,1692,1739,1787,1839,1891,1944,1996,2049,2100,2151,2197,2240,2279,2318,2367,2401,2426,2447,2465,2480,2492,2503,2512,2520,2527,2533,2537,2538,2538,2537,2530,2520,2510,2498,2485,2469,2453,2437,2419,2399,2378,2354,2329,2303,2278,2249,2222,2194,2167,2142,2120,2099,2080,2063,2045,2030,2017,2005,1996,1991,1989,1990,1993,1997,2005,2014,2024,2036,2050,2062,2070,2077,2084,2090,2091,2089,2089,2085,2079,2073,2067,2063,2061,2063,2067,2071,2078,2085,2094,2104,2116,2126,2133,2138,2140,2138,2134,2125,2115,2103,2091,2078,2066,2057,2046,2035,2023,2010,1996,1983,1968,1954,1938,1922,1909,1896,1883,1874,1867,1864,1858,1852,1843,1836,1825,1812,1801,1789,1777,1765,1752,1740,1730,1722,1718,1716,1716,1717,1722,1728,1734,1743,1750,1761,1773,1784,1793,1807,1819,1830,1838,1845,1849,1850,1849,1846,1841,1835,1829,1820,1812,1803,1792,1782,1771,1758,1748,1739,1732,1722,1711,1701,1690,1681,1669,1661,1654,1648,1646,1646,1647,1650,1656,1664,1672,1678,1685,1687,1690,1691,1688,1685,1681,1678,1674,1669,1668,1665,1663,1661,1659,1658,1655,1655,1657,1663,1673,1690,1715,1745,1782,1827,1878,1932,1986,2043,2099,2153,2207,2258,2303,2346,2387,2426,2461,2497,2544,2580,2607,2633,2655,2673,2685,2690,2690,2687,2680,2670,2657,2644,2632,2617,2602,2582,2564,2544,2525,2506,2488,2469,2451,2434,2417,2401,2385,2372,2356,2341,2323,2305,2288,2273,2259,2246,2234,2219,2205,2192,2181,2172,2163,2155,2148,2143,2139,2135,2131,2129,2126,2127,2130,2133,2136,2141,2147,2153,2158,2165,2172,2181,2188,2195,2203,2213,2221,2228,2239,2249,2259,2266,2270,2274,2274,2274,2271,2271,2266,2262,2254,2245,2239,2232,2227,2219,2211,2202,2192,2181,2170,2156,2144,2132,2123,2114,2108,2102,2097,2089,2084,2074,2065,2054,2042,2033,2021,2012,2005,1997,1991,1987,1982,1979,1975,1972,1967,1964,1958,1952,1944,1936,1926,1914,1902,1889,1877,1863,1853,1841,1830,1816,1801,1784,1769,1754,1740,1725,1708,1694,1679,1665,1650,1637,1628,1623,1622,1625,1629,1634,1638,1644,1649,1652,1653,1655,1653,1652,1651,1648,1645,1643,1641,1640,1638,1635,1630,1626,1621,1615,1608,1601,1592,1584,1574,1567,1560,1554,1550,1545,1541,1542,1544,1547,1556,1571,1587,1606,1632,1658,1687,1720,1756,1794,1835,1880,1929,1980,2031,2083,2133,2182,2229,2274,2319,2359,2397,2448,2487,2515,2539,2560,2581,2598,2612,2626,2636,2645,2653,2657,2657,2654,2649,2641,2633,2624,2611,2601,2588,2572,2557,2538,2519,2499,2478,2457,2438,2420,2405,2389,2375,2358,2342,2326,2310,2296,2283,2268,2257,2244,2232,2220,2207,2194,2181,2166,2152,2139,2124,2110,2097,2087,2078,2071,2067,2064,2060,2059,2061,2064,2072,2084,2095,2109,2122,2135,2147,2160,2170,2181,2191,2201,2207,2210,2214,2214,2216,2215,2215,2212,2206,2200,2193,2182,2172,2161,2145,2129,2113,2098,2083,2068,2059,2049,2040,2033,2026,2018,2013,2007,2002,1993,1986,1976,1968,1958,1949,1942,1936,1930,1927,1925,1920,1919,1914,1911,1905,1898,1890,1882,1872,1861,1851,1839,1828,1818,1807,1798,1789,1781,1773,1767,1761,1754,1748,1744,1742,1740,1736,1732,1729,1722,1715,1710,1707,1709,1709,1710,1708,1707,1706,1705,1705,1707,1705,1702,1701,1697,1690,1682,1674,1664,1657,1650,1647,1646,1646,1647,1650,1655,1661,1669,1682,1699,1719,1744,1772,1803,1837,1872,1909,1946,1984,2023,2061,2097,2134,2165,2199,2232,2266,2298,2344,2375,2399,2421,2440,2458,2473,2487,2501,2510,2520,2528,2530,2532,2528,2522,2513,2501,2489,2476,2459,2442,2424,2406,2386,2367,2347,2328,2307,2288,2268,2250,2237,2222,2210,2198,2187,2176,2166,2149,2136,2123,2108,2095,2083,2071,2059,2048,2039,2030,2022,2015,2006,1998,1990,1982,1977,1973,1970,1972,1974,1980,1988,1999,2011,2027,2044,2059,2075,2089,2102,2113,2121,2125,2130,2134,2136,2137,2140,2141,2140,2138,2135,2128,2119,2110,2098,2087,2077,2064,2053,2040,2030,2017,2006,1994,1981,1967,1954,1942,1929,1916,1906,1894,1886,1881,1876,1872,1869,1868,1867,1867,1866,1865,1863,1860,1855,1851,1842,1832,1819,1806,1793,1782,1770,1762,1756,1750,1745,1742,1739,1738,1736,1731,1730,1728,1726,1724,1723,1722,1719,1717,1712,1709,1704,1699,1695,1691,1684,1677,1670,1665,1660,1655,1653,1650,1654,1658,1667,1678,1694,1713,1735,1761,1792,1826,1865,1906,1949,1997,2040,2088,2136,2184,2229,2275,2322,2371,2414,2456,2497,2551,2593,2618,2640,2658,2669,2677,2679,2679,2675,2668,2659,2649,2638,2624,2612,2600,2586,2573,2561,2546,2532,2519,2503,2488,2476,2462,2451,2439,2427,2418,2408,2400,2392,2384,2375,2368,2360,2352,2342,2337,2327,2319,2313,2304,2299,2294,2292,2292,2291,2287,2285,2283,2279,2277,2274,2273,2274,2275,2275,2274,2274,2275,2276,2280,2282,2283,2285,2285,2283,2276,2270,2259,2250,2239,2225,2213,2202,2188,2175,2162,2150,2139,2129,2122,2116,2110,2108,2105,2105,2105,2104,2106,2107,2109,2110,2107,2104,2104,2102,2100,2096,2090,2083,2072,2060,2049,2035,2021,2006,1993,1979,1965,1951,1936,1924,1912,1898,1886,1873,1860,1851,1843,1834,1829,1824,1819,1817,1813,1810,1803,1798,1795,1793,1790,1787,1782,1776,1767,1756,1748,1739,1730,1726,1720,1720,1719,1721,1721,1726,1729,1731,1734,1735,1734,1732,1729,1727,1725,1723,1721,1725,1728,1732,1741,1750,1763,1777,1797,1818,1844,1875,1910,1946,1987,2030,2075,2121,2167,2214,2261,2306,2353,2395,2437,2478,2517,2553,2599,2630,2653,2670,2685,2695,2702,2708,2711,2712,2711,2706,2700,2692,2682,2670,2660,2648,2638,2628,2618,2609,2600,2590,2581,2571,2562,2552,2542,2532,2524,2519,2516,2513,2512,2512,2513,2515,2516,2515,2513,2509,2502,2493,2487,2477,2471,2462,2453,2443,2436,2427,2419,2412,2405,2397,2390,2382,2373,2365,2357,2352,2346,2341,2339,2338,2337,2338,2336,2334,2334,2332,2331,2327,2325,2321,2316,2309,2300,2287,2275,2261,2247,2234,2221,2209,2198,2192,2185,2183,2181,2179,2176,2173,2168,2161,2154,2146,2139,2132,2125,2120,2118,2116,2119,2121,2121,2120,2116,2113,2108,2097,2085,2069,2049,2032,2012,1993,1975,1959,1944,1929,1916,1904,1895,1885,1877,1868,1861,1855,1853,1852,1853,1855,1858,1859,1861,1860,1856,1852,1848,1843,1840,1837,1835,1831,1829,1828,1826,1826,1823,1823,1822,1821,1822,1825,1830,1837,1843,1848,1851,1855,1853,1851,1848,1845,1839,1836,1830,1825,1818,1812,1808,1804,1800,1796,1793,1785,1779,1769,1760,1750,1741,1734,1728,1724,1724,1727,1735,1745,1758,1775,1797,1823,1855,1891,1932,1977,2027,2080,2134,2189,2244,2297,2347,2397,2444,2489,2532,2571,2607,2650,2676,2689,2697,2701,2699,2691,2679,2664,2648,2632,2616,2600,2586,2572,2559,2548,2537,2530,2522,2519,2518,2519,2520,2525,2527,2530,2532,2535,2535,2536,2535,2536,2533,2530,2524,2516,2507,2497,2488,2478,2469,2462,2457,2450,2447,2442,2441,2439,2436,2431,2428,2425,2421,2418,2416,2414,2411,2407,2402,2396,2390,2382,2378,2374,2371,2371,2372,2375,2379,2380,2382,2382,2383,2383,2382,2380,2376,2372,2367,2364,2361,2356,2348,2342,2334,2326,2315,2304,2292,2280,2267,2251,2236,2220,2205,2190,2177,2165,2153,2138,2126,2114,2101,2088,2073,2059,2042,2027,2012,1999,1986,1970,1954,1941,1927,1915,1902,1890,1878,1867,1857,1844,1834,1820,1808,1797,1787,1777,1769,1761,1757,1756,1752,1752,1751,1749,1746,1742,1738,1732,1726,1717,1707,1696,1682,1668,1654,1639,1623,1609,1595,1586,1576,1567,1558,1551,1547,1543,1541,1542,1540,1541,1542,1541,1541,1542,1543,1545,1542,1539,1535,1530,1526,1518,1509,1499,1490,1484,1480,1478,1481,1490,1502,1520,1542,1568,1597,1630,1665,1703,1742,1785,1826,1868,1908,1951,1993,2037,2079,2120,2160,2196,2247,2282,2310,2331,2348,2361,2368,2372,2374,2372,2368,2364,2358,2354,2347,2344,2342,2336,2332,2325,2316,2307,2298,2288,2278,2273,2270,2271,2271,2268,2266,2265,2259,2252,2243,2235,2223,2212,2200,2186,2176,2165,2159,2155,2150,2147,2143,2137,2132,2125,2118,2113,2109,2106,2103,2099,2094,2084,2073,2059,2045,2033,2021,2008,1996,1986,1979,1971,1964,1957,1949,1942,1931,1925,1920,1912,1907,1901,1896,1888,1884,1882,1879,1878,1877,1879,1880,1881,1885,1885,1890,1893,1893,1889,1885,1879,1872,1866,1858,1850,1840,1829,1817,1804,1792,1778,1762,1747,1729,1710,1692,1671,1653,1635,1622,1611,1603,1600,1597,1597,1600,1602,1605,1608,1614,1621,1628,1637,1646,1656,1665,1674,1685,1692,1698,1702,1706,1711,1713,1715,1719,1721,1720,1720,1721,1723,1727,1731,1735,1741,1747,1755,1763,1771,1781,1788,1794,1800,1805,1809,1813,1815,1814,1812,1808,1803,1800,1799,1798,1799,1802,1807,1817,1830,1849,1871,1897,1926,1959,1993,2033,2075,2119,2165,2210,2257,2303,2347,2392,2432,2471,2507,2542,2574,2613,2637,2653,2664,2670,2672,2670,2667,2657,2646,2633,2618,2602,2586,2571,2558,2541,2525,2512,2497,2485,2475,2466,2459,2458,2455,2457,2461,2464,2466,2468,2470,2469,2469,2467,2464,2459,2453,2446,2443,2439,2435,2429,2423,2415,2403,2391,2376,2360,2347,2331,2319,2304,2292,2280,2269,2260,2252,2244,2236,2229,2220,2213,2210,2204,2198,2194,2189,2184,2180,2179,2179,2179,2180,2182,2182,2182,2183,2181,2179,2174,2171,2166,2156,2147,2136,2127,2116,2102,2090,2078,2066,2056,2046,2037,2028,2017,2006,1994,1984,1976,1968,1962,1956,1951,1945,1940,1934,1928,1920,1913,1902,1893,1882,1872,1862,1850,1837,1825,1809,1791,1776,1761,1745,1735,1725,1718,1712,1709,1707,1703,1702,1702,1704,1706,1710,1714,1719,1725,1730,1733,1732,1729,1723,1714,1704,1692,1680,1669,1657,1647,1633,1621,1611,1604,1596,1590,1591,1590,1588,1586,1583,1580,1577,1574,1570,1566,1561,1558,1555,1551,1550,1549,1549,1548,1544,1542,1538,1533,1527,1520,1515,1507,1499,1496,1489,1485,1485,1483,1479,1478,1477,1477,1476,1476,1479,1481,1490,1497,1511,1527,1548,1575,1607,1641,1681,1724,1769,1817,1866,1915,1964,2016,2064,2111,2156,2198,2238,2278,2316,2367,2405,2433,2458,2480,2498,2512,2523,2530,2533,2535,2532,2527,2520,2510,2500,2486,2472,2458,2444,2430,2420,2409,2399,2389,2379,2368,2356,2345,2336,2327,2319,2315,2313,2310,2307,2305,2303,2302,2302,2300,2301,2300,2299,2298,2295,2290,2286,2277,2267,2257,2243,2228,2213,2202,2190,2180,2171,2165,2160,2154,2148,2141,2135,2129,2123,2121,2123,2125,2128,2130,2134,2134,2134,2131,2129,2125,2121,2115,2111,2105,2104,2100,2098,2097,2093,2090,2086,2081,2075,2068,2059,2047,2034,2017,2000,1981,1963,1945,1926,1913,1904,1898,1893,1891,1889,1889,1890,1891,1891,1892,1894,1891,1888,1880,1876,1868,1861,1852,1845,1834,1824,1813,1802,1791,1779,1764,1750,1738,1727,1716,1705,1696,1689,1680,1671,1660,1651,1639,1628,1618,1611,1604,1600,1595,1592,1589,1589,1590,1593,1599,1605,1612,1617,1623,1628,1634,1640,1645,1647,1650,1649,1648,1643,1639,1636,1636,1636,1638,1642,1644,1647,1651,1654,1656,1657,1658,1655,1651,1646,1640,1635,1631,1625,1620,1613,1602,1591,1578,1564,1550,1544,1534,1529,1525,1525,1524,1526,1527,1528,1526,1522,1517,1515,1510,1506,1502,1503,1501,1500,1495,1492,1488,1483,1477,1468,1461,1455,1450,1448,1450,1454,1458,1465,1476,1489,1506,1527,1552,1582,1614,1649,1684,1721,1756,1793,1830,1869,1910,1953,1997,2041,2087,2134,2179,2246,2295,2332,2364,2390,2415,2432,2445,2458,2468,2475,2477,2478,2472,2462,2449,2433,2413,2393,2372,2350,2331,2310,2294,2277,2260,2244,2228,2215,2202,2193,2183,2173,2168,2163,2163,2164,2164,2163,2158,2152,2146,2142,2140,2140,2141,2139,2136,2135,2130,2128,2122,2116,2110,2105,2104,2102,2100,2099,2099,2095,2091,2087,2082,2077,2075,2073,2073,2073,2075,2077,2079,2083,2084,2087,2087,2088,2087,2086,2084,2082,2083,2086,2089,2091,2093,2095,2096,2093,2088,2084,2079,2072,2068,2063,2057,2050,2041,2033,2024,2013,2002,1990,1979,1965,1953,1941,1927,1917,1908,1898,1891,1885,1879,1871,1864,1856,1850,1839,1829,1816,1804,1790,1779,1768,1759,1752,1747,1744,1742,1744,1744,1746,1748,1750,1750,1752,1752,1749,1747,1741,1738,1731,1727,1723,1722,1721,1719,1717,1715,1710,1705,1697,1689,1679,1670,1657,1643,1626,1611,1597,1583,1575,1564,1559,1554,1552,1553,1554,1557,1561,1566,1571,1577,1584,1593,1598,1602,1604,1602,1596,1588,1579,1571,1564,1558,1555,1550,1548,1545,1543,1538,1533,1530,1523,1513,1505,1494,1486,1474,1467,1459,1454,1448,1444,1442,1438,1435,1432,1429,1428,1428,1426,1424,1421,1419,1421,1423,1425,1426,1427,1425,1422,1418,1412,1405,1396,1390,1385,1386,1393,1406,1427,1452,1482,1519,1559,1603,1648,1696,1746,1796,1844,1892,1938,1985,2029,2072,2111,2149,2183,2231,2263,2286,2304,2318,2328,2335,2341,2347,2352,2354,2353,2350,2345,2339,2330,2321,2312,2301,2292,2282,2274,2266,2258,2249,2237,2227,2216,2206,2194,2185,2172,2158,2143,2128,2113,2098,2082,2067,2052,2037,2024,2014,2005,1996,1986,1980,1971,1965,1961,1956,1955,1957,1960,1964,1970,1978,1987,1997,2007,2019,2028,2038,2047,2055,2063,2075,2087,2103,2116,2128,2136,2141,2146,2147,2143,2137,2128,2116,2103,2091,2077,2067,2057,2048,2041,2033,2026,2018,2009,2002,1993,1982,1974,1965,1957,1948,1938,1929,1920,1909,1900,1890,1881,1872,1862,1854,1847,1841,1833,1828,1823,1821,1819,1819,1819,1818,1815,1810,1803,1796,1789,1779,1768,1757,1746,1732,1720,1709,1697,1686,1674,1661,1652,1643,1635,1629,1626,1620,1614,1608,1604,1598,1593,1588,1583,1579,1574,1569,1567,1564,1564,1566,1569,1575,1579,1584,1587,1589,1588,1584,1582,1579,1579,1573,1570,1568,1567,1569,1571,1573,1574,1577,1576,1575,1574,1571,1568,1564,1555,1545,1535,1526,1517,1511,1507,1504,1502,1501,1499,1499,1497,1496,1490,1482,1472,1460,1447,1433,1422,1414,1408,1403,1398,1394,1389,1384,1379,1374,1373,1375,1375,1379,1384,1392,1401,1413,1426,1442,1461,1483,1511,1545,1582,1624,1667,1713,1761,1808,1859,1909,1963,2014,2063,2109,2152,2194,2234,2271,2321,2357,2382,2401,2419,2431,2441,2450,2456,2459,2458,2457,2453,2448,2444,2436,2427,2415,2402,2388,2373,2358,2345,2329,2313,2297,2280,2262,2246,2230,2214,2199,2184,2170,2158,2145,2132,2119,2105,2091,2078,2065,2054,2046,2040,2039,2036,2037,2036,2039,2042,2048,2055,2063,2073,2083,2089,2098,2106,2111,2116,2118,2119,2123,2126,2125,2126,2123,2121,2117,2113,2108,2104,2100,2093,2087,2081,2074,2064,2054,2044,2035,2024,2018,2014,2010,2008,2004,2000,1997,1993,1989,1982,1976,1965,1952,1939,1927,1915,1906,1897,1887,1878,1867,1856,1845,1836,1831,1824,1820,1815,1810,1806,1799,1790,1779,1768,1756,1744,1732,1720,1705,1693,1681,1671,1661,1653,1647,1642,1639,1637,1634,1631,1627,1620,1613,1606,1598,1590,1584,1575,1569,1560,1553,1543,1533,1524,1512,1500,1488,1477,1466,1458,1454,1450,1446,1446,1449,1453,1458,1465,1477,1488,1501,1512,1525,1536,1547,1553,1561,1567,1569,1569,1562,1554,1546,1532,1518,1504,1490,1478,1468,1460,1452,1447,1443,1442,1442,1444,1450,1456,1462,1471,1478,1482,1485,1490,1493,1497,1504,1515,1526,1537,1547,1557,1568,1574,1584,1592,1602,1614,1630,1651,1675,1704,1739,1780,1823,1872,1924,1977,2032,2086,2140,2191,2241,2288,2333,2371,2409,2441,2469,2505,2532,2552,2566,2577,2582,2582,2577,2569,2558,2544,2531,2517,2504,2491,2481,2467,2456,2445,2431,2416,2400,2383,2367,2349,2336,2322,2311,2301,2294,2287,2281,2274,2269,2262,2257,2252,2247,2242,2235,2227,2219,2207,2193,2181,2169,2157,2145,2135,2128,2120,2117,2116,2121,2126,2138,2153,2170,2186,2205,2223,2237,2250,2260,2265,2268,2268,2264,2261,2259,2258,2257,2257,2252,2250,2244,2238,2234,2228,2223,2214,2206,2195,2184,2171,2155,2139,2124,2106,2093,2078,2069,2060,2053,2051,2048,2046,2045,2046,2048,2048,2048,2048,2048,2045,2043,2038,2034,2028,2023,2014,2004,1989,1977,1963,1947,1935,1926,1918,1914,1912,1910,1910,1909,1909,1908,1907,1907,1906,1902,1895,1889,1877,1867,1858,1846,1837,1829,1824,1821,1814,1811,1808,1799,1788,1777,1765,1754,1741,1727,1712,1699,1688,1679,1672,1668,1665,1666,1669,1672,1676,1682,1686,1689,1691,1692,1692,1689,1687,1685,1681,1678,1673,1667,1660,1651,1644,1634,1625,1617,1612,1605,1597,1589,1580,1573,1564,1557,1552,1551,1547,1541,1537,1529,1522,1515,1510,1508,1505,1505,1508,1515,1528,1544,1564,1585,1610,1637,1667,1701,1740,1781,1824,1873,1923,1975,2027,2081,2131,2181,2230,2278,2325,2370,2415,2479,2526,2562,2593,2625,2655,2680,2705,2727,2744,2758,2766,2773,2775,2777,2772,2768,2759,2750,2739,2730,2716,2705,2688,2670,2647,2627,2606,2585,2565,2546,2529,2515,2503,2493,2485,2478,2472,2469,2465,2462,2460,2458,2456,2454,2453,2450,2449,2450,2450,2451,2451,2452,2453,2453,2451,2449,2445,2441,2435,2429,2424,2416,2411,2403,2397,2389,2380,2374,2367,2363,2357,2351,2347,2342,2336,2329,2325,2318,2312,2309,2306,2301,2297,2295,2292,2290,2288,2283,2277,2269,2261,2252,2244,2235,2230,2221,2213,2209,2208,2207,2206,2205,2202,2198,2192,2189,2182,2174,2165,2155,2143,2130,2118,2105,2094,2085,2076,2067,2060,2056,2051,2048,2042,2038,2028,2018,2007,1994,1981,1967,1954,1942,1929,1917,1906,1894,1886,1875,1866,1854,1845,1836,1828,1821,1818,1814,1810,1808,1806,1808,1811,1813,1816,1820,1824,1829,1833,1837,1839,1839,1835,1829,1822,1813,1800,1789,1776,1763,1747,1732,1720,1710,1701,1695,1692,1692,1694,1697,1700,1705,1708,1709,1712,1717,1726,1735,1746,1761,1778,1797,1818,1844,1874,1907,1941,1974,2008,2042,2080,2116,2154,2193,2233,2276,2324,2373,2422,2472,2521,2564,2624,2663,2688,2704,2718,2727,2732,2737,2738,2739,2741,2742,2742,2742,2740,2737,2734,2725,2715,2704,2690,2675,2659,2638,2618,2596,2577,2559,2545,2532,2517,2501,2483,2462,2441,2419,2396,2374,2352,2334,2315,2298,2285,2273,2263,2255,2247,2240,2234,2231,2229,2228,2223,2219,2216,2213,2210,2210,2208,2211,2212,2215,2216,2220,2224,2226,2226,2225,2225,2229,2232,2239,2245,2253,2259,2267,2271,2277,2283,2289,2293,2294,2290,2284,2274,2260,2246,2231,2217,2204,2194,2186,2181,2177,2174,2169,2167,2165,2161,2154,2149,2143,2135,2128,2118,2108,2096,2081,2067,2053,2040,2026,2011,1999,1988,1980,1972,1962,1953,1945,1934,1923,1914,1903,1893,1882,1872,1861,1851,1843,1832,1820,1808,1794,1780,1765,1751,1739,1725,1712,1702,1693,1685,1679,1674,1668,1660,1653,1645,1642,1640,1644,1650,1659,1670,1679,1697,1714,1737,1764,1795,1830,1870,1912,1957,2005,2052,2101,2152,2202,2253,2302,2351,2397,2443,2484,2523,2558,2603,2634,2655,2676,2694,2711,2724,2737,2745,2749,2753,2752,2749,2746,2740,2735,2726,2715,2704,2693,2680,2668,2654,2643,2631,2622,2613,2603,2595,2589,2580,2571,2562,2555,2548,2542,2537,2532,2526,2516,2502,2486,2468,2448,2425,2407,2390,2376,2363,2351,2340,2326,2312,2299,2284,2272,2260,2250,2247,2243,2243,2246,2250,2257,2263,2271,2276,2276,2275,2272,2269,2265,2261,2258,2252,2247,2241,2234,2228,2222,2217,2210,2203,2193,2185,2176,2169,2161,2154,2147,2141,2136,2131,2125,2118,2112,2108,2107,2104,2102,2099,2096,2092,2086,2081,2073,2063,2049,2036,2024,2010,1994,1978,1961,1943,1924,1905,1888,1873,1856,1840,1826,1812,1801,1791,1779,1771,1764,1754,1747,1742,1739,1736,1735,1737,1736,1736,1736,1736,1737,1737,1737,1735,1733,1728,1721,1713,1702,1692,1683,1673,1661,1649,1636,1622,1609,1600,1590,1585,1581,1576,1573,1572,1574,1580,1593,1613,1636,1662,1694,1729,1768,1810,1856,1906,1958,2010,2068,2125,2185,2243,2299,2356,2411,2465,2521,2575,2651,2714,2761,2808,2850,2891,2928,2957,2982,3001,3015,3026,3033,3034,3033,3030,3022,3012,2999,2985,2970,2956,2942,2927,2912,2896,2878,2861,2842,2821,2801,2783,2763,2747,2735,2724,2716,2708,2701,2693,2688,2679,2674,2669,2666,2663,2659,2654,2647,2641,2632,2624,2616,2608,2597,2587,2578,2568,2558,2550,2541,2532,2525,2518,2512,2508,2503,2499,2491,2484,2476,2467,2455,2446,2438,2432,2431,2428,2430,2431,2434,2435,2437,2440,2445,2448,2454,2458,2463,2465,2464,2462,2459,2454,2448,2439,2426,2412,2397,2382,2366,2349,2332,2314,2297,2281,2268,2256,2244,2235,2227,2218,2207,2194,2180,2168,2155,2145,2131,2118,2103,2090,2074,2059,2047,2034,2022,2010,1999,1988,1974,1958,1943,1925,1907,1890,1874,1857,1843,1830,1818,1808,1795,1783,1772,1762,1752,1745,1740,1734,1731,1727,1726,1725,1725,1727,1728,1730,1732,1732,1734,1733,1731,1728,1723,1717,1710,1701,1694,1687,1682,1677,1673,1669,1665,1660,1657,1652,1648,1643,1640,1636,1637,1636,1637,1638,1639,1642,1646,1652,1660,1670,1687,1705,1732,1762,1796,1837,1877,1921,1968,2017,2065,2115,2167,2219,2272,2323,2373,2422,2466,2506,2544,2591,2624,2645,2662,2676,2686,2695,2703,2707,2707,2706,2705,2702,2698,2694,2689,2684,2676,2669,2663,2656,2651,2644,2635,2628,2621,2614,2609,2605,2598,2592,2585,2578,2569,2559,2550,2536,2523,2508,2492,2479,2459,2443,2426,2407,2388,2370,2351,2333,2317,2305,2291,2279,2270,2260,2254,2244,2237,2229,2225,2222,2221,2224,2227,2232,2237,2242,2244,2243,2240,2235,2229,2224,2218,2209,2199,2188,2178,2167,2160,2153,2148,2143,2141,2141,2141,2142,2142,2141,2138,2132,2127,2121,2116,2108,2104,2096,2088,2079,2070,2062,2052,2041,2032,2025,2018,2011,2004,1994,1981,1966,1951,1939,1927,1918,1907,1898,1888,1878,1866,1853,1841,1828,1815,1798,1785,1772,1760,1748,1737,1724,1712,1702,1692,1685,1679,1676,1670,1669,1667,1666,1660,1656,1650,1644,1637,1631,1625,1620,1614,1611,1610,1611,1611,1611,1614,1615,1615,1612,1611,1605,1600,1595,1592,1589,1588,1584,1580,1576,1569,1562,1555,1549,1543,1537,1531,1526,1521,1518,1513,1508,1505,1499,1491,1482,1475,1467,1457,1450,1443,1438,1433,1426,1423,1419,1414,1410,1407,1407,1406,1408,1411,1413,1417,1417,1420,1421,1420,1418,1414,1411,1409,1407,1403,1400,1394,1390,1387,1388,1393,1400,1410,1421,1436,1452,1473,1496,1524,1555,1589,1626,1667,1710,1759,1807,1861,1915,1971,2028,2083,2134,2182,2228,2272,2313,2350,2401,2440,2468,2497,2520,2539,2557,2571,2583,2594,2601,2607,2609,2604,2597,2589,2579,2565,2551,2535,2518,2499,2480,2461,2444,2426,2410,2396,2384,2372,2359,2351,2340,2329,2318,2304,2291,2276,2260,2242,2223,2203,2180,2158,2137,2118,2100,2086,2071,2059,2049,2041,2036,2032,2029,2028,2024,2024,2023,2025,2023,2027,2031,2035,2041,2043,2047,2050,2053,2056,2062,2067,2071,2072,2070,2063,2056,2043,2028,2015,2001,1986,1970,1958,1944,1933,1923,1916,1909,1902,1896,1891,1888,1885,1879,1871,1864,1857,1847,1838,1828,1818,1810,1803,1798,1791,1783,1772,1762,1753,1746,1739,1735,1730,1728,1726,1725,1723,1726,1727,1729,1732,1737,1740,1743,1745,1746,1745,1742,1736,1731,1725,1716,1709,1702,1697,1692,1687,1684,1681,1680,1680,1677,1677,1674,1674,1672,1673,1673,1672,1673,1674,1676,1675,1673,1673,1670,1669,1667,1668,1670,1673,1676,1681,1688,1692,1697,1697,1695,1690,1681,1673,1662,1653,1645,1639,1633,1628,1621,1616,1606,1598,1590,1579,1568,1561,1552,1543,1535,1530,1526,1526,1527,1526,1530,1533,1536,1538,1541,1546,1549,1552,1553,1553,1555,1554,1553,1551,1554,1554,1558,1566,1576,1591,1608,1629,1653,1679,1709,1737,1769,1802,1837,1875,1919,1963,2010,2058,2107,2155,2200,2242,2283,2321,2353,2381,2415,2438,2452,2459,2463,2464,2460,2457,2452,2448,2443,2434,2424,2412,2397,2381,2364,2344,2325,2306,2289,2275,2265,2258,2252,2246,2242,2233,2225,2214,2203,2187,2173,2158,2145,2130,2118,2107,2097,2085,2073,2058,2046,2033,2023,2012,2003,1993,1984,1979,1976,1974,1975,1978,1981,1985,1990,1993,1998,2007,2016,2027,2040,2051,2063,2075,2084,2092,2098,2104,2108,2111,2115,2116,2120,2123,2124,2123,2120,2116,2111,2105,2100,2096,2087,2078,2068,2055,2040,2023,2007,1992,1978,1965,1950,1937,1921,1905,1892,1876,1864,1852,1839,1833,1828,1823,1820,1819,1817,1816,1810,1806,1801,1795,1788,1779,1768,1756,1743,1726,1713,1701,1692,1685,1681,1680,1676,1676,1673,1670,1666,1663,1654,1649,1642,1635,1628,1620,1611,1604,1598,1596,1593,1587,1586,1580,1574,1569,1565,1560,1560,1559,1560,1561,1564,1565,1569,1571,1572,1572,1572,1573,1572,1572,1568,1564,1560,1554,1549,1544,1543,1541,1542,1540,1536,1531,1525,1519,1511,1502,1493,1483,1471,1458,1451,1441,1436,1433,1434,1437,1443,1454,1470,1493,1521,1556,1593,1634,1681,1731,1784,1840,1897,1952,2008,2063,2116,2167,2221,2272,2321,2368,2431,2481,2516,2544,2570,2590,2606,2619,2626,2629,2628,2624,2618,2612,2603,2593,2581,2572,2563,2555,2549,2541,2534,2528,2521,2514,2510,2506,2504,2502,2500,2500,2498,2494,2489,2480,2475,2468,2457,2448,2439,2429,2421,2415,2408,2400,2396,2392,2390,2388,2389,2385,2380,2375,2368,2360,2353,2345,2335,2324,2311,2301,2290,2282,2277,2274,2271,2267,2263,2258,2253,2247,2241,2237,2233,2229,2227,2225,2224,2224,2226,2229,2230,2232,2234,2237,2238,2239,2238,2235,2231,2224,2216,2207,2200,2192,2182,2171,2160,2153,2145,2137,2131,2125,2119,2111,2103,2092,2080,2069,2056,2047,2039,2030,2021,2012,2005,1998,1990,1984,1977,1971,1963,1954,1943,1934,1924,1915,1902,1887,1872,1856,1841,1827,1814,1803,1793,1784,1776,1770,1768,1764,1759,1754,1749,1743,1739,1732,1725,1718,1714,1711,1708,1706,1704,1698,1694,1689,1683,1678,1674,1669,1666,1663,1659,1658,1658,1659,1661,1660,1658,1656,1652,1646,1640,1634,1626,1618,1610,1603,1596,1590,1583,1577,1571,1566,1560,1553,1545,1537,1529,1521,1515,1512,1511,1509,1509,1509,1509,1508,1509,1509,1511,1512,1514,1513,1514,1518,1524,1533,1546,1561,1581,1603,1628,1658,1693,1730,1770,1813,1854,1901,1945,1993,2037,2086,2133,2180,2225,2269,2307,2341,2384,2416,2438,2455,2471,2482,2490,2497,2501,2503,2505,2503,2498,2494,2486,2479,2470,2460,2450,2439,2428,2418,2406,2397,2384,2372,2361,2347,2334,2324,2312,2298,2288,2278,2269,2260,2251,2245,2236,2230,2221,2211,2203,2192,2180,2169,2159,2149,2143,2139,2133,2128,2125,2123,2119,2118,2115,2112,2110,2106,2102,2099,2098,2096,2093,2091,2088,2083,2077,2075,2073,2074,2073,2073,2071,2067,2059,2051,2039,2028,2019,2009,2006,2001,2000,1997,1994,1990,1988,1983,1978,1973,1968,1964,1958,1948,1938,1927,1914,1900,1888,1875,1860,1844,1826,1806,1784,1761,1741,1724,1710,1694,1680,1664,1647,1633,1617,1601,1585,1572,1558,1549,1541,1534,1528,1525,1522,1520,1515,1511,1507,1504,1502,1500,1497,1499,1502,1504,1507,1510,1515,1515,1514,1510,1506,1497,1485,1471,1456,1442,1427,1412,1398,1387,1376,1364,1353,1343,1335,1326,1319,1311,1303,1300,1298,1299,1302,1306,1311,1315,1314,1312,1309,1304,1295,1290,1281,1273,1262,1255,1249,1247,1250,1257,1268,1284,1303,1326,1353,1385,1418,1455,1495,1537,1581,1629,1677,1726,1776,1828,1882,1932,1982,2030,2071,2129,2172,2203,2231,2255,2277,2295,2309,2321,2327,2331,2332,2327,2322,2316,2308,2301,2294,2288,2280,2272,2260,2252,2241,2230,2218,2207,2195,2183,2170,2153,2137,2116,2091,2069,2046,2026,2006,1987,1971,1954,1940,1928,1918,1910,1902,1901,1898,1899,1899,1898,1901,1902,1906,1910,1915,1921,1929,1936,1943,1952,1961,1968,1974,1981,1984,1985,1984,1982,1979,1972,1966,1959,1951,1946,1940,1938,1939,1942,1945,1947,1947,1947,1946,1944,1940,1933,1922,1908,1896,1881,1869,1855,1839,1825,1816,1809,1802,1793,1784,1775,1763,1751,1738,1725,1711,1696,1682,1668,1653,1636,1625,1615,1609,1606,1606,1607,1612,1617,1621,1624,1630,1633,1636,1640,1645,1652,1658,1664,1669,1674,1679,1685,1686,1689,1690,1690,1686,1680,1674,1668,1661,1658,1653,1648,1645,1638,1632,1626,1619,1614,1611,1606,1604,1603,1604,1606,1613,1623,1637,1655,1679,1706,1741,1779,1821,1866,1911,1960,2010,2060,2112,2162,2210,2258,2303,2346,2387,2425,2461,2515,2556,2584,2609,2630,2650,2667,2682,2698,2710,2725,2731,2737,2739,2738,2736,2732,2729,2724,2719,2715,2711,2705,2696,2687,2676,2666,2650,2638,2626,2614,2606,2596,2588,2580,2572,2564,2553,2540,2528,2517,2504,2493,2482,2472,2460,2454,2445,2435,2425,2418,2411,2406,2404,2404,2405,2404,2403,2403,2398,2392,2384,2375,2366,2356,2344,2332,2318,2305,2292,2279,2267,2258,2251,2248,2247,2249,2252,2260,2269,2282,2296,2305,2312,2318,2320,2317,2313,2302,2289,2275,2260,2246,2233,2220,2206,2195,2183,2174,2164,2155,2145,2131,2119,2108,2097,2090,2081,2074,2066,2056,2047,2035,2023,2013,2002,1988,1974,1962,1950,1938,1927,1918,1910,1904,1898,1893,1889,1886,1880,1874,1869,1862,1858,1852,1849,1845,1840,1835,1832,1826,1821,1813,1805,1796,1789,1779,1771,1764,1757,1751,1746,1742,1741,1738,1740,1739,1740,1740,1742,1740,1738,1731,1727,1721,1716,1710,1706,1699,1695,1689,1684,1682,1684,1690,1701,1714,1731,1750,1775,1801,1834,1867,1906,1944,1985,2030,2079,2132,2182,2236,2290,2340,2390,2440,2487,2534,2580,2647,2700,2739,2776,2812,2843,2872,2898,2918,2934,2945,2952,2953,2951,2946,2935,2919,2903,2883,2864,2843,2821,2798,2776,2755,2734,2716,2700,2686,2671,2657,2644,2630,2613,2598,2585,2574,2563,2554,2548,2542,2533,2525,2514,2503,2491,2476,2464,2451,2440,2430,2424,2419,2415,2415,2416,2419,2428,2434,2439,2444,2446,2448,2442,2435,2426,2420,2414,2408,2402,2394,2384,2374,2364,2355,2351,2345,2342,2340,2338,2338,2338,2340,2345,2348,2353,2355,2357,2359,2359,2358,2357,2355,2350,2342,2334,2325,2314,2301,2284,2266,2244,2222,2199,2178,2157,2138,2121,2108,2094,2078,2064,2052,2040,2031,2021,2014,2005,1997,1990,1979,1971,1964,1956,1952,1945,1939,1931,1923,1911,1898,1884,1868,1853,1836,1821,1805,1793,1779,1766,1755,1741,1731,1717,1708,1697,1688,1682,1675,1671,1667,1665,1663,1660,1657,1655,1653,1652,1648,1647,1642,1636,1632,1622,1612,1599,1587,1576,1567,1555,1546,1536,1528,1518,1513,1511,1509,1507,1506,1503,1498,1494,1489,1482,1478,1475,1472,1470,1469,1466,1462,1457,1450,1444,1437,1431,1425,1420,1417,1411,1409,1408,1410,1413,1415,1417,1420,1419,1420,1417,1416,1414,1414,1410,1406,1402,1396,1390,1383,1376,1369,1361,1356,1350,1347,1341,1340,1338,1338,1340,1342,1347,1354,1358,1363,1368,1372,1376,1382,1393,1407,1426,1449,1478,1511,1549,1593,1642,1696,1757,1824,1893,1965,2035,2104,2169,2231,2291,2347,2398,2451,2499,2544,2600,2636,2662,2680,2694,2707,2715,2719,2722,2722,2718,2713,2704,2691,2680,2667,2653,2636,2622,2608,2595,2582,2570,2560,2550,2540,2531,2520,2510,2498,2484,2472,2462,2447,2435,2421,2409,2397,2385,2376,2365,2355,2344,2331,2322,2311,2300,2288,2272,2259,2244,2229,2216,2205,2194,2183,2173,2167,2163,2162,2165,2175,2187,2199,2210,2221,2231,2238,2243,2247,2249,2247,2244,2238,2230,2220,2211,2203,2197,2190,2185,2180,2173,2165,2156,2146,2137,2126,2117,2110,2104,2098,2092,2084,2076,2065,2054,2041,2026,2011,1997,1980,1961,1944,1927,1911,1896,1880,1867,1853,1843,1832,1826,1822,1816,1810,1803,1794,1785,1776,1765,1755,1747,1739,1729,1719,1711,1704,1701,1700,1701,1700,1700,1699,1694,1691,1687,1680,1670,1662,1652,1646,1641,1637,1631,1623,1614,1604,1595,1584,1574,1564,1554,1543,1533,1524,1513,1502,1495,1490,1490,1490,1490,1493,1499,1507,1513,1522,1532,1541,1551,1558,1563,1564,1564,1561,1558,1551,1546,1541,1538,1536,1535,1535,1532,1528,1524,1519,1511,1502,1493,1482,1474,1466,1460,1452,1445,1440,1434,1431,1425,1421,1417,1411,1405,1398,1391,1382,1376,1368,1365,1362,1359,1357,1357,1356,1357,1354,1350,1346,1344,1339,1332,1325,1319,1309,1298,1288,1279,1273,1266,1260,1258,1253,1250,1249,1248,1248,1248,1251,1254,1263,1271,1284,1300,1320,1349,1382,1423,1469,1520,1575,1629,1687,1747,1806,1866,1929,1991,2051,2109,2168,2221,2273,2318,2377,2417,2443,2467,2487,2505,2523,2538,2551,2559,2566,2570,2567,2562,2554,2541,2525,2508,2492,2477,2463,2448,2437,2426,2416,2405,2397,2389,2380,2368,2358,2345,2329,2313,2298,2281,2266,2250,2234,2220,2206,2194,2183,2174,2169,2166,2163,2161,2160,2160,2161,2163,2169,2172,2176,2180,2184,2189,2192,2199,2204,2211,2215,2220,2221,2224,2225,2225,2224,2225,2222,2219,2220,2219,2217,2212,2207,2199,2190,2181,2171,2163,2158,2151,2147,2146,2146,2146,2144,2141,2138,2129,2119,2109,2095,2080,2065,2050,2037,2024,2013,2004,1996,1989,1984,1981,1976,1975,1972,1969,1965,1960,1957,1953,1948,1943,1937,1930,1922,1913,1901,1891,1877,1865,1850,1838,1824,1812,1802,1795,1789,1782,1777,1769,1762,1755,1750,1745,1741,1734,1727,1720,1712,1708,1703,1700,1700,1699,1701,1701,1703,1703,1702,1704,1704,1706,1702,1699,1692,1685,1673,1660,1646,1631,1615,1600,1588,1578,1569,1560,1550,1541,1531,1521,1513,1505,1500,1498,1495,1496,1498,1500,1507,1514,1525,1535,1544,1552,1559,1563,1567,1570,1576,1579,1580,1579,1576,1573,1565,1558,1547,1540,1529,1521,1512,1504,1495,1488,1480,1471,1464,1456,1448,1438,1428,1415,1402,1388,1374,1363,1354,1346,1338,1332,1325,1318,1312,1304,1298,1288,1281,1274,1268,1267,1267,1268,1271,1274,1280,1286,1297,1310,1323,1339,1355,1374,1394,1421,1452,1486,1523,1565,1608,1657,1709,1766,1821,1876,1931,1987,2040,2091,2139,2187,2231,2272,2308,2356,2389,2411,2430,2444,2454,2458,2458,2454,2448,2443,2434,2424,2416,2405,2395,2385,2373,2362,2349,2334,2317,2298,2276,2254,2231,2211,2192,2176,2162,2152,2142,2132,2118,2103,2088,2071,2053,2034,2016,2002,1984,1969,1958,1947,1940,1934,1931,1932,1935,1940,1951,1961,1970,1980,1988,1999,2010,2019,2027,2034,2040,2044,2047,2049,2053,2054,2054,2053,2048,2045,2041,2038,2034,2035,2034,2033,2035,2032,2030,2028,2027,2025,2022,2019,2014,2009,2003,1993,1981,1969,1958,1944,1930,1917,1905,1891,1877,1862,1848,1837,1827,1819,1811,1804,1796,1789,1782,1774,1766,1755,1749,1741,1734,1730,1725,1720,1716,1712,1707,1704,1701,1697,1691,1685,1682,1675,1670,1663,1659,1655,1654,1653,1654,1655,1655,1656,1656,1657,1654,1650,1645,1641,1636,1631,1626,1625,1621,1618,1613,1608,1601,1593,1585,1579,1574,1573,1571,1573,1575,1577,1580,1584,1589,1595,1603,1612,1622,1630,1640,1650,1663,1674,1688,1697,1710,1720,1727,1732,1733,1733,1729,1723,1714,1704,1693,1680,1667,1652,1639,1625,1612,1598,1585,1573,1560,1550,1541,1533,1526,1522,1517,1515,1514,1515,1514,1515,1515,1510,1504,1499,1491,1484,1475,1471,1466,1463,1460,1460,1462,1462,1467,1475,1487,1500,1520,1546,1577,1614,1656,1702,1752,1802,1857,1915,1977,2040,2102,2162,2224,2284,2339,2389,2436,2476,2510,2554,2585,2608,2625,2637,2646,2650,2651,2648,2643,2634,2625,2616,2609,2602,2595,2588,2576,2567,2557,2546,2535,2522,2508,2493,2477,2461,2446,2432,2422,2413,2404,2397,2389,2381,2374,2366,2358,2348,2336,2326,2312,2300,2287,2276,2264,2253,2244,2234,2225,2219,2208,2200,2193,2186,2181,2176,2176,2173,2173,2175,2179,2181,2184,2186,2186,2185,2186,2186,2192,2198,2205,2214,2225,2235,2245,2254,2261,2266,2269,2269,2266,2263,2256,2246,2238,2227,2219,2210,2202,2193,2185,2180,2171,2162,2153,2141,2128,2112,2099,2084,2070,2057,2045,2034,2021,2008,1995,1985,1974,1964,1958,1952,1947,1939,1936,1930,1927,1923,1918,1911,1904,1897,1888,1879,1867,1854,1839,1823,1807,1792,1777,1763,1749,1734,1719,1704,1690,1675,1662,1651,1643,1637,1630,1624,1621,1619,1619,1621,1623,1627,1632,1634,1635,1634,1633,1627,1621,1615,1610,1605,1602,1600,1598,1598,1598,1597,1590,1585,1578,1567,1557,1549,1539,1534,1531,1529,1529,1533,1536,1537,1539,1538,1537,1534,1530,1525,1521,1518,1518,1519,1522,1523,1526,1531,1532,1533,1531,1527,1520,1512,1505,1496,1488,1478,1473,1468,1464,1460,1461,1461,1462,1462,1461,1460,1457,1456,1453,1453,1453,1451,1453,1454,1453,1454,1452,1453,1455,1462,1469,1482,1499,1518,1543,1572,1605,1642,1682,1727,1774,1824,1875,1931,1988,2045,2104,2162,2219,2277,2334,2392,2446,2497,2547,2614,2662,2697,2729,2756,2782,2804,2824,2842,2854,2862,2868,2868,2864,2856,2847,2837,2822,2803,2784,2760,2735,2709,2684,2659,2634,2610,2589,2568,2551,2537,2524,2515,2507,2500,2491,2483,2474,2464,2453,2440,2428,2414,2400,2386,2373,2364,2354,2346,2341,2333,2330,2325,2322,2321,2322,2321,2322,2324,2327,2331,2338,2349,2361,2373,2384,2393,2401,2405,2411,2415,2416,2414,2411,2406,2398,2393,2389,2386,2383,2380,2379,2377,2376,2376,2375,2377,2381,2385,2388,2390,2394,2397,2396,2395,2392,2386,2377,2369,2360,2351,2344,2334,2327,2320,2312,2306,2296,2286,2273,2256,2237,2216,2196,2174,2152,2132,2113,2096,2080,2065,2054,2042,2034,2026,2020,2015,2011,2004,1999,1994,1990,1984,1977,1967,1956,1945,1931,1919,1905,1891,1875,1860,1844,1828,1812,1799,1788,1778,1769,1761,1756,1754,1752,1750,1750,1747,1745,1742,1739,1740,1739,1739,1740,1743,1746,1748,1748,1749,1750,1751,1754,1755,1756,1758,1760,1761,1761,1763,1759,1753,1748,1743,1736,1729,1720,1710,1701,1692,1686,1684,1683,1683,1683,1682,1679,1675,1670,1668,1665,1660,1656,1657,1658,1663,1665,1667,1668,1670,1671,1671,1669,1664,1660,1659,1657,1654,1654,1656,1663,1672,1686,1704,1728,1756,1787,1823,1863,1907,1952,2000,2049,2099,2151,2202,2253,2303,2352,2398,2443,2483,2519,2573,2610,2642,2672,2701,2728,2754,2780,2800,2818,2839,2854,2868,2879,2888,2893,2895,2890,2884,2875,2864,2854,2842,2829,2814,2794,2774,2751,2728,2705,2682,2660,2637,2613,2592,2570,2548,2532,2513,2497,2482,2469,2453,2440,2429,2418,2409,2403,2395,2389,2383,2376,2369,2365,2363,2361,2360,2362,2364,2367,2368,2371,2373,2378,2382,2386,2393,2395,2397,2396,2394,2393,2392,2392,2393,2397,2405,2416,2427,2439,2448,2456,2459,2463,2465,2466,2462,2461,2456,2453,2449,2444,2436,2430,2422,2413,2407,2398,2390,2380,2367,2352,2332,2311,2288,2265,2245,2227,2211,2196,2181,2169,2157,2148,2140,2134,2130,2128,2124,2121,2118,2112,2107,2099,2091,2083,2071,2056,2041,2025,2009,1992,1976,1960,1941,1925,1910,1898,1887,1880,1874,1869,1864,1859,1854,1852,1850,1851,1854,1855,1854,1854,1852,1846,1839,1831,1822,1816,1809,1806,1804,1804,1802,1799,1794,1787,1777,1768,1756,1745,1732,1722,1714,1708,1702,1696,1691,1686,1681,1675,1670,1664,1660,1657,1654,1651,1648,1647,1647,1646,1645,1645,1646,1646,1645,1644,1639,1633,1627,1621,1612,1602,1592,1584,1576,1570,1565,1559,1557,1554,1554,1558,1564,1573,1586,1601,1618,1639,1664,1689,1715,1742,1772,1805,1845,1889,1940,1993,2055,2118,2186,2251,2315,2380,2437,2490,2536,2575,2609,2633,2655,2680,2698,2711,2723,2736,2749,2764,2775,2787,2794,2799,2799,2798,2794,2787,2777,2763,2749,2735,2719,2705,2693,2679,2668,2659,2652,2646,2643,2637,2633,2629,2619,2609,2597,2585,2573,2561,2551,2543,2537,2531,2526,2524,2522,2521,2520,2521,2523,2527,2532,2538,2548,2552,2557,2558,2556,2551,2542,2531,2521,2510,2500,2492,2486,2481,2477,2476,2479,2485,2488,2494,2499,2503,2505,2508,2512,2514,2517,2520,2522,2528,2533,2535,2534,2529,2522,2514,2502,2487,2469,2449,2425,2402,2378,2354,2332,2312,2294,2284,2274,2268,2262,2255,2250,2242,2235,2227,2218,2204,2189,2173,2155,2140,2126,2113,2099,2089,2076,2064,2053,2039,2026,2012,2002,1993,1982,1971,1961,1952,1944,1940,1934,1928,1922,1916,1909,1903,1896,1890,1886,1881,1875,1870,1864,1857,1851,1846,1839,1836,1831,1827,1823,1815,1806,1796,1785,1774,1764,1754,1742,1732,1724,1718,1711,1707,1704,1704,1703,1701,1700,1693,1687,1683,1677,1674,1672,1669,1665,1660,1655,1650,1640,1632,1621,1611,1597,1589,1585,1581,1581,1582,1584,1586,1591,1597,1605,1614,1622,1630,1635,1638,1640,1637,1635,1632,1633,1636,1640,1648,1661,1676,1695,1715,1736,1761,1787,1819,1853,1891,1933,1975,2021,2069,2120,2171,2223,2277,2327,2381,2435,2489,2543,2595,2644,2693,2760,2808,2845,2878,2906,2928,2949,2964,2979,2993,3005,3017,3026,3036,3042,3046,3048,3046,3041,3035,3029,3020,3009,2999,2986,2975,2963,2950,2936,2922,2907,2892,2879,2869,2859,2848,2840,2833,2822,2815,2808,2803,2797,2789,2781,2771,2761,2753,2744,2739,2734,2729,2725,2722,2720,2718,2715,2714,2713,2711,2711,2708,2707,2706,2704,2705,2707,2710,2711,2713,2713,2713,2713,2713,2710,2705,2699,2691,2683,2675,2667,2658,2646,2635,2626,2617,2608,2600,2589,2578,2567,2556,2542,2527,2512,2497,2482,2468,2454,2440,2427,2413,2398,2380,2361,2341,2321,2300,2281,2264,2247,2235,2226,2215,2206,2196,2186,2175,2166,2156,2146,2132,2120,2106,2094,2081,2070,2059,2050,2041,2032,2022,2014,2006,1996,1985,1973,1962,1948,1934,1919,1906,1894,1883,1872,1860,1850,1842,1833,1825,1815,1803,1794,1785,1777,1768,1759,1750,1742,1736,1731,1728,1724,1722,1723,1724,1724,1724,1725,1725,1728,1728,1729,1727,1726,1724,1720,1713,1708,1699,1691,1680,1670,1659,1650,1637,1623,1610,1596,1579,1563,1548,1531,1518,1506,1495,1486,1475,1471,1470,1475,1482,1494,1508,1525,1541,1555,1570,1584,1597,1609,1623,1634,1645,1654,1661,1666,1663,1656,1651,1648,1645,1648,1654,1666,1686,1715,1749,1789,1837,1888,1944,2001,2065,2130,2199,2270,2340,2411,2482,2550,2615,2673,2727,2772,2811,2846,2879,2905,2930,2953,2979,2998,3013,3027,3038,3049,3060,3070,3078,3084,3088,3091,3094,3093,3091,3089,3087,3082,3078,3073,3067,3059,3047,3034,3016,2999,2979,2960,2943,2925,2908,2890,2871,2853,2834,2815,2796,2780,2764,2750,2740,2735,2731,2731,2730,2731,2730,2730,2728,2726,2723,2720,2716,2715,2716,2716,2711,2709,2702,2697,2692,2687,2684,2681,2678,2675,2671,2668,2669,2668,2667,2666,2664,2662,2659,2654,2649,2644,2639,2633,2626,2620,2612,2604,2595,2587,2579,2570,2565,2559,2554,2551,2548,2547,2541,2531,2519,2504,2487,2471,2457,2443,2427,2410,2391,2375,2356,2340,2323,2308,2291,2274,2254,2234,2212,2191,2171,2152,2134,2116,2101,2090,2079,2068,2056,2046,2036,2024,2013,2003,1995,1985,1976,1964,1951,1938,1923,1906,1891,1875,1859,1843,1827,1812,1799,1786,1777,1771,1767,1766,1765,1766,1766,1767,1763,1760,1757,1753,1747,1738,1729,1719,1710,1700,1692,1683,1677,1670,1664,1658,1654,1648,1643,1640,1637,1632,1625,1619,1610,1600,1591,1582,1574,1568,1563,1556,1551,1548,1547,1548,1551,1556,1560,1560,1559,1556,1554,1546,1540,1532,1527,1524,1521,1521,1520,1519,1519,1518,1517,1515,1512,1509,1508,1504,1502,1501,1502,1507,1514,1528,1547,1570,1600,1634,1669,1711,1756,1806,1859,1914,1970,2027,2085,2146,2208,2269,2334,2395,2456,2516,2572,2627,2703,2759,2800,2840,2872,2899,2921,2936,2944,2949,2949,2944,2935,2926,2911,2897,2884,2867,2851,2835,2821,2808,2796,2786,2777,2770,2762,2755,2747,2742,2734,2725,2716,2706,2696,2687,2679,2671,2660,2653,2644,2635,2625,2617,2606,2595,2582,2570,2557,2546,2535,2523,2510,2499,2486,2475,2466,2462,2458,2458,2457,2457,2462,2465,2468,2473,2477,2483,2486,2492,2499,2507,2516,2524,2529,2535,2538,2539,2539,2538,2535,2530,2522,2514,2500,2486,2468,2450,2436,2419,2402,2383,2364,2345,2322,2300,2276,2253,2229,2207,2186,2165,2146,2127,2110,2098,2089,2084,2080,2078,2074,2070,2063,2054,2047,2040,2033,2029,2025,2022,2021,2017,2013,2005,1993,1980,1966,1949,1933,1918,1903,1890,1877,1865,1854,1844,1833,1818,1804,1790,1778,1767,1754,1742,1729,1714,1699,1682,1668,1657,1646,1640,1632,1625,1622,1617,1615,1613,1610,1607,1606,1603,1603,1602,1597,1596,1591,1588,1583,1581,1578,1574,1572,1570,1571,1568,1567,1564,1559,1554,1549,1542,1536,1531,1526,1523,1518,1515,1512,1508,1504,1499,1493,1489,1485,1481,1478,1475,1470,1467,1461,1451,1444,1436,1432,1427,1422,1415,1407,1396,1385,1374,1365,1359,1356,1356,1361,1366,1377,1391,1409,1429,1452,1477,1503,1530,1558,1589,1622,1658,1694,1736,1780,1826,1875,1925,1976,2029,2082,2134,2188,2241,2296,2349,2402,2451,2498,2544,2604,2650,2679,2705,2724,2739,2749,2756,2756,2757,2757,2755,2753,2748,2742,2734,2724,2711,2700,2685,2671,2654,2630,2610,2590,2571,2554,2539,2524,2509,2496,2482,2467,2453,2438,2426,2416,2404,2395,2386,2377,2368,2357,2348,2337,2326,2316,2305,2293,2280,2266,2254,2242,2235,2227,2224,2223,2225,2230,2235,2242,2248,2253,2255,2257,2258,2259,2257,2256,2254,2254,2252,2248,2246,2244,2240,2234,2225,2215,2206,2198,2190,2185,2179,2177,2175,2175,2175,2173,2173,2173,2173,2172,2168,2162,2152,2140,2126,2111,2091,2071,2049,2030,2013,1994,1979,1961,1946,1933,1922,1913,1904,1897,1892,1888,1883,1880,1874,1867,1857,1845,1834,1820,1803,1784,1765,1748,1732,1718,1703,1689,1676,1665,1655,1648,1642,1637,1633,1631,1628,1627,1627,1626,1626,1624,1626,1629,1631,1632,1634,1637,1638,1637,1635,1633,1633,1633,1635,1635,1634,1633,1629,1623,1615,1607,1596,1587,1580,1573,1565,1557,1548,1541,1536,1530,1526,1525,1520,1514,1507,1499,1489,1475,1463,1448,1434,1421,1409,1397,1387,1381,1376,1374,1375,1379,1389,1400,1420,1444,1472,1510,1554,1600,1654,1712,1770,1832,1893,1956,2018,2081,2143,2204,2265,2325,2386,2444,2525,2584,2626,2662,2695,2725,2752,2777,2800,2822,2838,2851,2859,2865,2868,2866,2862,2858,2852,2849,2845,2843,2843,2844,2844,2845,2845,2848,2848,2850,2853,2858,2863,2866,2870,2873,2872,2870,2867,2862,2851,2838,2822,2803,2783,2767,2748,2734,2721,2708,2697,2686,2676,2667,2660,2653,2647,2639,2630,2623,2616,2610,2604,2598,2595,2590,2588,2582,2578,2575,2571,2568,2564,2562,2558,2556,2556,2553,2553,2553,2554,2554,2555,2555,2551,2546,2539,2529,2518,2507,2497,2494,2489,2490,2492,2496,2497,2498,2498,2495,2491,2484,2472,2459,2442,2422,2397,2367,2335,2300,2264,2229,2195,2168,2144,2121,2104,2087,2076,2066,2058,2053,2045,2035,2026,2016,2005,1991,1978,1963,1947,1929,1912,1893,1875,1859,1842,1826,1808,1794,1782,1772,1764,1759,1755,1751,1746,1741,1734,1728,1722,1716,1709,1703,1694,1685,1676,1667,1660,1655,1651,1646,1644,1644,1644,1645,1646,1650,1652,1653,1653,1654,1651,1648,1645,1640,1637,1633,1629,1623,1620,1617,1615,1612,1611,1611,1609,1609,1613,1616,1618,1621,1625,1631,1632,1631,1627,1622,1615,1606,1598,1588,1581,1571,1562,1553,1545,1541,1536,1531,1528,1525,1524,1524,1528,1531,1537,1546,1558,1575,1597,1623,1655,1694,1738,1788,1840,1898,1959,2021,2088,2158,2225,2293,2360,2425,2486,2545,2598,2647,2692,2753,2795,2823,2848,2869,2886,2899,2909,2913,2912,2910,2904,2896,2888,2878,2867,2854,2844,2832,2821,2811,2801,2794,2787,2783,2778,2772,2763,2755,2746,2735,2727,2723,2719,2716,2711,2704,2698,2687,2677,2663,2652,2637,2624,2610,2601,2590,2580,2570,2562,2556,2552,2549,2548,2548,2550,2550,2557,2562,2567,2568,2565,2560,2549,2536,2521,2507,2492,2479,2465,2454,2445,2438,2430,2424,2417,2410,2403,2395,2388,2381,2375,2371,2366,2364,2362,2363,2365,2365,2367,2366,2363,2359,2354,2350,2343,2338,2336,2333,2330,2325,2319,2311,2304,2295,2286,2276,2262,2249,2232,2215,2195,2177,2159,2142,2127,2111,2096,2080,2064,2047,2032,2015,1998,1983,1965,1950,1937,1924,1911,1898,1886,1875,1865,1854,1843,1834,1826,1818,1810,1801,1790,1778,1769,1757,1744,1732,1721,1710,1699,1692,1682,1672,1664,1653,1642,1633,1621,1604,1591,1576,1561,1548,1537,1524,1512,1504,1494,1488,1482,1477,1473,1470,1470,1469,1470,1470,1469,1470,1467,1466,1464,1462,1460,1455,1454,1451,1444,1437,1425,1413,1401,1385,1367,1348,1327,1310,1290,1269,1253,1237,1225,1214,1203,1194,1189,1183,1179,1176,1174,1173,1171,1170,1171,1174,1177,1183,1189,1195,1200,1208,1210,1208,1204,1197,1189,1179,1168,1158,1148,1139,1133,1132,1135,1143,1159,1182,1207,1239,1276,1318,1362,1410,1458,1508,1559,1609,1658,1707,1757,1805,1850,1897,1942,2001,2046,2077,2105,2128,2147,2159,2168,2171,2169,2164,2154,2142,2124,2101,2077,2053,2027,1999,1970,1943,1917,1891,1863,1840,1813,1791,1769,1750,1734,1716,1699,1683,1665,1645,1623,1598,1574,1549,1525,1502,1480,1459,1438,1417,1394,1373,1349,1325,1302,1277,1255,1235,1218,1207,1200,1195,1194,1194,1196,1201,1201,1203,1204,1206,1209,1207,1208,1208,1212,1216,1220,1225,1231,1237,1243,1250,1258,1266,1275,1286,1298,1307,1314,1321,1326,1330,1336,1341,1346,1349,1353,1359,1362,1365,1366,1366,1367,1366,1363,1362,1358,1355,1350,1346,1342,1334,1325,1315,1306,1295,1288,1278,1274,1267,1263,1256,1250,1245,1240,1236,1235,1232,1227,1222,1213,1207,1198,1188,1179,1168,1158,1147,1132,1117,1100,1083,1066,1047,1033,1017,1004,996,989,991,994,999,1006,1014,1018,1019,1016,1010,1001,993,986,982,978,978,980,982,982,982,982,981,982,984,988,988,991,992,995,997,998,1001,1005,1006,1007,1008,1006,1003,999,996,992,985,977,966,957,948,937,926,916,908,900,889,881,870,860,850,839,833,826,819,814,810,803,799,796,796,797,801,805,811,818,824,830,836,843,849,857,863,868,871,869,865,862,856,853,849,847,843,842,839,842,839,838,836,838,842,849,858,869,886,906,932,962,998,1041,1090,1145,1210,1278,1353,1430,1508,1587,1669,1747,1827,1901,1973,2042,2106,2166,2226,2320,2382,2427,2466,2499,2529,2553,2572,2589,2603,2615,2622,2629,2630,2630,2628,2621,2614,2605,2596,2588,2579,2567,2557,2547,2535,2523,2513,2504,2495,2486,2474,2464,2453,2440,2430,2420,2410,2399,2385,2369,2355,2340,2326,2314,2303,2291,2284,2277,2272,2266,2261,2256,2252,2250,2250,2253,2257,2261,2268,2273,2280,2287,2295,2302,2308,2314,2317,2321,2319,2319,2317,2315,2310,2308,2305,2302,2299,2296,2291,2291,2285,2284,2285,2285,2288,2288,2292,2292,2292,2292,2288,2286,2281,2275,2267,2259,2253,2245,2241,2236,2229,2224,2218,2208,2199,2190,2177,2167,2155,2141,2127,2115,2103,2092,2079,2069,2057,2047,2036,2024,2010,1998,1981,1966,1953,1940,1927,1913,1899,1886,1871,1857,1847,1838,1831,1826,1820,1813,1807,1797,1786,1777,1766,1755,1744,1731,1719,1707,1694,1683,1672,1664,1655,1650,1644,1639,1636,1631,1627,1616,1604,1591,1577,1562,1547,1531,1516,1504,1493,1484,1474,1468,1459,1454,1449,1445,1443,1439,1438,1438,1435,1430,1425,1420,1412,1407,1398,1388,1380,1368,1358,1348,1339,1331,1325,1318,1311,1304,1297,1291,1288,1287,1289,1289,1293,1294,1298,1300,1304,1306,1309,1310,1312,1311,1312,1313,1313,1313,1312,1312,1309,1304,1298,1293,1288,1283,1273,1264,1253,1242,1234,1229,1226,1232,1242,1262,1287,1322,1359,1402,1447,1498,1555,1613,1677,1741,1808,1875,1943,2011,2079,2147,2214,2281,2345,2408,2496,2562,2609,2653,2693,2726,2756,2782,2805,2822,2837,2847,2855,2859,2861,2860,2856,2853,2845,2839,2829,2822,2812,2801,2790,2774,2755,2733,2710,2683,2655,2627,2599,2567,2536,2504,2474,2443,2414,2390,2368,2351,2340,2331,2326,2320,2318,2315,2314,2311,2314,2316,2317,2319,2319,2321,2326,2332,2340,2346,2352,2359,2366,2373,2380,2386,2394,2401,2409,2418,2424,2431,2438,2440,2443,2444,2441,2437,2430,2422,2416,2411,2405,2399,2393,2387,2378,2367,2355,2340,2324,2307,2288,2268,2247,2225,2202,2182,2160,2139,2118,2100,2081,2065,2050,2036,2022,2010,1995,1982,1967,1955,1940,1927,1912,1900,1889,1880,1872,1867,1863,1860,1859,1856,1853,1844,1834,1821,1803,1789,1773,1759,1745,1732,1719,1706,1694,1681,1668,1653,1635,1619,1600,1580,1564,1545,1527,1512,1498,1485,1472,1461,1453,1445,1437,1427,1420,1416,1409,1403,1395,1390,1384,1380,1375,1368,1362,1356,1352,1349,1346,1342,1338,1333,1327,1321,1314,1308,1301,1296,1288,1281,1276,1271,1269,1266,1263,1258,1253,1250,1243,1237,1230,1224,1218,1210,1204,1197,1192,1184,1178,1175,1168,1164,1163,1164,1164,1165,1168,1170,1173,1175,1181,1187,1198,1214,1234,1259,1291,1328,1366,1408,1450,1496,1542,1589,1637,1686,1737,1789,1843,1895,1948,2002,2054,2108,2187,2245,2290,2329,2364,2394,2420,2443,2459,2472,2481,2487,2487,2485,2481,2477,2474,2470,2469,2465,2465,2463,2462,2459,2457,2451,2443,2431,2416,2399,2379,2358,2335,2313,2289,2269,2249,2227,2207,2184,2161,2142,2123,2106,2092,2079,2067,2053,2039,2025,2014,2006,2001,1999,2000,2001,2005,2013,2022,2033,2042,2055,2065,2077,2090,2105,2119,2133,2146,2159,2170,2180,2186,2188,2187,2185,2179,2172,2163,2154,2147,2142,2137,2134,2129,2119,2110,2102,2094,2090,2088,2088,2087,2087,2087,2083,2080,2073,2066,2056,2042,2026,2010,1990,1971,1951,1933,1916,1901,1888,1875,1863,1852,1840,1825,1810,1793,1776,1758,1742,1728,1715,1704,1694,1682,1669,1657,1645,1633,1621,1614,1606,1601,1595,1592,1589,1585,1584,1579,1573,1564,1553,1536,1518,1500,1478,1461,1443,1426,1409,1394,1379,1367,1354,1341,1329,1319,1311,1304,1299,1295,1293,1291,1289,1288,1289,1289,1289,1289,1289,1289,1288,1289,1287,1281,1277,1273,1268,1263,1256,1251,1247,1244,1241,1239,1240,1244,1248,1257,1264,1277,1293,1312,1339,1373,1409,1452,1500,1555,1613,1677,1744,1815,1889,1961,2034,2105,2173,2240,2306,2370,2433,2494,2551,2637,2707,2760,2813,2860,2907,2947,2982,3009,3033,3051,3065,3078,3087,3095,3099,3100,3100,3096,3093,3087,3077,3067,3056,3043,3028,3010,2992,2971,2951,2933,2918,2901,2887,2873,2861,2847,2832,2818,2801,2786,2772,2758,2744,2735,2727,2720,2712,2707,2702,2696,2692,2688,2687,2684,2681,2677,2670,2662,2652,2644,2634,2625,2615,2608,2602,2596,2588,2580,2570,2558,2547,2534,2519,2504,2488,2473,2462,2454,2447,2441,2435,2431,2427,2421,2411,2400,2385,2369,2353,2335,2318,2302,2287,2271,2256,2239,2225,2207,2190,2172,2155,2135,2116,2095,2076,2055,2034,2014,1997,1978,1964,1949,1934,1920,1905,1891,1876,1860,1846,1833,1819,1804,1787,1773,1755,1739,1720,1701,1684,1664,1643,1624,1608,1590,1575,1557,1543,1528,1512,1500,1489,1475,1464,1453,1443,1432,1422,1411,1403,1395,1390,1387,1388,1394,1402,1411,1422,1432,1443,1453,1462,1468,1472,1474,1474,1473,1475,1477,1475,1470,1463,1456,1446,1436,1423,1410,1399,1389,1382,1376,1374,1373,1377,1381,1391,1401,1411,1424,1435,1448,1456,1463,1469,1473,1473,1472,1473,1473,1474,1478,1487,1496,1509,1525,1548,1572,1602,1637,1677,1721,1771,1824,1880,1941,2006,2074,2146,2222,2299,2378,2457,2537,2615,2692,2766,2839,2906,2969,3051,3109,3152,3189,3219,3246,3271,3289,3304,3321,3330,3335,3337,3334,3329,3323,3316,3309,3303,3296,3290,3284,3277,3270,3262,3255,3248,3241,3234,3227,3219,3211,3201,3193,3182,3172,3159,3147,3132,3117,3102,3086,3071,3057,3045,3036,3028,3023,3020,3017,3015,3013,3011,3006,3003,2998,2993,2989,2985,2979,2977,2976,2974,2969,2962,2951,2940,2924,2905,2888,2872,2858,2843,2829,2813,2795,2777,2760,2743,2728,2714,2702,2688,2678,2665,2652,2637,2622,2603,2585,2567,2551,2535,2521,2509,2500,2494,2487,2482,2476,2469,2460,2447,2431,2414,2395,2373,2352,2331,2311,2293,2274,2258,2239,2219,2198,2177,2157,2134,2110,2085,2062,2040,2016,1995,1975,1958,1940,1922,1906,1889,1871,1855,1841,1826,1811,1798,1783,1766,1748,1731,1715,1698,1684,1670,1660,1652,1643,1634,1624,1614,1603,1595,1588,1580,1573,1571,1567,1567,1564,1566,1560,1552,1543,1533,1522,1509,1495,1484,1474,1463,1454,1441,1432,1421,1412,1404,1398,1391,1384,1377,1370,1364,1357,1352,1349,1344,1340,1333,1326,1322,1317,1314,1308,1304,1299,1291,1281,1268,1253,1239,1226,1214,1198,1183,1166,1152,1138,1126,1116,1109,1107,1108,1114,1126,1144,1169,1199,1234,1277,1328,1387,1454,1526,1602,1681,1758,1835,1914,1991,2068,2147,2225,2301,2373,2445,2512,2607,2678,2731,2782,2828,2870,2906,2937,2962,2986,3004,3017,3027,3032,3032,3026,3018,3006,2992,2975,2959,2945,2931,2923,2913,2906,2899,2892,2885,2879,2872,2865,2860,2853,2846,2836,2830,2821,2813,2802,2790,2778,2765,2748,2728,2710,2690,2671,2648,2628,2609,2589,2571,2557,2543,2533,2523,2518,2508,2503,2497,2492,2489,2486,2484,2483,2481,2483,2485,2490,2494,2498,2502,2503,2504,2502,2497,2492,2483,2474,2467,2458,2448,2439,2430,2419,2405,2389,2371,2351,2332,2314,2295,2277,2259,2242,2228,2212,2198,2187,2176,2166,2160,2154,2146,2137,2129,2116,2104,2091,2077,2062,2046,2030,2014,2000,1988,1978,1970,1965,1960,1957,1954,1951,1947,1943,1939,1935,1927,1916,1904,1890,1874,1855,1832,1810,1787,1764,1743,1726,1710,1697,1685,1672,1661,1652,1645,1637,1631,1627,1624,1621,1617,1615,1611,1610,1610,1611,1613,1617,1620,1621,1624,1621,1618,1612,1604,1595,1585,1575,1563,1552,1540,1529,1518,1505,1493,1487,1480,1476,1469,1465,1461,1454,1449,1441,1433,1425,1416,1406,1394,1384,1375,1367,1360,1357,1352,1349,1346,1342,1339,1336,1337,1336,1334,1334,1332,1329,1324,1319,1315,1308,1302,1296,1289,1280,1273,1268,1265,1266,1270,1280,1296,1318,1346,1384,1426,1478,1536,1602,1671,1748,1826,1908,1992,2074,2152,2229,2301,2369,2432,2493,2550,2608,2685,2747,2794,2838,2876,2911,2938,2963,2983,2998,3010,3019,3023,3026,3028,3026,3024,3017,3009,2999,2986,2971,2955,2937,2915,2894,2873,2852,2836,2820,2805,2793,2783,2773,2764,2756,2744,2731,2715,2697,2676,2657,2646,2633,2622,2612,2604,2598,2592,2586,2581,2575,2570,2565,2562,2555,2548,2539,2528,2518,2507,2497,2490,2486,2485,2487,2490,2492,2493,2495,2495,2496,2495,2496,2496,2495,2491,2490,2483,2475,2464,2453,2441,2428,2417,2407,2396,2387,2378,2370,2363,2353,2346,2339,2334,2327,2321,2313,2306,2298,2289,2278,2264,2250,2233,2212,2190,2167,2143,2116,2092,2066,2041,2019,1999,1982,1969,1955,1945,1933,1920,1905,1891,1878,1866,1854,1844,1834,1825,1819,1812,1804,1794,1784,1772,1759,1748,1734,1723,1712,1703,1694,1686,1679,1673,1668,1664,1660,1654,1651,1649,1646,1642,1637,1632,1625,1621,1614,1607,1600,1594,1586,1574,1561,1544,1529,1512,1494,1481,1465,1453,1444,1436,1429,1422,1417,1408,1402,1397,1394,1390,1387,1383,1377,1372,1363,1355,1345,1337,1326,1318,1310,1304,1299,1291,1285,1276,1266,1255,1245,1234,1221,1211,1200,1192,1184,1177,1169,1165,1163,1160,1162,1166,1172,1181,1194,1207,1227,1247,1270,1295,1326,1364,1408,1455,1507,1563,1622,1687,1754,1826,1900,1977,2051,2125,2199,2268,2335,2395,2452,2505,2554,2622,2678,2718,2753,2784,2807,2828,2842,2857,2867,2876,2883,2885,2887,2889,2888,2885,2882,2879,2872,2863,2848,2834,2816,2794,2767,2737,2704,2669,2635,2603,2574,2547,2524,2502,2482,2461,2445,2429,2416,2404,2394,2382,2367,2355,2342,2331,2323,2316,2315,2312,2312,2309,2308,2308,2309,2311,2313,2317,2321,2328,2335,2346,2355,2364,2372,2379,2381,2384,2388,2393,2397,2403,2407,2410,2411,2410,2406,2404,2398,2390,2379,2367,2354,2340,2323,2307,2290,2275,2257,2240,2226,2212,2202,2192,2182,2170,2156,2143,2128,2113,2100,2087,2076,2067,2061,2055,2049,2038,2025,2008,1988,1966,1943,1916,1892,1864,1836,1809,1783,1759,1735,1714,1691,1669,1649,1629,1611,1594,1578,1563,1550,1540,1532,1526,1525,1523,1522,1520,1517,1513,1508,1504,1494,1489,1485,1482,1481,1482,1484,1487,1489,1494,1498,1504,1507,1514,1517,1517,1515,1515,1511,1502,1491,1480,1463,1445,1426,1408,1392,1381,1368,1356,1347,1338,1331,1326,1321,1321,1324,1331,1344,1362,1385,1417,1454,1496,1543,1593,1645,1701,1762,1826,1894,1963,2035,2108,2184,2260,2338,2416,2496,2572,2650,2723,2828,2907,2965,3019,3064,3106,3142,3174,3199,3219,3233,3242,3248,3250,3250,3244,3239,3229,3219,3207,3190,3174,3155,3132,3108,3085,3063,3040,3018,2997,2975,2956,2936,2917,2895,2872,2849,2825,2799,2772,2745,2717,2691,2668,2645,2624,2605,2588,2574,2562,2548,2536,2527,2516,2505,2495,2483,2474,2464,2459,2452,2449,2445,2445,2445,2445,2445,2447,2450,2456,2463,2470,2479,2485,2490,2496,2498,2499,2497,2496,2492,2488,2485,2478,2472,2463,2456,2447,2437,2425,2410,2394,2376,2357,2335,2315,2296,2275,2256,2236,2218,2201,2184,2167,2150,2130,2113,2096,2080,2064,2046,2027,2004,1980,1954,1931,1908,1887,1866,1848,1830,1814,1796,1778,1760,1739,1719,1699,1682,1667,1654,1642,1634,1625,1619,1613,1609,1604,1599,1597,1594,1593,1589,1582,1577,1567,1555,1543,1534,1525,1518,1512,1507,1502,1495,1490,1487,1480,1475,1465,1456,1446,1437,1427,1419,1413,1409,1405,1405,1404,1403,1403,1401,1397,1394,1389,1386,1381,1376,1373,1368,1360,1354,1347,1339,1332,1325,1322,1319,1319,1324,1334,1348,1367,1391,1415,1447,1482,1522,1566,1615,1669,1729,1795,1869,1947,2030,2116,2203,2291,2377,2460,2537,2607,2674,2735,2791,2841,2903,2946,2975,2999,3019,3038,3055,3070,3083,3094,3104,3110,3112,3113,3108,3100,3090,3078,3062,3046,3029,3013,2998,2982,2966,2954,2941,2927,2915,2904,2891,2879,2866,2854,2837,2817,2796,2777,2757,2735,2710,2688,2663,2642,2621,2602,2584,2567,2551,2537,2521,2506,2490,2477,2465,2456,2446,2435,2425,2416,2408,2400,2400,2398,2401,2404,2409,2416,2420,2423,2425,2425,2423,2418,2413,2408,2404,2399,2395,2391,2390,2386,2381,2375,2369,2361,2350,2337,2323,2309,2295,2282,2267,2250,2233,2209,2186,2160,2132,2103,2076,2048,2019,1994,1970,1953,1935,1917,1899,1882,1865,1846,1831,1818,1806,1795,1779,1765,1748,1732,1713,1697,1680,1662,1644,1627,1616,1601,1586,1572,1559,1547,1535,1525,1516,1507,1497,1486,1472,1458,1442,1425,1410,1399,1389,1382,1374,1368,1363,1357,1349,1346,1344,1341,1336,1335,1334,1335,1336,1337,1341,1341,1339,1336,1330,1321,1312,1301,1293,1282,1275,1266,1262,1258,1257,1255,1252,1247,1242,1234,1224,1214,1205,1195,1186,1174,1163,1151,1140,1128,1115,1103,1088,1074,1058,1045,1035,1024,1016,1011,1007,1004,1007,1016,1029,1049,1077,1108,1148,1195,1249,1308,1370,1440,1512,1589,1670,1751,1835,1919,2003,2086,2166,2245,2318,2392,2459,2571,2646,2701,2755,2804,2849,2889,2924,2956,2984,3007,3026,3040,3051,3055,3055,3050,3043,3032,3017,3003,2986,2970,2955,2940,2926,2913,2902,2892,2880,2869,2859,2846,2836,2825,2814,2799,2784,2768,2753,2740,2725,2710,2693,2675,2654,2634,2613,2595,2579,2563,2548,2534,2520,2503,2490,2472,2458,2446,2432,2421,2411,2401,2393,2388,2387,2388,2389,2391,2394,2395,2398,2399,2397,2393,2387,2379,2372,2362,2350,2337,2323,2310,2296,2286,2275,2263,2254,2243,2233,2221,2211,2199,2188,2176,2163,2152,2141,2132,2123,2115,2107,2097,2083,2066,2049,2031,2016,2001,1988,1978,1968,1958,1946,1935,1922,1907,1889,1869,1848,1826,1805,1782,1760,1740,1723,1708,1694,1686,1678,1667,1654,1637,1618,1596,1572,1548,1523,1502,1482,1463,1454,1445,1438,1436,1434,1436,1436,1439,1441,1442,1442,1441,1438,1433,1425,1414,1403,1389,1377,1364,1349,1335,1323,1313,1302,1290,1281,1271,1262,1254,1243,1235,1227,1221,1214,1208,1202,1195,1188,1183,1176,1168,1163,1156,1153,1147,1139,1131,1123,1116,1112,1108,1107,1107,1107,1106,1104,1105,1101,1097,1091,1084,1077,1069,1063,1059,1059,1062,1071,1084,1104,1131,1165,1211,1265,1328,1400,1477,1558,1641,1726,1810,1893,1973,2051,2127,2199,2272,2342,2406,2466,2547,2607,2649,2686,2720,2751,2780,2804,2825,2841,2854,2864,2871,2873,2871,2865,2858,2847,2833,2817,2800,2781,2761,2741,2720,2701,2680,2659,2640,2621,2603,2586,2567,2549,2531,2511,2490,2469,2447,2424,2401,2377,2355,2336,2319,2308,2301,2296,2291,2285,2280,2273,2265,2258,2249,2241,2234,2228,2223,2220,2218,2218,2217,2218,2220,2224,2228,2233,2237,2243,2251,2259,2266,2273,2278,2281,2281,2278,2273,2268,2262,2254,2243,2231,2216,2197,2178,2155,2130,2104,2078,2052,2026,2003,1979,1957,1939,1920,1904,1887,1870,1852,1833,1814,1791,1770,1748,1727,1706,1686,1668,1649,1631,1617,1603,1590,1577,1563,1546,1530,1515,1499,1482,1467,1453,1443,1434,1428,1422,1418,1413,1412,1408,1402,1399,1395,1389,1385,1379,1374,1370,1368,1364,1359,1356,1351,1346,1337,1328,1317,1307,1295,1286,1280,1276,1272,1270,1267,1262,1255,1248,1241,1235,1230,1227,1226,1222,1220,1217,1215,1214,1213,1209,1204,1196,1189,1180,1172,1170,1171,1177,1188,1207,1232,1267,1305,1350,1402,1463,1529,1604,1681,1762,1849,1936,2024,2112,2200,2286,2368,2446,2520,2587,2647,2729,2789,2831,2869,2904,2931,2956,2974,2989,2996,3001,3001,2997,2993,2987,2978,2967,2955,2942,2927,2914,2899,2885,2873,2861,2850,2840,2830,2818,2809,2799,2786,2772,2760,2744,2730,2714,2697,2679,2662,2643,2626,2608,2592,2577,2562,2554,2545,2535,2529,2518,2510,2501,2489,2475,2461,2445,2429,2417,2403,2390,2377,2367,2359,2352,2346,2339,2334,2330,2326,2325,2323,2320,2316,2311,2305,2299,2293,2286,2277,2269,2260,2251,2241,2231,2222,2210,2196,2183,2170,2158,2145,2130,2115,2097,2078,2059,2040,2016,1993,1967,1942,1913,1888,1865,1843,1823,1803,1784,1768,1750,1732,1713,1694,1671,1653,1633,1614,1600,1586,1575,1564,1552,1538,1523,1508,1490,1473,1456,1439,1422,1407,1394,1382,1367,1354,1337,1320,1304,1290,1276,1264,1253,1243,1235,1226,1217,1210,1206,1199,1192,1186,1181,1180,1179,1177,1178,1178,1179,1182,1182,1185,1185,1187,1190,1192,1197,1200,1202,1202,1199,1192,1186,1175,1163,1150,1136,1120,1104,1089,1079,1073,1070,1073,1073,1075,1079,1083,1086,1090,1094,1097,1098,1098,1098,1098,1101,1103,1107,1119,1135,1157,1186,1222,1268,1319,1380,1447,1521,1599,1679,1764,1852,1942,2035,2127,2217,2304,2387,2465,2537,2605,2667,2750,2812,2857,2897,2934,2966,2993,3016,3032,3046,3055,3059,3061,3061,3060,3055,3050,3043,3034,3021,3007,2991,2973,2956,2939,2918,2903,2890,2880,2870,2859,2852,2843,2835,2828,2821,2812,2801,2795,2787,2779,2772,2763,2753,2742,2731,2718,2706,2693,2679,2662,2646,2631,2616,2603,2587,2572,2559,2551,2546,2542,2541,2538,2536,2535,2537,2539,2541,2543,2546,2549,2552,2555,2559,2562,2564,2566,2566,2569,2566,2564,2560,2553,2543,2533,2521,2512,2500,2488,2472,2457,2440,2422,2404,2384,2362,2336,2310,2284,2258,2232,2208,2183,2160,2136,2113,2093,2076,2062,2051,2039,2028,2015,2001,1986,1968,1951,1933,1914,1894,1874,1858,1839,1820,1800,1779,1754,1733,1710,1690,1673,1655,1640,1626,1613,1601,1592,1582,1576,1571,1566,1560,1556,1549,1541,1533,1525,1516,1507,1500,1490,1481,1470,1462,1454,1449,1445,1440,1434,1430,1427,1422,1421,1420,1421,1419,1419,1416,1411,1404,1395,1383,1374,1358,1346,1334,1323,1309,1297,1286,1277,1271,1266,1265,1264,1261,1261,1260,1263,1262,1264,1265,1266,1264,1261,1261,1262,1260,1262,1262,1263,1264,1265,1265,1263,1260,1255,1249,1244,1244,1245,1252,1263,1282,1309,1343,1386,1436,1496,1561,1630,1705,1786,1870,1957,2047,2139,2231,2324,2413,2498,2581,2657,2729,2798,2893,2962,3009,3052,3087,3117,3139,3156,3169,3177,3176,3173,3164,3154,3139,3125,3107,3091,3072,3055,3035,3015,2994,2970,2944,2915,2889,2860,2832,2804,2778,2754,2731,2710,2694,2682,2674,2668,2666,2662,2662,2662,2662,2663,2663,2663,2662,2659,2655,2649,2644,2641,2641,2639,2638,2636,2633,2631,2626,2620,2614,2607,2605,2602,2598,2594,2592,2590,2586,2583,2578,2572,2565,2553,2540,2524,2509,2495,2481,2470,2460,2455,2446,2440,2431,2422,2410,2396,2382,2368,2351,2337,2324,2313,2303,2293,2282,2272,2260,2248,2235,2224,2214,2203,2191,2181,2169,2155,2143,2130,2117,2101,2083,2066,2047,2029,2009,1985,1959,1932,1903,1874,1845,1817,1789,1760,1734,1711,1687,1668,1647,1632,1616,1601,1591,1579,1568,1556,1544,1529,1514,1498,1480,1463,1449,1436,1425,1417,1411,1405,1396,1391,1387,1381,1379,1378,1378,1383,1385,1389,1392,1391,1388,1385,1382,1380,1378,1373,1369,1366,1365,1365,1366,1363,1361,1358,1351,1341,1330,1315,1301,1285,1271,1258,1249,1241,1236,1232,1228,1224,1221,1218,1217,1216,1218,1219,1221,1226,1232,1236,1239,1241,1245,1254,1266,1284,1307,1335,1367,1407,1451,1499,1552,1610,1671,1737,1809,1884,1958,2036,2109,2181,2249,2314,2379,2442,2503,2562,2638,2691,2727,2758,2784,2804,2818,2827,2830,2832,2827,2819,2806,2789,2773,2756,2738,2722,2703,2686,2668,2653,2637,2622,2606,2592,2580,2571,2562,2553,2543,2534,2527,2518,2509,2499,2487,2476,2465,2452,2444,2434,2423,2412,2399,2384,2367,2352,2340,2328,2318,2310,2304,2299,2295,2290,2290,2293,2297,2300,2304,2307,2308,2306,2302,2298,2294,2289,2282,2277,2269,2263,2255,2250,2242,2238,2234,2231,2232,2234,2235,2236,2233,2230,2224,2216,2210,2204,2194,2184,2174,2161,2146,2128,2107,2083,2055,2026,1998,1967,1939,1910,1882,1857,1833,1812,1792,1775,1759,1743,1729,1715,1702,1687,1671,1658,1644,1628,1613,1598,1584,1569,1555,1542,1531,1522,1511,1500,1489,1476,1467,1460,1454,1450,1445,1440,1435,1429,1419,1408,1397,1384,1370,1351,1337,1319,1301,1284,1269,1257,1246,1240,1234,1230,1228,1224,1222,1218,1214,1212,1211,1210,1206,1200,1192,1182,1171,1160,1150,1140,1133,1127,1122,1119,1119,1122,1127,1140,1157,1177,1200,1227,1257,1292,1334,1383,1435,1491,1553,1621,1690,1762,1836,1913,1987,2062,2135,2209,2281,2349,2416,2479,2540,2623,2680,2722,2758,2786,2808,2825,2836,2845,2847,2847,2843,2835,2822,2806,2783,2758,2732,2707,2676,2650,2627,2608,2588,2570,2554,2538,2523,2511,2501,2493,2487,2485,2482,2477,2470,2461,2452,2439,2423,2406,2384,2364,2343,2320,2298,2272,2248,2226,2207,2189,2173,2158,2146,2136,2129,2123,2120,2117,2116,2117,2123,2127,2137,2145,2154,2163,2170,2173,2176,2179,2179,2182,2183,2185,2185,2185,2183,2182,2179,2178,2176,2173,2171,2170,2165,2160,2152,2141,2125,2111,2095,2080,2066,2053,2041,2028,2017,2002,1988,1971,1955,1933,1913,1893,1872,1853,1838,1823,1810,1797,1785,1771,1758,1747,1733,1720,1706,1691,1674,1657,1641,1624,1610,1592,1575,1556,1534,1513,1492,1469,1450,1435,1421,1410,1400,1394,1385,1377,1371,1363,1357,1352,1350,1346,1343,1340,1335,1332,1330,1330,1331,1331,1331,1331,1331,1326,1321,1312,1300,1291,1281,1274,1267,1261,1255,1249,1241,1233,1224,1216,1211,1208,1205,1201,1196,1194,1192,1191,1191,1193,1196,1199,1202,1208,1216,1225,1236,1250,1267,1290,1318,1352,1391,1440,1492,1552,1620,1691,1767,1846,1924,2003,2083,2163,2240,2317,2391,2459,2525,2590,2651,2735,2794,2836,2871,2901,2924,2945,2962,2974,2983,2990,2995,2995,2992,2987,2974,2958,2938,2912,2885,2855,2823,2792,2760,2731,2701,2673,2649,2629,2610,2594,2579,2564,2551,2536,2520,2504,2488,2471,2456,2444,2434,2425,2418,2411,2408,2405,2401,2400,2392,2384,2376,2369,2361,2354,2347,2342,2336,2333,2329,2322,2315,2310,2302,2296,2290,2283,2274,2267,2261,2257,2253,2253,2253,2254,2259,2262,2264,2264,2262,2261,2257,2252,2247,2239,2230,2222,2211,2199,2185,2167,2145,2125,2102,2079,2057,2036,2018,2006,1996,1986,1979,1972,1963,1954,1939,1922,1904,1885,1867,1849,1829,1809,1785,1761,1737,1711,1689,1663,1639,1615,1594,1576,1559,1544,1527,1512,1498,1483,1469,1458,1448,1438,1430,1424,1418,1414,1411,1408,1402,1396,1388,1381,1371,1361,1351,1341,1329,1317,1306,1293,1282,1270,1259,1251,1244,1236,1228,1222,1214,1204,1196,1185,1177,1169,1159,1154,1151,1149,1147,1147,1148,1149,1149,1149,1146,1145,1144,1143,1143,1141,1136,1134,1132,1128,1124,1118,1111,1103,1094,1089,1085,1083,1083,1090,1098,1114,1138,1162,1197,1235,1282,1334,1396,1465,1536,1610,1684,1759,1834,1906,1976,2043,2110,2174,2238,2302,2366,2459,2535,2592,2645,2694,2738,2777,2810,2840,2863,2880,2892,2897,2898,2896,2887,2873,2858,2841,2824,2804,2784,2761,2736,2714,2689,2665,2639,2614,2590,2569,2550,2533,2515,2498,2483,2468,2453,2439,2424,2411,2396,2381,2364,2346,2326,2308,2287,2271,2255,2242,2229,2218,2208,2200,2195,2191,2187,2181,2175,2169,2163,2157,2150,2145,2141,2138,2136,2136,2138,2142,2147,2154,2160,2169,2176,2183,2188,2189,2190,2190,2185,2180,2176,2171,2168,2166,2164,2159,2152,2142,2134,2123,2112,2095,2083,2070,2057,2041,2024,2008,1988,1969,1950,1930,1912,1898,1885,1872,1864,1856,1845,1837,1825,1813,1799,1785,1770,1756,1743,1730,1719,1709,1696,1684,1670,1655,1641,1623,1605,1587,1569,1551,1534,1517,1500,1487,1472,1457,1442,1427,1412,1400,1387,1376,1365,1355,1344,1334,1323,1317,1309,1300,1293,1287,1278,1269,1258,1248,1240,1233,1227,1221,1217,1214,1215,1221,1227,1235,1244,1251,1260,1270,1282,1298,1316,1339,1367,1400,1438,1483,1532,1588,1647,1712,1781,1855,1929,2002,2072,2142,2208,2268,2329,2388,2444,2498,2552,2626,2680,2721,2755,2784,2807,2825,2839,2852,2858,2862,2859,2852,2842,2826,2808,2788,2764,2741,2717,2694,2672,2650,2628,2605,2579,2551,2526,2494,2462,2431,2400,2368,2340,2316,2290,2264,2239,2216,2192,2173,2157,2144,2133,2124,2117,2110,2107,2105,2105,2107,2114,2121,2130,2142,2155,2167,2178,2189,2198,2208,2215,2220,2225,2228,2229,2230,2230,2227,2225,2221,2216,2214,2211,2209,2207,2204,2199,2194,2190,2186,2180,2173,2165,2156,2146,2138,2128,2120,2108,2096,2084,2064,2044,2023,1998,1973,1949,1926,1901,1878,1856,1831,1809,1786,1763,1741,1719,1700,1680,1665,1654,1643,1631,1619,1606,1593,1576,1561,1542,1523,1505,1489,1475,1462,1447,1433,1419,1407,1395,1386,1380,1374,1367,1360,1354,1350,1342,1336,1330,1322,1317,1314,1313,1318,1329,1342,1360,1384,1412,1443,1482,1523,1573,1625,1681,1741,1803,1869,1937,2009,2083,2157,2230,2303,2371,2436,2497,2551,2600,2662,2704,2732,2754,2774,2790,2804,2817,2828,2834,2839,2839,2837,2832,2822,2811,2795,2780,2763,2746,2731,2713,2696,2677,2658,2638,2618,2599,2580,2563,2546,2529,2514,2500,2488,2475,2459,2443,2426,2409,2390,2372,2356,2337,2319,2300,2281,2260,2240,2220,2198,2181,2166,2155,2149,2145,2145,2146,2147,2149,2149,2147,2143,2139,2136,2132,2127,2124,2119,2116,2114,2113,2112,2112,2113,2112,2110,2108,2105,2099,2090,2078,2065,2052,2035,2019,2003,1987,1973,1959,1948,1935,1923,1913,1901,1891,1880,1871,1861,1850,1838,1828,1818,1807,1794,1780,1766,1749,1730,1710,1685,1661,1637,1612,1594,1574,1557,1540,1526,1511,1495,1480,1466,1454,1443,1435,1431,1428,1425,1421,1416,1407,1397,1382,1364,1342,1319,1292,1267,1246,1226,1209,1200,1193,1194,1197,1206,1224,1246,1275,1310,1352,1402,1460,1522,1592,1667,1747,1830,1918,2004,2088,2165,2240,2310,2377,2441,2501,2559,2641,2703,2749,2792,2828,2860,2889,2913,2934,2954,2974,2991,3006,3021,3034,3045,3056,3064,3068,3073,3072,3071,3069,3063,3058,3054,3048,3045,3042,3037,3034,3029,3022,3016,3007,2997,2984,2972,2958,2942,2925,2908,2892,2875,2858,2844,2833,2825,2815,2806,2793,2776,2758,2736,2713,2691,2667,2643,2621,2599,2582,2565,2550,2537,2524,2512,2501,2491,2482,2475,2467,2463,2458,2454,2447,2437,2429,2421,2415,2407,2398,2391,2381,2372,2362,2352,2343,2334,2323,2315,2305,2297,2287,2276,2265,2252,2238,2224,2209,2194,2180,2166,2152,2138,2123,2111,2099,2086,2073,2060,2044,2030,2016,2003,1990,1978,1965,1949,1932,1911,1888,1865,1840,1818,1797,1779,1761,1745,1730,1714,1698,1682,1668,1655,1641,1625,1612,1597,1584,1574,1563,1556,1547,1538,1527,1515,1503,1491,1481,1468,1460,1448,1437,1425,1415,1406,1396,1386,1379,1370,1363,1358,1357,1360,1363,1367,1374,1385,1396,1417,1447,1487,1535,1588,1646,1709,1776,1846,1918,1986,2056,2127,2194,2258,2321,2379,2436,2490,2543,2613,2669,2707,2744,2777,2808,2835,2856,2871,2880,2883,2880,2875,2865,2853,2838,2820,2802,2783,2764,2746,2730,2713,2699,2687,2673,2660,2646,2631,2618,2604,2589,2577,2562,2548,2532,2518,2503,2485,2467,2447,2427,2405,2382,2360,2339,2322,2304,2290,2274,2259,2245,2228,2212,2196,2178,2160,2146,2134,2123,2118,2113,2111,2110,2109,2110,2111,2110,2109,2108,2105,2103,2098,2091,2080,2073,2064,2059,2056,2050,2048,2043,2041,2035,2028,2022,2013,2004,1992,1981,1968,1957,1945,1933,1919,1907,1891,1875,1858,1838,1822,1801,1783,1761,1738,1718,1697,1677,1660,1642,1626,1607,1589,1572,1553,1533,1515,1496,1479,1462,1446,1430,1414,1396,1380,1364,1345,1327,1307,1291,1275,1258,1242,1225,1206,1189,1170,1151,1132,1113,1096,1081,1068,1060,1056,1053,1052,1052,1052,1052,1053,1058,1063,1068,1074,1078,1083,1086,1084,1082,1078,1071,1063,1054,1044,1033,1021,1010,998,987,975,964,954,945,935,925,916,906,896,888,882,877,875,868,864,855,849,840,830,820,808,798,786,775,765,758,751,744,741,737,736,736,741,747,756,765,776,791,809,828,847,870,895,920,949,982,1021,1067,1116,1177,1244,1319,1398,1482,1572,1665,1759,1853,1948,2040,2129,2213,2291,2366,2434,2494,2548,2615,2662,2693,2720,2743,2762,2778,2790,2799,2805,2805,2800,2793,2782,2765,2748,2728,2706,2682,2655,2630,2601,2574,2545,2520,2497,2474,2451,2432,2411,2390,2368,2348,2328,2309,2289,2272,2254,2239,2223,2210,2198,2188,2178,2171,2164,2162,2159,2155,2151,2147,2142,2137,2131,2125,2120,2114,2108,2103,2097,2089,2083,2073,2065,2057,2048,2041,2032,2024,2018,2012,2007,2003,1996,1989,1983,1976,1970,1964,1961,1956,1951,1945,1939,1933,1926,1918,1909,1896,1880,1861,1840,1818,1796,1774,1753,1734,1718,1703,1687,1676,1667,1657,1647,1637,1627,1620,1614,1607,1600,1589,1577,1562,1542,1522,1502,1481,1463,1445,1429,1415,1404,1391,1377,1367,1357,1349,1339,1328,1315,1302,1288,1273,1263,1253,1243,1236,1229,1219,1213,1208,1202,1200,1199,1200,1201,1201,1200,1201,1202,1200,1197,1194,1191,1187,1183,1177,1171,1162,1154,1147,1142,1136,1132,1131,1131,1131,1137,1140,1142,1147,1147,1146,1142,1136,1127,1119,1111,1106,1101,1094,1089,1085,1081,1073,1065,1055,1044,1032,1021,1011,1004,1001,997,997,997,996,994,993,994,995,995,993,993,991,991,986,981,976,968,957,943,929,913,895,878,859,843,832,823,823,827,840,858,887,923,967,1020,1080,1147,1215,1287,1361,1432,1505,1575,1644,1712,1776,1838,1897,1954,2032,2089,2131,2167,2197,2223,2243,2258,2265,2268,2263,2257,2245,2230,2211,2192,2174,2153,2135,2119,2103,2088,2072,2055,2039,2022,2001,1984,1960,1943,1926,1909,1891,1872,1850,1828,1805,1781,1757,1732,1707,1686,1665,1645,1629,1615,1605,1600,1598,1600,1606,1614,1623,1633,1642,1649,1655,1660,1662,1661,1661,1660,1656,1653,1652,1648,1647,1645,1645,1648,1652,1660,1669,1680,1689,1698,1706,1711,1715,1717,1719,1719,1716,1715,1711,1708,1706,1704,1701,1699,1696,1693,1689,1680,1671,1658,1645,1631,1617,1601,1588,1575,1564,1549,1535,1523,1513,1503,1493,1484,1480,1471,1465,1459,1453,1447,1439,1429,1421,1413,1402,1391,1376,1365,1351,1338,1324,1311,1295,1280,1265,1248,1233,1218,1204,1188,1177,1165,1155,1149,1146,1142,1144,1142,1144,1145,1147,1146,1143,1140,1137,1133,1129,1125,1118,1112,1105,1101,1095,1091,1083,1077,1074,1069,1059,1052,1044,1032,1022,1009,997,983,969,958,948,942,935,932,930,932,934,939,944,951,957,961,967,967,967,962,959,956,949,945,939,933,927,920,914,911,908,907,904,904,899,896,892,889,887,884,882,880,882,884,888,891,896,901,908,914,925,939,956,976,998,1029,1062,1100,1142,1190,1243,1300,1363,1425,1490,1557,1624,1690,1754,1818,1879,1939,1995,2048,2097,2162,2211,2247,2279,2304,2324,2339,2347,2351,2349,2343,2333,2320,2304,2287,2266,2246,2225,2203,2181,2161,2140,2119,2099,2078,2057,2033,2010,1985,1960,1933,1908,1885,1860,1836,1815,1793,1770,1750,1728,1711,1696,1682,1668,1656,1644,1636,1627,1620,1617,1614,1613,1613,1614,1617,1620,1626,1632,1637,1644,1653,1661,1670,1677,1687,1696,1706,1716,1727,1737,1748,1757,1766,1774,1783,1787,1792,1796,1803,1807,1810,1811,1807,1800,1788,1774,1759,1741,1725,1707,1689,1670,1652,1634,1620,1606,1595,1587,1579,1573,1567,1563,1560,1556,1553,1547,1542,1535,1527,1518,1508,1500,1489,1480,1470,1462,1456,1451,1442,1437,1432,1428,1423,1418,1415,1409,1405,1399,1396,1391,1386,1383,1378,1376,1374,1370,1370,1370,1374,1377,1376,1373,1367,1359,1350,1340,1330,1319,1306,1294,1282,1271,1261,1252,1248,1247,1246,1248,1248,1254,1260,1267,1274,1282,1289,1296,1301,1301,1301,1297,1288,1280,1270,1262,1253,1244,1237,1228,1221,1212,1206,1201,1197,1194,1191,1188,1186,1183,1181,1178,1176,1173,1170,1165,1162,1158,1153,1147,1140,1131,1127,1119,1114,1108,1105,1103,1106,1108,1113,1118,1124,1131,1140,1152,1173,1195,1222,1253,1292,1334,1379,1432,1488,1546,1603,1665,1729,1794,1862,1931,1997,2063,2125,2185,2244,2299,2350,2415,2459,2488,2511,2527,2532,2531,2521,2504,2480,2450,2420,2389,2356,2321,2288,2255,2221,2188,2157,2127,2100,2074,2052,2030,2012,1996,1980,1965,1947,1932,1914,1896,1878,1860,1843,1828,1812,1800,1791,1781,1773,1765,1760,1756,1754,1752,1750,1748,1743,1740,1735,1734,1733,1735,1740,1749,1760,1777,1793,1813,1831,1849,1866,1881,1892,1901,1905,1909,1909,1909,1909,1908,1905,1902,1896,1890,1883,1878,1875,1870,1864,1857,1851,1844,1836,1829,1825,1818,1811,1806,1801,1791,1781,1770,1759,1746,1730,1715,1699,1684,1668,1650,1633,1618,1603,1590,1579,1567,1557,1548,1536,1526,1514,1502,1487,1472,1458,1445,1432,1421,1415,1409,1402,1396,1393,1391,1390,1392,1395,1398,1399,1402,1402,1401,1400,1399,1399,1401,1402,1405,1406,1407,1406,1401,1397,1394,1388,1384,1382,1377,1376,1376,1374,1372,1371,1373,1377,1380,1384,1390,1394,1398,1399,1399,1396,1391,1384,1377,1369,1359,1347,1340,1335,1329,1326,1323,1321,1316,1312,1309,1307,1306,1305,1305,1304,1303,1302,1299,1297,1292,1290,1288,1287,1285,1284,1286,1286,1287,1287,1288,1291,1297,1308,1319,1334,1352,1375,1404,1436,1478,1524,1572,1627,1685,1746,1810,1876,1946,2017,2088,2161,2232,2304,2372,2440,2502,2562,2617,2684,2727,2752,2768,2779,2783,2781,2774,2762,2745,2724,2701,2673,2646,2619,2595,2571,2546,2522,2499,2475,2453,2432,2412,2392,2371,2352,2334,2314,2297,2279,2263,2249,2236,2219,2206,2194,2183,2171,2159,2148,2131,2118,2104,2093,2084,2076,2071,2069,2072,2075,2084,2093,2106,2120,2135,2151,2165,2177,2189,2199,2207,2214,2221,2228,2232,2238,2244,2249,2252,2254,2257,2258,2260,2260,2261,2261,2264,2270,2278,2289,2300,2309,2318,2325,2330,2330,2327,2322,2311,2296,2279,2263,2247,2232,2220,2208,2196,2186,2176,2168,2159,2152,2142,2131,2120,2106,2093,2079,2064,2051,2040,2031,2020,2013,2003,1996,1990,1982,1974,1969,1966,1965,1964,1961,1959,1956,1951,1946,1941,1935,1927,1919,1907,1894,1878,1862,1846,1830,1813,1794,1775,1756,1735,1715,1696,1682,1673,1670,1670,1673,1681,1687,1693,1699,1700,1703,1702,1702,1702,1701,1700,1703,1705,1709,1713,1714,1715,1714,1711,1709,1706,1704,1701,1700,1698,1697,1696,1695,1688,1683,1679,1673,1665,1658,1652,1645,1638,1631,1623,1616,1611,1602,1595,1587,1580,1571,1563,1557,1549,1543,1537,1531,1531,1529,1531,1539,1551,1569,1595,1629,1673,1720,1775,1833,1893,1956,2022,2089,2158,2232,2305,2380,2455,2527,2598,2665,2726,2783,2858,2907,2944,2976,3006,3030,3046,3057,3062,3059,3050,3035,3017,2996,2971,2942,2911,2878,2841,2805,2769,2732,2696,2661,2629,2597,2568,2539,2513,2488,2464,2443,2423,2405,2391,2377,2366,2357,2348,2338,2330,2320,2309,2300,2287,2278,2269,2262,2255,2251,2250,2245,2245,2242,2242,2243,2243,2243,2245,2249,2253,2257,2262,2268,2274,2280,2292,2304,2316,2331,2347,2363,2381,2398,2417,2434,2449,2462,2473,2481,2487,2490,2490,2489,2482,2471,2458,2446,2434,2423,2413,2407,2399,2392,2385,2375,2364,2351,2335,2317,2300,2284,2265,2246,2228,2212,2197,2181,2166,2151,2134,2119,2100,2087,2073,2059,2046,2033,2019,2006,1992,1977,1963,1950,1938,1926,1915,1905,1896,1893,1892,1894,1897,1903,1910,1919,1927,1936,1945,1952,1957,1959,1962,1963,1963,1962,1960,1958,1956,1954,1951,1949,1947,1947,1944,1946,1944,1944,1941,1938,1929,1921,1912,1905,1898,1895,1891,1889,1885,1881,1876,1874,1869,1868,1867,1862,1858,1851,1845,1836,1826,1813,1801,1790,1776,1764,1752,1739,1726,1714,1701,1689,1677,1669,1661,1655,1650,1648,1650,1659,1675,1699,1726,1762,1801,1847,1898,1953,2011,2075,2139,2205,2273,2339,2404,2467,2525,2582,2633,2680,2723,2776,2809,2828,2838,2848,2852,2855,2856,2854,2852,2850,2847,2843,2837,2829,2819,2810,2796,2784,2767,2748,2725,2699,2673,2645,2617,2588,2560,2532,2504,2475,2447,2421,2395,2371,2343,2319,2297,2276,2253,2238,2224,2210,2194,2182,2172,2162,2154,2147,2141,2136,2135,2133,2135,2138,2139,2144,2152,2161,2174,2186,2201,2214,2226,2237,2246,2255,2260,2264,2267,2271,2276,2282,2290,2299,2308,2318,2327,2335,2341,2344,2349,2347,2344,2336,2325,2315,2303,2289,2276,2262,2250,2239,2226,2213,2203,2192,2179,2168,2153,2138,2122,2103,2084,2066,2049,2034,2022,2013,2005,1997,1990,1981,1971,1958,1945,1931,1918,1906,1895,1881,1874,1862,1851,1839,1823,1808,1789,1771,1751,1731,1710,1689,1669,1652,1635,1623,1613,1606,1599,1593,1588,1584,1584,1584,1584,1584,1586,1586,1588,1588,1591,1594,1597,1601,1605,1609,1612,1614,1615,1614,1613,1613,1613,1612,1608,1604,1598,1592,1590,1590,1591,1595,1603,1615,1632,1656,1689,1728,1769,1817,1872,1929,1993,2061,2133,2207,2283,2360,2435,2510,2578,2646,2707,2767,2823,2875,2947,2997,3032,3059,3081,3098,3108,3116,3117,3115,3112,3107,3098,3091,3083,3078,3068,3058,3047,3035,3022,3008,2991,2972,2950,2930,2907,2883,2858,2834,2809,2786,2762,2738,2715,2692,2667,2643,2618,2593,2567,2541,2516,2492,2473,2453,2436,2416,2400,2386,2368,2357,2347,2335,2328,2323,2320,2318,2320,2323,2326,2329,2334,2340,2350,2359,2373,2387,2402,2416,2429,2442,2454,2462,2469,2474,2477,2480,2483,2483,2483,2480,2476,2472,2464,2455,2444,2433,2421,2406,2391,2375,2361,2347,2335,2322,2312,2302,2293,2281,2269,2253,2239,2224,2211,2199,2184,2168,2152,2134,2115,2098,2083,2070,2058,2045,2032,2021,2007,1993,1979,1965,1953,1942,1932,1926,1921,1919,1917,1917,1916,1913,1906,1896,1887,1877,1866,1855,1843,1832,1820,1810,1798,1789,1780,1772,1765,1758,1751,1745,1739,1732,1725,1721,1712,1707,1703,1702,1704,1709,1714,1718,1723,1724,1726,1726,1725,1725,1724,1724,1725,1724,1725,1724,1719,1717,1712,1705,1696,1687,1675,1663,1653,1641,1628,1616,1603,1592,1586,1585,1592,1609,1637,1674,1720,1775,1834,1899,1968,2042,2121,2203,2287,2373,2462,2549,2635,2720,2801,2882,2957,3026,3119,3186,3229,3265,3292,3316,3331,3342,3349,3353,3354,3349,3344,3332,3318,3298,3277,3256,3235,3213,3192,3172,3155,3137,3117,3101,3084,3067,3050,3031,3012,2991,2969,2947,2925,2904,2883,2863,2843,2826,2811,2794,2777,2763,2749,2737,2727,2717,2710,2703,2697,2693,2688,2687,2688,2693,2701,2713,2728,2743,2761,2779,2793,2808,2824,2840,2854,2870,2885,2896,2905,2910,2915,2916,2913,2908,2899,2891,2884,2878,2871,2864,2857,2848,2838,2827,2814,2800,2787,2770,2753,2733,2714,2690,2667,2641,2616,2590,2565,2540,2517,2493,2473,2453,2432,2413,2393,2373,2352,2331,2310,2291,2274,2258,2245,2235,2225,2216,2207,2201,2196,2192,2185,2180,2174,2165,2159,2151,2142,2133,2126,2121,2116,2113,2109,2105,2101,2096,2091,2085,2080,2070,2063,2053,2044,2035,2025,2016,2006,1999,1991,1986,1980,1973,1965,1957,1944,1933,1919,1903,1888,1870,1854,1836,1820,1801,1786,1770,1758,1744,1734,1726,1719,1714,1708,1703,1700,1695,1691,1690,1690,1693,1697,1700,1705,1714,1725,1740,1757,1779,1804,1833,1869,1907,1947,1991,2040,2092,2151,2213,2276,2348,2418,2493,2566,2640,2711,2780,2845,2907,2964,3017,3063,3122,3163,3190,3214,3236,3255,3271,3283,3291,3297,3297,3292,3284,3272,3254,3234,3212,3187,3159,3129,3096,3063,3029,3000,2971,2944,2919,2895,2873,2851,2833,2817,2801,2788,2778,2770,2765,2757,2749,2740,2730,2717,2705,2692,2680,2668,2656,2644,2633,2627,2621,2616,2615,2616,2617,2617,2619,2620,2623,2626,2631,2637,2640,2644,2648,2650,2652,2651,2647,2642,2638,2630,2622,2612,2601,2587,2573,2556,2542,2527,2512,2500,2490,2479,2468,2456,2446,2433,2422,2410,2401,2391,2380,2370,2362,2355,2348,2339,2328,2314,2294,2273,2250,2227,2200,2175,2149,2124,2099,2077,2056,2037,2018,2000,1986,1973,1962,1952,1942,1930,1922,1911,1901,1896,1889,1883,1880,1877,1875,1873,1873,1871,1871,1871,1869,1868,1869,1867,1864,1861,1856,1854,1853,1853,1853,1853,1854,1854,1853,1850,1845,1837,1826,1816,1803,1791,1782,1771,1764,1757,1756,1755,1755,1757,1758,1759,1759,1758,1752,1745,1737,1729,1721,1713,1705,1694,1684,1672,1658,1644,1632,1623,1621,1624,1635,1651,1679,1713,1753,1802,1853,1910,1972,2040,2109,2182,2258,2333,2410,2486,2562,2637,2709,2779,2847,2915,3010,3082,3134,3181,3222,3255,3284,3305,3320,3329,3335,3339,3339,3337,3331,3326,3321,3314,3303,3290,3275,3255,3234,3210,3186,3162,3136,3110,3083,3057,3034,3011,2989,2968,2948,2928,2907,2890,2871,2854,2837,2817,2800,2781,2764,2746,2731,2719,2708,2698,2691,2684,2681,2676,2675,2674,2678,2682,2689,2696,2705,2716,2730,2746,2762,2779,2795,2809,2821,2831,2838,2845,2852,2857,2860,2859,2859,2855,2848,2840,2831,2823,2810,2797,2781,2766,2750,2731,2712,2690,2667,2643,2622,2600,2581,2557,2533,2509,2485,2462,2438,2412,2387,2362,2333,2303,2277,2248,2220,2194,2169,2147,2125,2104,2082,2062,2042,2022,2003,1984,1963,1944,1924,1903,1882,1862,1839,1815,1793,1772,1752,1739,1724,1713,1705,1703,1701,1699,1692,1684,1677,1668,1659,1650,1644,1636,1629,1621,1615,1609,1603,1597,1591,1585,1580,1572,1563,1556,1547,1539,1533,1526,1518,1512,1506,1501,1498,1496,1497,1497,1498,1500,1504,1503,1502,1498,1492,1487,1479,1474,1467,1465,1460,1463,1472,1485,1507,1534,1571,1617,1668,1725,1786,1850,1920,1991,2066,2144,2223,2306,2387,2468,2546,2620,2688,2754,2814,2900,2967,3012,3055,3091,3122,3146,3164,3181,3193,3202,3206,3210,3210,3208,3204,3195,3182,3169,3154,3138,3120,3103,3087,3073,3059,3044,3030,3009,2993,2979,2964,2949,2937,2925,2911,2899,2886,2874,2863,2851,2838,2826,2813,2797,2780,2761,2741,2719,2701,2682,2665,2653,2642,2634,2629,2622,2620,2618,2616,2614,2610,2603,2594,2583,2575,2565,2559,2554,2551,2546,2543,2542,2543,2542,2542,2543,2541,2537,2528,2517,2505,2491,2479,2469,2458,2449,2438,2425,2416,2405,2392,2375,2357,2335,2313,2290,2264,2238,2209,2177,2143,2108,2071,2031,1997,1964,1935,1906,1880,1858,1836,1816,1796,1777,1758,1741,1725,1709,1698,1688,1679,1671,1665,1660,1653,1647,1643,1640,1641,1640,1640,1641,1643,1640,1635,1629,1620,1609,1598,1589,1577,1567,1553,1541,1528,1518,1505,1495,1485,1476,1469,1462,1452,1443,1433,1424,1416,1410,1406,1405,1401,1400,1398,1394,1391,1385,1379,1370,1363,1355,1347,1341,1336,1332,1330,1331,1334,1335,1339,1343,1349,1359,1375,1393,1417,1448,1488,1535,1587,1647,1708,1774,1843,1910,1979,2050,2122,2194,2265,2334,2401,2468,2531,2596,2685,2757,2813,2866,2918,2961,2998,3032,3057,3078,3093,3103,3108,3115,3115,3112,3105,3096,3083,3068,3050,3028,3004,2977,2948,2916,2881,2846,2812,2781,2751,2724,2698,2675,2654,2635,2618,2599,2584,2568,2555,2540,2526,2512,2499,2484,2471,2459,2446,2432,2417,2401,2385,2368,2352,2336,2321,2307,2297,2289,2285,2284,2284,2288,2289,2293,2299,2304,2312,2318,2327,2334,2341,2346,2348,2349,2348,2347,2340,2333,2327,2318,2309,2300,2292,2284,2277,2271,2267,2262,2254,2247,2239,2227,2218,2206,2192,2178,2161,2145,2125,2106,2088,2066,2048,2030,2018,2006,1994,1985,1977,1971,1965,1959,1953,1951,1948,1945,1940,1937,1933,1930,1929,1927,1926,1925,1925,1925,1928,1929,1932,1936,1936,1938,1939,1939,1938,1936,1933,1927,1920,1912,1903,1896,1887,1876,1866,1855,1846,1836,1827,1818,1808,1798,1787,1775,1761,1745,1732,1718,1706,1696,1688,1681,1675,1671,1665,1661,1657,1656,1657,1659,1664,1672,1684,1697,1717,1741,1772,1807,1847,1894,1942,1996,2052,2113,2175,2240,2305,2370,2439,2508,2576,2643,2707,2772,2833,2892,2976,3035,3077,3114,3144,3171,3195,3211,3221,3225,3223,3214,3201,3183,3162,3135,3108,3077,3047,3015,2983,2951,2922,2897,2871,2850,2831,2814,2799,2788,2778,2770,2762,2754,2747,2741,2736,2732,2727,2721,2714,2707,2699,2690,2682,2669,2655,2640,2627,2614,2602,2592,2586,2582,2577,2573,2571,2566,2565,2561,2557,2551,2546,2539,2536,2537,2543,2551,2560,2570,2578,2585,2591,2596,2601,2606,2606,2602,2597,2583,2568,2550,2526,2501,2474,2445,2415,2384,2349,2313,2276,2239,2203,2170,2139,2112,2085,2059,2037,2017,2000,1981,1964,1947,1932,1917,1899,1879,1858,1836,1812,1790,1768,1748,1725,1704,1682,1661,1637,1612,1586,1559,1532,1507,1483,1461,1441,1421,1404,1385,1370,1352,1338,1327,1314,1301,1290,1281,1275,1268,1264,1262,1261,1263,1263,1264,1264,1264,1263,1261,1257,1252,1247,1241,1238,1236,1236,1241,1246,1254,1265,1277,1295,1318,1346,1378,1418,1465,1518,1574,1639,1709,1782,1859,1935,2014,2091,2170,2248,2326,2403,2478,2553,2626,2698,2802,2881,2938,2990,3040,3085,3126,3165,3199,3230,3254,3276,3294,3304,3312,3313,3310,3302,3289,3274,3257,3237,3217,3196,3173,3150,3128,3106,3083,3062,3042,3023,3004,2984,2964,2946,2928,2912,2895,2877,2861,2845,2829,2814,2801,2783,2767,2749,2727,2704,2679,2654,2629,2606,2582,2558,2531,2506,2483,2459,2433,2415,2398,2383,2367,2353,2338,2326,2318,2309,2300,2292,2284,2276,2268,2266,2261,2259,2260,2259,2258,2258,2255,2251,2246,2236,2226,2213,2200,2189,2177,2161,2147,2128,2106,2083,2054,2028,1998,1968,1940,1913,1886,1862,1838,1815,1792,1769,1746,1721,1697,1672,1646,1621,1600,1579,1561,1544,1525,1504,1482,1463,1445,1429,1414,1401,1387,1372,1356,1337,1317,1298,1279,1262,1243,1227,1211,1194,1179,1165,1153,1140,1130,1121,1114,1104,1095,1085,1074,1065,1055,1044,1033,1021,1011,1001,994,985,976,970,965,959,950,940,929,918,903,890,879,868,858,849,840,831,824,815,807,803,803,805,815,832,855,885,923,967,1022,1082,1149,1220,1297,1377,1461,1546,1637,1731,1824,1918,2011,2101,2190,2275,2359,2438,2548,2631,2691,2746,2804,2843,2874,2899,2917,2930,2937,2942,2940,2933,2921,2908,2890,2873,2856,2839,2821,2802,2784,2765,2752,2736,2722,2710,2698,2688,2679,2668,2656,2642,2630,2617,2607,2596,2589,2581,2576,2572,2570,2569,2570,2570,2569,2569,2569,2571,2574,2580,2585,2588,2592,2596,2599,2602,2606,2608,2610,2611,2611,2612,2611,2612,2614,2616,2619,2622,2624,2626,2626,2627,2626,2626,2622,2618,2614,2608,2603,2595,2588,2577,2566,2554,2541,2525,2508,2489,2464,2439,2412,2386,2358,2330,2301,2272,2243,2216,2191,2168,2150,2134,2120,2102,2085,2068,2050,2032,2014,1996,1977,1961,1945,1931,1916,1905,1896,1885,1876,1866,1854,1840,1823,1805,1788,1773,1759,1746,1735,1723,1714,1703,1694,1682,1670,1659,1647,1634,1620,1607,1597,1588,1582,1576,1572,1571,1571,1572,1574,1578,1583,1586,1587,1585,1583,1580,1575,1568,1565,1558,1552,1545,1537,1527,1517,1502,1489,1474,1463,1449,1436,1424,1412,1397,1387,1377,1368,1358,1347,1338,1325,1315,1302,1290,1283,1273,1259,1246,1233,1218,1204,1189,1173,1161,1150,1139,1138,1137,1140,1151,1165,1187,1213,1249,1289,1339,1397,1461,1533,1609,1689,1774,1861,1952,2044,2137,2229,2321,2411,2497,2583,2662,2734,2834,2910,2966,3018,3065,3105,3140,3168,3192,3210,3224,3231,3233,3232,3227,3219,3207,3196,3182,3165,3148,3128,3108,3086,3060,3034,3005,2978,2949,2922,2896,2871,2849,2827,2807,2783,2765,2750,2735,2720,2706,2695,2682,2669,2661,2650,2643,2635,2630,2625,2623,2621,2616,2616,2613,2610,2609,2609,2609,2607,2603,2596,2585,2571,2554,2534,2513,2495,2474,2453,2434,2416,2400,2385,2372,2358,2348,2336,2326,2315,2304,2292,2281,2268,2253,2238,2222,2205,2185,2165,2141,2118,2094,2068,2042,2017,1994,1972,1950,1931,1911,1893,1874,1854,1839,1825,1812,1799,1788,1777,1764,1754,1740,1727,1713,1696,1680,1664,1648,1637,1624,1615,1606,1598,1592,1583,1574,1561,1551,1540,1527,1512,1496,1481,1463,1445,1425,1407,1388,1368,1351,1334,1318,1298,1281,1264,1247,1230,1216,1203,1191,1178,1169,1158,1147,1139,1129,1122,1112,1103,1096,1090,1082,1077,1072,1065,1061,1058,1055,1053,1049,1047,1043,1042,1040,1036,1031,1025,1016,1005,995,986,978,969,960,955,943,933,918,901,883,865,845,826,809,795,781,769,758,749,742,740,743,749,762,780,805,840,879,926,983,1046,1116,1193,1274,1360,1448,1539,1631,1727,1825,1923,2019,2111,2198,2282,2360,2429,2521,2584,2627,2661,2693,2719,2741,2758,2774,2782,2785,2784,2780,2771,2757,2741,2724,2703,2683,2660,2641,2622,2604,2587,2566,2543,2518,2490,2462,2435,2408,2383,2357,2329,2300,2272,2243,2218,2194,2176,2159,2143,2127,2110,2094,2078,2064,2051,2041,2029,2020,2012,2008,2005,2002,1998,1993,1989,1981,1977,1972,1969,1963,1956,1951,1948,1946,1945,1947,1951,1955,1964,1975,1986,1999,2011,2018,2020,2020,2013,2004,1992,1978,1958,1938,1920,1896,1875,1854,1832,1810,1788,1763,1740,1717,1689,1661,1632,1603,1576,1546,1519,1493,1468,1442,1415,1390,1366,1345,1327,1313,1297,1285,1272,1261,1249,1238,1230,1222,1214,1207,1204,1202,1203,1202,1202,1200,1196,1192,1186,1182,1178,1174,1174,1172,1171,1174,1172,1172,1170,1169,1168,1167,1164,1164,1162,1159,1157,1155,1154,1149,1143,1138,1131,1122,1114,1102,1093,1079,1069,1058,1048,1036,1026,1015,1005,996,986,980,974,968,963,956,949,941,931,920,911,899,891,886,883,887,896,915,938,970,1009,1057,1109,1169,1235,1306,1383,1465,1556,1649,1745,1843,1941,2040,2133,2227,2316,2401,2480,2553,2653,2727,2777,2820,2856,2887,2910,2925,2935,2938,2939,2932,2924,2913,2901,2885,2868,2849,2827,2807,2788,2765,2741,2718,2698,2677,2658,2642,2627,2615,2604,2593,2583,2573,2563,2553,2543,2533,2517,2502,2484,2466,2447,2427,2409,2389,2369,2350,2326,2303,2280,2257,2238,2219,2203,2188,2176,2164,2152,2143,2131,2123,2115,2112,2108,2108,2109,2107,2107,2112,2112,2114,2114,2117,2120,2118,2113,2105,2095,2083,2067,2049,2030,2010,1992,1975,1960,1945,1931,1923,1917,1913,1907,1903,1898,1892,1886,1878,1869,1860,1846,1834,1819,1802,1784,1765,1743,1720,1696,1667,1639,1611,1586,1560,1535,1510,1484,1456,1429,1401,1376,1352,1328,1306,1286,1270,1253,1240,1229,1218,1209,1202,1195,1187,1178,1171,1158,1144,1131,1114,1097,1081,1059,1041,1023,1007,991,975,959,943,928,914,903,894,885,879,876,876,878,885,893,901,911,923,935,947,958,967,975,980,983,985,986,988,988,987,987,983,976,969,957,943,928,912,896,883,874,869,869,876,890,911,941,980,1025,1079,1145,1215,1293,1379,1467,1563,1661,1761,1863,1966,2070,2169,2267,2359,2442,2520,2587,2673,2729,2766,2795,2819,2836,2851,2866,2877,2888,2897,2903,2906,2906,2902,2897,2886,2872,2858,2841,2822,2804,2787,2769,2749,2731,2710,2691,2671,2656,2642,2629,2616,2598,2582,2564,2547,2530,2513,2497,2480,2461,2442,2426,2409,2394,2379,2367,2355,2344,2334,2326,2320,2313,2309,2306,2306,2305,2307,2311,2318,2327,2337,2346,2356,2361,2369,2375,2383,2392,2399,2405,2414,2419,2427,2428,2431,2432,2430,2427,2421,2415,2405,2397,2389,2381,2373,2365,2357,2350,2339,2331,2320,2307,2289,2268,2242,2212,2180,2142,2104,2065,2024,1983,1944,1904,1866,1829,1791,1755,1720,1689,1657,1631,1601,1575,1549,1520,1495,1467,1442,1418,1396,1375,1354,1336,1321,1307,1296,1288,1280,1275,1270,1267,1264,1262,1257,1250,1242,1230,1218,1204,1191,1176,1162,1148,1135,1122,1110,1096,1086,1074,1066,1058,1051,1048,1048,1050,1053,1056,1060,1064,1070,1072,1074,1075,1074,1071,1069,1067,1060,1051,1041,1030,1018,1006,995,986,977,967,957,946,936,924,913,903,894,885,876,868,862,855,849,844,842,840,845,852,867,887,915,952,996,1048,1105,1170,1240,1315,1393,1476,1557,1646,1737,1829,1924,2020,2118,2215,2310,2400,2484,2564,2665,2736,2786,2828,2867,2896,2921,2941,2961,2975,2990,3002,3011,3014,3015,3011,3005,2996,2984,2970,2950,2930,2907,2881,2854,2827,2795,2762,2730,2697,2669,2639,2610,2581,2554,2524,2496,2468,2440,2413,2387,2358,2336,2318,2299,2285,2272,2262,2256,2253,2253,2252,2257,2262,2268,2275,2280,2285,2289,2295,2299,2305,2311,2317,2323,2328,2329,2327,2325,2316,2304,2291,2277,2263,2249,2237,2228,2218,2207,2198,2188,2179,2170,2161,2152,2145,2138,2131,2126,2118,2111,2103,2089,2076,2059,2042,2025,2007,1986,1965,1940,1917,1892,1868,1843,1820,1798,1778,1760,1746,1732,1720,1711,1706,1702,1699,1696,1691,1682,1673,1663,1651,1639,1629,1619,1608,1597,1588,1580,1570,1560,1549,1540,1530,1519,1508,1497,1486,1473,1463,1453,1444,1436,1430,1429,1429,1432,1435,1441,1444,1446,1446,1443,1439,1436,1433,1431,1429,1430,1431,1433,1430,1434,1431,1429,1425,1419,1411,1403,1394,1385,1376,1365,1355,1347,1334,1322,1312,1301,1292,1284,1276,1273,1271,1270,1274,1281,1292,1307,1325,1353,1387,1429,1479,1533,1594,1657,1726,1798,1875,1954,2036,2120,2204,2291,2375,2459,2544,2625,2703,2778,2880,2959,3015,3065,3111,3151,3182,3212,3234,3252,3265,3276,3282,3287,3289,3290,3290,3288,3283,3278,3266,3255,3242,3229,3216,3202,3190,3178,3169,3161,3153,3145,3137,3126,3116,3103,3086,3066,3046,3023,2999,2972,2943,2911,2881,2851,2821,2794,2770,2749,2730,2711,2694,2680,2664,2653,2643,2633,2624,2619,2615,2609,2608,2608,2612,2620,2630,2641,2655,2669,2684,2697,2709,2719,2728,2731,2734,2738,2740,2742,2743,2740,2735,2725,2710,2692,2672,2648,2622,2594,2566,2535,2503,2471,2435,2398,2361,2327,2295,2263,2235,2207,2182,2157,2134,2112,2095,2079,2063,2049,2034,2017,1999,1981,1960,1940,1919,1897,1874,1851,1827,1803,1781,1757,1735,1713,1693,1677,1662,1647,1634,1620,1610,1603,1598,1595,1596,1597,1602,1604,1607,1607,1611,1616,1615,1616,1612,1609,1601,1592,1581,1570,1559,1543,1527,1508,1492,1470,1450,1428,1406,1386,1367,1351,1332,1320,1309,1300,1292,1284,1277,1272,1271,1272,1274,1285,1299,1316,1340,1369,1405,1446,1496,1549,1608,1673,1742,1819,1897,1979,2064,2152,2244,2336,2429,2522,2610,2695,2779,2855,2928,3026,3095,3141,3183,3215,3243,3264,3280,3292,3299,3301,3301,3296,3289,3280,3270,3261,3249,3237,3225,3213,3198,3182,3168,3153,3139,3128,3116,3104,3095,3084,3075,3063,3050,3041,3031,3021,3011,3000,2987,2975,2963,2950,2936,2922,2910,2898,2888,2877,2869,2862,2858,2852,2847,2841,2832,2823,2817,2810,2806,2802,2799,2796,2795,2793,2790,2789,2787,2783,2779,2771,2763,2751,2735,2718,2701,2684,2666,2647,2627,2605,2581,2555,2531,2505,2478,2453,2427,2403,2383,2362,2344,2327,2312,2294,2279,2263,2249,2236,2225,2213,2200,2187,2172,2155,2141,2127,2110,2092,2070,2046,2021,1994,1965,1934,1901,1864,1825,1781,1739,1696,1657,1623,1593,1563,1538,1515,1494,1473,1453,1436,1414,1394,1372,1350,1332,1313,1296,1282,1269,1257,1248,1240,1235,1230,1227,1227,1227,1228,1233,1236,1237,1241,1243,1251,1255,1258,1259,1262,1263,1262,1261,1256,1250,1242,1234,1223,1214,1203,1193,1183,1171,1160,1150,1142,1133,1124,1118,1112,1110,1113,1122,1137,1161,1192,1232,1281,1338,1403,1476,1558,1648,1744,1845,1949,2054,2158,2260,2359,2457,2551,2639,2726,2808,2886,2992,3068,3122,3170,3212,3246,3273,3294,3310,3319,3324,3325,3322,3316,3307,3297,3284,3271,3259,3246,3236,3228,3217,3208,3197,3186,3175,3162,3152,3144,3134,3126,3115,3105,3095,3085,3077,3067,3057,3046,3034,3021,3007,2994,2980,2966,2951,2937,2922,2907,2894,2882,2871,2864,2855,2849,2841,2833,2826,2819,2813,2810,2805,2803,2799,2794,2785,2778,2770,2760,2750,2739,2727,2712,2697,2681,2665,2650,2631,2612,2590,2567,2543,2521,2497,2473,2453,2433,2410,2387,2362,2337,2311,2285,2258,2229,2198,2166,2132,2098,2067,2038,2008,1979,1950,1922,1898,1875,1850,1828,1806,1785,1766,1747,1730,1714,1696,1679,1660,1639,1619,1601,1582,1567,1548,1530,1512,1493,1475,1454,1436,1414,1393,1371,1348,1324,1302,1278,1259,1241,1221,1204,1188,1173,1155,1138,1120,1105,1091,1078,1066,1055,1046,1036,1024,1016,1006,1001,993,985,977,967,951,936,923,908,896,885,877,872,868,867,866,867,866,866,868,870,873,878,883,892,899,909,922,942,963,990,1021,1059,1102,1150,1202,1260,1323,1391,1462,1536,1614,1697,1786,1875,1968,2057,2145,2232,2316,2398,2474,2544,2612,2697,2763,2807,2846,2877,2902,2921,2937,2950,2961,2970,2976,2978,2979,2977,2970,2963,2951,2941,2927,2913,2901,2885,2871,2858,2844,2833,2819,2807,2794,2780,2766,2752,2736,2722,2708,2694,2682,2670,2656,2643,2629,2615,2598,2583,2564,2548,2529,2513,2497,2480,2465,2450,2437,2422,2412,2402,2395,2392,2391,2390,2391,2391,2391,2392,2390,2389,2386,2383,2379,2375,2374,2375,2375,2376,2379,2380,2378,2377,2372,2365,2357,2346,2333,2318,2301,2281,2257,2234,2209,2186,2160,2137,2114,2094,2074,2054,2035,2018,2000,1984,1968,1951,1937,1922,1911,1897,1885,1872,1858,1844,1830,1814,1798,1785,1775,1764,1755,1744,1733,1720,1704,1685,1664,1642,1612,1583,1552,1523,1493,1463,1438,1414,1393,1377,1362,1350,1345,1336,1331,1326,1321,1317,1313,1308,1303,1296,1289,1280,1269,1257,1243,1230,1213,1198,1182,1171,1160,1152,1145,1140,1136,1133,1133,1134,1141,1147,1153,1160,1168,1172,1177,1178,1176,1173,1169,1162,1154,1140,1126,1107,1087,1066,1046,1025,1010,995,984,980,982,996,1015,1047,1090,1139,1199,1266,1342,1426,1520,1622,1733,1848,1967,2086,2205,2318,2425,2524,2619,2704,2781,2851,2941,3003,3047,3083,3113,3139,3158,3175,3186,3193,3197,3196,3190,3183,3171,3158,3144,3130,3114,3099,3084,3066,3045,3024,2991,2965,2938,2912,2886,2860,2834,2809,2781,2755,2729,2704,2678,2653,2627,2599,2571,2545,2520,2494,2469,2444,2422,2399,2380,2362,2342,2324,2304,2288,2274,2263,2258,2256,2262,2274,2288,2305,2322,2340,2356,2370,2384,2395,2404,2408,2411,2409,2403,2395,2381,2368,2352,2331,2308,2284,2262,2237,2214,2191,2170,2149,2128,2107,2082,2055,2025,1994,1963,1929,1897,1863,1834,1806,1777,1753,1728,1709,1690,1673,1656,1639,1624,1605,1588,1571,1552,1531,1507,1481,1455,1428,1399,1373,1344,1319,1293,1266,1240,1211,1184,1155,1127,1103,1079,1058,1039,1026,1015,1007,1001,999,997,999,997,996,996,995,991,989,984,978,974,967,960,955,949,942,938,932,924,919,909,900,889,876,866,860,853,848,847,846,844,843,840,838,829,819,807,794,778,765,751,737,725,714,704,697,692,690,689,688,688,685,682,681,677,673,664,656,649,640,634,630,630,636,650,668,692,722,763,809,863,926,997,1074,1153,1236,1322,1411,1501,1592,1683,1771,1856,1939,2016,2089,2158,2253,2326,2376,2418,2458,2491,2519,2539,2555,2566,2574,2574,2571,2562,2548,2529,2507,2484,2455,2427,2398,2370,2337,2305,2274,2243,2211,2178,2146,2116,2087,2062,2037,2014,1991,1973,1957,1942,1926,1912,1896,1881,1865,1847,1828,1807,1786,1765,1744,1725,1710,1698,1689,1683,1681,1683,1689,1700,1710,1724,1738,1755,1772,1790,1812,1830,1850,1870,1890,1909,1923,1938,1953,1966,1977,1985,1991,1991,1992,1986,1980,1970,1959,1948,1934,1921,1908,1895,1883,1871,1859,1848,1839,1832,1827,1820,1813,1804,1795,1785,1775,1763,1751,1736,1722,1703,1682,1662,1642,1621,1601,1578,1558,1536,1515,1490,1468,1444,1420,1397,1377,1359,1346,1332,1319,1310,1302,1297,1294,1294,1295,1296,1295,1294,1291,1287,1283,1282,1281,1284,1288,1295,1303,1312,1319,1324,1328,1330,1333,1335,1338,1341,1341,1337,1335,1327,1317,1304,1290,1273,1256,1236,1218,1197,1175,1157,1138,1121,1105,1090,1074,1060,1045,1030,1014,997,980,963,948,933,919,911,906,906,912,923,941,965,995,1037,1087,1151,1222,1306,1396,1492,1594,1698,1805,1910,2016,2116,2213,2305,2391,2471,2544,2610,2697,2759,2801,2835,2860,2878,2889,2891,2885,2877,2864,2847,2828,2810,2790,2770,2751,2736,2722,2709,2696,2687,2679,2672,2664,2656,2647,2634,2617,2600,2580,2559,2537,2512,2490,2468,2446,2425,2403,2382,2363,2345,2329,2310,2296,2284,2275,2265,2257,2252,2249,2243,2242,2242,2244,2246,2253,2258,2263,2269,2273,2278,2284,2288,2295,2304,2313,2321,2328,2333,2337,2337,2336,2331,2325,2313,2298,2282,2267,2248,2230,2213,2196,2177,2160,2142,2126,2109,2095,2078,2062,2045,2025,2004,1980,1957,1934,1909,1885,1862,1838,1816,1794,1776,1761,1745,1732,1720,1706,1693,1678,1662,1646,1629,1611,1588,1564,1539,1511,1484,1457,1431,1404,1377,1353,1332,1312,1292,1275,1260,1245,1232,1217,1209,1202,1197,1192,1188,1184,1180,1179,1176,1173,1172,1169,1166,1159,1153,1147,1138,1131,1126,1119,1113,1108,1102,1096,1090,1084,1076,1065,1056,1043,1035,1029,1026,1031,1039,1057,1080,1111,1149,1196,1254,1318,1395,1481,1576,1676,1784,1896,2006,2116,2225,2330,2430,2524,2612,2693,2770,2840,2932,3000,3050,3093,3130,3159,3183,3198,3209,3215,3216,3212,3208,3200,3191,3179,3166,3150,3135,3118,3099,3079,3059,3043,3025,3007,2986,2967,2946,2921,2897,2872,2847,2821,2795,2766,2735,2704,2673,2643,2612,2583,2554,2526,2503,2481,2459,2442,2426,2410,2396,2385,2378,2374,2371,2370,2370,2373,2376,2380,2386,2390,2390,2393,2393,2390,2385,2380,2378,2378,2379,2376,2375,2373,2370,2367,2363,2357,2350,2341,2331,2317,2303,2288,2270,2255,2238,2219,2201,2181,2159,2141,2121,2100,2079,2060,2039,2017,1994,1970,1942,1914,1887,1861,1835,1814,1790,1768,1745,1723,1702,1683,1664,1647,1631,1613,1594,1576,1554,1534,1513,1492,1473,1452,1432,1413,1395,1377,1361,1346,1331,1318,1304,1291,1278,1265,1253,1240,1230,1219,1209,1200,1193,1189,1187,1188,1193,1197,1203,1209,1215,1219,1225,1233,1239,1248,1256,1264,1273,1282,1289,1298,1304,1305,1303,1295,1286,1273,1260,1246,1232,1223,1218,1222,1232,1252,1279,1314,1361,1415,1480,1550,1630,1713,1804,1898,1997,2098,2201,2304,2405,2508,2605,2701,2790,2872,2946,3041,3105,3148,3185,3214,3237,3253,3264,3268,3267,3260,3250,3235,3216,3191,3162,3129,3092,3053,3015,2975,2937,2902,2865,2826,2789,2754,2721,2691,2665,2643,2621,2602,2583,2564,2548,2530,2517,2503,2493,2483,2472,2463,2454,2446,2439,2431,2426,2419,2411,2401,2389,2374,2357,2338,2321,2304,2288,2275,2266,2263,2259,2260,2266,2273,2285,2301,2320,2337,2353,2372,2390,2409,2426,2438,2448,2455,2459,2458,2455,2447,2433,2415,2395,2371,2345,2317,2289,2261,2233,2201,2168,2135,2101,2069,2036,2006,1979,1955,1931,1914,1897,1886,1874,1867,1860,1854,1848,1841,1833,1822,1809,1794,1776,1758,1736,1715,1693,1675,1654,1635,1615,1594,1569,1543,1514,1486,1457,1427,1399,1370,1343,1319,1298,1279,1267,1256,1248,1243,1238,1238,1236,1237,1240,1243,1248,1253,1256,1261,1265,1270,1271,1273,1274,1274,1272,1271,1269,1266,1264,1259,1257,1253,1247,1244,1239,1237,1233,1229,1224,1220,1221,1223,1227,1235,1250,1272,1300,1333,1374,1422,1479,1545,1622,1702,1790,1879,1973,2069,2165,2259,2350,2438,2521,2600,2677,2749,2819,2914,2982,3027,3063,3090,3110,3125,3134,3140,3139,3133,3124,3111,3093,3071,3047,3015,2984,2948,2912,2872,2833,2794,2754,2715,2676,2638,2601,2568,2535,2503,2465,2433,2400,2366,2331,2299,2266,2238,2212,2189,2170,2155,2144,2136,2134,2134,2137,2143,2148,2156,2161,2171,2180,2191,2200,2208,2216,2220,2222,2222,2223,2221,2218,2214,2211,2209,2205,2205,2201,2198,2196,2193,2189,2185,2181,2176,2170,2166,2160,2152,2144,2136,2130,2121,2112,2101,2092,2077,2061,2040,2018,1992,1965,1936,1905,1874,1842,1814,1784,1754,1723,1694,1665,1637,1607,1580,1554,1533,1510,1489,1469,1447,1425,1403,1381,1361,1342,1325,1306,1287,1268,1248,1228,1208,1189,1171,1155,1138,1123,1107,1094,1081,1068,1055,1042,1033,1023,1012,1003,998,992,989,988,989,990,993,998,1004,1012,1024,1038,1051,1066,1078,1090,1099,1102,1102,1100,1095,1089,1087,1086,1089,1098,1114,1136,1166,1201,1248,1300,1359,1425,1495,1571,1650,1730,1814,1897,1979,2061,2141,2218,2292,2360,2427,2489,2576,2641,2685,2726,2759,2788,2811,2826,2835,2841,2840,2837,2829,2819,2806,2791,2775,2758,2739,2720,2697,2673,2648,2623,2594,2563,2534,2502,2472,2443,2416,2388,2363,2336,2308,2281,2255,2230,2203,2181,2159,2140,2124,2112,2102,2095,2090,2082,2079,2074,2071,2070,2070,2069,2070,2070,2074,2078,2084,2089,2099,2109,2119,2132,2144,2155,2165,2174,2189,2206,2224,2241,2259,2275,2286,2297,2303,2306,2306,2305,2298,2289,2276,2259,2240,2217,2193,2168,2144,2120,2098,2076,2055,2036,2017,1997,1976,1956,1936,1915,1896,1877,1862,1850,1842,1835,1829,1821,1812,1801,1785,1765,1742,1717,1689,1660,1629,1599,1570,1543,1516,1489,1462,1434,1404,1372,1338,1307,1273,1239,1202,1163,1126,1088,1055,1021,990,962,940,920,907,897,893,891,895,903,916,930,946,964,983,1003,1022,1043,1061,1081,1099,1114,1126,1135,1145,1151,1154,1158,1158,1158,1160,1163,1166,1173,1186,1203,1224,1248,1280,1321,1369,1425,1490,1567,1651,1743,1839,1939,2041,2143,2241,2338,2431,2519,2605,2686,2761,2832,2899,2989,3055,3102,3141,3177,3206,3229,3246,3258,3264,3268,3266,3261,3256,3248,3240,3230,3218,3205,3190,3174,3157,3139,3122,3105,3085,3063,3037,3009,2977,2944,2910,2876,2843,2810,2777,2743,2708,2676,2646,2620,2596,2574,2554,2538,2523,2511,2500,2492,2488,2485,2485,2484,2486,2487,2487,2488,2488,2489,2490,2489,2491,2490,2490,2492,2494,2495,2496,2498,2500,2501,2499,2499,2498,2497,2498,2498,2497,2496,2494,2490,2485,2476,2467,2459,2447,2432,2419,2403,2383,2358,2332,2302,2270,2238,2206,2172,2138,2107,2076,2048,2019,1992,1965,1938,1914,1888,1867,1846,1825,1805,1789,1773,1754,1735,1716,1695,1675,1656,1635,1614,1593,1571,1548,1526,1505,1485,1465,1450,1435,1418,1401,1387,1372,1356,1343,1333,1323,1317,1309,1303,1297,1293,1287,1283,1280,1277,1273,1269,1262,1256,1248,1239,1231,1224,1219,1212,1209,1209,1207,1208,1207,1208,1213,1219,1231,1246,1263,1288,1316,1351,1392,1439,1490,1550,1617,1690,1765,1847,1930,2014,2100,2183,2264,2343,2419,2488,2552,2612,2666,2739,2792,2832,2865,2897,2921,2941,2956,2967,2973,2974,2966,2956,2940,2919,2896,2869,2835,2795,2752,2705,2656,2608,2560,2516,2473,2435,2401,2372,2344,2320,2299,2279,2261,2242,2225,2208,2194,2178,2161,2145,2126,2108,2091,2077,2070,2062,2060,2061,2063,2066,2068,2071,2070,2068,2067,2063,2060,2058,2051,2046,2042,2036,2033,2032,2029,2029,2031,2032,2036,2040,2046,2050,2058,2068,2080,2094,2104,2112,2120,2126,2128,2126,2121,2112,2099,2081,2063,2042,2022,1996,1973,1946,1917,1890,1863,1836,1810,1786,1763,1743,1726,1709,1693,1678,1665,1652,1638,1620,1603,1583,1560,1534,1508,1479,1452,1427,1403,1378,1358,1338,1322,1303,1287,1274,1265,1257,1249,1241,1232,1223,1213,1204,1195,1188,1179,1172,1164,1160,1157,1154,1152,1148,1138,1126,1113,1097,1081,1063,1046,1030,1016,1005,993,980,969,956,945,937,930,926,926,930,934,941,951,965,986,1014,1053,1095,1148,1206,1270,1340,1416,1495,1579,1666,1752,1840,1927,2012,2097,2184,2272,2357,2441,2516,2618,2693,2742,2784,2817,2844,2865,2880,2889,2891,2887,2876,2864,2849,2829,2807,2781,2754,2725,2692,2659,2622,2585,2544,2505,2465,2425,2385,2349,2315,2285,2258,2228,2204,2180,2156,2135,2109,2090,2072,2056,2041,2029,2021,2015,2011,2015,2020,2025,2033,2041,2054,2066,2081,2098,2115,2131,2147,2161,2172,2183,2189,2196,2202,2208,2216,2221,2227,2231,2233,2232,2231,2231,2231,2231,2230,2229,2225,2220,2212,2202,2186,2167,2144,2121,2096,2072,2046,2021,1995,1970,1944,1918,1893,1867,1841,1816,1790,1766,1743,1723,1706,1691,1678,1666,1655,1648,1641,1632,1624,1614,1606,1596,1585,1573,1560,1547,1533,1517,1499,1479,1459,1439,1424,1408,1392,1377,1362,1347,1333,1321,1310,1301,1290,1279,1264,1253,1236,1222,1203,1185,1169,1154,1138,1119,1101,1084,1070,1057,1050,1045,1046,1048,1055,1072,1092,1121,1159,1207,1262,1327,1399,1477,1559,1648,1739,1839,1941,2044,2150,2255,2361,2463,2561,2658,2748,2832,2942,3019,3072,3115,3152,3182,3205,3222,3233,3238,3238,3232,3220,3202,3180,3155,3130,3103,3076,3048,3019,2991,2961,2931,2899,2865,2833,2801,2771,2738,2705,2675,2641,2608,2576,2544,2516,2489,2461,2436,2409,2384,2359,2335,2311,2293,2274,2258,2245,2232,2219,2208,2200,2191,2180,2171,2158,2146,2134,2118,2103,2087,2070,2050,2032,2016,2001,1986,1973,1962,1951,1943,1933,1924,1917,1905,1898,1890,1881,1875,1869,1866,1862,1859,1856,1850,1842,1834,1826,1815,1806,1795,1781,1765,1748,1729,1707,1682,1658,1633,1605,1575,1546,1518,1489,1465,1443,1423,1406,1390,1373,1358,1344,1332,1322,1312,1303,1297,1289,1279,1270,1258,1245,1229,1215,1201,1188,1174,1163,1155,1146,1143,1137,1136,1136,1141,1145,1154,1163,1172,1181,1192,1202,1212,1222,1233,1246,1260,1275,1290,1308,1325,1342,1360,1375,1388,1397,1406,1416,1428,1445,1463,1488,1518,1553,1596,1648,1711,1784,1860,1944,2035,2127,2222,2320,2420,2521,2619,2718,2812,2906,2995,3079,3157,3230,3326,3387,3425,3455,3474,3489,3495,3496,3492,3482,3465,3442,3414,3378,3338,3296,3253,3207,3162,3116,3069,3022,2980,2939,2900,2864,2828,2794,2762,2735,2710,2688,2666,2646,2627,2609,2592,2577,2563,2553,2542,2535,2527,2517,2503,2488,2470,2450,2429,2410,2388,2368,2348,2329,2310,2291,2275,2260,2249,2238,2226,2215,2205,2195,2184,2176,2171,2166,2161,2152,2147,2140,2133,2127,2121,2117,2113,2105,2098,2091,2083,2075,2067,2057,2047,2037,2026,2018,2011,2008,2005,2002,2000,1998,1996,1994,1989,1983,1975,1964,1951,1936,1918,1897,1875,1848,1818,1787,1755,1726,1698,1672,1648,1625,1605,1586,1571,1559,1552,1547,1543,1541,1539,1537,1534,1530,1524,1521,1512,1505,1499,1491,1487,1479,1474,1468,1460,1454,1446,1438,1427,1413,1401,1386,1373,1363,1353,1343,1334,1326,1315,1305,1299,1293,1287,1284,1282,1283,1286,1293,1303,1319,1340,1366,1398,1437,1485,1538,1599,1668,1741,1819,1900,1987,2076,2169,2260,2350,2436,2520,2600,2677,2749,2816,2876,2956,3014,3060,3088,3110,3124,3134,3135,3132,3122,3108,3091,3069,3044,3017,2985,2951,2915,2879,2842,2805,2769,2734,2701,2669,2641,2613,2589,2563,2539,2518,2499,2479,2459,2435,2411,2386,2362,2339,2318,2297,2280,2267,2255,2245,2234,2224,2216,2206,2196,2189,2181,2177,2176,2178,2182,2188,2196,2203,2211,2223,2233,2243,2253,2264,2275,2285,2292,2298,2301,2304,2307,2310,2317,2323,2330,2331,2332,2329,2325,2320,2317,2312,2307,2301,2291,2279,2266,2249,2233,2216,2198,2183,2163,2143,2120,2097,2072,2045,2017,1991,1964,1939,1915,1892,1869,1848,1829,1814,1803,1794,1787,1778,1771,1763,1756,1748,1739,1729,1722,1713,1702,1686,1668,1648,1625,1602,1575,1551,1528,1506,1482,1461,1436,1413,1389,1369,1353,1341,1330,1324,1317,1309,1304,1297,1290,1287,1283,1282,1284,1287,1288,1293,1294,1293,1293,1290,1286,1283,1279,1273,1269,1262,1254,1244,1232,1218,1206,1191,1178,1167,1157,1152,1148,1148,1152,1161,1177,1197,1225,1258,1300,1350,1409,1475,1548,1626,1711,1802,1894,1987,2080,2171,2263,2352,2439,2523,2607,2681,2749,2836,2891,2926,2952,2972,2984,2990,2988,2980,2963,2942,2916,2887,2855,2822,2786,2748,2709,2672,2632,2594,2556,2520,2484,2450,2417,2390,2362,2336,2312,2289,2265,2243,2222,2204,2185,2168,2151,2132,2113,2092,2073,2055,2040,2025,2011,1998,1990,1981,1971,1961,1952,1943,1936,1931,1926,1923,1920,1923,1927,1936,1946,1954,1968,1985,2001,2018,2035,2052,2070,2086,2096,2105,2111,2113,2116,2117,2116,2113,2109,2102,2091,2075,2056,2033,2008,1982,1955,1927,1896,1863,1829,1795,1763,1731,1701,1671,1643,1619,1598,1577,1559,1546,1535,1524,1516,1510,1501,1488,1476,1463,1449,1434,1420,1399,1379,1355,1331,1309,1289,1272,1259,1246,1234,1223,1215,1210,1202,1196,1190,1183,1177,1171,1166,1159,1156,1152,1150,1149,1146,1147,1146,1144,1138,1130,1115,1099,1080,1062,1042,1022,1005,986,970,955,942,930,921,913,909,907,905,906,909,911,916,918,921,925,933,946,963,987,1016,1051,1094,1140,1193,1249,1310,1378,1451,1529,1613,1702,1792,1884,1978,2069,2156,2243,2326,2405,2479,2550,2613,2697,2755,2793,2825,2849,2869,2882,2891,2895,2894,2887,2877,2863,2846,2823,2799,2772,2743,2709,2679,2648,2618,2590,2562,2538,2515,2494,2470,2448,2425,2402,2380,2356,2332,2306,2278,2251,2228,2210,2193,2178,2164,2154,2147,2140,2134,2128,2123,2122,2122,2125,2128,2131,2131,2133,2136,2136,2137,2137,2141,2144,2147,2154,2161,2171,2177,2187,2196,2204,2210,2213,2215,2212,2209,2203,2195,2187,2174,2161,2148,2136,2121,2108,2093,2078,2064,2045,2028,2006,1987,1965,1943,1919,1892,1862,1831,1799,1771,1748,1723,1705,1686,1669,1651,1633,1615,1599,1584,1570,1558,1549,1541,1535,1531,1529,1525,1519,1511,1502,1495,1487,1481,1475,1469,1461,1455,1445,1434,1419,1404,1388,1375,1365,1352,1340,1327,1315,1300,1288,1276,1266,1257,1248,1243,1236,1229,1220,1215,1210,1206,1204,1202,1202,1201,1198,1196,1192,1187,1181,1172,1164,1157,1152,1146,1139,1133,1124,1112,1099,1085,1073,1059,1047,1035,1021,1009,997,990,989,991,1000,1015,1034,1063,1098,1141,1189,1248,1314,1386,1468,1559,1658,1761,1868,1977,2089,2199,2305,2406,2499,2588,2669,2743,2808,2894,2952,2991,3022,3044,3061,3071,3076,3077,3073,3066,3056,3042,3024,3004,2979,2952,2924,2896,2866,2840,2814,2787,2763,2742,2723,2705,2689,2675,2663,2651,2642,2632,2620,2608,2594,2583,2573,2559,2549,2535,2521,2507,2494,2480,2466,2455,2446,2438,2431,2425,2421,2416,2409,2406,2403,2399,2398,2397,2400,2405,2408,2413,2419,2424,2431,2436,2440,2442,2441,2441,2437,2434,2430,2426,2422,2415,2408,2405,2400,2396,2393,2384,2375,2364,2354,2340,2326,2313,2297,2281,2265,2245,2224,2201,2173,2146,2116,2085,2054,2024,1995,1969,1946,1926,1908,1890,1872,1849,1829,1807,1781,1753,1726,1697,1670,1640,1614,1586,1562,1539,1520,1502,1489,1474,1465,1454,1445,1443,1438,1438,1435,1432,1428,1424,1420,1413,1404,1394,1384,1372,1360,1349,1341,1334,1329,1324,1319,1318,1317,1320,1324,1329,1334,1337,1339,1340,1339,1337,1333,1327,1323,1317,1313,1310,1307,1305,1303,1303,1301,1301,1302,1304,1307,1313,1320,1330,1344,1364,1393,1427,1467,1515,1567,1629,1697,1772,1853,1936,2022,2105,2189,2271,2353,2432,2505,2571,2634,2693,2749,2821,2870,2902,2927,2945,2957,2961,2960,2954,2944,2931,2912,2889,2862,2832,2799,2764,2726,2687,2648,2608,2569,2531,2497,2466,2437,2413,2391,2369,2348,2329,2308,2291,2272,2251,2229,2204,2181,2157,2132,2111,2089,2065,2044,2023,2005,1988,1974,1962,1950,1941,1934,1929,1924,1922,1921,1920,1923,1927,1934,1945,1957,1972,1992,2011,2031,2053,2075,2093,2109,2123,2134,2145,2153,2160,2166,2169,2172,2173,2175,2174,2172,2167,2163,2155,2147,2136,2126,2115,2103,2088,2071,2053,2035,2015,1994,1971,1945,1918,1888,1860,1833,1808,1786,1765,1746,1726,1706,1687,1669,1652,1633,1615,1597,1578,1557,1539,1521,1505,1490,1477,1465,1456,1449,1440,1431,1420,1406,1394,1382,1371,1362,1354,1346,1342,1333,1329,1321,1314,1306,1298,1289,1277,1265,1254,1241,1229,1217,1210,1198,1193,1187,1185,1186,1189,1195,1205,1215,1234,1253,1281,1316,1360,1412,1472,1541,1614,1697,1783,1873,1966,2062,2157,2255,2348,2439,2525,2606,2684,2756,2823,2926,2986,3025,3057,3083,3102,3115,3125,3130,3129,3126,3117,3107,3091,3071,3047,3022,2995,2966,2939,2913,2887,2862,2836,2811,2787,2762,2736,2712,2690,2669,2645,2621,2594,2564,2534,2505,2475,2448,2422,2398,2378,2358,2342,2326,2315,2305,2299,2292,2289,2286,2285,2284,2286,2285,2286,2287,2287,2290,2296,2305,2318,2332,2349,2367,2386,2404,2422,2439,2451,2460,2466,2470,2470,2469,2467,2464,2460,2454,2447,2435,2422,2408,2391,2374,2356,2337,2317,2300,2282,2264,2245,2224,2201,2176,2147,2116,2086,2051,2018,1986,1953,1926,1898,1874,1854,1834,1814,1797,1779,1762,1741,1723,1700,1678,1654,1633,1612,1592,1572,1553,1534,1514,1495,1475,1454,1435,1416,1400,1385,1374,1364,1357,1350,1345,1343,1341,1340,1338,1335,1330,1322,1313,1303,1293,1284,1271,1258,1243,1229,1213,1195,1178,1164,1151,1145,1142,1144,1149,1166,1190,1222,1264,1319,1382,1455,1538,1628,1728,1832,1943,2055,2168,2283,2395,2504,2608,2711,2809,2904,2991,3072,3178,3247,3293,3331,3359,3380,3389,3394,3391,3380,3359,3334,3308,3274,3239,3201,3164,3127,3090,3055,3023,2994,2969,2945,2927,2910,2893,2875,2855,2834,2814,2792,2773,2752,2730,2708,2689,2667,2645,2623,2602,2584,2570,2555,2540,2526,2511,2497,2484,2469,2454,2440,2427,2414,2407,2401,2398,2398,2398,2397,2397,2395,2392,2389,2383,2378,2374,2372,2372,2372,2376,2382,2390,2400,2408,2414,2419,2420,2417,2412,2401,2388,2372,2354,2335,2315,2290,2262,2235,2202,2169,2133,2096,2057,2017,1978,1939,1900,1862,1825,1789,1757,1731,1709,1691,1677,1666,1656,1647,1641,1634,1627,1617,1603,1584,1564,1538,1512,1486,1461,1437,1413,1391,1371,1352,1336,1323,1314,1307,1304,1305,1309,1315,1321,1326,1334,1343,1354,1364,1375,1389,1404,1419,1433,1446,1458,1469,1480,1491,1502,1510,1515,1517,1519,1520,1521,1521,1522,1523,1525,1531,1543,1560,1583,1610,1643,1684,1727,1777,1833,1894,1961,2029,2103,2179,2259,2342,2426,2514,2603,2693,2784,2874,2961,3045,3126,3201,3300,3367,3412,3452,3482,3507,3526,3538,3548,3554,3554,3552,3545,3535,3523,3508,3494,3478,3459,3441,3421,3401,3379,3358,3336,3316,3295,3276,3254,3231,3204,3176,3147,3116,3087,3056,3024,2993,2961,2931,2902,2874,2848,2824,2802,2780,2761,2745,2729,2715,2702,2688,2678,2668,2657,2648,2638,2633,2629,2627,2625,2626,2625,2624,2623,2619,2615,2609,2603,2596,2589,2582,2574,2565,2554,2543,2533,2524,2515,2508,2502,2497,2492,2487,2482,2477,2469,2464,2454,2450,2442,2435,2425,2412,2401,2386,2372,2357,2342,2328,2313,2294,2274,2257,2236,2215,2194,2171,2147,2123,2098,2071,2042,2013,1979,1945,1908,1872,1836,1802,1770,1740,1713,1690,1668,1651,1637,1626,1617,1608,1600,1591,1583,1575,1564,1556,1547,1540,1528,1518,1506,1490,1472,1450,1427,1403,1378,1354,1330,1309,1288,1269,1251,1235,1224,1212,1206,1199,1194,1190,1187,1186,1189,1190,1192,1195,1198,1199,1198,1200,1205,1209,1219,1231,1248,1273,1302,1338,1381,1427,1484,1546,1618,1702,1793,1893,1997,2104,2213,2323,2428,2529,2628,2719,2806,2885,2956,3022,3080,3150,3195,3224,3243,3257,3267,3271,3272,3265,3253,3236,3211,3185,3153,3117,3082,3043,3004,2968,2932,2893,2860,2829,2799,2771,2743,2718,2697,2674,2652,2631,2611,2588,2561,2536,2509,2481,2455,2430,2407,2386,2366,2348,2333,2320,2308,2298,2288,2276,2265,2252,2241,2232,2221,2212,2206,2203,2201,2201,2205,2209,2214,2220,2224,2228,2229,2225,2218,2211,2203,2197,2191,2187,2184,2179,2175,2170,2161,2153,2141,2127,2113,2100,2085,2069,2053,2038,2024,2011,1996,1978,1960,1938,1915,1888,1863,1836,1810,1786,1763,1741,1719,1696,1672,1647,1621,1594,1567,1538,1508,1478,1450,1422,1397,1372,1349,1327,1305,1283,1264,1244,1226,1209,1192,1179,1169,1159,1152,1147,1144,1142,1145,1151,1159,1171,1179,1185,1192,1196,1199,1199,1201,1197,1193,1188,1179,1173,1162,1153,1143,1131,1120,1105,1089,1071,1053,1033,1014,994,977,962,949,935,925,915,907,902,899,901,907,919,939,966,999,1042,1095,1158,1229,1309,1396,1487,1582,1682,1782,1883,1986,2089,2192,2293,2392,2489,2580,2669,2750,2859,2932,2982,3020,3047,3068,3081,3089,3089,3085,3076,3062,3045,3026,3004,2976,2940,2902,2858,2812,2766,2718,2675,2635,2596,2557,2520,2488,2459,2434,2412,2396,2382,2369,2355,2343,2332,2317,2303,2287,2272,2258,2242,2228,2214,2200,2186,2173,2159,2148,2134,2124,2118,2113,2109,2108,2112,2121,2134,2151,2169,2188,2211,2228,2245,2259,2272,2282,2288,2290,2292,2293,2294,2293,2292,2288,2281,2275,2268,2260,2253,2245,2237,2231,2224,2215,2205,2190,2172,2151,2125,2098,2069,2037,2004,1969,1933,1898,1860,1823,1786,1747,1709,1675,1641,1609,1577,1546,1516,1489,1464,1441,1419,1400,1385,1370,1357,1343,1333,1323,1313,1305,1299,1291,1283,1272,1264,1252,1244,1234,1227,1225,1219,1215,1207,1199,1191,1181,1173,1163,1154,1147,1139,1132,1123,1116,1107,1099,1091,1084,1077,1072,1070,1070,1072,1077,1083,1089,1092,1097,1100,1101,1099,1099,1098,1099,1103,1111,1124,1144,1174,1211,1259,1318,1385,1460,1543,1633,1728,1827,1931,2037,2140,2243,2343,2443,2535,2622,2707,2785,2857,2953,3017,3062,3097,3126,3148,3164,3176,3179,3179,3174,3162,3146,3123,3100,3075,3050,3022,2993,2962,2929,2895,2863,2831,2800,2767,2739,2710,2687,2663,2645,2629,2616,2603,2590,2575,2564,2552,2539,2530,2522,2516,2510,2500,2491,2481,2468,2453,2438,2419,2400,2381,2361,2345,2330,2319,2311,2306,2306,2304,2303,2300,2296,2293,2287,2280,2275,2268,2266,2266,2270,2276,2281,2286,2288,2285,2280,2272,2263,2251,2238,2225,2208,2190,2173,2157,2140,2123,2106,2091,2073,2057,2037,2018,1998,1978,1955,1932,1913,1895,1876,1860,1842,1822,1804,1784,1762,1739,1718,1697,1677,1655,1637,1618,1600,1580,1563,1544,1529,1511,1493,1474,1454,1436,1422,1407,1395,1382,1371,1358,1344,1329,1313,1298,1284,1267,1254,1241,1225,1212,1200,1188,1181,1174,1172,1169,1167,1167,1169,1168,1171,1170,1169,1169,1169,1171,1175,1182,1189,1192,1193,1193,1191,1188,1181,1176,1170,1160,1152,1141,1130,1119,1109,1101,1094,1087,1082,1080,1083,1092,1110,1136,1173,1220,1277,1344,1418,1504,1592,1687,1789,1895,2003,2115,2224,2333,2436,2536,2632,2720,2804,2881,2984,3055,3103,3140,3168,3185,3191,3187,3177,3157,3133,3102,3067,3029,2989,2950,2910,2874,2836,2802,2767,2731,2694,2660,2628,2598,2571,2543,2518,2494,2474,2452,2432,2413,2393,2371,2346,2319,2293,2265,2235,2207,2175,2148,2121,2100,2081,2065,2051,2041,2034,2029,2029,2029,2030,2035,2041,2048,2060,2073,2091,2111,2128,2146,2162,2174,2187,2196,2203,2206,2205,2199,2191,2180,2166,2155,2144,2133,2120,2108,2091,2075,2057,2039,2016,1992,1967,1939,1915,1891,1871,1849,1829,1811,1793,