2043,2042,2041,2041,2040,2040,2040,2041,2040,2041,2040,2040,2040,2040,2040,2039,2038,2038,2038,2037,2036,2035,2036,2035,2034,2034,2033,2033,2032,2031,2031,2030,2030,2029,2029,2028,2028,2028,2026,2026,2026,2025,2026,2027,2027,2028,2030,2032,2034,2037,2040,2043,2048,2053,2056,2062,2066,2071,2074,2078,2083,2086,2090,2093,2096,2098,2099,2101,2100,2101,2100,2100,2099,2097,2096,2094,2093,2090,2089,2086,2085,2083,2082,2081,2079,2079,2078,2077,2077,2076,2076,2075,2074,2074,2073,2073,2072,2072,2072,2071,2070,2070,2070,2069,2068,2068,2067,2066,2065,2065,2063,2062,2061,2060,2059,2059,2058,2058,2058,2057,2057,2057,2057,2057,2057,2056,2056,2056,2055,2055,2054,2054,2053,2052,2051,2050,2050,2049,2048,2048,2047,2047,2046,2046,2045,2045,2044,2044,2043,2043,2043,2042,2043,2042,2041,2042,2041,2041,2041,2040,2040,2039,2037,2036,2035,2034,2034,2034,2033,2032,2032,2032,2032,2031,2031,2031,2030,2030,2031,2031,2031,2031,2031,2031,2031,2032,2031,2032,2032,2033,2033,2032,2033,2033,2032,2032,2032,2033,2032,2033,2031,2032,2031,2031,2032,2031,2032,2031,2031,2031,2031,2031,2030,2030,2031,2030,2030,2030,2029,2028,2028,2028,2027,2027,2026,2025,2025,2025,2025,2024,2023,2022,2021,2022,2020,2019,2018,2018,2017,2018,2018,2019,2019,2020,2022,2024,2026,2029,2032,2035,2040,2043,2047,2053,2057,2063,2068,2072,2076,2080,2084,2086,2089,2091,2093,2093,2093,2093,2092,2092,2092,2091,2091,2091,2091,2092,2092,2092,2093,2094,2095,2095,2096,2096,2097,2098,2098,2098,2099,2098,2098,2098,2097,2097,2096,2095,2095,2095,2095,2094,2094,2094,2092,2093,2092,2090,2090,2088,2087,2085,2084,2081,2080,2078,2077,2076,2075,2075,2074,2074,2074,2073,2073,2073,2073,2072,2072,2073,2072,2072,2072,2072,2073,2074,2074,2072,2073,2071,2072,2070,2070,2068,2068,2067,2067,2066,2065,2063,2063,2062,2062,2061,2059,2059,2059,2058,2056,2056,2055,2055,2055,2054,2054,2055,2054,2054,2053,2053,2052,2051,2050,2050,2050,2049,2049,2048,2048,2048,2048,2048,2047,2047,2046,2045,2045,2045,2044,2043,2042,2042,2042,2042,2041,2041,2042,2041,2042,2041,2042,2042,2042,2041,2041,2041,2041,2040,2040,2039,2040,2040,2039,2039,2039,2039,2039,2039,2039,2038,2038,2038,2038,2037,2036,2036,2036,2036,2036,2036,2035,2035,2035,2035,2035,2034,2034,2035,2034,2033,2033,2033,2033,2033,2031,2031,2030,2028,2028,2027,2026,2026,2026,2026,2028,2029,2031,2034,2036,2040,2044,2049,2053,2057,2063,2067,2073,2078,2083,2088,2092,2097,2101,2105,2107,2113,2114,2116,2118,2118,2119,2118,2118,2117,2116,2114,2113,2112,2110,2108,2107,2105,2103,2103,2102,2100,2100,2099,2098,2097,2096,2095,2094,2093,2092,2091,2090,2089,2088,2088,2087,2087,2087,2086,2085,2085,2083,2083,2081,2080,2079,2078,2077,2077,2076,2075,2074,2072,2072,2071,2071,2069,2070,2068,2068,2067,2067,2067,2067,2066,2066,2066,2066,2065,2065,2064,2064,2063,2064,2062,2062,2062,2061,2061,2060,2060,2059,2059,2058,2058,2058,2056,2057,2056,2056,2057,2055,2055,2055,2054,2053,2052,2051,2050,2050,2049,2049,2049,2049,2050,2050,2051,2052,2052,2053,2053,2053,2055,2054,2055,2056,2056,2056,2057,2057,2057,2056,2057,2055,2056,2055,2055,2055,2053,2053,2052,2052,2052,2051,2051,2051,2050,2049,2048,2048,2047,2045,2045,2044,2043,2042,2042,2042,2042,2042,2041,2042,2041,2041,2041,2041,2040,2038,2038,2037,2037,2036,2036,2035,2035,2034,2034,2033,2032,2032,2031,2031,2030,2029,2028,2028,2028,2028,2028,2028,2027,2027,2027,2027,2027,2027,2027,2028,2027,2027,2027,2026,2026,2026,2026,2026,2025,2025,2024,2024,2023,2023,2023,2022,2022,2023,2023,2025,2026,2028,2031,2034,2038,2041,2046,2051,2056,2062,2067,2072,2077,2083,2088,2092,2096,2100,2104,2106,2110,2113,2114,2115,2115,2114,2115,2113,2112,2112,2110,2108,2107,2105,2104,2103,2101,2100,2098,2097,2096,2094,2094,2092,2092,2092,2092,2091,2090,2090,2090,2089,2090,2090,2090,2090,2090,2089,2089,2088,2087,2086,2086,2084,2083,2083,2082,2080,2080,2078,2076,2075,2073,2071,2070,2068,2067,2065,2063,2063,2061,2060,2059,2059,2059,2060,2060,2061,2061,2062,2062,2062,2062,2062,2062,2063,2062,2063,2062,2062,2062,2062,2062,2061,2061,2062,2062,2062,2061,2061,2060,2061,2060,2061,2060,2060,2060,2060,2060,2060,2061,2060,2060,2060,2059,2059,2058,2059,2059,2059,2060,2060,2060,2061,2060,2060,2061,2061,2061,2061,2060,2060,2058,2057,2056,2055,2054,2053,2051,2051,2050,2049,2048,2047,2047,2045,2045,2045,2044,2043,2043,2042,2042,2040,2041,2041,2039,2038,2038,2037,2036,2035,2034,2034,2034,2033,2032,2032,2031,2030,2030,2030,2029,2028,2028,2029,2028,2027,2027,2028,2028,2027,2028,2028,2028,2029,2028,2028,2030,2030,2031,2031,2032,2032,2032,2033,2033,2034,2033,2033,2033,2033,2033,2034,2033,2033,2034,2034,2035,2034,2035,2035,2035,2035,2035,2036,2036,2036,2036,2037,2037,2038,2039,2040,2041,2044,2047,2050,2054,2056,2061,2065,2070,2075,2079,2084,2089,2094,2098,2103,2106,2110,2112,2116,2118,2120,2121,2121,2121,2120,2119,2118,2117,2116,2113,2112,2109,2107,2106,2103,2101,2099,2098,2097,2095,2094,2093,2093,2091,2091,2091,2091,2089,2089,2090,2089,2089,2089,2089,2088,2088,2088,2087,2086,2086,2085,2086,2084,2084,2083,2081,2080,2078,2077,2075,2074,2073,2072,2069,2069,2068,2066,2065,2064,2063,2063,2062,2062,2060,2060,2058,2058,2057,2057,2057,2057,2056,2057,2056,2056,2058,2057,2056,2057,2057,2057,2058,2059,2059,2059,2060,2059,2059,2059,2059,2058,2058,2057,2056,2056,2056,2055,2053,2053,2051,2051,2051,2050,2049,2048,2047,2046,2046,2044,2044,2044,2044,2044,2043,2043,2042,2042,2041,2042,2043,2042,2042,2042,2042,2041,2042,2041,2042,2041,2042,2041,2041,2041,2040,2040,2039,2038,2037,2037,2036,2035,2036,2035,2035,2034,2034,2033,2033,2032,2032,2032,2033,2032,2031,2032,2030,2030,2029,2029,2029,2028,2028,2027,2026,2026,2025,2025,2025,2024,2023,2023,2023,2023,2023,2023,2024,2024,2024,2024,2026,2026,2026,2026,2028,2027,2027,2026,2026,2025,2026,2026,2025,2024,2024,2024,2024,2025,2026,2026,2028,2030,2032,2036,2039,2042,2046,2050,2055,2059,2063,2067,2073,2077,2080,2084,2087,2089,2091,2094,2096,2097,2097,2097,2097,2096,2096,2094,2093,2092,2091,2089,2088,2086,2084,2083,2082,2080,2079,2077,2077,2076,2075,2074,2074,2073,2072,2072,2071,2071,2070,2070,2070,2069,2069,2069,2068,2068,2068,2068,2068,2067,2066,2066,2066,2064,2064,2063,2063,2060,2060,2059,2058,2057,2056,2056,2055,2053,2054,2053,2054,2053,2053,2053,2053,2053,2052,2053,2054,2053,2054,2054,2054,2054,2054,2054,2055,2054,2055,2055,2055,2055,2055,2055,2054,2054,2054,2054,2053,2052,2051,2050,2049,2049,2048,2046,2045,2045,2044,2044,2043,2043,2041,2040,2040,2039,2039,2038,2038,2037,2036,2036,2035,2036,2035,2035,2034,2035,2035,2034,2034,2034,2035,2035,2035,2035,2036,2036,2037,2036,2037,2037,2036,2036,2036,2036,2036,2036,2036,2035,2034,2034,2034,2033,2033,2033,2033,2032,2032,2032,2032,2032,2033,2032,2033,2034,2034,2035,2034,2035,2035,2035,2035,2035,2035,2035,2035,2034,2034,2034,2034,2033,2034,2034,2033,2033,2033,2034,2033,2034,2034,2035,2036,2037,2040,2041,2044,2048,2051,2056,2061,2066,2071,2075,2080,2084,2089,2093,2096,2099,2102,2104,2106,2108,2108,2108,2108,2107,2106,2105,2104,2101,2100,2098,2097,2094,2092,2091,2088,2087,2085,2083,2081,2080,2078,2077,2076,2075,2073,2072,2071,2071,2070,2070,2069,2069,2068,2068,2067,2066,2065,2064,2063,2061,2061,2060,2058,2057,2057,2056,2055,2055,2053,2053,2052,2051,2051,2050,2049,2049,2048,2048,2047,2047,2046,2045,2045,2045,2045,2046,2046,2047,2047,2048,2048,2047,2048,2049,2049,2049,2048,2048,2048,2049,2048,2048,2048,2047,2048,2048,2047,2048,2048,2048,2047,2048,2047,2045,2045,2044,2044,2044,2043,2042,2042,2041,2041,2039,2038,2038,2037,2036,2035,2034,2034,2033,2032,2033,2032,2031,2032,2032,2032,2030,2030,2029,2029,2029,2028,2028,2028,2027,2026,2026,2026,2026,2025,2025,2024,2024,2024,2024,2024,2024,2023,2023,2023,2023,2022,2021,2022,2020,2021,2020,2019,2019,2019,2018,2018,2018,2018,2017,2017,2016,2016,2015,2014,2014,2015,2015,2015,2015,2014,2015,2015,2016,2016,2017,2017,2018,2019,2019,2020,2019,2019,2020,2019,2019,2019,2019,2018,2018,2017,2018,2017,2017,2017,2017,2017,2019,2020,2022,2024,2028,2031,2034,2039,2043,2049,2054,2059,2066,2070,2076,2080,2085,2088,2093,2094,2098,2101,2104,2104,2105,2104,2105,2104,2104,2104,2104,2104,2103,2103,2102,2103,2101,2101,2100,2100,2099,2100,2099,2099,2099,2099,2098,2099,2098,2099,2099,2100,2099,2100,2099,2099,2100,2099,2099,2100,2099,2098,2097,2097,2096,2094,2093,2093,2091,2089,2088,2086,2084,2084,2082,2081,2080,2078,2076,2075,2074,2074,2072,2071,2070,2069,2068,2067,2067,2066,2066,2065,2064,2063,2063,2063,2062,2062,2061,2061,2060,2060,2061,2061,2062,2061,2062,2062,2061,2061,2062,2062,2061,2061,2062,2061,2061,2060,2060,2059,2061,2059,2059,2059,2058,2059,2059,2058,2058,2057,2056,2056,2056,2056,2055,2055,2055,2055,2055,2054,2054,2054,2054,2053,2053,2052,2052,2052,2051,2051,2051,2051,2050,2049,2050,2048,2049,2048,2046,2045,2044,2042,2041,2040,2040,2039,2038,2036,2035,2034,2034,2033,2032,2031,2030,2029,2028,2028,2025,2024,2023,2022,2021,2020,2018,2016,2016,2015,2014,2013,2012,2011,2011,2011,2010,2009,2008,2008,2007,2006,2006,2005,2004,2003,2003,2002,2002,2002,2002,2003,2004,2003,2003,2004,2006,2005,2007,2007,2008,2010,2010,2010,2012,2013,2014,2015,2016,2019,2023,2026,2030,2034,2038,2043,2049,2053,2058,2064,2069,2074,2079,2084,2088,2091,2094,2097,2100,2102,2102,2103,2103,2103,2102,2102,2100,2099,2098,2097,2095,2094,2093,2090,2089,2087,2086,2085,2083,2082,2082,2080,2081,2080,2080,2079,2079,2079,2079,2079,2079,2080,2080,2080,2081,2081,2082,2082,2083,2083,2083,2081,2081,2081,2081,2079,2078,2077,2076,2075,2074,2072,2071,2070,2069,2068,2067,2066,2066,2065,2064,2065,2065,2063,2062,2063,2062,2061,2060,2059,2059,2058,2057,2057,2056,2055,2054,2053,2052,2051,2050,2049,2048,2046,2045,2044,2043,2042,2042,2041,2041,2040,2040,2039,2038,2037,2036,2036,2035,2034,2033,2033,2031,2030,2029,2029,2027,2027,2027,2026,2025,2026,2024,2025,2025,2025,2024,2025,2024,2024,2025,2025,2025,2025,2025,2025,2025,2025,2026,2026,2026,2026,2026,2027,2027,2027,2027,2027,2027,2027,2027,2027,2027,2027,2027,2027,2026,2025,2025,2024,2023,2023,2022,2021,2021,2020,2019,2019,2018,2017,2017,2016,2016,2016,2016,2014,2014,2013,2014,2014,2013,2013,2013,2013,2013,2013,2013,2014,2013,2013,2013,2014,2014,2013,2013,2013,2013,2012,2012,2011,2011,2011,2010,2010,2009,2010,2011,2011,2014,2015,2017,2020,2022,2027,2031,2035,2040,2044,2049,2054,2059,2063,2068,2071,2076,2079,2083,2086,2091,2094,2095,2096,2097,2097,2098,2098,2098,2098,2098,2097,2097,2096,2095,2095,2094,2094,2093,2093,2091,2090,2089,2088,2087,2085,2084,2082,2081,2080,2078,2077,2076,2076,2075,2075,2074,2074,2072,2072,2070,2070,2070,2070,2068,2068,2067,2067,2068,2067,2066,2066,2065,2065,2065,2065,2065,2065,2064,2065,2065,2066,2066,2066,2066,2066,2066,2067,2066,2067,2066,2067,2068,2067,2067,2067,2066,2066,2066,2064,2064,2063,2063,2062,2062,2062,2062,2062,2062,2062,2060,2060,2060,2059,2059,2059,2058,2057,2056,2056,2055,2054,2052,2052,2050,2050,2049,2049,2048,2048,2047,2047,2047,2046,2046,2046,2045,2044,2044,2044,2043,2043,2042,2042,2041,2041,2042,2040,2041,2041,2041,2041,2040,2040,2041,2041,2041,2041,2040,2040,2040,2040,2039,2039,2039,2038,2037,2038,2037,2037,2037,2036,2035,2034,2034,2034,2033,2033,2033,2033,2033,2033,2033,2033,2034,2034,2035,2035,2035,2035,2034,2033,2034,2034,2033,2033,2032,2032,2031,2033,2033,2034,2035,2037,2039,2043,2045,2049,2053,2057,2062,2067,2071,2075,2080,2084,2089,2092,2096,2099,2101,2105,2109,2111,2112,2112,2112,2111,2111,2110,2109,2107,2105,2103,2101,2098,2097,2095,2092,2090,2088,2087,2085,2084,2082,2082,2080,2079,2079,2078,2077,2077,2077,2076,2076,2076,2075,2075,2074,2073,2073,2073,2072,2071,2070,2069,2068,2068,2067,2066,2066,2065,2064,2065,2064,2064,2063,2063,2063,2063,2064,2064,2065,2065,2065,2065,2067,2067,2067,2068,2069,2068,2068,2068,2068,2068,2068,2066,2066,2066,2065,2064,2063,2063,2063,2062,2061,2061,2060,2059,2059,2059,2058,2057,2056,2056,2057,2055,2055,2056,2055,2053,2053,2053,2051,2050,2049,2049,2047,2047,2045,2044,2044,2042,2041,2041,2040,2040,2039,2038,2037,2038,2038,2038,2038,2038,2037,2037,2037,2037,2037,2037,2037,2037,2038,2037,2036,2037,2036,2035,2035,2035,2035,2035,2034,2035,2034,2034,2033,2034,2033,2034,2032,2033,2034,2033,2033,2033,2032,2032,2032,2032,2032,2031,2032,2032,2031,2031,2031,2030,2030,2030,2031,2031,2031,2031,2032,2032,2033,2035,2036,2039,2042,2046,2050,2055,2059,2064,2068,2073,2078,2082,2087,2092,2095,2099,2103,2105,2108,2111,2113,2114,2115,2116,2116,2116,2116,2115,2114,2113,2112,2109,2108,2107,2105,2103,2100,2098,2096,2095,2093,2091,2089,2087,2086,2084,2084,2082,2081,2079,2079,2078,2077,2077,2076,2076,2075,2074,2075,2074,2073,2073,2071,2070,2069,2068,2067,2067,2065,2065,2063,2063,2062,2062,2061,2060,2059,2059,2058,2058,2058,2057,2056,2056,2055,2055,2054,2054,2054,2054,2054,2053,2053,2053,2053,2052,2053,2052,2052,2052,2053,2052,2052,2051,2051,2050,2050,2049,2049,2049,2048,2047,2047,2046,2044,2044,2043,2042,2041,2041,2041,2040,2040,2039,2039,2039,2039,2040,2039,2040,2039,2039,2038,2039,2038,2037,2037,2037,2035,2036,2035,2035,2035,2034,2035,2035,2035,2034,2034,2034,2034,2034,2034,2033,2034,2033,2032,2032,2031,2031,2030,2029,2029,2029,2028,2028,2028,2027,2027,2027,2027,2026,2026,2025,2026,2026,2025,2025,2025,2026,2026,2026,2027,2027,2027,2028,2028,2029,2030,2029,2030,2030,2030,2030,2030,2028,2029,2027,2026,2025,2024,2024,2024,2024,2024,2026,2028,2031,2033,2038,2041,2046,2050,2055,2060,2065,2069,2074,2078,2082,2085,2088,2090,2092,2093,2096,2096,2096,2096,2095,2094,2093,2092,2091,2089,2088,2087,2086,2084,2082,2081,2079,2078,2077,2075,2075,2074,2073,2072,2072,2071,2070,2070,2070,2070,2071,2071,2071,2070,2071,2071,2071,2071,2071,2070,2070,2071,2071,2071,2070,2070,2068,2067,2066,2065,2064,2062,2061,2060,2059,2058,2056,2055,2055,2055,2053,2052,2051,2051,2050,2050,2049,2050,2049,2049,2050,2048,2049,2049,2048,2048,2048,2048,2047,2047,2046,2045,2046,2045,2046,2047,2046,2045,2046,2045,2045,2044,2044,2044,2042,2042,2042,2043,2042,2041,2041,2040,2040,2040,2040,2040,2039,2038,2038,2037,2037,2036,2036,2035,2034,2034,2034,2032,2032,2032,2030,2029,2030,2029,2029,2030,2029,2030,2029,2029,2029,2029,2029,2029,2029,2029,2028,2028,2028,2028,2028,2026,2027,2027,2025,2026,2027,2026,2026,2026,2025,2026,2025,2026,2027,2027,2027,2027,2027,2028,2028,2027,2027,2027,2028,2026,2028,2026,2026,2026,2025,2025,2025,2025,2024,2025,2025,2026,2026,2026,2027,2027,2027,2027,2028,2027,2028,2028,2028,2029,2028,2028,2028,2027,2029,2029,2029,2031,2032,2035,2037,2041,2045,2049,2054,2059,2063,2068,2073,2079,2084,2089,2093,2098,2102,2105,2108,2110,2114,2114,2115,2116,2115,2116,2114,2113,2113,2111,2110,2109,2107,2106,2103,2102,2099,2097,2094,2093,2091,2090,2088,2087,2086,2086,2084,2084,2084,2082,2082,2081,2081,2080,2078,2079,2077,2077,2075,2075,2073,2073,2072,2070,2070,2069,2067,2067,2066,2066,2065,2064,2064,2064,2063,2063,2063,2063,2062,2061,2061,2060,2059,2059,2059,2058,2057,2056,2057,2057,2057,2057,2057,2057,2057,2056,2056,2057,2056,2056,2056,2056,2055,2054,2054,2054,2054,2054,2054,2053,2052,2052,2051,2051,2050,2050,2049,2048,2048,2047,2047,2046,2046,2045,2045,2046,2045,2046,2046,2046,2045,2045,2045,2045,2045,2045,2044,2044,2044,2042,2042,2042,2041,2041,2041,2041,2041,2040,2039,2039,2039,2038,2037,2036,2036,2036,2035,2035,2034,2035,2035,2035,2034,2034,2033,2033,2032,2032,2032,2031,2031,2030,2030,2030,2030,2030,2031,2030,2030,2031,2030,2030,2030,2030,2030,2029,2029,2029,2030,2028,2029,2029,2029,2028,2029,2028,2029,2028,2029,2029,2029,2030,2030,2030,2031,2031,2031,2031,2031,2031,2032,2033,2033,2033,2033,2033,2033,2033,2033,2034,2034,2035,2034,2035,2036,2037,2039,2040,2041,2044,2048,2051,2055,2059,2064,2069,2074,2079,2084,2088,2093,2097,2102,2105,2108,2111,2113,2116,2118,2118,2118,2118,2119,2117,2116,2115,2113,2112,2110,2106,2105,2103,2102,2100,2099,2096,2095,2094,2093,2091,2090,2090,2089,2088,2088,2087,2087,2087,2088,2087,2087,2086,2086,2086,2085,2085,2084,2084,2083,2082,2083,2082,2081,2080,2079,2078,2077,2076,2075,2074,2073,2072,2071,2070,2070,2069,2068,2068,2067,2066,2066,2065,2064,2065,2064,2063,2063,2062,2061,2061,2060,2060,2059,2059,2058,2057,2057,2056,2055,2056,2056,2056,2055,2055,2056,2055,2055,2054,2054,2054,2053,2053,2051,2051,2050,2050,2050,2050,2048,2048,2048,2047,2047,2047,2047,2047,2047,2047,2047,2047,2047,2046,2046,2046,2046,2046,2046,2045,2044,2045,2045,2044,2043,2043,2043,2042,2042,2041,2042,2042,2042,2041,2041,2041,2041,2041,2041,2041,2040,2041,2041,2041,2040,2041,2040,2041,2041,2041,2041,2041,2042,2042,2042,2042,2041,2042,2041,2041,2041,2041,2040,2040,2040,2040,2040,2039,2041,2040,2040,2041,2040,2039,2040,2039,2039,2039,2038,2038,2039,2039,2039,2039,2039,2039,2039,2039,2039,2038,2038,2037,2035,2035,2033,2033,2032,2032,2032,2032,2033,2034,2035,2037,2040,2041,2044,2048,2052,2056,2060,2065,2069,2073,2078,2082,2086,2090,2094,2096,2100,2104,2107,2108,2109,2109,2110,2109,2109,2107,2106,2105,2104,2102,2101,2099,2098,2095,2094,2093,2091,2089,2087,2086,2085,2084,2082,2080,2080,2079,2078,2078,2078,2077,2077,2077,2077,2077,2077,2077,2077,2076,2075,2075,2075,2074,2074,2074,2073,2071,2070,2069,2068,2068,2068,2067,2067,2066,2066,2064,2064,2063,2063,2063,2062,2063,2062,2063,2063,2063,2063,2064,2064,2064,2064,2065,2064,2065,2065,2064,2064,2064,2064,2064,2064,2064,2064,2064,2063,2062,2062,2061,2061,2060,2059,2058,2056,2056,2055,2054,2054,2052,2051,2050,2051,2050,2049,2050,2049,2049,2048,2048,2047,2046,2046,2045,2045,2044,2044,2043,2044,2043,2043,2043,2044,2042,2042,2043,2043,2044,2042,2043,2042,2042,2042,2042,2042,2042,2041,2041,2041,2040,2041,2040,2039,2038,2037,2037,2037,2036,2035,2035,2035,2035,2035,2034,2034,2034,2034,2035,2035,2035,2035,2035,2036,2036,2037,2037,2037,2038,2040,2039,2040,2040,2040,2041,2041,2041,2041,2041,2042,2041,2041,2041,2041,2040,2040,2040,2039,2040,2041,2042,2044,2046,2049,2051,2055,2058,2062,2066,2070,2075,2078,2084,2087,2091,2094,2097,2100,2103,2105,2107,2108,2109,2109,2111,2110,2109,2108,2107,2105,2104,2102,2100,2098,2097,2095,2094,2090,2089,2088,2086,2085,2083,2082,2081,2080,2080,2078,2078,2077,2076,2076,2075,2075,2075,2075,2074,2073,2073,2072,2071,2069,2069,2069,2067,2067,2065,2064,2064,2063,2062,2062,2061,2060,2059,2058,2058,2057,2056,2056,2056,2056,2056,2056,2056,2057,2057,2057,2057,2057,2058,2059,2059,2059,2058,2058,2058,2058,2057,2057,2056,2056,2056,2055,2056,2055,2054,2054,2054,2053,2052,2052,2052,2051,2050,2048,2049,2048,2047,2046,2045,2045,2044,2044,2043,2042,2042,2042,2042,2042,2041,2041,2041,2041,2041,2041,2041,2040,2040,2041,2040,2039,2038,2037,2037,2036,2036,2035,2035,2035,2034,2035,2034,2034,2034,2034,2034,2033,2034,2034,2033,2033,2033,2032,2033,2033,2033,2033,2033,2033,2032,2033,2032,2031,2032,2030,2029,2029,2029,2028,2027,2026,2025,2024,2024,2023,2023,2023,2022,2022,2022,2022,2023,2024,2023,2025,2027,2028,2030,2032,2035,2039,2042,2046,2051,2055,2059,2064,2070,2074,2079,2083,2088,2092,2096,2099,2102,2106,2107,2108,2108,2109,2108,2107,2107,2105,2104,2103,2101,2100,2099,2097,2096,2094,2094,2092,2090,2089,2087,2087,2086,2085,2085,2084,2083,2083,2082,2082,2082,2080,2080,2081,2081,2080,2079,2079,2078,2077,2076,2076,2075,2075,2072,2072,2070,2070,2068,2068,2067,2067,2066,2065,2063,2063,2063,2063,2062,2062,2062,2061,2061,2061,2061,2060,2059,2060,2059,2059,2059,2059,2057,2058,2058,2058,2057,2058,2059,2058,2059,2058,2058,2056,2057,2056,2054,2054,2054,2053,2052,2052,2051,2050,2050,2049,2048,2047,2046,2044,2044,2042,2041,2041,2040,2040,2039,2038,2038,2037,2037,2036,2035,2035,2035,2035,2036,2036,2036,2035,2036,2036,2035,2036,2037,2036,2036,2037,2037,2036,2037,2037,2037,2037,2037,2038,2038,2037,2037,2037,2037,2036,2037,2037,2037,2036,2035,2035,2034,2035,2035,2034,2034,2033,2033,2033,2033,2033,2034,2034,2034,2035,2035,2037,2037,2038,2039,2039,2040,2040,2041,2042,2041,2042,2042,2042,2043,2043,2042,2043,2043,2043,2043,2044,2044,2046,2048,2050,2053,2055,2057,2062,2066,2070,2075,2079,2084,2088,2093,2098,2101,2104,2108,2111,2114,2115,2117,2119,2119,2120,2119,2118,2117,2117,2115,2113,2112,2110,2108,2107,2105,2103,2102,2101,2100,2097,2097,2095,2094,2093,2092,2091,2091,2090,2090,2089,2089,2088,2088,2088,2087,2087,2086,2086,2086,2086,2084,2084,2084,2083,2083,2081,2081,2080,2079,2077,2077,2075,2075,2073,2073,2072,2071,2070,2069,2070,2069,2067,2067,2067,2066,2066,2065,2065,2064,2064,2064,2064,2064,2063,2062,2063,2063,2063,2062,2062,2061,2061,2060,2061,2061,2060,2060,2061,2061,2060,2060,2060,2060,2060,2060,2059,2058,2057,2057,2056,2056,2054,2053,2053,2053,2052,2050,2050,2050,2048,2047,2047,2047,2046,2045,2045,2044,2042,2042,2041,2041,2041,2041,2041,2040,2040,2040,2039,2039,2039,2039,2039,2038,2037,2038,2037,2037,2036,2036,2035,2035,2033,2034,2033,2033,2032,2032,2031,2030,2029,2029,2027,2027,2026,2026,2026,2025,2025,2026,2026,2026,2025,2024,2025,2024,2025,2025,2026,2025,2026,2026,2026,2026,2027,2026,2027,2027,2027,2027,2027,2026,2027,2026,2026,2026,2027,2027,2028,2029,2029,2030,2032,2035,2037,2041,2044,2048,2052,2055,2061,2066,2070,2075,2080,2085,2090,2095,2098,2101,2104,2107,2110,2112,2113,2113,2113,2113,2112,2111,2111,2108,2108,2107,2104,2102,2102,2100,2099,2097,2094,2093,2093,2091,2090,2089,2088,2088,2088,2088,2087,2087,2087,2088,2087,2087,2087,2087,2087,2087,2087,2086,2085,2084,2083,2082,2080,2079,2078,2077,2076,2074,2073,2071,2069,2069,2067,2065,2065,2063,2063,2062,2061,2061,2061,2061,2062,2060,2061,2061,2061,2062,2062,2062,2061,2062,2062,2062,2062,2061,2061,2059,2058,2058,2056,2056,2055,2055,2054,2054,2054,2053,2053,2052,2053,2052,2052,2052,2053,2052,2051,2051,2051,2050,2049,2049,2049,2049,2049,2049,2048,2048,2048,2047,2047,2045,2046,2045,2045,2045,2044,2043,2042,2042,2041,2041,2041,2039,2038,2037,2037,2036,2035,2035,2034,2033,2034,2032,2033,2032,2032,2032,2031,2031,2031,2030,2031,2030,2030,2030,2030,2030,2029,2029,2029,2030,2030,2029,2030,2029,2030,2029,2030,2029,2030,2029,2030,2029,2030,2030,2030,2030,2030,2030,2030,2030,2030,2029,2029,2029,2028,2028,2028,2028,2028,2028,2029,2029,2030,2031,2033,2035,2037,2040,2043,2046,2050,2054,2057,2062,2066,2070,2074,2078,2083,2087,2090,2095,2097,2100,2103,2106,2108,2109,2110,2110,2109,2110,2109,2109,2107,2105,2104,2101,2099,2098,2096,2094,2092,2091,2089,2088,2086,2086,2085,2084,2083,2083,2082,2081,2081,2080,2079,2079,2079,2079,2078,2077,2076,2076,2076,2075,2075,2074,2074,2074,2072,2072,2071,2070,2070,2068,2067,2066,2066,2065,2063,2062,2062,2060,2060,2059,2058,2058,2058,2057,2058,2057,2057,2057,2057,2056,2056,2056,2055,2056,2055,2055,2055,2055,2055,2055,2055,2055,2054,2054,2054,2052,2052,2051,2051,2051,2050,2048,2048,2047,2046,2045,2045,2044,2044,2044,2043,2044,2043,2044,2044,2044,2043,2044,2044,2043,2044,2043,2044,2044,2043,2043,2043,2042,2042,2041,2041,2042,2041,2041,2041,2041,2040,2041,2040,2040,2039,2039,2040,2039,2040,2039,2038,2039,2038,2038,2037,2037,2037,2038,2037,2036,2036,2036,2036,2036,2035,2034,2034,2033,2034,2034,2032,2033,2032,2032,2032,2032,2032,2032,2031,2031,2031,2030,2031,2030,2030,2031,2030,2031,2030,2031,2030,2031,2033,2033,2035,2038,2041,2044,2047,2051,2055,2059,2063,2067,2072,2075,2080,2083,2087,2090,2093,2096,2098,2102,2103,2103,2104,2105,2104,2103,2102,2101,2100,2098,2096,2096,2093,2091,2089,2087,2085,2084,2082,2081,2078,2077,2076,2075,2074,2073,2072,2072,2071,2070,2069,2069,2069,2069,2067,2069,2068,2069,2069,2067,2067,2066,2066,2066,2064,2064,2063,2061,2061,2061,2058,2058,2057,2056,2056,2056,2055,2055,2055,2054,2054,2053,2054,2054,2054,2055,2055,2055,2055,2056,2055,2057,2056,2057,2058,2057,2059,2058,2059,2059,2059,2059,2059,2058,2058,2057,2057,2056,2056,2055,2054,2053,2053,2052,2051,2051,2051,2050,2050,2050,2049,2050,2050,2050,2050,2050,2050,2051,2049,2050,2049,2049,2049,2049,2048,2048,2047,2048,2046,2047,2046,2045,2045,2044,2043,2043,2042,2041,2041,2040,2039,2039,2038,2037,2037,2037,2037,2037,2036,2036,2037,2037,2037,2037,2036,2036,2035,2035,2035,2034,2033,2033,2032,2031,2030,2030,2030,2030,2030,2030,2031,2031,2032,2032,2033,2034,2034,2034,2034,2035,2034,2033,2033,2033,2032,2032,2032,2032,2031,2033,2033,2034,2036,2038,2040,2044,2048,2052,2056,2061,2067,2072,2076,2082,2087,2091,2095,2099,2102,2104,2105,2107,2108,2107,2107,2106,2104,2103,2101,2098,2096,2094,2091,2090,2087,2084,2083,2081,2081,2080,2079,2078,2078,2077,2077,2077,2076,2076,2075,2075,2075,2075,2076,2075,2076,2075,2075,2075,2074,2074,2073,2072,2071,2070,2068,2067,2066,2065,2064,2063,2061,2060,2059,2058,2057,2057,2056,2056,2055,2055,2055,2055,2054,2055,2055,2054,2054,2054,2054,2054,2054,2054,2053,2054,2054,2054,2054,2054,2054,2054,2053,2053,2052,2051,2050,2050,2048,2048,2046,2045,2043,2043,2043,2042,2041,2041,2040,2039,2039,2039,2038,2037,2037,2037,2036,2036,2035,2035,2034,2033,2033,2032,2031,2030,2030,2029,2028,2028,2027,2026,2025,2024,2024,2023,2023,2023,2023,2022,2022,2023,2023,2023,2023,2024,2023,2024,2025,2025,2025,2026,2026,2025,2025,2024,2023,2023,2022,2022,2022,2022,2021,2021,2021,2021,2021,2022,2023,2023,2024,2024,2026,2026,2027,2028,2029,2029,2031,2031,2031,2032,2032,2033,2033,2033,2033,2034,2034,2034,2035,2035,2034,2034,2035,2035,2036,2036,2035,2036,2036,2039,2039,2041,2043,2046,2049,2052,2056,2060,2065,2069,2075,2078,2084,2087,2092,2096,2099,2103,2107,2108,2111,2112,2114,2114,2113,2113,2112,2111,2110,2109,2107,2105,2104,2102,2100,2098,2097,2095,2092,2091,2089,2088,2085,2084,2082,2081,2080,2079,2078,2077,2077,2076,2077,2077,2076,2077,2077,2075,2076,2075,2075,2074,2073,2071,2070,2069,2068,2066,2064,2063,2062,2060,2059,2058,2057,2056,2055,2055,2054,2055,2054,2054,2054,2054,2054,2054,2054,2054,2054,2054,2053,2053,2052,2053,2053,2053,2054,2054,2055,2055,2056,2057,2057,2057,2057,2057,2059,2057,2056,2056,2056,2056,2055,2054,2054,2053,2052,2051,2051,2050,2050,2048,2047,2047,2046,2046,2045,2045,2044,2045,2043,2044,2042,2043,2043,2042,2042,2043,2042,2042,2042,2041,2042,2041,2040,2041,2040,2040,2040,2039,2039,2039,2039,2038,2038,2038,2036,2036,2036,2036,2036,2036,2035,2035,2035,2035,2035,2035,2035,2035,2036,2036,2036,2035,2035,2035,2035,2035,2035,2034,2033,2033,2032,2031,2031,2030,2030,2030,2029,2029,2030,2029,2029,2029,2029,2029,2028,2028,2028,2027,2027,2027,2026,2026,2027,2026,2026,2026,2026,2026,2025,2024,2023,2022,2022,2021,2020,2020,2019,2018,2017,2019,2019,2019,2020,2022,2025,2028,2032,2036,2040,2043,2049,2055,2060,2066,2072,2077,2081,2086,2090,2094,2098,2100,2103,2105,2107,2106,2107,2107,2106,2106,2105,2104,2103,2102,2101,2098,2096,2095,2092,2091,2090,2088,2087,2086,2084,2083,2082,2082,2081,2080,2079,2078,2078,2078,2078,2078,2079,2079,2080,2079,2080,2080,2081,2081,2081,2081,2082,2081,2081,2079,2078,2077,2075,2074,2072,2072,2070,2068,2067,2066,2064,2064,2063,2063,2063,2062,2061,2061,2061,2062,2060,2060,2060,2060,2059,2059,2059,2059,2059,2058,2058,2057,2057,2057,2057,2057,2057,2057,2057,2055,2055,2055,2055,2054,2053,2052,2051,2052,2051,2050,2050,2049,2047,2048,2048,2046,2047,2046,2046,2045,2045,2044,2044,2044,2043,2043,2043,2042,2042,2042,2042,2041,2041,2041,2041,2041,2041,2041,2041,2040,2040,2040,2039,2039,2037,2036,2035,2034,2033,2033,2031,2031,2030,2029,2028,2028,2029,2029,2027,2027,2028,2027,2028,2027,2028,2027,2028,2028,2029,2028,2029,2029,2029,2030,2030,2030,2030,2029,2029,2030,2029,2029,2029,2029,2029,2028,2028,2027,2027,2027,2026,2025,2025,2025,2024,2023,2023,2022,2021,2020,2019,2020,2019,2019,2017,2017,2017,2016,2017,2017,2017,2017,2018,2019,2020,2022,2024,2026,2030,2034,2038,2042,2048,2053,2058,2063,2067,2072,2076,2080,2084,2087,2091,2093,2098,2099,2101,2101,2101,2100,2099,2098,2097,2096,2094,2092,2091,2088,2087,2085,2084,2082,2081,2081,2079,2079,2078,2077,2077,2075,2075,2075,2074,2073,2072,2071,2071,2070,2069,2068,2068,2068,2066,2065,2065,2065,2064,2063,2062,2063,2061,2061,2061,2061,2060,2060,2059,2058,2059,2058,2057,2057,2056,2056,2056,2056,2055,2056,2055,2055,2055,2055,2055,2055,2055,2056,2056,2055,2055,2056,2055,2057,2057,2057,2057,2056,2057,2057,2057,2056,2056,2056,2054,2054,2052,2051,2050,2048,2048,2046,2044,2043,2042,2041,2041,2041,2040,2039,2039,2037,2037,2035,2035,2034,2032,2031,2031,2029,2028,2027,2026,2026,2026,2026,2025,2025,2025,2025,2025,2025,2025,2025,2025,2026,2025,2025,2025,2025,2024,2023,2022,2022,2021,2019,2019,2019,2019,2018,2018,2017,2018,2018,2018,2017,2018,2018,2017,2017,2017,2018,2017,2017,2016,2017,2017,2016,2016,2016,2016,2016,2015,2016,2016,2016,2016,2016,2016,2015,2015,2013,2013,2012,2012,2011,2011,2011,2012,2013,2015,2017,2019,2022,2025,2029,2033,2039,2042,2048,2053,2057,2062,2066,2071,2074,2078,2081,2084,2087,2088,2089,2090,2091,2092,2092,2092,2091,2091,2090,2089,2088,2087,2085,2083,2081,2078,2077,2075,2072,2070,2068,2066,2064,2064,2062,2060,2059,2059,2058,2058,2059,2057,2058,2057,2057,2056,2056,2055,2054,2054,2054,2053,2053,2052,2053,2053,2052,2052,2052,2052,2052,2051,2051,2052,2051,2050,2050,2049,2049,2048,2048,2047,2047,2047,2048,2047,2048,2048,2048,2049,2050,2050,2051,2052,2052,2054,2054,2054,2055,2054,2055,2054,2055,2055,2054,2053,2052,2051,2050,2048,2047,2045,2045,2043,2041,2040,2040,2039,2038,2036,2036,2036,2035,2034,2035,2035,2034,2034,2034,2033,2034,2034,2034,2033,2033,2033,2033,2032,2033,2033,2035,2035,2035,2035,2035,2036,2037,2036,2036,2036,2035,2035,2035,2034,2033,2033,2033,2032,2031,2031,2031,2031,2032,2031,2031,2031,2031,2031,2030,2030,2029,2028,2028,2028,2027,2027,2025,2026,2025,2026,2026,2026,2025,2025,2025,2025,2026,2026,2027,2029,2030,2032,2035,2038,2041,2045,2050,2055,2059,2064,2069,2072,2075,2080,2083,2085,2088,2090,2091,2092,2093,2093,2094,2094,2093,2092,2091,2090,2089,2087,2086,2084,2083,2082,2079,2077,2075,2074,2072,2070,2069,2068,2067,2068,2067,2066,2066,2065,2064,2064,2063,2062,2061,2059,2058,2057,2056,2055,2054,2053,2052,2051,2051,2051,2050,2050,2051,2051,2050,2050,2049,2050,2049,2049,2049,2049,2050,2049,2050,2051,2051,2052,2053,2053,2055,2054,2055,2055,2056,2055,2056,2056,2056,2056,2056,2056,2055,2055,2055,2056,2054,2055,2054,2055,2054,2053,2051,2050,2050,2049,2047,2047,2046,2043,2043,2042,2042,2042,2041,2040,2040,2039,2038,2038,2037,2035,2035,2033,2033,2032,2032,2031,2031,2031,2032,2032,2032,2034,2033,2034,2035,2036,2035,2036,2035,2035,2035,2035,2035,2034,2035,2035,2034,2034,2034,2035,2035,2036,2036,2035,2036,2036,2035,2035,2035,2034,2034,2033,2033,2032,2032,2031,2031,2030,2030,2030,2029,2029,2028,2029,2029,2029,2031,2033,2035,2038,2041,2044,2049,2054,2057,2063,2068,2073,2077,2083,2086,2090,2094,2096,2100,2102,2105,2108,2108,2109,2107,2107,2107,2105,2104,2103,2101,2098,2097,2094,2093,2091,2089,2087,2086,2084,2083,2081,2080,2079,2078,2076,2076,2076,2075,2075,2075,2074,2073,2073,2072,2072,2071,2072,2071,2069,2069,2068,2066,2066,2065,2064,2063,2062,2062,2061,2059,2058,2057,2056,2056,2055,2054,2053,2051,2051,2050,2051,2051,2050,2050,2050,2051,2051,2051,2051,2051,2051,2051,2052,2052,2051,2051,2051,2052,2051,2051,2051,2050,2049,2049,2049,2049,2048,2048,2048,2047,2047,2046,2045,2045,2044,2043,2042,2042,2042,2041,2041,2041,2041,2041,2041,2040,2040,2040,2040,2039,2038,2039,2039,2037,2037,2038,2037,2037,2038,2036,2037,2037,2036,2036,2036,2035,2035,2035,2035,2033,2033,2034,2034,2033,2033,2033,2032,2032,2032,2033,2032,2033,2032,2033,2033,2033,2032,2032,2032,2032,2031,2031,2030,2029,2029,2028,2027,2026,2025,2025,2024,2024,2023,2022,2022,2022,2021,2022,2022,2022,2022,2023,2025,2026,2028,2030,2032,2035,2039,2042,2047,2051,2056,2060,2065,2070,2074,2079,2083,2087,2092,2094,2098,2102,2105,2107,2108,2109,2110,2108,2108,2106,2105,2103,2102,2100,2099,2098,2097,2095,2093,2092,2091,2090,2089,2086,2086,2085,2085,2084,2083,2082,2081,2080,2079,2078,2077,2077,2076,2076,2075,2074,2073,2073,2071,2071,2069,2069,2068,2067,2066,2064,2065,2064,2063,2063,2063,2062,2061,2061,2060,2059,2059,2059,2058,2058,2058,2058,2058,2058,2058,2057,2057,2056,2056,2056,2055,2055,2054,2054,2052,2052,2051,2051,2049,2050,2049,2049,2049,2049,2049,2049,2048,2047,2047,2047,2047,2047,2047,2046,2046,2047,2045,2045,2045,2044,2044,2043,2042,2043,2042,2042,2041,2041,2041,2040,2039,2039,2038,2038,2037,2037,2036,2036,2036,2035,2035,2035,2035,2034,2034,2034,2033,2033,2033,2033,2033,2033,2033,2032,2032,2031,2031,2030,2030,2029,2029,2029,2028,2028,2028,2029,2029,2028,2029,2028,2028,2027,2027,2027,2026,2026,2025,2024,2024,2024,2023,2023,2022,2022,2022,2022,2021,2021,2020,2021,2020,2021,2020,2020,2020,2020,2019,2019,2019,2019,2019,2019,2020,2022,2023,2024,2026,2028,2031,2034,2039,2041,2046,2050,2054,2058,2063,2067,2072,2076,2080,2084,2088,2092,2096,2100,2103,2104,2105,2106,2105,2106,2106,2105,2104,2103,2102,2101,2100,2098,2097,2095,2093,2092,2090,2090,2089,2090,2089,2089,2090,2092,2092,2094,2096,2097,2099,2101,2102,2103,2105,2106,2106,2107,2108,2109,2108,2109,2108,2108,2107,2107,2107,2105,2104,2103,2101,2100,2098,2096,2096,2094,2092,2090,2090,2089,2087,2087,2085,2084,2083,2081,2080,2079,2078,2076,2076,2075,2074,2073,2073,2073,2072,2071,2071,2071,2071,2070,2070,2070,2070,2070,2070,2071,2070,2069,2070,2070,2070,2070,2069,2068,2066,2066,2066,2064,2063,2062,2062,2060,2060,2059,2058,2057,2056,2057,2056,2057,2056,2056,2056,2056,2055,2055,2055,2053,2054,2052,2052,2052,2051,2051,2051,2051,2051,2050,2050,2051,2051,2050,2050,2050,2050,2049,2049,2048,2047,2046,2046,2045,2045,2045,2045,2045,2045,2046,2046,2046,2048,2048,2048,2048,2047,2046,2046,2046,2044,2044,2043,2043,2041,2041,2040,2040,2040,2039,2039,2039,2039,2039,2039,2040,2040,2040,2040,2040,2041,2041,2040,2040,2040,2039,2040,2038,2038,2037,2037,2037,2037,2037,2035,2036,2036,2035,2036,2037,2037,2039,2042,2044,2046,2050,2054,2058,2062,2067,2071,2076,2080,2085,2089,2093,2097,2101,2105,2108,2111,2114,2115,2116,2116,2115,2115,2114,2113,2111,2109,2108,2106,2104,2102,2100,2098,2097,2095,2094,2092,2091,2088,2087,2086,2083,2082,2081,2079,2079,2079,2078,2078,2077,2078,2076,2076,2076,2074,2074,2073,2072,2072,2071,2070,2069,2069,2068,2066,2066,2065,2063,2063,2062,2062,2062,2063,2061,2062,2062,2063,2063,2063,2063,2063,2063,2063,2064,2063,2063,2063,2063,2062,2061,2059,2058,2057,2057,2056,2055,2055,2053,2053,2052,2052,2051,2050,2050,2050,2049,2050,2049,2048,2049,2048,2047,2047,2046,2046,2045,2045,2045,2044,2043,2042,2042,2041,2040,2040,2039,2039,2038,2038,2038,2037,2036,2036,2035,2035,2035,2035,2035,2033,2033,2032,2031,2032,2031,2031,2031,2031,2031,2030,2030,2030,2029,2029,2029,2029,2028,2027,2027,2026,2026,2024,2025,2025,2025,2025,2024,2026,2026,2026,2027,2026,2028,2028,2027,2028,2028,2027,2028,2028,2027,2027,2028,2027,2026,2027,2026,2025,2025,2025,2023,2023,2022,2022,2021,2021,2020,2020,2019,2018,2018,2019,2018,2018,2018,2019,2019,2019,2020,2020,2020,2020,2022,2022,2022,2023,2023,2024,2025,2025,2027,2029,2031,2033,2036,2039,2042,2047,2051,2056,2063,2068,2073,2079,2085,2090,2094,2099,2102,2106,2110,2113,2114,2116,2118,2117,2117,2116,2116,2115,2112,2110,2108,2107,2105,2103,2101,2099,2098,2095,2093,2092,2090,2089,2088,2087,2086,2086,2085,2084,2083,2083,2082,2082,2083,2082,2082,2082,2083,2082,2082,2082,2081,2080,2080,2079,2078,2078,2076,2075,2074,2072,2072,2071,2069,2068,2068,2065,2065,2063,2062,2061,2061,2059,2059,2059,2059,2058,2058,2058,2058,2058,2057,2058,2057,2057,2056,2056,2056,2056,2056,2056,2056,2056,2055,2056,2055,2054,2054,2054,2054,2054,2053,2053,2052,2051,2050,2049,2049,2048,2047,2046,2046,2045,2044,2043,2043,2043,2042,2042,2041,2041,2041,2040,2041,2040,2041,2040,2040,2041,2040,2040,2041,2041,2040,2041,2040,2041,2041,2041,2041,2041,2042,2041,2042,2042,2042,2042,2041,2041,2040,2039,2039,2038,2037,2038,2037,2036,2036,2036,2035,2035,2034,2034,2033,2032,2032,2031,2030,2029,2029,2028,2029,2028,2028,2027,2026,2027,2026,2026,2026,2024,2025,2025,2025,2024,2025,2025,2025,2026,2027,2026,2025,2026,2026,2025,2025,2025,2024,2024,2024,2023,2023,2023,2024,2024,2025,2026,2028,2030,2033,2036,2041,2045,2050,2055,2059,2065,2071,2076,2081,2086,2089,2094,2097,2101,2103,2104,2107,2110,2109,2109,2109,2109,2109,2108,2106,2104,2102,2102,2099,2098,2097,2094,2093,2091,2090,2088,2087,2086,2084,2083,2083,2082,2081,2080,2080,2078,2077,2077,2076,2075,2075,2075,2074,2072,2071,2070,2068,2067,2066,2065,2064,2062,2061,2060,2059,2059,2058,2057,2056,2056,2056,2056,2056,2055,2055,2056,2055,2055,2055,2055,2055,2056,2056,2055,2056,2055,2055,2055,2055,2055,2055,2055,2055,2054,2054,2054,2054,2054,2054,2054,2054,2053,2052,2052,2052,2051,2050,2050,2049,2048,2047,2047,2046,2045,2044,2043,2042,2041,2041,2041,2041,2040,2041,2040,2039,2039,2039,2039,2038,2038,2039,2038,2037,2037,2037,2036,2036,2035,2036,2035,2034,2035,2035,2035,2035,2035,2036,2035,2035,2036,2036,2037,2036,2036,2037,2036,2035,2035,2035,2035,2035,2035,2034,2034,2033,2034,2033,2033,2032,2032,2032,2032,2032,2032,2033,2032,2032,2032,2032,2031,2031,2030,2030,2030,2030,2030,2029,2029,2030,2029,2028,2029,2029,2030,2030,2031,2032,2034,2036,2039,2042,2045,2049,2053,2057,2061,2067,2072,2076,2080,2084,2088,2091,2094,2097,2100,2102,2104,2105,2104,2105,2105,2104,2103,2102,2101,2099,2098,2096,2094,2092,2090,2089,2087,2086,2084,2083,2082,2081,2080,2079,2078,2077,2078,2077,2077,2076,2076,2075,2075,2075,2074,2073,2072,2072,2070,2069,2069,2067,2066,2065,2065,2064,2062,2062,2061,2061,2059,2058,2057,2056,2057,2057,2056,2056,2056,2056,2057,2057,2056,2056,2057,2057,2057,2057,2058,2058,2058,2058,2057,2057,2057,2057,2057,2057,2056,2055,2056,2055,2054,2054,2053,2053,2052,2051,2051,2051,2050,2049,2049,2049,2048,2047,2046,2045,2043,2044,2042,2042,2041,2041,2041,2040,2040,2040,2040,2040,2040,2041,2040,2040,2040,2040,2040,2040,2039,2039,2038,2038,2037,2036,2036,2035,2035,2034,2035,2035,2034,2033,2033,2033,2033,2033,2032,2032,2032,2031,2032,2032,2032,2033,2032,2031,2032,2031,2031,2030,2030,2031,2031,2030,2031,2030,2030,2031,2031,2031,2031,2031,2032,2032,2033,2032,2032,2032,2033,2033,2035,2036,2038,2040,2043,2045,2049,2053,2056,2060,2066,2070,2074,2079,2082,2087,2091,2095,2098,2100,2103,2106,2107,2108,2109,2109,2110,2109,2108,2107,2105,2103,2102,2100,2098,2095,2093,2092,2090,2087,2085,2083,2081,2081,2078,2077,2076,2074,2073,2073,2072,2072,2071,2070,2070,2070,2070,2070,2070,2070,2069,2068,2067,2067,2066,2065,2063,2063,2062,2061,2059,2059,2057,2056,2056,2055,2055,2055,2055,2054,2053,2054,2054,2055,2054,2054,2055,2055,2055,2056,2056,2056,2056,2057,2057,2057,2058,2057,2058,2057,2057,2056,2056,2055,2055,2054,2053,2052,2052,2051,2049,2048,2048,2047,2045,2044,2043,2042,2042,2041,2040,2040,2039,2038,2038,2038,2037,2037,2037,2037,2036,2036,2035,2035,2034,2035,2034,2034,2034,2034,2032,2032,2032,2032,2031,2031,2031,2031,2031,2032,2032,2032,2032,2033,2033,2034,2035,2035,2035,2035,2034,2034,2034,2033,2032,2032,2031,2030,2030,2030,2028,2029,2028,2028,2028,2027,2026,2026,2026,2025,2026,2025,2025,2025,2025,2026,2026,2025,2027,2025,2025,2025,2025,2025,2024,2024,2024,2024,2024,2024,2025,2026,2028,2029,2031,2033,2036,2040,2043,2048,2053,2058,2063,2067,2073,2077,2082,2087,2092,2095,2098,2101,2104,2107,2108,2109,2110,2110,2108,2108,2107,2106,2104,2104,2101,2099,2099,2097,2096,2094,2092,2090,2089,2088,2087,2085,2084,2082,2080,2079,2078,2077,2076,2076,2075,2073,2072,2071,2070,2069,2069,2068,2067,2066,2065,2064,2064,2062,2062,2062,2060,2060,2058,2057,2057,2056,2056,2056,2055,2055,2056,2055,2054,2053,2054,2053,2053,2052,2053,2052,2051,2052,2051,2051,2052,2050,2050,2049,2050,2050,2050,2050,2051,2050,2050,2050,2049,2049,2049,2048,2049,2049,2049,2049,2048,2049,2049,2049,2048,2049,2048,2048,2048,2049,2048,2048,2048,2048,2049,2048,2047,2047,2047,2047,2047,2046,2045,2045,2043,2042,2042,2042,2041,2041,2040,2040,2039,2039,2040,2041,2040,2040,2040,2040,2039,2039,2038,2039,2037,2038,2037,2036,2037,2036,2036,2036,2035,2035,2035,2034,2033,2033,2033,2032,2033,2032,2032,2031,2031,2031,2030,2030,2029,2028,2028,2028,2028,2027,2027,2027,2027,2027,2027,2027,2027,2027,2027,2027,2027,2027,2027,2026,2026,2026,2025,2024,2024,2024,2023,2024,2023,2023,2023,2024,2025,2027,2029,2031,2034,2037,2041,2045,2050,2055,2059,2064,2069,2074,2077,2081,2086,2089,2092,2096,2097,2100,2101,2102,2103,2103,2102,2103,2101,2101,2099,2098,2097,2094,2094,2091,2090,2090,2086,2085,2084,2083,2082,2081,2081,2080,2080,2079,2079,2078,2078,2077,2077,2077,2077,2076,2076,2076,2077,2075,2075,2075,2074,2074,2073,2073,2072,2071,2071,2070,2069,2068,2066,2066,2063,2063,2063,2062,2061,2062,2061,2060,2060,2059,2058,2057,2057,2056,2056,2056,2056,2056,2055,2055,2054,2055,2054,2054,2054,2054,2054,2054,2054,2054,2053,2053,2052,2052,2051,2051,2050,2049,2049,2047,2047,2047,2046,2045,2044,2045,2043,2042,2042,2041,2041,2040,2040,2039,2037,2036,2036,2034,2032,2031,2031,2029,2028,2026,2027,2026,2026,2027,2026,2026,2025,2026,2025,2026,2025,2025,2026,2025,2027,2026,2027,2026,2026,2026,2026,2026,2025,2025,2024,2025,2024,2025,2024,2024,2024,2024,2024,2024,2023,2024,2024,2023,2023,2022,2022,2022,2022,2022,2020,2020,2020,2019,2018,2019,2018,2016,2016,2016,2016,2016,2016,2016,2017,2017,2017,2017,2018,2017,2018,2018,2018,2019,2018,2018,2018,2018,2018,2018,2018,2020,2021,2022,2023,2025,2028,2030,2033,2037,2041,2045,2050,2055,2060,2064,2070,2074,2078,2083,2087,2090,2093,2095,2100,2101,2103,2103,2104,2103,2104,2104,2103,2102,2101,2099,2099,2097,2096,2094,2093,2090,2090,2087,2086,2084,2084,2082,2080,2079,2078,2076,2076,2075,2075,2074,2075,2075,2073,2073,2072,2072,2071,2070,2069,2067,2067,2066,2065,2064,2063,2062,2061,2060,2060,2060,2059,2059,2058,2057,2057,2056,2056,2054,2054,2053,2053,2053,2053,2053,2052,2052,2052,2051,2052,2052,2053,2052,2053,2053,2053,2053,2053,2054,2054,2054,2054,2054,2055,2055,2055,2054,2055,2054,2053,2052,2051,2050,2050,2049,2048,2048,2047,2048,2047,2046,2046,2045,2047,2045,2045,2044,2044,2044,2043,2042,2042,2041,2041,2041,2041,2041,2041,2041,2040,2040,2041,2041,2040,2040,2040,2040,2040,2041,2041,2041,2041,2040,2041,2041,2040,2041,2041,2041,2042,2041,2041,2041,2041,2041,2041,2041,2041,2040,2040,2040,2040,2040,2040,2040,2039,2039,2039,2039,2039,2038,2038,2038,2038,2037,2037,2037,2036,2037,2037,2036,2035,2035,2035,2034,2034,2033,2032,2033,2032,2032,2033,2032,2033,2033,2034,2035,2035,2036,2036,2036,2036,2037,2037,2037,2037,2038,2039,2039,2041,2042,2045,2048,2052,2055,2060,2065,2071,2075,2080,2086,2090,2096,2099,2104,2107,2112,2114,2116,2119,2119,2120,2120,2120,2119,2118,2117,2115,2114,2112,2112,2109,2108,2106,2104,2102,2100,2099,2097,2095,2093,2092,2092,2090,2090,2089,2088,2088,2088,2086,2086,2086,2086,2086,2086,2086,2084,2085,2084,2083,2083,2083,2082,2082,2080,2080,2079,2078,2077,2076,2075,2074,2073,2072,2071,2070,2069,2068,2066,2065,2064,2064,2064,2063,2064,2063,2062,2063,2063,2063,2063,2063,2064,2064,2064,2065,2064,2063,2063,2063,2062,2061,2061,2061,2060,2060,2060,2059,2058,2057,2057,2057,2056,2056,2055,2056,2055,2055,2054,2053,2053,2052,2052,2052,2052,2050,2050,2048,2047,2046,2046,2044,2043,2042,2041,2041,2040,2040,2040,2039,2039,2039,2038,2037,2037,2036,2036,2036,2035,2035,2035,2034,2034,2035,2034,2033,2034,2034,2033,2033,2033,2033,2033,2033,2034,2034,2034,2035,2036,2035,2035,2035,2036,2035,2036,2036,2036,2037,2038,2038,2039,2039,2039,2039,2039,2039,2038,2038,2038,2037,2038,2037,2037,2036,2036,2036,2035,2035,2035,2034,2034,2034,2033,2034,2035,2035,2036,2038,2040,2042,2044,2048,2050,2055,2058,2064,2068,2072,2076,2081,2087,2091,2096,2101,2105,2108,2111,2115,2116,2118,2118,2118,2118,2117,2116,2115,2114,2113,2111,2110,2108,2106,2104,2102,2100,2098,2096,2095,2093,2092,2091,2090,2088,2088,2087,2086,2086,2085,2085,2085,2085,2085,2085,2084,2083,2083,2083,2082,2082,2081,2081,2079,2078,2077,2076,2076,2075,2075,2075,2074,2074,2073,2073,2073,2073,2073,2072,2072,2072,2072,2072,2072,2072,2072,2072,2072,2073,2073,2072,2073,2072,2072,2072,2072,2073,2072,2072,2072,2072,2073,2073,2072,2072,2072,2071,2071,2069,2069,2068,2067,2066,2066,2065,2065,2064,2064,2065,2064,2063,2063,2062,2063,2062,2062,2061,2061,2060,2060,2059,2059,2058,2058,2058,2058,2058,2057,2057,2056,2056,2054,2055,2053,2052,2052,2051,2051,2050,2051,2049,2051,2050,2050,2051,2051,2050,2051,2050,2050,2050,2049,2050,2050,2049,2049,2049,2049,2048,2048,2048,2047,2046,2045,2044,2043,2043,2041,2042,2041,2040,2040,2039,2039,2040,2039,2038,2039,2038,2037,2037,2037,2038,2039,2041,2043,2046,2050,2053,2056,2061,2067,2071,2075,2080,2084,2089,2092,2096,2099,2102,2104,2106,2109,2111,2111,2112,2112,2112,2112,2109,2109,2107,2105,2104,2102,2101,2099,2097,2096,2095,2093,2092,2091,2090,2088,2087,2086,2086,2086,2085,2085,2085,2084,2083,2082,2081,2080,2079,2078,2077,2076,2076,2075,2075,2073,2073,2071,2070,2069,2067,2066,2065,2064,2065,2063,2062,2061,2061,2060,2060,2059,2059,2059,2060,2059,2060,2059,2060,2061,2061,2061,2060,2060,2060,2059,2059,2059,2059,2059,2060,2059,2060,2060,2061,2061,2061,2061,2060,2060,2058,2058,2059,2058,2058,2057,2057,2056,2057,2057,2055,2056,2056,2056,2056,2055,2056,2056,2056,2055,2054,2054,2053,2053,2052,2052,2051,2050,2050,2049,2049,2048,2047,2046,2044,2043,2043,2041,2041,2041,2041,2040,2039,2039,2039,2038,2038,2037,2036,2036,2035,2035,2035,2035,2034,2034,2033,2032,2033,2031,2031,2032,2032,2033,2033,2033,2033,2033,2033,2034,2034,2033,2034,2033,2033,2034,2033,2032,2033,2034,2034,2035,2037,2037,2040,2042,2045,2048,2052,2056,2059,2064,2068,2072,2076,2080,2084,2088,2091,2095,2099,2100,2103,2105,2107,2108,2108,2108,2107,2105,2105,2103,2102,2101,2099,2097,2095,2094,2092,2091,2089,2088,2086,2086,2084,2084,2083,2083,2082,2082,2080,2081,2079,2079,2078,2077,2076,2076,2075,2075,2073,2072,2072,2070,2070,2068,2067,2065,2064,2063,2063,2062,2060,2061,2059,2059,2059,2058,2058,2057,2057,2057,2057,2058,2056,2057,2057,2057,2056,2057,2056,2056,2055,2056,2055,2054,2054,2054,2054,2054,2053,2054,2053,2053,2053,2052,2053,2052,2051,2052,2050,2050,2050,2049,2048,2048,2047,2047,2047,2046,2046,2045,2045,2043,2044,2043,2043,2043,2043,2043,2042,2042,2042,2041,2041,2041,2041,2041,2040,2039,2038,2038,2038,2037,2037,2036,2036,2035,2035,2035,2035,2035,2034,2034,2034,2034,2034,2033,2033,2033,2033,2033,2033,2034,2033,2033,2033,2032,2032,2032,2031,2030,2029,2028,2028,2027,2026,2026,2025,2025,2026,2025,2025,2025,2026,2027,2026,2026,2027,2027,2026,2026,2026,2025,2025,2024,2026,2025,2025,2026,2028,2029,2032,2034,2038,2041,2046,2051,2055,2059,2064,2069,2073,2078,2082,2085,2088,2092,2094,2097,2099,2100,2101,2101,2100,2099,2098,2097,2096,2094,2094,2092,2091,2090,2089,2086,2086,2086,2084,2083,2084,2084,2082,2083,2083,2082,2082,2081,2082,2081,2081,2080,2079,2079,2078,2078,2077,2076,2076,2075,2075,2075,2074,2073,2073,2072,2072,2070,2070,2069,2067,2067,2065,2064,2063,2063,2062,2061,2061,2060,2060,2059,2060,2058,2059,2059,2059,2058,2058,2058,2059,2059,2058,2059,2059,2059,2059,2058,2058,2058,2057,2057,2056,2056,2055,2054,2055,2054,2054,2053,2052,2052,2052,2052,2051,2051,2050,2050,2050,2050,2050,2049,2049,2049,2049,2048,2048,2048,2048,2048,2047,2048,2047,2046,2046,2046,2045,2045,2046,2045,2045,2045,2045,2045,2046,2046,2045,2045,2045,2046,2045,2045,2045,2045,2044,2044,2044,2044,2042,2042,2041,2041,2041,2041,2041,2041,2041,2041,2041,2042,2041,2040,2040,2040,2040,2038,2038,2038,2038,2037,2037,2036,2037,2037,2037,2037,2037,2036,2037,2037,2036,2036,2036,2036,2036,2035,2035,2036,2036,2038,2038,2039,2040,2041,2042,2044,2047,2049,2052,2055,2058,2063,2067,2071,2076,2080,2085,2089,2093,2098,2101,2104,2108,2111,2112,2115,2117,2118,2118,2119,2118,2117,2116,2116,2114,2113,2110,2108,2106,2105,2103,2100,2099,2097,2097,2095,2094,2094,2092,2092,2091,2091,2090,2090,2090,2090,2088,2088,2089,2088,2088,2087,2087,2086,2086,2085,2084,2083,2081,2081,2079,2077,2075,2074,2073,2071,2070,2068,2067,2065,2064,2063,2062,2061,2060,2060,2060,2059,2059,2060,2060,2060,2059,2059,2059,2060,2059,2060,2058,2059,2058,2058,2057,2057,2056,2056,2055,2055,2054,2054,2054,2053,2052,2051,2050,2050,2049,2050,2049,2048,2048,2048,2047,2046,2045,2045,2044,2044,2045,2043,2043,2043,2042,2041,2041,2041,2040,2041,2040,2039,2039,2039,2038,2037,2036,2035,2035,2034,2034,2034,2033,2033,2032,2032,2032,2031,2030,2031,2030,2030,2030,2030,2029,2028,2028,2029,2029,2029,2028,2030,2029,2029,2028,2030,2030,2029,2030,2028,2030,2030,2030,2029,2029,2028,2028,2029,2028,2029,2029,2030,2029,2030,2030,2030,2030,2030,2030,2029,2029,2029,2029,2029,2029,2028,2029,2029,2030,2030,2031,2030,2030,2029,2030,2029,2029,2029,2029,2029,2029,2029,2029,2029,2030,2030,2031,2031,2033,2034,2036,2038,2041,2044,2048,2051,2055,2059,2063,2069,2073,2078,2081,2086,2090,2094,2096,2099,2101,2105,2105,2107,2107,2107,2107,2106,2104,2104,2102,2100,2099,2097,2097,2095,2093,2092,2090,2089,2087,2086,2085,2083,2083,2082,2081,2081,2080,2080,2079,2078,2078,2077,2077,2076,2076,2076,2076,2075,2075,2075,2074,2073,2072,2071,2070,2069,2068,2067,2066,2064,2063,2062,2060,2059,2058,2058,2056,2055,2055,2055,2054,2054,2054,2054,2054,2055,2055,2055,2055,2056,2056,2056,2056,2056,2056,2056,2057,2057,2057,2056,2056,2056,2056,2055,2055,2056,2055,2054,2054,2054,2054,2053,2052,2052,2051,2050,2050,2048,2048,2048,2047,2047,2046,2045,2045,2045,2044,2044,2044,2044,2043,2043,2042,2043,2042,2042,2042,2042,2042,2041,2041,2041,2041,2041,2040,2040,2039,2038,2037,2037,2035,2035,2035,2034,2033,2034,2033,2033,2033,2032,2032,2032,2032,2032,2032,2032,2032,2032,2032,2032,2031,2032,2031,2031,2031,2031,2030,2031,2030,2029,2028,2028,2027,2026,2026,2025,2025,2025,2025,2024,2024,2023,2024,2023,2024,2024,2024,2024,2024,2025,2025,2026,2026,2026,2027,2028,2027,2028,2028,2029,2028,2029,2030,2029,2030,2030,2031,2032,2033,2034,2037,2040,2041,2046,2049,2055,2058,2062,2067,2071,2075,2079,2083,2086,2089,2092,2093,2095,2096,2097,2097,2097,2097,2097,2095,2095,2092,2091,2090,2089,2087,2085,2083,2082,2080,2078,2076,2075,2074,2072,2071,2070,2071,2069,2069,2068,2067,2067,2067,2067,2067,2067,2067,2067,2067,2067,2066,2065,2064,2063,2062,2061,2060,2059,2057,2057,2056,2055,2054,2054,2053,2054,2053,2052,2052,2051,2052,2050,2051,2051,2050,2049,2050,2050,2049,2049,2050,2050,2051,2052,2052,2053,2053,2054,2054,2054,2055,2054,2053,2054,2052,2051,2050,2051,2049,2049,2048,2048,2048,2047,2046,2046,2046,2046,2046,2045,2045,2045,2044,2043,2043,2043,2041,2042,2041,2041,2040,2039,2039,2039,2038,2038,2038,2038,2038,2039,2039,2039,2039,2039,2039,2040,2040,2040,2040,2040,2040,2040,2039,2039,2039,2040,2039,2039,2038,2038,2039,2038,2038,2036,2036,2036,2036,2035,2035,2034,2035,2035,2035,2036,2036,2037,2038,2037,2037,2038,2039,2039,2038,2038,2038,2038,2038,2038,2037,2037,2036,2035,2034,2034,2033,2032,2032,2032,2032,2032,2032,2032,2032,2032,2034,2035,2038,2041,2043,2047,2050,2055,2059,2063,2067,2071,2077,2081,2085,2089,2092,2095,2098,2100,2102,2103,2104,2105,2103,2104,2103,2102,2100,2098,2096,2095,2093,2092,2091,2089,2088,2086,2084,2083,2081,2079,2078,2077,2075,2074,2073,2072,2070,2069,2067,2066,2065,2064,2064,2063,2062,2061,2059,2059,2058,2057,2057,2055,2055,2054,2053,2053,2052,2052,2051,2051,2050,2049,2048,2049,2049,2049,2049,2049,2050,2051,2050,2051,2051,2051,2051,2051,2051,2050,2051,2050,2050,2049,2050,2049,2049,2050,2049,2049,2048,2049,2048,2048,2047,2048,2047,2047,2047,2047,2045,2046,2046,2046,2045,2045,2044,2045,2044,2044,2044,2043,2042,2043,2041,2042,2042,2042,2042,2042,2042,2042,2042,2043,2043,2043,2043,2042,2042,2042,2041,2041,2040,2040,2039,2039,2039,2037,2037,2037,2036,2035,2035,2035,2034,2034,2033,2033,2032,2032,2032,2032,2032,2031,2032,2032,2032,2031,2032,2031,2031,2031,2031,2030,2030,2030,2030,2029,2030,2029,2029,2029,2030,2029,2029,2029,2030,2029,2028,2030,2030,2029,2029,2029,2030,2030,2030,2029,2031,2031,2031,2033,2033,2035,2036,2037,2040,2042,2044,2049,2052,2056,2061,2066,2070,2075,2079,2083,2088,2091,2094,2098,2100,2103,2105,2107,2108,2109,2108,2108,2107,2107,2105,2104,2103,2101,2099,2097,2097,2094,2093,2091,2089,2088,2085,2083,2082,2080,2079,2077,2076,2075,2074,2074,2073,2073,2074,2075,2074,2075,2076,2076,2077,2077,2077,2077,2077,2076,2077,2076,2075,2074,2074,2073,2072,2070,2069,2068,2068,2066,2064,2064,2062,2061,2061,2061,2060,2059,2059,2059,2058,2059,2057,2057,2057,2056,2057,2056,2056,2056,2058,2058,2058,2059,2058,2059,2060,2060,2060,2059,2059,2059,2057,2057,2056,2056,2056,2054,2054,2052,2052,2051,2050,2049,2048,2048,2045,2045,2044,2044,2043,2042,2042,2041,2040,2040,2040,2040,2039,2039,2039,2039,2039,2039,2038,2038,2038,2038,2038,2037,2038,2038,2037,2037,2035,2035,2035,2035,2035,2033,2033,2032,2032,2031,2030,2030,2030,2030,2029,2029,2028,2028,2029,2028,2028,2028,2027,2027,2027,2027,2026,2027,2027,2027,2028,2027,2028,2028,2028,2029,2029,2030,2030,2030,2030,2030,2029,2030,2029,2029,2029,2029,2029,2029,2029,2028,2028,2027,2026,2026,2026,2024,2024,2025,2026,2025,2025,2025,2025,2026,2027,2028,2029,2031,2034,2039,2042,2046,2050,2055,2060,2066,2071,2076,2080,2085,2090,2093,2097,2099,2103,2105,2106,2107,2108,2108,2107,2107,2106,2105,2104,2103,2101,2100,2098,2097,2095,2094,2093,2092,2091,2088,2088,2086,2085,2084,2083,2082,2082,2080,2079,2079,2078,2079,2078,2078,2078,2078,2078,2078,2078,2078,2077,2077,2077,2077,2077,2077,2075,2075,2074,2074,2074,2073,2072,2072,2071,2070,2070,2069,2068,2067,2066,2065,2065,2064,2063,2063,2062,2062,2061,2062,2059,2060,2059,2059,2059,2059,2058,2058,2058,2056,2057,2056,2056,2056,2055,2054,2055,2054,2054,2054,2052,2052,2052,2051,2051,2051,2050,2050,2049,2050,2049,2047,2048,2047,2048,2047,2046,2045,2045,2044,2044,2043,2043,2042,2041,2041,2040,2040,2038,2038,2037,2036,2036,2035,2036,2036,2034,2034,2034,2032,2033,2033,2032,2032,2031,2032,2030,2030,2030,2030,2030,2029,2029,2028,2028,2028,2028,2029,2029,2029,2030,2030,2030,2030,2030,2029,2029,2028,2029,2029,2028,2027,2027,2028,2028,2027,2027,2028,2028,2027,2027,2028,2028,2028,2027,2027,2026,2026,2027,2025,2026,2026,2027,2027,2026,2027,2026,2026,2026,2026,2027,2026,2027,2027,2028,2028,2029,2030,2031,2033,2035,2038,2041,2044,2048,2053,2057,2063,2068,2073,2078,2082,2087,2091,2094,2099,2102,2105,2107,2110,2111,2112,2113,2114,2115,2114,2115,2113,2113,2111,2111,2109,2107,2106,2103,2102,2099,2098,2094,2093,2091,2088,2087,2086,2085,2083,2081,2081,2080,2079,2078,2078,2079,2079,2080,2079,2080,2079,2079,2079,2080,2079,2078,2077,2077,2077,2076,2075,2075,2074,2073,2073,2072,2071,2069,2068,2067,2067,2066,2065,2063,2063,2062,2062,2060,2059,2058,2058,2058,2057,2056,2056,2057,2056,2056,2055,2054,2054,2053,2053,2053,2052,2051,2050,2050,2050,2050,2049,2048,2048,2048,2047,2046,2046,2045,2044,2043,2043,2042,2042,2042,2041,2041,2042,2041,2042,2041,2041,2041,2041,2041,2041,2041,2042,2041,2043,2043,2043,2044,2044,2043,2044,2043,2043,2044,2045,2045,2046,2046,2047,2047,2047,2047,2048,2048,2048,2049,2049,2049,2050,2050,2051,2052,2053,2053,2054,2056,2057,2058,2058,2060,2061,2062,2063,2063,2064,2064,2065,2066,2067,2067,2067,2067,2066,2066,2066,2066,2065,2065,2064,2064,2064,2063,2062,2062,2061,2061,2060,2059,2059,2059,2058,2057,2056,2055,2054,2052,2052,2052,2051,2050,2051,2052,2053,2055,2056,2059,2061,2064,2067,2071,2075,2078,2083,2087,2091,2095,2098,2102,2106,2109,2111,2114,2116,2118,2119,2119,2119,2119,2119,2118,2117,2116,2115,2113,2112,2110,2108,2107,2105,2104,2102,2100,2098,2097,2096,2095,2093,2092,2090,2090,2088,2088,2087,2087,2086,2084,2085,2083,2082,2082,2080,2079,2078,2077,2076,2075,2075,2074,2073,2072,2070,2070,2068,2067,2066,2066,2065,2064,2063,2064,2063,2063,2063,2063,2063,2063,2063,2063,2063,2062,2062,2063,2062,2062,2062,2062,2062,2062,2063,2062,2061,2061,2062,2061,2061,2060,2059,2060,2058,2058,2057,2056,2056,2056,2056,2055,2056,2056,2055,2054,2053,2053,2052,2051,2050,2049,2049,2048,2046,2045,2044,2043,2042,2041,2041,2040,2040,2040,2039,2038,2039,2038,2038,2038,2037,2037,2038,2038,2037,2037,2036,2036,2035,2034,2034,2033,2034,2033,2032,2033,2032,2032,2031,2031,2031,2031,2030,2030,2031,2031,2032,2033,2032,2034,2034,2033,2033,2034,2033,2033,2033,2032,2032,2032,2031,2031,2031,2030,2031,2031,2030,2030,2031,2032,2032,2033,2034,2036,2039,2041,2045,2048,2052,2056,2059,2063,2067,2071,2076,2080,2084,2088,2091,2094,2097,2100,2101,2103,2104,2104,2105,2104,2104,2103,2102,2099,2098,2096,2094,2093,2091,2089,2087,2086,2084,2083,2082,2080,2080,2078,2077,2076,2075,2074,2073,2072,2071,2070,2069,2068,2068,2066,2066,2065,2064,2063,2062,2061,2060,2059,2057,2056,2055,2054,2054,2052,2050,2049,2049,2047,2048,2047,2047,2046,2047,2046,2046,2046,2047,2047,2047,2047,2048,2047,2048,2048,2048,2049,2048,2048,2049,2049,2049,2049,2048,2049,2050,2050,2050,2049,2049,2049,2048,2049,2048,2047,2048,2048,2046,2047,2045,2044,2044,2043,2041,2041,2041,2040,2038,2038,2037,2036,2036,2036,2036,2037,2037,2037,2037,2037,2038,2038,2038,2039,2038,2038,2039,2037,2038,2037,2036,2036,2036,2035,2035,2035,2034,2033,2034,2034,2033,2035,2035,2035,2035,2035,2036,2035,2035,2036,2034,2034,2034,2033,2032,2032,2031,2031,2030,2030,2030,2030,2029,2029,2029,2030,2028,2030,2029,2029,2029,2029,2030,2030,2030,2029,2031,2030,2031,2031,2032,2034,2035,2036,2039,2041,2044,2047,2052,2055,2060,2064,2069,2073,2077,2081,2086,2088,2092,2096,2097,2099,2101,2103,2104,2105,2104,2105,2103,2103,2102,2101,2100,2098,2097,2095,2092,2091,2089,2087,2085,2083,2080,2079,2077,2076,2075,2073,2072,2071,2071,2070,2069,2069,2069,2069,2068,2069,2068,2068,2068,2067,2067,2066,2065,2064,2063,2062,2060,2059,2058,2056,2056,2055,2054,2052,2051,2051,2050,2049,2049,2049,2048,2049,2049,2050,2050,2050,2050,2051,2051,2051,2051,2051,2051,2051,2050,2051,2051,2050,2050,2049,2049,2047,2048,2048,2047,2047,2046,2046,2046,2046,2046,2047,2047,2048,2048,2050,2050,2049,2051,2051,2051,2050,2051,2051,2052,2052,2052,2052,2052,2053,2053,2053,2053,2054,2054,2054,2054,2055,2055,2054,2054,2054,2054,2053,2053,2052,2051,2051,2051,2050,2049,2049,2049,2048,2047,2047,2047,2047,2046,2045,2044,2043,2043,2043,2042,2041,2041,2043,2042,2042,2041,2041,2041,2039,2040,2039,2038,2038,2038,2037,2037,2037,2037,2037,2037,2037,2038,2037,2038,2038,2038,2038,2038,2038,2038,2037,2037,2037,2036,2037,2036,2035,2034,2034,2033,2033,2032,2032,2032,2032,2033,2034,2037,2039,2041,2045,2049,2052,2056,2060,2064,2070,2075,2078,2082,2086,2089,2093,2095,2097,2100,2102,2103,2104,2104,2104,2103,2103,2103,2101,2100,2097,2096,2094,2093,2091,2089,2087,2086,2084,2083,2082,2082,2080,2080,2080,2079,2079,2079,2078,2078,2078,2078,2078,2078,2077,2077,2077,2076,2076,2075,2075,2074,2074,2074,2072,2072,2070,2070,2069,2068,2067,2066,2065,2064,2063,2062,2062,2060,2060,2059,2058,2058,2056,2056,2056,2056,2056,2055,2055,2054,2054,2053,2054,2052,2052,2052,2052,2052,2052,2052,2052,2051,2052,2052,2053,2053,2054,2054,2054,2055,2054,2054,2054,2054,2054,2054,2053,2053,2052,2053,2052,2052,2051,2050,2050,2049,2048,2048,2048,2048,2047,2047,2048,2047,2047,2047,2047,2047,2046,2047,2046,2046,2046,2046,2045,2044,2044,2045,2044,2044,2044,2043,2044,2042,2042,2042,2041,2042,2042,2042,2041,2042,2041,2041,2041,2040,2040,2041,2040,2039,2039,2038,2038,2037,2037,2037,2035,2036,2036,2035,2035,2035,2035,2035,2034,2034,2034,2033,2033,2032,2031,2032,2031,2031,2031,2031,2031,2031,2031,2030,2031,2031,2031,2031,2031,2031,2031,2030,2031,2032,2031,2031,2031,2033,2032,2033,2035,2036,2038,2039,2041,2045,2047,2051,2055,2059,2063,2068,2072,2076,2080,2085,2089,2092,2095,2097,2101,2103,2106,2107,2108,2108,2109,2109,2109,2107,2106,2105,2104,2102,2101,2100,2099,2098,2096,2095,2094,2094,2093,2092,2091,2091,2091,2089,2089,2088,2088,2088,2087,2087,2086,2086,2086,2085,2084,2085,2085,2084,2083,2083,2082,2082,2081,2080,2079,2078,2076,2075,2074,2073,2071,2069,2069,2067,2067,2066,2064,2063,2064,2063,2062,2062,2061,2060,2060,2060,2059,2059,2059,2059,2059,2059,2059,2060,2060,2061,2060,2059,2059,2060,2059,2059,2059,2058,2057,2056,2056,2056,2055,2056,2054,2055,2053,2053,2052,2051,2051,2051,2051,2050,2050,2049,2048,2048,2047,2047,2046,2046,2046,2046,2045,2045,2044,2044,2043,2042,2042,2041,2041,2042,2041,2040,2040,2041,2040,2039,2040,2040,2040,2040,2039,2039,2039,2039,2039,2038,2038,2037,2037,2039,2037,2037,2038,2037,2037,2037,2037,2036,2036,2037,2037,2036,2037,2036,2036,2035,2035,2034,2034,2033,2034,2033,2033,2032,2032,2032,2032,2031,2032,2031,2031,2030,2030,2030,2030,2029,2028,2028,2028,2028,2027,2028,2027,2027,2026,2027,2027,2028,2028,2030,2032,2035,2038,2041,2044,2048,2053,2058,2062,2067,2072,2076,2081,2084,2088,2092,2095,2097,2100,2101,2102,2102,2102,2102,2101,2101,2100,2098,2097,2096,2095,2094,2093,2093,2092,2090,2090,2089,2089,2087,2088,2087,2087,2086,2085,2085,2086,2085,2085,2086,2086,2086,2086,2086,2085,2086,2085,2085,2083,2083,2082,2081,2081,2079,2079,2078,2077,2076,2075,2075,2073,2073,2073,2071,2069,2069,2069,2067,2067,2067,2066,2065,2065,2065,2065,2065,2065,2066,2066,2066,2067,2066,2066,2066,2066,2066,2065,2064,2064,2063,2062,2061,2060,2058,2058,2057,2056,2055,2055,2055,2054,2054,2053,2053,2053,2052,2052,2051,2050,2049,2049,2049,2047,2046,2046,2046,2045,2045,2044,2046,2046,2046,2046,2045,2045,2046,2046,2045,2046,2046,2045,2046,2045,2046,2046,2045,2045,2043,2043,2041,2041,2040,2039,2038,2038,2037,2038,2036,2036,2036,2035,2036,2036,2036,2037,2037,2037,2037,2037,2038,2036,2037,2036,2036,2034,2035,2035,2035,2034,2034,2033,2033,2033,2033,2033,2032,2031,2031,2031,2030,2030,2031,2030,2031,2031,2032,2033,2035,2037,2040,2043,2046,2049,2054,2058,2063,2067,2071,2075,2080,2084,2087,2090,2093,2095,2098,2100,2099,2100,2100,2100,2099,2099,2097,2095,2094,2093,2091,2089,2088,2086,2085,2083,2083,2081,2080,2079,2079,2078,2077,2077,2076,2075,2075,2075,2074,2074,2074,2074,2075,2074,2073,2073,2072,2072,2072,2071,2070,2070,2068,2067,2066,2065,2064,2063,2062,2061,2061,2060,2060,2059,2059,2058,2059,2058,2057,2057,2057,2057,2058,2058,2058,2058,2058,2058,2058,2059,2059,2059,2059,2058,2057,2056,2056,2056,2055,2054,2053,2052,2053,2052,2052,2050,2051,2051,2051,2051,2050,2050,2050,2049,2048,2049,2048,2046,2047,2046,2046,2045,2045,2044,2044,2043,2043,2042,2042,2041,2041,2042,2041,2042,2041,2042,2042,2042,2042,2043,2043,2043,2043,2043,2043,2043,2043,2042,2042,2042,2041,2042,2041,2041,2042,2042,2041,2041,2041,2042,2041,2041,2041,2041,2040,2040,2039,2038,2037,2036,2035,2034,2034,2033,2033,2032,2032,2031,2031,2032,2032,2032,2031,2031,2032,2031,2031,2031,2031,2031,2031,2031,2031,2030,2030,2030,2030,2030,2029,2030,2029,2029,2029,2029,2030,2032,2033,2035,2039,2042,2045,2049,2054,2058,2062,2068,2072,2076,2081,2086,2088,2092,2094,2096,2098,2101,2102,2103,2103,2103,2102,2102,2101,2100,2100,2098,2097,2095,2094,2094,2092,2091,2089,2088,2087,2085,2084,2083,2082,2082,2081,2081,2081,2081,2081,2081,2080,2079,2079,2080,2080,2079,2078,2078,2077,2076,2076,2075,2073,2073,2071,2070,2070,2068,2068,2067,2065,2065,2064,2063,2063,2061,2060,2061,2060,2059,2060,2058,2058,2057,2057,2056,2056,2056,2056,2056,2055,2055,2055,2056,2056,2056,2056,2056,2057,2057,2057,2057,2057,2056,2055,2055,2055,2054,2054,2052,2053,2051,2051,2050,2049,2049,2048,2048,2046,2046,2046,2045,2044,2043,2042,2041,2041,2040,2040,2040,2039,2038,2038,2039,2039,2038,2038,2037,2036,2036,2036,2036,2036,2036,2035,2035,2035,2036,2035,2036,2035,2035,2036,2036,2035,2035,2034,2034,2033,2033,2033,2032,2032,2032,2032,2032,2031,2032,2031,2032,2032,2032,2032,2032,2032,2032,2032,2031,2031,2031,2031,2031,2031,2031,2031,2030,2030,2031,2030,2030,2030,2030,2029,2029,2029,2029,2030,2029,2029,2028,2029,2029,2029,2029,2028,2028,2028,2027,2027,2027,2026,2026,2026,2025,2025,2025,2026,2027,2026,2027,2029,2031,2034,2037,2040,2044,2048,2053,2057,2062,2068,2073,2077,2081,2086,2089,2092,2096,2098,2101,2103,2104,2103,2104,2104,2103,2102,2100,2099,2097,2095,2093,2091,2089,2087,2086,2083,2081,2080,2080,2078,2078,2076,2076,2075,2075,2075,2074,2074,2074,2074,2074,2074,2074,2073,2073,2072,2072,2071,2072,2070,2070,2071,2070,2069,2069,2069,2068,2068,2067,2066,2066,2065,2065,2063,2063,2063,2063,2064,2063,2063,2064,2064,2063,2065,2064,2066,2065,2065,2066,2066,2066,2066,2066,2066,2066,2065,2065,2065,2064,2063,2062,2062,2061,2060,2060,2059,2058,2057,2057,2056,2056,2056,2056,2055,2055,2055,2054,2055,2054,2054,2052,2054,2054,2053,2052,2052,2052,2052,2051,2051,2051,2051,2051,2051,2052,2052,2052,2052,2052,2052,2053,2053,2054,2054,2054,2054,2054,2054,2054,2054,2054,2053,2053,2052,2051,2050,2051,2050,2049,2048,2048,2047,2048,2047,2047,2047,2047,2047,2047,2047,2047,2046,2047,2046,2047,2047,2047,2045,2045,2045,2044,2044,2043,2043,2043,2042,2041,2042,2041,2040,2040,2039,2039,2038,2038,2038,2038,2037,2038,2037,2037,2036,2036,2036,2037,2037,2036,2036,2036,2035,2035,2034,2034,2034,2032,2032,2032,2031,2031,2030,2032,2032,2033,2034,2037,2039,2042,2046,2049,2054,2058,2063,2068,2073,2077,2082,2087,2090,2095,2098,2101,2103,2106,2108,2110,2111,2111,2111,2110,2110,2108,2107,2106,2105,2103,2101,2099,2097,2096,2095,2093,2093,2091,2091,2090,2088,2089,2088,2086,2086,2085,2085,2084,2083,2082,2082,2081,2081,2081,2081,2080,2081,2081,2079,2079,2079,2077,2077,2075,2074,2072,2071,2071,2070,2069,2067,2068,2067,2066,2065,2066,2064,2064,2064,2064,2063,2063,2063,2063,2064,2062,2063,2063,2063,2063,2064,2063,2063,2064,2063,2063,2062,2062,2061,2061,2061,2061,2061,2061,2059,2059,2057,2059,2057,2057,2056,2055,2055,2054,2053,2053,2052,2051,2050,2050,2049,2049,2048,2048,2048,2047,2047,2047,2046,2045,2045,2044,2043,2043,2043,2041,2041,2041,2041,2041,2041,2040,2041,2042,2041,2041,2042,2042,2041,2042,2041,2041,2040,2041,2041,2040,2040,2039,2038,2038,2037,2035,2036,2035,2035,2035,2035,2034,2034,2035,2035,2036,2037,2036,2037,2037,2038,2039,2039,2039,2039,2039,2039,2039,2038,2039,2038,2038,2038,2038,2039,2037,2037,2037,2037,2036,2036,2035,2035,2033,2032,2031,2031,2029,2030,2028,2028,2028,2029,2029,2030,2032,2035,2036,2041,2043,2047,2050,2055,2059,2063,2068,2072,2076,2079,2083,2086,2089,2093,2095,2097,2099,2099,2101,2101,2101,2101,2100,2099,2098,2095,2094,2092,2090,2088,2086,2086,2083,2081,2080,2078,2077,2076,2075,2074,2072,2070,2070,2069,2068,2066,2066,2064,2064,2062,2063,2062,2060,2061,2060,2059,2058,2057,2056,2056,2054,2054,2053,2052,2050,2049,2048,2047,2046,2045,2044,2043,2042,2043,2041,2042,2042,2042,2042,2043,2043,2043,2044,2045,2045,2046,2046,2047,2046,2047,2046,2046,2047,2046,2045,2046,2044,2043,2043,2042,2041,2041,2041,2041,2040,2040,2039,2039,2038,2038,2037,2037,2036,2036,2035,2035,2034,2034,2034,2032,2032,2031,2031,2031,2031,2031,2031,2031,2031,2031,2030,2031,2030,2030,2030,2030,2030,2029,2030,2030,2030,2030,2029,2030,2029,2028,2027,2027,2028,2027,2027,2027,2025,2026,2025,2025,2025,2026,2026,2025,2025,2025,2024,2023,2024,2023,2023,2024,2022,2023,2023,2022,2022,2022,2022,2022,2023,2022,2023,2024,2023,2023,2023,2023,2022,2022,2022,2023,2022,2022,2022,2022,2020,2021,2021,2021,2021,2022,2022,2023,2025,2027,2029,2033,2036,2040,2044,2048,2053,2057,2062,2067,2071,2075,2079,2082,2086,2088,2091,2094,2095,2096,2096,2096,2096,2095,2095,2094,2094,2093,2090,2089,2087,2086,2084,2084,2081,2080,2079,2077,2077,2076,2076,2075,2074,2074,2073,2073,2072,2072,2071,2071,2070,2069,2069,2068,2068,2067,2067,2066,2066,2066,2065,2065,2064,2064,2064,2062,2062,2060,2060,2059,2058,2057,2057,2056,2055,2055,2055,2054,2054,2054,2054,2053,2053,2053,2053,2053,2053,2053,2052,2052,2053,2053,2053,2052,2052,2052,2051,2050,2050,2050,2049,2049,2048,2047,2047,2046,2046,2046,2046,2045,2045,2045,2044,2045,2044,2043,2044,2043,2043,2043,2043,2043,2043,2043,2042,2041,2042,2042,2041,2040,2040,2041,2039,2039,2038,2038,2037,2037,2036,2036,2036,2034,2035,2034,2034,2034,2033,2032,2032,2031,2031,2031,2030,2030,2031,2031,2032,2031,2031,2031,2031,2032,2032,2032,2032,2032,2032,2032,2031,2031,2031,2031,2030,2029,2029,2029,2029,2029,2028,2028,2029,2028,2028,2029,2028,2027,2028,2028,2028,2028,2028,2027,2028,2027,2026,2027,2026,2026,2026,2026,2026,2025,2027,2026,2027,2027,2026,2027,2027,2027,2026,2027,2028,2028,2029,2030,2032,2035,2037,2041,2045,2049,2053,2058,2063,2068,2074,2078,2083,2088,2092,2096,2099,2102,2104,2105,2108,2109,2109,2109,2108,2106,2106,2104,2103,2101,2099,2097,2096,2093,2093,2091,2089,2088,2087,2086,2084,2083,2081,2081,2080,2079,2079,2078,2077,2079,2078,2078,2077,2078,2078,2078,2078,2077,2077,2076,2075,2075,2074,2073,2071,2071,2069,2068,2067,2067,2065,2065,2064,2063,2063,2062,2062,2063,2061,2062,2062,2061,2062,2061,2061,2061,2060,2061,2061,2060,2060,2060,2060,2059,2059,2059,2060,2059,2059,2059,2059,2059,2059,2058,2058,2058,2057,2057,2057,2057,2056,2056,2056,2055,2054,2054,2052,2051,2050,2049,2049,2047,2047,2046,2046,2045,2044,2043,2043,2042,2043,2042,2042,2043,2041,2042,2041,2042,2041,2042,2041,2041,2041,2041,2041,2040,2039,2039,2038,2038,2037,2037,2036,2035,2035,2035,2035,2035,2034,2034,2034,2034,2034,2033,2035,2034,2034,2034,2035,2035,2035,2034,2034,2035,2034,2034,2034,2033,2033,2031,2031,2030,2031,2030,2029,2028,2027,2027,2027,2026,2026,2026,2025,2026,2026,2026,2025,2027,2026,2027,2028,2028,2029,2028,2029,2030,2030,2031,2033,2033,2033,2034,2035,2035,2035,2036,2036,2036,2037,2037,2037,2038,2038,2038,2038,2040,2040,2041,2042,2044,2047,2050,2054,2057,2061,2066,2070,2075,2079,2085,2088,2094,2097,2102,2105,2109,2112,2115,2118,2120,2120,2120,2120,2120,2119,2119,2118,2116,2116,2113,2112,2110,2107,2106,2103,2101,2100,2097,2096,2094,2093,2091,2089,2088,2087,2086,2086,2085,2085,2085,2084,2085,2085,2084,2084,2084,2083,2083,2082,2081,2081,2080,2080,2078,2077,2076,2075,2073,2072,2071,2070,2069,2068,2067,2067,2065,2064,2064,2063,2063,2061,2060,2060,2058,2058,2057,2056,2056,2055,2055,2055,2055,2054,2053,2053,2052,2052,2052,2052,2052,2051,2052,2052,2050,2051,2050,2050,2050,2049,2049,2048,2048,2047,2047,2046,2046,2045,2045,2044,2045,2044,2045,2044,2045,2044,2045,2044,2044,2044,2045,2045,2045,2045,2045,2045,2044,2044,2044,2044,2043,2043,2042,2042,2042,2041,2041,2041,2040,2040,2040,2040,2039,2039,2040,2039,2039,2040,2041,2040,2041,2041,2041,2041,2042,2041,2041,2041,2041,2040,2041,2039,2040,2039,2039,2037,2037,2037,2037,2036,2036,2035,2035,2035,2036,2035,2034,2034,2034,2033,2033,2033,2031,2032,2032,2031,2030,2030,2029,2030,2029,2029,2029,2028,2029,2029,2028,2029,2029,2028,2028,2028,2027,2027,2027,2028,2028,2029,2029,2031,2033,2035,2039,2042,2046,2050,2055,2060,2065,2070,2075,2080,2083,2088,2092,2094,2097,2101,2102,2104,2106,2106,2106,2106,2105,2104,2103,2102,2100,2098,2097,2095,2094,2092,2091,2090,2089,2087,2085,2083,2083,2082,2081,2079,2078,2077,2077,2076,2076,2076,2075,2075,2074,2074,2073,2073,2072,2072,2072,2070,2070,2070,2070,2070,2068,2068,2068,2067,2066,2065,2065,2063,2064,2062,2061,2060,2060,2059,2059,2059,2059,2058,2058,2058,2059,2059,2059,2059,2060,2060,2061,2062,2062,2062,2064,2064,2065,2066,2066,2067,2067,2069,2069,2068,2069,2070,2069,2068,2068,2068,2068,2068,2068,2069,2067,2067,2067,2066,2065,2064,2064,2063,2064,2064,2064,2064,2063,2063,2063,2063,2064,2063,2064,2064,2063,2062,2062,2062,2061,2061,2062,2062,2062,2061,2061,2061,2061,2061,2060,2059,2058,2057,2057,2056,2055,2054,2054,2053,2053,2052,2052,2052,2053,2052,2051,2052,2051,2050,2050,2050,2049,2048,2047,2046,2045,2044,2043,2042,2042,2042,2042,2041,2041,2040,2041,2040,2039,2039,2039,2039,2039,2038,2038,2038,2037,2037,2037,2038,2039,2041,2041,2045,2047,2051,2054,2059,2063,2068,2073,2076,2082,2086,2090,2094,2098,2102,2105,2107,2109,2112,2114,2115,2115,2114,2114,2113,2112,2110,2108,2107,2105,2104,2102,2100,2098,2096,2094,2093,2092,2090,2089,2088,2085,2085,2083,2082,2081,2081,2082,2082,2081,2081,2081,2083,2084,2084,2085,2086,2086,2087,2087,2088,2088,2088,2088,2087,2086,2085,2085,2085,2083,2082,2082,2081,2080,2079,2079,2079,2078,2078,2078,2078,2079,2078,2079,2078,2078,2078,2078,2078,2078,2078,2077,2077,2078,2077,2076,2075,2075,2075,2073,2073,2072,2072,2070,2070,2069,2068,2067,2066,2066,2065,2064,2063,2062,2061,2061,2059,2060,2059,2057,2058,2057,2057,2056,2056,2055,2054,2054,2053,2052,2051,2050,2049,2049,2048,2048,2047,2046,2046,2046,2046,2046,2047,2046,2048,2046,2046,2046,2046,2045,2044,2044,2043,2042,2042,2041,2041,2041,2041,2039,2039,2039,2039,2038,2038,2038,2037,2036,2035,2036,2035,2035,2035,2035,2035,2034,2034,2033,2033,2033,2033,2033,2033,2032,2032,2032,2032,2032,2033,2033,2034,2034,2033,2034,2034,2035,2035,2035,2035,2035,2035,2035,2035,2035,2035,2037,2039,2041,2043,2046,2049,2054,2057,2061,2067,2071,2077,2081,2086,2091,2095,2099,2103,2106,2108,2109,2111,2112,2113,2112,2112,2111,2111,2109,2108,2106,2104,2103,2101,2098,2096,2095,2093,2092,2090,2089,2087,2087,2086,2085,2085,2085,2084,2085,2084,2085,2085,2085,2086,2086,2086,2086,2086,2085,2084,2084,2084,2083,2083,2083,2082,2082,2083,2080,2081,2080,2079,2078,2078,2076,2076,2075,2074,2074,2074,2072,2072,2070,2070,2070,2067,2067,2066,2064,2064,2064,2063,2061,2060,2060,2059,2058,2058,2058,2057,2056,2056,2055,2055,2055,2054,2054,2054,2053,2053,2053,2052,2052,2052,2052,2052,2052,2051,2051,2050,2049,2049,2049,2048,2048,2048,2047,2047,2046,2046,2046,2044,2043,2043,2043,2042,2041,2041,2040,2040,2039,2039,2038,2037,2036,2035,2034,2034,2033,2033,2032,2032,2032,2033,2033,2033,2034,2034,2035,2035,2035,2036,2036,2037,2037,2037,2038,2038,2038,2039,2038,2038,2038,2038,2038,2038,2037,2037,2037,2037,2037,2037,2037,2038,2038,2036,2037,2036,2036,2036,2036,2036,2035,2035,2035,2035,2035,2035,2036,2034,2035,2034,2034,2034,2034,2034,2034,2034,2035,2035,2035,2035,2035,2035,2035,2034,2034,2033,2033,2031,2032,2031,2031,2032,2033,2034,2036,2038,2040,2043,2046,2051,2054,2058,2062,2067,2072,2076,2082,2085,2090,2093,2097,2101,2104,2105,2107,2109,2109,2109,2109,2108,2107,2105,2105,2104,2101,2099,2098,2096,2094,2092,2091,2089,2088,2086,2085,2085,2084,2083,2082,2083,2082,2082,2082,2082,2082,2082,2081,2082,2082,2081,2082,2082,2080,2080,2080,2079,2079,2078,2078,2077,2077,2076,2075,2074,2073,2072,2071,2071,2070,2070,2069,2068,2067,2067,2066,2065,2065,2065,2064,2065,2064,2064,2063,2064,2063,2064,2064,2065,2065,2065,2064,2064,2064,2064,2065,2065,2064,2064,2063,2064,2062,2062,2062,2062,2061,2061,2061,2060,2060,2060,2060,2060,2060,2060,2060,2059,2058,2058,2057,2057,2057,2058,2057,2057,2057,2057,2057,2056,2056,2055,2056,2055,2054,2054,2053,2053,2052,2053,2051,2052,2052,2052,2051,2052,2052,2051,2052,2051,2051,2051,2050,2050,2049,2049,2049,2048,2048,2047,2047,2047,2046,2045,2045,2044,2044,2043,2043,2043,2042,2041,2042,2041,2041,2040,2039,2039,2038,2038,2038,2037,2036,2036,2037,2036,2037,2036,2036,2036,2035,2034,2035,2035,2034,2034,2034,2033,2034,2033,2033,2033,2034,2035,2034,2034,2035,2035,2035,2035,2035,2035,2035,2035,2036,2036,2035,2036,2036,2038,2038,2039,2041,2043,2045,2050,2054,2057,2062,2067,2072,2077,2081,2086,2091,2094,2099,2101,2104,2106,2110,2111,2112,2113,2113,2114,2114,2113,2113,2112,2110,2108,2107,2105,2104,2102,2100,2098,2097,2094,2093,2091,2090,2088,2087,2086,2085,2084,2083,2084,2082,2082,2081,2080,2080,2079,2079,2079,2078,2078,2077,2078,2077,2076,2076,2075,2074,2074,2072,2072,2072,2070,2069,2068,2068,2067,2067,2065,2065,2065,2064,2063,2064,2063,2064,2063,2063,2062,2061,2061,2061,2061,2060,2060,2059,2060,2059,2058,2058,2057,2056,2057,2056,2055,2055,2055,2054,2053,2054,2053,2054,2053,2052,2052,2051,2050,2050,2048,2049,2048,2048,2046,2046,2045,2045,2044,2044,2043,2044,2042,2043,2041,2043,2042,2042,2042,2041,2042,2042,2042,2042,2042,2042,2043,2041,2041,2042,2042,2041,2042,2041,2042,2041,2041,2041,2040,2041,2041,2041,2040,2040,2040,2040,2040,2039,2039,2039,2039,2038,2038,2037,2037,2037,2037,2036,2037,2036,2035,2035,2034,2034,2034,2034,2033,2033,2032,2032,2033,2032,2032,2033,2033,2032,2032,2032,2032,2031,2031,2031,2031,2031,2031,2031,2031,2032,2034,2035,2037,2039,2042,2044,2048,2052,2056,2060,2064,2069,2073,2077,2082,2086,2089,2093,2096,2098,2101,2105,2104,2105,2105,2106,2105,2105,2105,2103,2102,2101,2100,2100,2098,2098,2097,2096,2094,2094,2093,2092,2090,2089,2088,2088,2087,2085,2084,2083,2083,2081,2081,2080,2079,2078,2077,2077,2075,2074,2074,2073,2072,2071,2070,2069,2069,2069,2068,2068,2066,2065,2065,2065,2065,2064,2063,2064,2063,2064,2064,2064,2065,2064,2065,2065,2065,2065,2065,2065,2065,2066,2065,2065,2065,2065,2065,2064,2063,2064,2063,2062,2063,2062,2062,2063,2061,2060,2060,2060,2059,2058,2058,2058,2056,2055,2055,2055,2055,2054,2055,2055,2054,2054,2054,2054,2054,2053,2052,2052,2051,2050,2050,2049,2049,2049,2049,2049,2049,2048,2047,2048,2047,2047,2046,2045,2044,2044,2043,2043,2042,2042,2042,2042,2042,2042,2042,2042,2040,2041,2041,2040,2040,2040,2040,2039,2039,2039,2039,2039,2040,2039,2040,2039,2039,2039,2040,2040,2039,2038,2039,2038,2038,2037,2037,2038,2038,2038,2038,2038,2040,2041,2043,2046,2048,2052,2056,2059,2064,2068,2073,2076,2081,2086,2089,2093,2096,2099,2102,2104,2107,2109,2110,2110,2110,2110,2110,2109,2109,2108,2106,2104,2103,2101,2100,2097,2096,2095,2093,2091,2090,2089,2088,2086,2085,2085,2084,2083,2083,2082,2082,2082,2080,2080,2079,2079,2078,2077,2077,2077,2075,2075,2074,2074,2073,2072,2071,2070,2070,2070,2069,2068,2068,2069,2068,2067,2067,2066,2066,2065,2065,2065,2064,2063,2063,2063,2062,2061,2060,2060,2059,2058,2059,2058,2058,2058,2057,2057,2057,2057,2058,2057,2058,2057,2057,2056,2056,2056,2056,2055,2056,2055,2055,2054,2054,2054,2054,2054,2054,2054,2054,2053,2054,2054,2053,2053,2053,2052,2053,2053,2053,2053,2052,2053,2053,2052,2053,2053,2052,2051,2051,2051,2051,2051,2051,2051,2051,2051,2051,2051,2050,2050,2050,2050,2050,2050,2049,2049,2049,2050,2050,2049,2051,2050,2050,2051,2051,2052,2052,2052,2052,2052,2051,2051,2050,2050,2049,2049,2048,2047,2046,2046,2044,2043,2043,2042,2042,2042,2041,2042,2041,2041,2041,2041,2039,2039,2039,2040,2039,2041,2041,2042,2044,2045,2049,2051,2055,2058,2062,2069,2073,2077,2083,2087,2093,2096,2100,2104,2107,2108,2111,2113,2114,2115,2115,2114,2113,2111,2110,2108,2107,2105,2103,2102,2099,2098,2096,2095,2095,2093,2092,2091,2090,2090,2088,2088,2088,2088,2087,2087,2087,2088,2087,2087,2088,2087,2087,2086,2085,2084,2083,2083,2082,2080,2079,2078,2077,2075,2074,2073,2072,2070,2069,2067,2066,2065,2064,2064,2063,2062,2062,2062,2062,2062,2061,2061,2062,2063,2063,2064,2064,2064,2065,2066,2066,2067,2067,2068,2068,2068,2068,2068,2068,2068,2068,2068,2068,2067,2067,2066,2065,2064,2063,2062,2062,2060,2060,2060,2059,2057,2057,2055,2055,2055,2055,2054,2055,2054,2055,2056,2055,2055,2055,2055,2056,2055,2056,2054,2055,2054,2054,2053,2052,2051,2050,2049,2049,2048,2048,2048,2047,2047,2045,2045,2045,2044,2043,2042,2041,2041,2039,2039,2039,2038,2038,2037,2038,2038,2038,2039,2039,2039,2039,2038,2038,2038,2037,2037,2037,2038,2037,2037,2037,2036,2036,2036,2035,2034,2034,2034,2034,2035,2034,2034,2034,2035,2035,2035,2035,2035,2035,2034,2035,2034,2035,2035,2035,2036,2037,2038,2041,2042,2045,2048,2052,2056,2060,2064,2069,2074,2078,2082,2086,2089,2093,2096,2098,2101,2102,2104,2106,2106,2106,2105,2105,2104,2103,2102,2101,2100,2099,2099,2097,2097,2097,2095,2095,2095,2095,2094,2095,2095,2095,2095,2095,2095,2095,2095,2095,2096,2095,2096,2096,2095,2095,2095,2094,2095,2094,2094,2093,2093,2092,2092,2092,2092,2092,2091,2091,2090,2089,2088,2087,2085,2085,2083,2081,2081,2080,2078,2078,2077,2077,2076,2076,2077,2076,2076,2076,2077,2076,2076,2076,2076,2077,2076,2077,2077,2077,2076,2077,2076,2076,2076,2076,2076,2076,2076,2076,2076,2075,2076,2074,2074,2074,2073,2073,2073,2072,2073,2072,2071,2071,2070,2070,2070,2069,2068,2068,2067,2066,2066,2066,2064,2063,2062,2061,2060,2060,2059,2059,2058,2057,2057,2056,2057,2055,2055,2055,2054,2054,2054,2054,2054,2054,2054,2054,2053,2052,2052,2051,2051,2049,2050,2048,2048,2047,2046,2046,2045,2045,2045,2045,2045,2045,2045,2045,2044,2044,2044,2043,2043,2043,2042,2041,2041,2041,2041,2041,2041,2041,2041,2041,2042,2042,2042,2042,2042,2043,2043,2044,2044,2044,2044,2044,2043,2043,2042,2042,2042,2040,2042,2041,2042,2043,2046,2047,2050,2054,2058,2061,2065,2070,2075,2078,2082,2087,2090,2093,2097,2100,2103,2106,2109,2112,2114,2115,2116,2116,2116,2116,2115,2114,2113,2111,2110,2109,2108,2105,2105,2103,2102,2101,2101,2100,2099,2098,2098,2097,2097,2096,2096,2096,2095,2094,2093,2093,2093,2092,2092,2091,2090,2090,2090,2089,2090,2088,2088,2088,2088,2087,2085,2084,2083,2082,2080,2079,2079,2077,2075,2075,2073,2073,2072,2070,2070,2070,2070,2070,2071,2071,2071,2072,2072,2072,2072,2071,2071,2071,2071,2070,2070,2070,2069,2069,2068,2068,2068,2068,2066,2066,2066,2066,2064,2064,2063,2063,2062,2062,2061,2060,2060,2059,2059,2058,2058,2057,2057,2056,2056,2057,2056,2057,2056,2057,2057,2057,2057,2057,2056,2056,2056,2055,2055,2054,2052,2051,2052,2050,2050,2050,2050,2050,2050,2050,2049,2050,2050,2050,2050,2050,2049,2049,2049,2049,2049,2048,2047,2046,2046,2045,2045,2045,2044,2045,2044,2043,2043,2042,2042,2042,2041,2041,2041,2041,2040,2040,2040,2040,2038,2038,2037,2036,2036,2036,2036,2036,2036,2036,2036,2037,2037,2036,2036,2036,2036,2036,2036,2036,2036,2036,2037,2037,2038,2038,2040,2041,2041,2041,2043,2045,2048,2050,2052,2055,2057,2062,2064,2069,2072,2077,2080,2084,2088,2092,2094,2098,2101,2102,2103,2105,2106,2105,2105,2105,2105,2103,2101,2100,2098,2095,2094,2093,2092,2090,2089,2088,2086,2085,2084,2083,2082,2081,2079,2079,2078,2077,2077,2076,2076,2075,2075,2075,2074,2074,2073,2073,2072,2072,2072,2071,2071,2071,2071,2070,2069,2069,2068,2067,2065,2065,2064,2063,2062,2063,2062,2062,2062,2063,2065,2066,2066,2068,2069,2069,2069,2069,2070,2069,2069,2070,2069,2068,2069,2069,2068,2067,2067,2067,2066,2066,2066,2065,2065,2065,2065,2065,2066,2066,2066,2066,2065,2065,2065,2065,2065,2064,2064,2063,2064,2063,2064,2064,2064,2064,2063,2063,2064,2063,2063,2064,2063,2063,2063,2062,2063,2062,2061,2062,2061,2060,2059,2058,2057,2055,2055,2053,2053,2051,2050,2049,2048,2047,2046,2045,2044,2043,2043,2043,2043,2043,2043,2044,2043,2043,2043,2043,2043,2042,2043,2042,2042,2041,2041,2040,2039,2039,2039,2039,2038,2038,2038,2037,2037,2038,2037,2037,2036,2037,2037,2036,2037,2037,2037,2037,2038,2039,2040,2040,2041,2043,2045,2047,2050,2051,2055,2057,2060,2064,2067,2071,2075,2077,2082,2085,2088,2092,2094,2098,2099,2101,2104,2104,2105,2105,2106,2106,2106,2105,2105,2104,2104,2102,2101,2101,2099,2098,2098,2097,2096,2095,2093,2093,2092,2091,2091,2090,2090,2090,2089,2088,2088,2087,2087,2087,2085,2085,2085,2083,2082,2080,2080,2080,2077,2077,2076,2076,2075,2075,2075,2075,2075,2075,2075,2075,2076,2077,2077,2078,2079,2080,2081,2081,2081,2081,2082,2080,2080,2079,2079,2078,2076,2076,2076,2075,2074,2074,2074,2072,2072,2070,2070,2069,2068,2067,2067,2066,2065,2065,2064,2063,2064,2063,2061,2061,2060,2060,2058,2058,2056,2056,2055,2055,2054,2053,2052,2051,2051,2050,2050,2049,2049,2049,2048,2048,2048,2047,2045,2045,2044,2044,2044,2042,2042,2042,2042,2041,2041,2041,2040,2039,2040,2039,2039,2038,2037,2036,2036,2036,2035,2036,2036,2036,2037,2037,2038,2038,2038,2038,2039,2038,2038,2037,2037,2037,2035,2035,2035,2035,2034,2032,2032,2031,2031,2031,2029,2028,2028,2028,2028,2028,2027,2028,2027,2029,2029,2030,2032,2033,2035,2037,2040,2043,2045,2050,2054,2057,2062,2066,2070,2074,2078,2082,2086,2089,2092,2095,2099,2099,2101,2101,2102,2101,2101,2101,2100,2098,2097,2096,2096,2094,2093,2091,2089,2088,2087,2085,2084,2082,2080,2080,2077,2077,2076,2076,2075,2074,2074,2073,2073,2074,2073,2073,2074,2073,2073,2073,2071,2071,2070,2069,2068,2066,2065,2065,2063,2063,2061,2061,2059,2059,2058,2057,2057,2057,2055,2056,2055,2055,2055,2054,2054,2054,2054,2055,2055,2055,2055,2055,2055,2056,2056,2056,2056,2056,2055,2056,2056,2056,2055,2054,2054,2054,2053,2053,2053,2053,2053,2053,2053,2052,2051,2051,2050,2049,2048,2047,2048,2046,2046,2045,2044,2043,2042,2042,2041,2041,2040,2040,2039,2040,2039,2040,2041,2041,2041,2042,2043,2042,2043,2042,2043,2043,2042,2041,2041,2040,2039,2038,2038,2037,2037,2036,2035,2036,2036,2036,2037,2038,2038,2038,2039,2038,2038,2039,2039,2039,2038,2038,2037,2039,2037,2037,2037,2036,2037,2036,2036,2035,2036,2034,2035,2034,2034,2033,2033,2033,2034,2033,2034,2033,2033,2033,2033,2033,2032,2032,2031,2030,2030,2030,2029,2029,2030,2030,2030,2032,2031,2034,2035,2037,2040,2042,2045,2050,2052,2056,2060,2063,2067,2070,2074,2077,2081,2085,2087,2090,2094,2096,2099,2099,2100,2100,2100,2100,2099,2098,2097,2096,2096,2094,2093,2092,2091,2089,2088,2088,2087,2086,2084,2084,2083,2082,2081,2080,2079,2079,2078,2078,2078,2077,2078,2078,2077,2078,2077,2076,2077,2075,2075,2075,2074,2073,2073,2071,2070,2068,2068,2066,2065,2064,2063,2062,2061,2059,2059,2059,2059,2057,2057,2056,2056,2055,2055,2053,2053,2052,2050,2051,2050,2049,2049,2049,2048,2048,2048,2047,2046,2047,2046,2046,2045,2046,2045,2045,2044,2044,2044,2043,2042,2042,2042,2041,2041,2042,2041,2042,2041,2041,2041,2041,2041,2041,2041,2041,2041,2040,2041,2040,2040,2038,2038,2037,2037,2036,2036,2035,2035,2035,2036,2035,2037,2036,2036,2037,2038,2038,2039,2039,2038,2039,2038,2038,2038,2038,2037,2038,2037,2036,2036,2036,2036,2036,2037,2036,2037,2038,2039,2039,2040,2040,2041,2041,2040,2041,2041,2041,2041,2040,2039,2040,2038,2039,2037,2036,2035,2035,2035,2033,2032,2033,2033,2032,2032,2032,2033,2033,2032,2034,2033,2035,2035,2035,2035,2035,2036,2036,2036,2036,2036,2035,2035,2035,2035,2034,2034,2033,2034,2033,2033,2034,2035,2036,2038,2041,2043,2047,2051,2055,2059,2064,2069,2074,2077,2081,2085,2089,2091,2094,2097,2098,2101,2103,2103,2104,2104,2103,2102,2101,2101,2100,2098,2097,2095,2093,2091,2089,2089,2086,2085,2083,2083,2081,2079,2079,2078,2077,2076,2076,2076,2075,2075,2075,2076,2076,2075,2076,2075,2075,2075,2075,2074,2074,2073,2071,2070,2069,2068,2067,2067,2065,2064,2064,2064,2064,2063,2063,2063,2063,2063,2063,2063,2061,2062,2061,2060,2059,2059,2059,2059,2059,2059,2059,2057,2057,2057,2056,2056,2056,2055,2056,2055,2054,2054,2053,2053,2054,2054,2053,2054,2054,2054,2054,2054,2053,2053,2053,2052,2052,2052,2051,2050,2050,2049,2049,2048,2049,2048,2048,2047,2045,2045,2045,2044,2043,2042,2041,2042,2041,2041,2041,2041,2040,2040,2039,2038,2037,2037,2035,2035,2034,2033,2032,2032,2032,2033,2033,2033,2034,2034,2034,2035,2035,2036,2035,2036,2036,2035,2036,2035,2035,2034,2035,2034,2034,2034,2034,2034,2033,2033,2032,2032,2032,2030,2030,2031,2030,2030,2030,2031,2031,2032,2032,2033,2032,2033,2034,2035,2034,2035,2035,2035,2036,2036,2037,2037,2037,2037,2037,2037,2037,2038,2038,2037,2038,2039,2039,2040,2041,2041,2042,2043,2045,2047,2050,2052,2055,2058,2062,2066,2070,2075,2079,2083,2087,2092,2095,2099,2103,2105,2108,2111,2114,2115,2116,2116,2116,2116,2115,2114,2112,2110,2110,2107,2106,2103,2100,2099,2097,2094,2092,2090,2089,2087,2085,2084,2084,2082,2081,2079,2079,2078,2077,2076,2075,2075,2075,2075,2073,2073,2072,2071,2070,2070,2069,2068,2065,2064,2062,2060,2059,2056,2055,2055,2052,2052,2051,2051,2050,2050,2050,2050,2050,2050,2049,2050,2049,2049,2049,2047,2048,2047,2047,2047,2048,2048,2048,2048,2049,2049,2050,2050,2051,2052,2052,2053,2053,2053,2052,2053,2053,2052,2050,2050,2049,2049,2048,2047,2047,2046,2045,2045,2045,2043,2043,2041,2041,2041,2041,2041,2041,2041,2041,2041,2041,2041,2041,2041,2041,2041,2041,2041,2041,2041,2041,2041,2041,2041,2040,2039,2038,2037,2036,2035,2034,2034,2032,2032,2031,2030,2030,2029,2029,2028,2028,2029,2028,2028,2029,2028,2029,2029,2029,2028,2028,2028,2027,2026,2027,2026,2027,2026,2025,2025,2025,2025,2025,2025,2026,2027,2027,2027,2027,2028,2027,2027,2028,2028,2029,2028,2028,2029,2029,2028,2029,2031,2032,2033,2035,2039,2042,2045,2050,2054,2059,2063,2068,2072,2077,2082,2085,2090,2093,2096,2100,2102,2105,2108,2109,2110,2111,2111,2111,2110,2109,2107,2106,2105,2102,2100,2098,2096,2094,2091,2089,2086,2085,2081,2080,2079,2076,2075,2074,2072,2071,2070,2069,2068,2069,2068,2067,2067,2067,2066,2066,2065,2065,2064,2063,2062,2061,2060,2059,2058,2058,2058,2057,2057,2056,2056,2056,2056,2056,2056,2056,2057,2057,2057,2057,2058,2058,2059,2058,2059,2058,2059,2058,2059,2059,2059,2059,2060,2059,2058,2058,2058,2057,2057,2057,2056,2056,2055,2055,2054,2053,2053,2052,2051,2050,2049,2048,2047,2046,2045,2044,2043,2042,2042,2041,2041,2041,2040,2039,2040,2040,2040,2041,2041,2041,2042,2042,2043,2043,2043,2044,2043,2043,2043,2042,2042,2042,2041,2040,2040,2039,2038,2038,2039,2039,2039,2039,2039,2038,2038,2038,2037,2037,2036,2038,2037,2037,2037,2037,2037,2036,2036,2037,2035,2035,2035,2035,2034,2033,2031,2030,2030,2029,2028,2027,2027,2027,2027,2028,2028,2030,2031,2034,2036,2039,2042,2046,2050,2053,2058,2063,2067,2071,2076,2081,2085,2089,2092,2094,2098,2100,2102,2103,2103,2104,2103,2103,2102,2101,2100,2099,2097,2095,2094,2092,2091,2089,2087,2085,2084,2083,2082,2080,2079,2078,2078,2076,2076,2075,2076,2074,2074,2074,2074,2073,2073,2073,2073,2073,2072,2072,2072,2070,2070,2069,2068,2068,2067,2066,2065,2065,2064,2062,2061,2060,2060,2060,2059,2059,2059,2059,2060,2060,2061,2061,2062,2061,2062,2062,2062,2062,2063,2063,2063,2063,2063,2063,2062,2062,2063,2064,2063,2063,2064,2064,2063,2063,2062,2061,2060,2060,2059,2058,2057,2056,2056,2055,2054,2052,2051,2050,2050,2047,2047,2045,2044,2043,2042,2041,2040,2039,2038,2039,2039,2039,2039,2040,2039,2040,2040,2041,2040,2041,2041,2039,2040,2039,2039,2039,2038,2038,2037,2038,2037,2037,2036,2036,2036,2034,2035,2033,2032,2032,2031,2030,2030,2030,2030,2030,2030,2030,2031,2031,2031,2031,2030,2030,2030,2030,2030,2029,2029,2028,2028,2027,2028,2028,2028,2028,2028,2029,2029,2030,2030,2031,2032,2034,2036,2039,2042,2045,2049,2053,2057,2061,2067,2070,2075,2079,2083,2086,2090,2093,2097,2099,2103,2106,2108,2110,2111,2112,2112,2112,2112,2110,2110,2108,2107,2103,2103,2101,2099,2097,2096,2094,2092,2091,2089,2089,2086,2086,2085,2085,2084,2084,2083,2084,2084,2084,2084,2084,2083,2082,2083,2083,2083,2082,2082,2080,2080,2079,2078,2078,2076,2075,2074,2073,2072,2071,2070,2069,2069,2068,2067,2066,2065,2064,2062,2062,2060,2060,2058,2059,2057,2056,2055,2055,2054,2053,2053,2052,2052,2050,2050,2050,2051,2050,2050,2050,2049,2049,2049,2047,2047,2047,2046,2046,2045,2044,2043,2043,2043,2041,2041,2041,2039,2040,2038,2038,2037,2037,2037,2036,2036,2036,2036,2036,2036,2036,2036,2036,2035,2035,2035,2035,2035,2035,2034,2035,2035,2035,2035,2035,2036,2035,2035,2035,2035,2035,2034,2034,2034,2034,2034,2033,2033,2032,2032,2032,2032,2032,2032,2032,2032,2033,2032,2032,2032,2032,2032,2032,2031,2030,2030,2029,2029,2029,2029,2028,2029,2029,2028,2028,2027,2027,2026,2026,2024,2024,2023,2023,2021,2021,2021,2020,2019,2020,2020,2021,2021,2021,2021,2022,2022,2022,2024,2025,2026,2027,2030,2032,2034,2037,2041,2044,2048,2052,2056,2060,2066,2070,2075,2078,2083,2086,2089,2092,2094,2096,2097,2098,2098,2098,2097,2097,2095,2095,2094,2093,2092,2090,2089,2088,2087,2086,2083,2083,2082,2081,2079,2079,2079,2078,2078,2078,2079,2079,2079,2079,2079,2080,2079,2079,2077,2077,2077,2076,2076,2075,2075,2073,2073,2072,2071,2071,2070,2068,2068,2067,2066,2065,2064,2064,2063,2062,2062,2061,2060,2060,2060,2060,2060,2060,2061,2060,2060,2060,2060,2060,2060,2059,2060,2059,2059,2060,2059,2060,2060,2059,2059,2060,2060,2063,2062,2063,2064,2064,2065,2067,2067,2067,2068,2067,2068,2068,2068,2068,2067,2067,2066,2067,2065,2064,2064,2064,2062,2063,2063,2063,2063,2063,2064,2062,2062,2062,2062,2061,2061,2060,2059,2059,2058,2058,2057,2057,2057,2057,2056,2056,2056,2055,2054,2054,2052,2052,2052,2050,2051,2051,2051,2050,2050,2049,2050,2050,2050,2051,2052,2051,2053,2054,2053,2053,2053,2053,2052,2051,2051,2049,2049,2048,2047,2046,2044,2043,2042,2042,2041,2041,2040,2040,2039,2039,2038,2038,2037,2037,2037,2037,2037,2037,2036,2036,2036,2036,2035,2034,2035,2035,2034,2035,2034,2034,2034,2035,2034,2035,2035,2036,2037,2038,2039,2041,2042,2045,2048,2051,2055,2059,2063,2068,2072,2077,2082,2085,2090,2093,2097,2100,2102,2105,2108,2109,2110,2111,2112,2112,2111,2111,2110,2110,2109,2108,2106,2105,2104,2103,2100,2099,2097,2096,2095,2093,2092,2090,2090,2088,2087,2086,2087,2086,2085,2085,2084,2085,2085,2085,2085,2085,2084,2084,2083,2082,2082,2082,2080,2080,2078,2078,2076,2076,2075,2073,2072,2071,2070,2070,2068,2068,2067,2067,2066,2066,2064,2065,2064,2064,2063,2063,2064,2063,2064,2064,2064,2065,2065,2064,2065,2066,2065,2065,2065,2064,2064,2063,2063,2063,2063,2062,2062,2062,2061,2060,2060,2059,2058,2057,2056,2056,2055,2055,2054,2053,2053,2052,2052,2051,2052,2051,2050,2050,2050,2050,2050,2049,2050,2049,2049,2047,2048,2048,2047,2047,2046,2046,2046,2045,2044,2044,2043,2042,2041,2041,2040,2039,2038,2038,2036,2035,2035,2034,2034,2033,2033,2033,2032,2032,2032,2032,2032,2033,2033,2033,2033,2034,2033,2034,2035,2034,2035,2036,2036,2036,2036,2036,2036,2035,2035,2035,2034,2034,2033,2033,2032,2032,2031,2031,2030,2030,2030,2030,2029,2030,2029,2029,2029,2029,2028,2029,2029,2029,2028,2029,2030,2031,2033,2034,2036,2038,2041,2044,2049,2053,2056,2060,2065,2069,2073,2077,2081,2085,2088,2091,2094,2096,2098,2101,2101,2101,2102,2102,2100,2100,2099,2098,2096,2094,2093,2092,2092,2091,2090,2089,2088,2088,2087,2086,2085,2084,2083,2083,2082,2081,2081,2080,2081,2080,2080,2079,2079,2079,2079,2078,2078,2077,2076,2075,2074,2074,2073,2072,2071,2070,2070,2068,2067,2067,2066,2065,2064,2063,2062,2061,2060,2060,2059,2058,2059,2057,2057,2058,2058,2058,2058,2059,2059,2059,2059,2060,2060,2061,2061,2061,2061,2061,2062,2062,2061,2062,2062,2063,2061,2060,2060,2060,2058,2058,2057,2056,2056,2056,2054,2054,2053,2051,2052,2050,2049,2049,2048,2047,2046,2045,2045,2044,2044,2043,2043,2042,2043,2043,2042,2043,2044,2044,2043,2044,2044,2044,2044,2044,2044,2044,2045,2045,2044,2044,2044,2044,2043,2044,2043,2042,2041,2041,2040,2040,2039,2039,2037,2037,2037,2036,2036,2035,2035,2035,2037,2036,2036,2038,2039,2038,2039,2040,2040,2040,2040,2040,2040,2041,2040,2040,2040,2039,2039,2038,2039,2039,2040,2041,2041,2043,2045,2047,2050,2054,2057,2062,2065,2069,2073,2077,2080,2084,2087,2090,2093,2095,2098,2099,2101,2102,2102,2103,2103,2102,2102,2100,2100,2099,2097,2095,2094,2093,2090,2089,2087,2086,2084,2082,2080,2080,2078,2076,2075,2074,2073,2072,2071,2070,2070,2069,2070,2068,2069,2069,2069,2068,2068,2068,2068,2067,2068,2068,2066,2065,2065,2065,2064,2062,2062,2061,2060,2059,2058,2058,2057,2056,2056,2056,2056,2057,2057,2057,2057,2058,2059,2059,2058,2058,2058,2057,2056,2056,2056,2056,2056,2056,2055,2055,2055,2055,2054,2054,2054,2054,2054,2054,2054,2054,2052,2051,2050,2050,2049,2049,2048,2048,2047,2047,2046,2045,2044,2043,2043,2042,2042,2041,2041,2040,2040,2040,2039,2039,2039,2038,2039,2039,2040,2040,2040,2040,2041,2041,2041,2042,2041,2041,2041,2041,2041,2041,2041,2041,2041,2041,2041,2042,2041,2041,2042,2041,2041,2041,2041,2041,2041,2042,2040,2039,2039,2038,2038,2036,2036,2035,2034,2034,2034,2033,2032,2032,2032,2032,2033,2033,2033,2033,2033,2034,2034,2033,2034,2035,2036,2036,2038,2039,2041,2042,2045,2048,2052,2056,2059,2063,2068,2072,2076,2079,2084,2087,2091,2094,2097,2100,2102,2104,2106,2107,2108,2107,2107,2106,2104,2105,2102,2102,2100,2098,2097,2096,2095,2094,2092,2091,2089,2088,2087,2086,2085,2084,2083,2081,2081,2080,2079,2078,2077,2076,2075,2075,2074,2073,2073,2071,2070,2069,2069,2068,2066,2066,2066,2066,2064,2064,2063,2063,2061,2060,2060,2060,2059,2059,2059,2059,2060,2061,2060,2060,2061,2061,2061,2062,2062,2062,2061,2061,2060,2061,2061,2061,2059,2060,2059,2060,2059,2058,2058,2057,2056,2055,2054,2054,2054,2053,2052,2052,2052,2052,2052,2052,2052,2052,2052,2053,2054,2053,2053,2053,2053,2053,2053,2052,2052,2052,2052,2051,2051,2050,2051,2050,2050,2050,2049,2049,2049,2049,2050,2050,2050,2051,2052,2051,2051,2052,2051,2050,2050,2049,2049,2047,2046,2044,2044,2043,2042,2042,2041,2040,2039,2039,2038,2037,2036,2036,2034,2033,2034,2035,2033,2033,2034,2033,2031,2032,2032,2031,2030,2030,2030,2030,2030,2030,2030,2030,2030,2030,2030,2030,2030,2030,2030,2030,2031,2030,2031,2030,2031,2033,2033,2035,2038,2040,2042,2046,2048,2052,2056,2060,2065,2068,2072,2076,2080,2084,2088,2092,2096,2099,2103,2107,2108,2108,2110,2111,2110,2109,2109,2108,2107,2106,2105,2103,2102,2101,2100,2099,2097,2096,2095,2094,2094,2092,2092,2092,2091,2091,2090,2090,2089,2089,2089,2089,2089,2089,2089,2089,2088,2088,2088,2089,2089,2089,2087,2087,2086,2085,2084,2083,2081,2080,2078,2076,2075,2074,2072,2071,2070,2068,2068,2066,2065,2065,2064,2063,2062,2062,2061,2061,2061,2061,2061,2061,2062,2061,2062,2062,2063,2064,2064,2065,2065,2066,2066,2066,2067,2067,2066,2066,2066,2066,2066,2065,2064,2064,2062,2061,2061,2061,2060,2059,2059,2058,2057,2057,2056,2056,2055,2054,2054,2053,2053,2052,2053,2052,2052,2052,2051,2051,2052,2052,2051,2051,2051,2052,2052,2052,2052,2052,2052,2052,2051,2051,2051,2051,2050,2048,2048,2048,2048,2047,2047,2046,2046,2046,2046,2045,2044,2045,2044,2044,2043,2043,2043,2043,2042,2042,2042,2042,2041,2040,2039,2039,2038,2038,2036,2035,2036,2035,2035,2035,2035,2034,2035,2036,2036,2036,2036,2037,2037,2037,2037,2036,2036,2036,2036,2035,2035,2036,2035,2036,2037,2037,2039,2039,2041,2044,2047,2049,2053,2057,2061,2067,2071,2076,2082,2086,2092,2097,2100,2104,2106,2109,2111,2114,2114,2116,2116,2116,2116,2116,2114,2114,2111,2110,2107,2107,2104,2102,2101,2098,2097,2096,2096,2095,2094,2094,2094,2094,2094,2094,2094,2093,2094,2094,2094,2094,2094,2095,2094,2095,2094,2093,2093,2091,2091,2089,2089,2087,2087,2085,2084,2084,2082,2081,2080,2080,2079,2079,2078,2078,2077,2076,2076,2075,2075,2073,2074,2073,2072,2072,2072,2071,2071,2071,2070,2069,2069,2069,2068,2069,2068,2067,2068,2067,2066,2066,2066,2065,2064,2064,2064,2064,2062,2062,2062,2061,2061,2061,2061,2060,2059,2059,2058,2057,2057,2057,2057,2056,2057,2056,2055,2055,2055,2054,2053,2053,2052,2052,2051,2050,2050,2050,2049,2049,2049,2049,2049,2048,2048,2050,2050,2050,2050,2050,2050,2051,2050,2051,2051,2051,2051,2050,2051,2051,2051,2051,2051,2051,2051,2050,2050,2049,2049,2049,2049,2048,2048,2047,2046,2045,2045,2045,2044,2043,2042,2043,2043,2042,2042,2042,2042,2042,2042,2042,2042,2041,2042,2042,2043,2043,2043,2043,2043,2044,2044,2044,2045,2045,2044,2046,2045,2047,2047,2049,2051,2053,2056,2059,2063,2068,2071,2075,2081,2084,2088,2092,2097,2100,2103,2105,2107,2108,2109,2110,2111,2111,2110,2108,2107,2106,2104,2103,2100,2098,2097,2096,2095,2092,2091,2090,2089,2089,2088,2087,2087,2087,2087,2086,2086,2085,2085,2084,2083,2083,2082,2082,2081,2081,2079,2079,2078,2077,2076,2075,2074,2073,2072,2071,2071,2070,2070,2069,2069,2069,2069,2069,2068,2068,2067,2067,2067,2067,2067,2066,2067,2067,2067,2067,2067,2067,2067,2068,2068,2069,2069,2069,2069,2070,2069,2069,2068,2068,2068,2067,2066,2066,2066,2065,2065,2065,2064,2064,2064,2064,2064,2064,2064,2063,2063,2062,2062,2063,2062,2062,2061,2061,2060,2058,2059,2057,2057,2056,2054,2054,2054,2053,2053,2052,2052,2051,2051,2050,2050,2050,2050,2050,2050,2050,2050,2051,2051,2051,2051,2050,2051,2051,2050,2050,2049,2050,2049,2048,2048,2049,2048,2048,2047,2047,2046,2047,2046,2047,2047,2046,2045,2046,2045,2045,2045,2043,2043,2042,2041,2041,2040,2039,2037,2037,2036,2035,2034,2033,2033,2033,2033,2032,2032,2033,2035,2036,2039,2042,2044,2048,2052,2056,2060,2064,2069,2073,2078,2082,2085,2089,2092,2095,2098,2099,2102,2104,2105,2107,2107,2108,2109,2108,2107,2108,2107,2105,2104,2103,2102,2100,2099,2098,2097,2096,2093,2092,2091,2088,2086,2085,2085,2084,2083,2082,2082,2081,2082,2081,2080,2079,2078,2078,2078,2077,2077,2077,2076,2075,2075,2074,2075,2074,2073,2073,2072,2071,2071,2071,2070,2069,2068,2068,2067,2066,2066,2066,2065,2065,2064,2066,2065,2065,2065,2066,2066,2066,2066,2066,2067,2067,2067,2067,2067,2067,2066,2066,2066,2065,2064,2063,2062,2061,2060,2060,2059,2057,2058,2057,2056,2056,2056,2055,2055,2054,2054,2054,2053,2052,2052,2051,2051,2051,2050,2050,2049,2049,2049,2049,2049,2049,2048,2049,2048,2048,2048,2047,2047,2047,2046,2046,2047,2047,2047,2047,2047,2047,2046,2047,2048,2047,2048,2047,2047,2048,2048,2048,2048,2047,2047,2046,2046,2046,2045,2045,2044,2044,2045,2045,2045,2044,2044,2043,2043,2043,2041,2041,2040,2040,2040,2038,2037,2036,2036,2035,2033,2034,2034,2033,2033,2034,2035,2037,2038,2040,2043,2046,2050,2053,2057,2062,2067,2071,2076,2080,2086,2090,2094,2098,2101,2104,2107,2110,2110,2109,2110,2109,2108,2107,2105,2104,2102,2100,2098,2097,2095,2093,2091,2089,2088,2085,2084,2084,2083,2081,2080,2080,2079,2078,2077,2076,2075,2075,2075,2073,2073,2072,2072,2071,2071,2070,2070,2070,2068,2068,2068,2067,2066,2065,2064,2063,2062,2062,2061,2061,2060,2060,2061,2060,2060,2060,2060,2060,2059,2058,2058,2058,2058,2058,2058,2059,2058,2058,2058,2058,2058,2058,2058,2058,2057,2058,2057,2057,2056,2056,2056,2056,2056,2055,2055,2055,2054,2053,2052,2052,2051,2051,2049,2050,2048,2048,2047,2048,2047,2045,2045,2045,2043,2043,2042,2041,2040,2040,2039,2038,2037,2037,2036,2036,2036,2034,2035,2035,2035,2036,2035,2036,2036,2037,2036,2038,2036,2037,2036,2036,2036,2036,2036,2036,2036,2036,2035,2035,2036,2036,2036,2036,2035,2036,2036,2036,2035,2034,2034,2033,2033,2032,2031,2031,2031,2031,2030,2030,2030,2030,2030,2031,2030,2031,2032,2031,2031,2032,2033,2033,2033,2033,2034,2033,2034,2034,2035,2033,2034,2035,2034,2033,2033,2033,2035,2035,2035,2037,2038,2040,2043,2045,2049,2052,2055,2060,2064,2069,2072,2076,2082,2085,2088,2092,2094,2097,2100,2103,2104,2105,2106,2106,2106,2104,2103,2101,2101,2099,2098,2096,2094,2093,2092,2090,2089,2088,2087,2085,2085,2084,2083,2083,2082,2082,2083,2083,2083,2083,2083,2082,2083,2083,2083,2082,2082,2081,2081,2080,2079,2077,2077,2077,2075,2075,2074,2073,2072,2072,2071,2070,2070,2069,2068,2068,2066,2066,2065,2065,2064,2063,2063,2063,2063,2063,2062,2062,2062,2061,2061,2060,2059,2059,2059,2059,2059,2059,2058,2059,2058,2058,2057,2056,2056,2055,2055,2054,2053,2052,2050,2050,2049,2049,2048,2048,2047,2047,2046,2046,2045,2044,2044,2043,2042,2042,2042,2042,2044,2043,2043,2042,2043,2042,2042,2042,2041,2041,2040,2039,2039,2039,2038,2039,2037,2037,2037,2037,2036,2036,2034,2034,2034,2034,2033,2033,2032,2032,2033,2032,2031,2032,2031,2032,2032,2032,2032,2032,2032,2032,2032,2032,2032,2032,2032,2033,2034,2033,2033,2033,2033,2033,2033,2033,2032,2031,2032,2032,2032,2032,2032,2033,2032,2032,2033,2032,2032,2033,2032,2033,2035,2035,2035,2035,2035,2035,2035,2035,2035,2034,2034,2034,2034,2033,2033,2032,2032,2032,2031,2031,2030,2031,2030,2032,2032,2032,2033,2035,2039,2041,2043,2048,2050,2055,2058,2063,2067,2071,2075,2079,2083,2086,2089,2092,2095,2097,2099,2101,2101,2102,2103,2103,2103,2102,2102,2102,2101,2099,2099,2097,2095,2093,2091,2090,2087,2087,2085,2083,2082,2080,2079,2078,2077,2077,2077,2076,2076,2076,2075,2075,2075,2075,2074,2074,2073,2073,2072,2072,2071,2070,2069,2069,2067,2066,2065,2063,2063,2061,2060,2058,2057,2057,2056,2056,2056,2056,2057,2056,2056,2056,2057,2056,2057,2057,2056,2057,2057,2056,2057,2056,2055,2055,2055,2054,2054,2052,2052,2052,2052,2051,2050,2052,2051,2052,2051,2052,2051,2050,2050,2050,2049,2049,2049,2048,2047,2047,2047,2046,2045,2045,2044,2043,2042,2043,2043,2042,2042,2042,2043,2042,2042,2041,2042,2041,2041,2041,2041,2042,2042,2041,2041,2042,2041,2041,2041,2041,2041,2040,2040,2039,2040,2040,2039,2039,2040,2039,2039,2039,2039,2040,2039,2040,2039,2039,2040,2039,2039,2038,2039,2038,2038,2037,2038,2037,2037,2037,2037,2036,2035,2036,2035,2034,2034,2035,2035,2034,2034,2034,2035,2034,2034,2034,2035,2034,2034,2035,2035,2034,2035,2034,2035,2035,2036,2036,2036,2037,2036,2036,2035,2035,2035,2035,2035,2035,2034,2033,2034,2033,2033,2033,2032,2032,2033,2032,2033,2033,2034,2034,2036,2037,2039,2041,2044,2047,2050,2054,2058,2063,2068,2072,2076,2081,2085,2089,2092,2095,2098,2099,2101,2103,2104,2105,2104,2104,2102,2101,2100,2098,2096,2095,2093,2092,2091,2089,2087,2086,2084,2083,2082,2080,2079,2078,2077,2077,2076,2076,2075,2074,2075,2075,2074,2075,2075,2075,2074,2074,2073,2073,2073,2072,2072,2071,2069,2070,2069,2068,2066,2067,2065,2064,2064,2063,2062,2061,2061,2060,2059,2059,2058,2058,2057,2057,2056,2057,2057,2056,2056,2056,2057,2057,2057,2057,2058,2057,2057,2058,2057,2057,2057,2056,2056,2056,2055,2055,2055,2056,2054,2053,2052,2051,2051,2051,2050,2050,2049,2048,2048,2048,2048,2047,2047,2047,2046,2045,2046,2045,2045,2045,2044,2044,2043,2041,2043,2042,2042,2042,2041,2041,2041,2042,2041,2041,2041,2041,2041,2040,2041,2041,2040,2040,2039,2040,2040,2039,2039,2039,2039,2040,2039,2039,2040,2039,2040,2040,2039,2038,2039,2040,2039,2040,2040,2039,2039,2039,2038,2038,2038,2038,2039,2039,2039,2039,2039,2038,2039,2039,2038,2038,2038,2038,2037,2037,2036,2037,2036,2037,2037,2037,2037,2039,2039,2039,2040,2040,2040,2041,2040,2040,2041,2042,2041,2041,2042,2044,2045,2047,2050,2053,2056,2058,2062,2066,2070,2074,2077,2081,2084,2089,2091,2094,2096,2098,2100,2103,2104,2105,2105,2106,2105,2105,2104,2102,2102,2099,2097,2097,2094,2093,2091,2089,2087,2085,2084,2081,2080,2079,2078,2076,2076,2074,2074,2073,2072,2072,2070,2070,2070,2070,2070,2068,2069,2067,2067,2067,2066,2066,2065,2065,2063,2062,2062,2060,2060,2059,2058,2058,2058,2058,2057,2056,2056,2056,2057,2057,2057,2057,2058,2059,2059,2060,2061,2060,2060,2059,2060,2060,2060,2059,2059,2058,2058,2057,2057,2056,2056,2055,2056,2056,2055,2055,2054,2055,2054,2053,2054,2052,2051,2050,2050,2049,2049,2048,2048,2047,2047,2048,2047,2046,2046,2045,2045,2044,2042,2042,2042,2042,2041,2042,2041,2041,2040,2041,2040,2041,2041,2040,2040,2040,2040,2040,2040,2039,2040,2039,2039,2038,2038,2038,2037,2037,2036,2035,2035,2035,2035,2034,2034,2033,2034,2033,2033,2033,2032,2033,2033,2032,2033,2031,2033,2033,2031,2032,2031,2031,2031,2030,2030,2030,2031,2030,2030,2029,2028,2029,2028,2027,2028,2028,2027,2027,2027,2027,2028,2029,2030,2032,2034,2036,2039,2042,2045,2049,2052,2056,2060,2064,2068,2073,2076,2080,2083,2086,2088,2091,2093,2095,2095,2096,2095,2094,2093,2093,2091,2090,2090,2088,2087,2085,2085,2082,2081,2080,2077,2076,2074,2074,2072,2070,2069,2068,2067,2066,2065,2065,2064,2064,2063,2063,2063,2062,2061,2062,2061,2060,2060,2059,2057,2058,2056,2056,2056,2055,2055,2054,2053,2052,2051,2051,2050,2049,2049,2049,2049,2048,2049,2049,2049,2049,2050,2050,2051,2050,2050,2051,2052,2052,2052,2053,2053,2054,2054,2054,2054,2055,2055,2055,2054,2054,2054,2053,2052,2052,2050,2050,2049,2048,2046,2045,2046,2044,2043,2042,2042,2041,2041,2040,2040,2040,2040,2040,2039,2039,2039,2039,2039,2039,2040,2040,2040,2040,2040,2040,2039,2040,2039,2040,2039,2039,2039,2039,2039,2039,2040,2039,2040,2040,2040,2041,2041,2041,2041,2042,2042,2041,2042,2042,2042,2042,2042,2042,2042,2042,2041,2040,2040,2039,2039,2038,2037,2035,2035,2034,2034,2033,2033,2033,2032,2031,2031,2030,2031,2030,2029,2029,2028,2029,2028,2029,2029,2027,2028,2028,2028,2028,2028,2027,2028,2028,2028,2028,2027,2027,2027,2027,2028,2029,2030,2031,2034,2035,2038,2041,2043,2047,2051,2056,2059,2064,2068,2072,2077,2081,2084,2088,2091,2094,2096,2098,2100,2101,2101,2103,2101,2100,2100,2099,2098,2097,2094,2093,2091,2089,2086,2085,2083,2081,2079,2078,2077,2075,2074,2073,2072,2072,2070,2071,2069,2070,2070,2070,2070,2070,2071,2070,2069,2069,2069,2068,2069,2067,2067,2066,2065,2064,2062,2061,2061,2060,2058,2058,2057,2057,2056,2056,2056,2055,2056,2056,2056,2055,2055,2055,2054,2054,2054,2053,2052,2053,2052,2052,2051,2053,2053,2052,2052,2053,2052,2052,2051,2051,2050,2050,2050,2050,2050,2051,2050,2050,2049,2049,2049,2049,2049,2049,2049,2048,2047,2047,2047,2047,2047,2047,2046,2046,2046,2046,2046,2046,2046,2046,2046,2046,2046,2046,2046,2047,2047,2046,2046,2046,2046,2046,2047,2046,2046,2045,2046,2045,2045,2045,2046,2045,2045,2045,2044,2045,2044,2043,2044,2042,2042,2041,2041,2040,2040,2039,2039,2038,2037,2037,2037,2037,2037,2036,2035,2036,2035,2035,2035,2034,2034,2033,2033,2033,2033,2033,2033,2033,2032,2033,2032,2031,2031,2031,2031,2030,2030,2030,2030,2030,2030,2029,2029,2029,2029,2029,2030,2030,2030,2030,2032,2033,2035,2037,2040,2042,2046,2049,2054,2058,2062,2067,2071,2075,2078,2082,2086,2090,2092,2094,2096,2099,2100,2101,2101,2102,2102,2102,2101,2100,2100,2099,2097,2097,2096,2094,2094,2092,2091,2090,2090,2088,2087,2087,2087,2087,2086,2086,2086,2086,2086,2086,2087,2086,2087,2086,2087,2086,2086,2085,2085,2084,2083,2082,2081,2080,2080,2079,2077,2076,2076,2075,2074,2073,2073,2071,2071,2070,2070,2068,2068,2068,2067,2066,2065,2064,2064,2063,2063,2063,2063,2063,2063,2062,2062,2062,2062,2062,2063,2063,2063,2062,2062,2062,2062,2062,2062,2061,2061,2061,2059,2059,2058,2058,2058,2057,2058,2057,2057,2056,2056,2055,2054,2054,2053,2054,2052,2052,2051,2051,2050,2051,2050,2050,2049,2050,2048,2047,2047,2045,2044,2044,2044,2043,2042,2042,2042,2041,2041,2041,2040,2040,2039,2038,2038,2037,2037,2036,2036,2036,2036,2035,2035,2034,2035,2035,2034,2035,2034,2034,2033,2034,2033,2033,2034,2033,2032,2031,2030,2030,2029,2029,2029,2027,2027,2027,2028,2027,2027,2028,2027,2028,2028,2028,2030,2029,2030,2030,2031,2031,2032,2032,2033,2033,2033,2033,2034,2034,2034,2036,2036,2038,2040,2041,2043,2047,2049,2052,2056,2060,2065,2068,2073,2077,2081,2085,2088,2092,2095,2097,2100,2102,2105,2105,2106,2106,2107,2106,2105,2105,2104,2102,2102,2099,2099,2097,2096,2095,2093,2092,2090,2089,2088,2086,2086,2084,2084,2082,2081,2082,2080,2080,2079,2079,2079,2078,2078,2077,2077,2076,2075,2074,2074,2073,2071,2070,2070,2070,2068,2068,2067,2066,2066,2066,2065,2064,2064,2063,2063,2061,2061,2062,2061,2061,2061,2062,2061,2061,2062,2062,2063,2061,2062,2062,2062,2062,2062,2063,2063,2063,2063,2061,2060,2060,2058,2059,2057,2057,2056,2055,2055,2054,2052,2051,2050,2050,2048,2048,2048,2047,2047,2046,2045,2045,2044,2045,2044,2044,2043,2044,2044,2044,2044,2045,2044,2045,2045,2045,2044,2044,2044,2044,2043,2042,2043,2041,2042,2042,2042,2042,2042,2042,2042,2042,2042,2042,2041,2041,2042,2041,2042,2042,2042,2042,2043,2044,2043,2044,2043,2044,2044,2044,2043,2043,2044,2042,2042,2042,2042,2041,2041,2041,2041,2041,2040,2040,2040,2039,2040,2039,2039,2038,2039,2038,2039,2040,2039,2040,2042,2043,2045,2047,2050,2052,2056,2059,2063,2066,2070,2073,2075,2079,2082,2086,2088,2090,2092,2094,2096,2095,2096,2097,2096,2095,2094,2093,2091,2090,2089,2087,2086,2084,2082,2081,2078,2078,2076,2074,2073,2072,2072,2070,2070,2069,2068,2069,2068,2068,2067,2067,2067,2066,2066,2064,2063,2063,2061,2061,2059,2058,2057,2056,2056,2054,2052,2051,2050,2049,2048,2046,2045,2045,2044,2043,2042,2042,2042,2042,2042,2042,2042,2042,2041,2041,2041,2042,2041,2042,2041,2041,2041,2041,2041,2041,2040,2040,2040,2039,2039,2038,2038,2039,2038,2037,2036,2036,2035,2035,2034,2034,2033,2033,2033,2033,2033,2033,2032,2032,2033,2033,2033,2033,2035,2034,2035,2035,2035,2035,2035,2035,2035,2035,2035,2035,2036,2036,2037,2038,2038,2039,2039,2040,2041,2042,2041,2041,2041,2042,2041,2041,2042,2041,2041,2041,2041,2041,2041,2041,2041,2040,2041,2041,2041,2040,2039,2040,2039,2039,2038,2037,2037,2036,2036,2035,2034,2034,2033,2033,2033,2032,2032,2031,2030,2030,2029,2030,2030,2030,2030,2030,2029,2030,2030,2030,2031,2032,2032,2035,2036,2039,2041,2044,2047,2051,2054,2057,2062,2066,2069,2074,2076,2081,2083,2087,2089,2091,2093,2095,2096,2097,2097,2097,2096,2096,2095,2094,2092,2091,2090,2089,2088,2087,2085,2084,2083,2083,2082,2081,2079,2079,2078,2077,2076,2076,2075,2075,2075,2075,2075,2075,2076,2075,2076,2076,2077,2077,2077,2077,2076,2076,2076,2076,2076,2075,2076,2075,2075,2075,2075,2075,2075,2076,2075,2076,2076,2077,2077,2077,2076,2076,2075,2075,2075,2075,2074,2074,2073,2072,2073,2071,2070,2070,2069,2069,2068,2066,2066,2066,2065,2064,2063,2062,2061,2061,2060,2059,2058,2058,2057,2056,2057,2056,2055,2054,2053,2053,2053,2053,2052,2052,2051,2052,2051,2051,2051,2051,2051,2051,2051,2050,2050,2050,2050,2049,2050,2048,2049,2049,2049,2050,2050,2049,2050,2049,2049,2049,2049,2049,2049,2047,2048,2047,2046,2046,2046,2045,2044,2043,2043,2043,2043,2042,2041,2041,2041,2041,2040,2041,2040,2040,2040,2040,2039,2039,2039,2039,2039,2039,2038,2038,2038,2038,2037,2037,2036,2037,2036,2036,2036,2037,2034,2035,2034,2034,2035,2034,2033,2033,2032,2032,2032,2033,2034,2034,2036,2037,2039,2040,2041,2046,2049,2052,2056,2060,2064,2068,2072,2076,2080,2085,2088,2092,2095,2098,2100,2103,2105,2106,2107,2107,2107,2106,2105,2105,2104,2102,2101,2100,2098,2096,2095,2093,2093,2091,2090,2089,2089,2089,2088,2087,2087,2086,2086,2086,2087,2087,2087,2088,2088,2088,2088,2088,2087,2088,2087,2086,2087,2086,2085,2085,2083,2083,2081,2080,2078,2077,2076,2075,2073,2072,2071,2069,2069,2067,2065,2065,2064,2064,2063,2063,2063,2063,2063,2063,2063,2064,2064,2064,2065,2065,2064,2064,2063,2062,2061,2061,2060,2059,2059,2058,2057,2058,2057,2056,2057,2056,2055,2056,2055,2054,2054,2054,2053,2052,2053,2051,2050,2050,2049,2050,2048,2048,2047,2047,2046,2045,2045,2045,2044,2045,2045,2045,2045,2045,2045,2045,2046,2045,2046,2046,2046,2045,2045,2045,2045,2044,2044,2043,2043,2043,2043,2042,2042,2042,2043,2042,2043,2044,2044,2044,2046,2046,2046,2048,2047,2047,2047,2047,2048,2048,2048,2048,2048,2048,2047,2047,2046,2047,2045,2045,2045,2045,2045,2044,2045,2044,2044,2045,2045,2045,2045,2045,2045,2045,2045,2043,2043,2043,2043,2042,2041,2042,2041,2041,2041,2041,2040,2040,2040,2040,2040,2039,2040,2039,2041,2041,2041,2043,2045,2047,2050,2053,2055,2059,2063,2066,2071,2075,2080,2084,2088,2093,2097,2101,2104,2107,2110,2114,2116,2117,2118,2119,2119,2120,2119,2118,2117,2116,2115,2115,2113,2112,2110,2108,2108,2106,2105,2103,2102,2101,2099,2099,2096,2095,2095,2093,2093,2093,2093,2092,2092,2093,2092,2092,2092,2093,2093,2092,2092,2092,2091,2089,2089,2088,2086,2084,2081,2080,2079,2077,2076,2074,2073,2072,2071,2070,2069,2069,2069,2069,2070,2069,2069,2069,2069,2070,2069,2071,2070,2071,2070,2069,2069,2068,2068,2068,2066,2066,2065,2065,2065,2064,2064,2064,2065,2064,2064,2063,2063,2062,2063,2062,2062,2063,2062,2062,2062,2061,2062,2061,2060,2060,2060,2060,2059,2060,2059,2060,2060,2060,2061,2061,2061,2062,2061,2062,2062,2061,2062,2062,2061,2061,2061,2060,2059,2059,2059,2058,2058,2057,2057,2056,2056,2055,2055,2054,2053,2053,2053,2052,2051,2051,2051,2051,2050,2051,2050,2049,2049,2049,2048,2048,2048,2048,2048,2047,2047,2046,2046,2046,2046,2045,2045,2045,2044,2044,2044,2044,2043,2043,2043,2043,2043,2042,2042,2042,2041,2042,2042,2041,2041,2042,2042,2042,2042,2042,2043,2043,2044,2045,2044,2045,2046,2045,2046,2046,2047,2047,2048,2048,2048,2048,2049,2050,2050,2051,2053,2054,2056,2059,2063,2066,2071,2075,2078,2083,2086,2090,2095,2098,2102,2105,2107,2111,2113,2114,2117,2118,2119,2119,2118,2117,2117,2115,2115,2114,2113,2111,2108,2106,2104,2103,2101,2099,2097,2095,2094,2092,2091,2091,2089,2088,2087,2086,2085,2085,2084,2084,2083,2082,2082,2083,2082,2083,2082,2083,2081,2082,2081,2080,2080,2079,2078,2078,2077,2076,2075,2074,2074,2072,2072,2071,2070,2069,2068,2069,2068,2069,2069,2068,2069,2068,2068,2069,2068,2069,2068,2067,2067,2067,2067,2066,2065,2065,2064,2063,2064,2062,2062,2061,2061,2060,2059,2059,2059,2058,2058,2058,2057,2057,2057,2056,2056,2056,2055,2055,2054,2054,2053,2052,2052,2051,2050,2050,2049,2049,2049,2048,2048,2048,2049,2048,2049,2049,2047,2049,2048,2049,2049,2049,2048,2048,2048,2047,2046,2046,2045,2044,2044,2043,2043,2043,2041,2042,2042,2043,2042,2042,2044,2043,2044,2044,2044,2044,2044,2044,2044,2044,2043,2043,2043,2043,2042,2042,2041,2041,2040,2040,2039,2039,2038,2037,2037,2037,2036,2037,2036,2036,2036,2036,2036,2036,2036,2037,2037,2037,2037,2038,2037,2037,2037,2036,2035,2036,2035,2035,2035,2035,2035,2035,2035,2036,2036,2038,2040,2041,2044,2047,2051,2055,2058,2062,2067,2072,2076,2080,2085,2089,2092,2097,2099,2101,2104,2105,2107,2107,2108,2108,2108,2107,2106,2105,2105,2103,2101,2100,2098,2096,2095,2093,2091,2090,2090,2087,2087,2085,2084,2083,2082,2082,2081,2081,2081,2079,2080,2079,2078,2078,2078,2077,2078,2077,2077,2077,2076,2076,2075,2075,2075,2074,2074,2072,2072,2072,2072,2071,2070,2070,2070,2069,2070,2069,2068,2068,2067,2067,2068,2067,2067,2068,2068,2068,2068,2070,2069,2071,2070,2071,2071,2072,2071,2072,2071,2071,2071,2071,2070,2070,2069,2068,2068,2068,2067,2067,2066,2065,2065,2064,2064,2063,2062,2061,2061,2060,2060,2059,2057,2057,2057,2057,2057,2056,2056,2056,2056,2056,2056,2055,2055,2054,2054,2053,2053,2053,2052,2052,2051,2050,2048,2049,2048,2048,2048,2047,2048,2047,2046,2046,2046,2047,2047,2046,2045,2045,2044,2044,2044,2044,2043,2042,2042,2042,2042,2042,2041,2041,2041,2041,2041,2041,2040,2041,2039,2039,2040,2039,2038,2037,2038,2037,2037,2036,2038,2037,2037,2037,2036,2038,2038,2040,2040,2041,2042,2045,2048,2050,2053,2056,2060,2063,2067,2071,2075,2080,2082,2088,2090,2094,2097,2100,2102,2105,2107,2107,2107,2108,2107,2106,2107,2104,2103,2102,2101,2099,2098,2096,2094,2093,2092,2091,2089,2088,2087,2086,2086,2085,2085,2085,2083,2083,2083,2082,2081,2081,2081,2080,2078,2077,2077,2076,2075,2074,2075,2074,2073,2071,2071,2069,2069,2068,2067,2066,2065,2064,2064,2063,2063,2062,2061,2061,2061,2060,2060,2060,2059,2060,2059,2060,2061,2060,2060,2059,2061,2060,2059,2059,2060,2059,2058,2058,2058,2057,2057,2056,2056,2056,2055,2056,2055,2054,2054,2055,2055,2055,2054,2053,2053,2052,2053,2052,2051,2049,2049,2048,2047,2046,2046,2045,2045,2044,2043,2044,2043,2043,2043,2042,2042,2042,2042,2041,2041,2041,2040,2041,2041,2040,2041,2042,2042,2042,2042,2042,2043,2043,2043,2043,2043,2043,2043,2042,2042,2043,2042,2042,2041,2041,2042,2042,2042,2041,2041,2041,2040,2041,2040,2040,2040,2039,2038,2038,2037,2037,2037,2037,2037,2037,2037,2037,2037,2038,2037,2038,2038,2038,2038,2038,2039,2039,2039,2040,2041,2041,2041,2043,2044,2047,2048,2051,2055,2059,2063,2066,2070,2074,2078,2082,2086,2090,2093,2096,2099,2101,2104,2106,2106,2107,2106,2106,2106,2105,2104,2103,2101,2100,2099,2097,2095,2094,2093,2091,2089,2088,2086,2085,2084,2082,2080,2079,2078,2077,2076,2075,2075,2075,2075,2075,2075,2075,2075,2075,2076,2075,2075,2075,2075,2075,2074,2074,2074,2074,2073,2073,2072,2072,2072,2071,2071,2070,2070,2070,2069,2069,2068,2068,2070,2069,2069,2069,2069,2068,2068,2068,2068,2068,2068,2067,2067,2066,2067,2066,2066,2066,2067,2065,2066,2066,2065,2064,2063,2063,2063,2062,2061,2061,2060,2060,2059,2058,2058,2057,2056,2056,2056,2055,2054,2053,2052,2052,2051,2051,2050,2050,2050,2049,2048,2048,2047,2047,2047,2045,2045,2046,2047,2045,2045,2045,2045,2044,2045,2044,2044,2043,2043,2043,2043,2043,2043,2043,2042,2042,2043,2042,2042,2041,2042,2042,2041,2042,2041,2041,2041,2041,2041,2041,2041,2039,2040,2039,2039,2039,2037,2037,2037,2036,2036,2036,2035,2036,2035,2036,2035,2035,2035,2035,2036,2036,2037,2038,2038,2039,2040,2040,2041,2041,2040,2040,2040,2040,2040,2040,2041,2041,2042,2042,2044,2045,2048,2050,2053,2056,2059,2063,2067,2071,2075,2079,2082,2086,2090,2093,2095,2098,2099,2102,2103,2103,2103,2102,2101,2101,2099,2098,2097,2096,2095,2093,2092,2091,2089,2088,2087,2085,2084,2083,2082,2081,2081,2080,2079,2078,2077,2077,2076,2076,2075,2075,2075,2075,2074,2074,2074,2074,2073,2073,2072,2072,2072,2072,2071,2069,2069,2068,2069,2066,2066,2065,2064,2064,2063,2062,2061,2060,2060,2060,2059,2058,2058,2058,2057,2057,2058,2057,2058,2058,2058,2059,2059,2058,2060,2060,2060,2061,2061,2060,2061,2060,2061,2060,2060,2060,2059,2059,2059,2059,2058,2058,2057,2057,2056,2055,2055,2055,2054,2053,2052,2052,2051,2051,2050,2050,2049,2048,2048,2048,2049,2049,2049,2049,2048,2048,2048,2048,2048,2048,2048,2048,2049,2049,2049,2049,2050,2050,2051,2050,2051,2051,2051,2052,2051,2051,2050,2049,2050,2048,2048,2048,2048,2048,2047,2047,2047,2047,2045,2045,2045,2045,2045,2044,2044,2043,2043,2043,2042,2043,2042,2042,2042,2041,2042,2042,2042,2043,2042,2043,2043,2044,2044,2045,2046,2047,2046,2047,2047,2048,2049,2049,2050,2050,2051,2051,2051,2051,2051,2051,2052,2052,2052,2052,2052,2053,2055,2056,2057,2060,2062,2066,2068,2072,2076,2081,2086,2090,2094,2098,2102,2106,2110,2114,2116,2119,2122,2124,2125,2126,2126,2126,2126,2125,2125,2124,2122,2121,2120,2117,2115,2113,2112,2110,2108,2107,2105,2105,2103,2102,2101,2101,2101,2101,2100,2101,2100,2099,2101,2100,2099,2099,2098,2099,2100,2098,2098,2097,2096,2095,2094,2094,2092,2091,2090,2088,2086,2085,2083,2083,2081,2080,2079,2077,2076,2075,2075,2073,2073,2072,2071,2071,2070,2070,2071,2070,2070,2070,2070,2071,2071,2069,2071,2070,2070,2070,2069,2068,2069,2068,2067,2068,2067,2065,2064,2064,2063,2062,2060,2059,2059,2058,2058,2056,2057,2055,2055,2054,2053,2053,2052,2051,2050,2049,2049,2049,2048,2047,2047,2047,2045,2046,2046,2046,2046,2047,2046,2047,2047,2046,2047,2048,2047,2047,2048,2048,2048,2048,2048,2048,2049,2048,2048,2049,2048,2049,2049,2049,2047,2048,2047,2047,2047,2048,2046,2045,2045,2045,2044,2044,2044,2044,2044,2043,2044,2044,2044,2044,2044,2044,2044,2043,2043,2044,2043,2042,2042,2041,2041,2041,2040,2040,2041,2040,2040,2040,2040,2040,2041,2041,2041,2041,2041,2042,2041,2041,2041,2040,2040,2040,2041,2041,2041,2042,2043,2044,2047,2050,2052,2055,2058,2063,2066,2069,2073,2077,2081,2083,2087,2091,2092,2096,2098,2100,2101,2102,2103,2104,2104,2104,2104,2104,2103,2102,2101,2099,2098,2097,2096,2094,2094,2092,2092,2091,2091,2090,2090,2089,2089,2089,2089,2088,2088,2088,2088,2086,2086,2085,2085,2084,2084,2083,2082,2081,2080,2079,2078,2076,2074,2074,2071,2071,2070,2069,2068,2068,2067,2067,2067,2065,2066,2065,2064,2064,2064,2063,2063,2064,2062,2064,2063,2063,2064,2064,2065,2064,2066,2065,2065,2067,2067,2066,2066,2066,2066,2065,2064,2064,2064,2063,2062,2061,2060,2060,2059,2059,2058,2057,2057,2056,2057,2056,2056,2056,2056,2056,2056,2055,2056,2055,2054,2054,2054,2054,2054,2052,2053,2053,2053,2052,2052,2052,2051,2050,2050,2049,2049,2050,2050,2049,2049,2049,2049,2048,2048,2048,2048,2048,2047,2047,2047,2047,2047,2046,2044,2044,2043,2042,2041,2041,2040,2040,2040,2040,2039,2039,2038,2038,2038,2038,2038,2038,2038,2038,2039,2038,2038,2037,2038,2037,2038,2037,2037,2036,2036,2036,2037,2037,2036,2037,2038,2038,2040,2041,2043,2045,2048,2050,2054,2056,2059,2062,2066,2069,2074,2076,2081,2085,2087,2091,2092,2095,2099,2101,2102,2104,2105,2106,2105,2105,2105,2105,2105,2103,2102,2102,2100,2100,2098,2096,2095,2093,2091,2089,2087,2086,2085,2084,2083,2083,2082,2081,2081,2080,2079,2078,2078,2078,2077,2077,2077,2076,2076,2075,2075,2073,2072,2072,2072,2070,2070,2069,2068,2068,2068,2067,2067,2066,2066,2066,2066,2066,2066,2066,2066,2066,2065,2066,2066,2067,2067,2067,2066,2067,2067,2065,2066,2065,2065,2064,2064,2063,2063,2062,2062,2061,2060,2060,2058,2058,2057,2057,2057,2056,2056,2055,2055,2054,2053,2052,2052,2052,2051,2051,2050,2050,2050,2050,2049,2049,2048,2049,2048,2047,2046,2045,2045,2044,2043,2044,2044,2043,2043,2043,2042,2042,2042,2042,2042,2042,2041,2041,2041,2041,2040,2041,2040,2041,2040,2040,2039,2039,2037,2039,2037,2036,2035,2036,2036,2035,2035,2035,2036,2035,2035,2036,2035,2036,2035,2036,2035,2035,2034,2034,2034,2034,2034,2034,2034,2034,2033,2034,2033,2033,2031,2031,2031,2030,2030,2029,2030,2030,2030,2031,2032,2034,2036,2039,2041,2046,2049,2052,2056,2060,2064,2068,2072,2076,2079,2082,2085,2088,2090,2093,2095,2095,2097,2097,2098,2097,2097,2097,2096,2095,2094,2093,2092,2091,2089,2088,2087,2086,2084,2083,2082,2081,2080,2078,2078,2077,2076,2075,2075,2075,2075,2074,2074,2074,2073,2074,2073,2073,2073,2074,2073,2072,2072,2073,2071,2070,2070,2069,2068,