1679,1678,1677,1674,1672,1671,1667,1662,1658,1654,1650,1645,1642,1641,1638,1634,1631,1630,1628,1626,1623,1622,1620,1616,1612,1608,1606,1600,1595,1591,1586,1581,1575,1568,1562,1556,1547,1540,1533,1528,1523,1517,1514,1511,1508,1506,1505,1504,1503,1503,1503,1504,1505,1504,1503,1501,1501,1499,1497,1496,1497,1496,1496,1496,1498,1500,1501,1502,1505,1507,1507,1510,1512,1516,1518,1520,1522,1524,1527,1524,1523,1521,1519,1514,1511,1509,1508,1506,1503,1504,1507,1512,1519,1532,1549,1569,1593,1622,1657,1698,1741,1790,1843,1900,1959,2023,2089,2159,2230,2301,2373,2446,2518,2586,2650,2712,2769,2822,2894,2944,2977,3004,3026,3044,3058,3065,3068,3071,3069,3062,3053,3044,3032,3018,2999,2982,2963,2943,2920,2895,2873,2849,2825,2800,2779,2758,2736,2715,2694,2676,2660,2640,2623,2606,2588,2568,2550,2533,2515,2497,2479,2464,2447,2431,2414,2399,2383,2368,2352,2337,2324,2311,2298,2288,2279,2271,2263,2257,2254,2252,2251,2251,2255,2261,2266,2272,2280,2289,2296,2301,2306,2310,2313,2312,2310,2310,2307,2301,2294,2288,2282,2275,2265,2255,2244,2231,2218,2202,2188,2171,2154,2135,2119,2100,2082,2063,2046,2031,2014,1997,1982,1969,1956,1941,1929,1916,1903,1891,1878,1865,1853,1840,1829,1819,1812,1806,1797,1789,1783,1776,1770,1763,1757,1752,1746,1740,1735,1732,1728,1722,1719,1717,1715,1712,1710,1708,1704,1700,1698,1697,1697,1696,1694,1695,1698,1697,1696,1695,1694,1691,1688,1685,1683,1681,1680,1677,1677,1676,1678,1677,1678,1680,1680,1679,1679,1677,1675,1672,1669,1665,1662,1656,1650,1646,1642,1638,1634,1631,1630,1629,1625,1624,1622,1620,1617,1612,1612,1611,1606,1604,1601,1599,1596,1593,1591,1589,1587,1582,1578,1575,1571,1568,1562,1559,1557,1556,1554,1556,1558,1560,1558,1559,1560,1559,1556,1555,1552,1551,1548,1545,1546,1548,1551,1557,1564,1576,1589,1606,1628,1654,1686,1720,1760,1807,1860,1916,1976,2042,2111,2179,2248,2318,2389,2458,2523,2588,2652,2710,2766,2816,2884,2930,2959,2983,3002,3017,3026,3029,3030,3027,3020,3008,2996,2983,2967,2949,2931,2913,2892,2869,2846,2826,2804,2782,2760,2741,2721,2701,2683,2664,2648,2631,2613,2596,2579,2560,2542,2523,2508,2492,2474,2458,2442,2427,2410,2392,2378,2363,2346,2332,2319,2309,2299,2291,2286,2283,2282,2283,2284,2289,2294,2297,2302,2307,2312,2315,2317,2318,2320,2318,2315,2309,2306,2301,2294,2285,2278,2270,2261,2252,2243,2232,2221,2210,2198,2188,2175,2162,2148,2138,2125,2112,2101,2090,2080,2067,2052,2038,2024,2007,1990,1975,1961,1945,1928,1913,1899,1886,1873,1859,1849,1839,1829,1819,1810,1801,1791,1782,1772,1763,1753,1743,1734,1727,1720,1712,1705,1700,1697,1693,1687,1684,1682,1679,1676,1675,1676,1675,1674,1672,1672,1671,1668,1667,1665,1663,1661,1659,1656,1654,1653,1651,1650,1649,1650,1648,1647,1648,1650,1652,1652,1652,1653,1653,1650,1649,1649,1648,1647,1646,1646,1645,1643,1640,1637,1634,1630,1623,1617,1612,1606,1598,1593,1588,1584,1580,1575,1574,1571,1569,1567,1567,1568,1569,1569,1571,1574,1577,1577,1579,1583,1584,1583,1583,1581,1579,1576,1571,1569,1568,1566,1565,1564,1566,1566,1567,1567,1570,1571,1572,1573,1575,1576,1575,1574,1574,1575,1575,1576,1577,1579,1582,1583,1587,1596,1606,1619,1636,1660,1688,1721,1760,1804,1855,1911,1970,2032,2099,2169,2238,2308,2381,2452,2524,2593,2662,2728,2789,2848,2904,2982,3037,3075,3108,3137,3159,3175,3188,3196,3196,3192,3183,3171,3155,3133,3112,3088,3062,3036,3008,2983,2958,2933,2908,2885,2865,2845,2826,2809,2794,2781,2766,2752,2740,2729,2715,2702,2691,2679,2666,2653,2642,2631,2618,2603,2590,2579,2566,2553,2538,2525,2512,2496,2480,2467,2452,2438,2424,2411,2399,2388,2376,2365,2357,2350,2344,2340,2340,2340,2341,2341,2341,2342,2340,2338,2336,2335,2331,2326,2320,2313,2306,2296,2286,2277,2267,2253,2241,2227,2213,2200,2183,2168,2154,2140,2123,2108,2094,2081,2067,2053,2040,2027,2016,2004,1996,1988,1980,1972,1963,1954,1945,1935,1926,1917,1909,1900,1890,1881,1873,1865,1855,1847,1841,1833,1824,1816,1811,1805,1800,1796,1794,1792,1790,1789,1788,1789,1789,1787,1786,1785,1783,1778,1775,1773,1769,1766,1762,1761,1759,1757,1754,1751,1749,1746,1741,1737,1733,1729,1723,1717,1711,1708,1703,1699,1699,1699,1698,1696,1696,1696,1697,1696,1695,1694,1692,1690,1686,1684,1683,1680,1678,1677,1677,1676,1673,1670,1668,1664,1658,1652,1646,1641,1632,1624,1617,1612,1605,1601,1598,1596,1593,1592,1591,1593,1596,1597,1598,1601,1602,1603,1602,1603,1603,1602,1599,1598,1595,1593,1588,1585,1583,1580,1576,1572,1570,1567,1564,1563,1565,1572,1581,1595,1614,1639,1670,1706,1748,1797,1852,1909,1971,2038,2105,2173,2242,2313,2383,2450,2514,2576,2635,2691,2743,2814,2869,2908,2941,2973,3000,3020,3036,3047,3055,3056,3052,3045,3036,3023,3007,2990,2971,2951,2928,2904,2881,2859,2836,2812,2790,2770,2750,2729,2711,2693,2676,2655,2637,2621,2607,2592,2579,2565,2552,2537,2521,2504,2487,2469,2449,2429,2410,2390,2371,2352,2335,2319,2302,2287,2271,2258,2242,2229,2216,2206,2196,2185,2176,2170,2165,2159,2154,2152,2149,2147,2146,2147,2148,2147,2146,2144,2144,2142,2136,2131,2127,2122,2115,2105,2095,2085,2076,2066,2057,2050,2041,2033,2026,2018,2011,2003,1994,1989,1983,1976,1968,1962,1957,1950,1944,1938,1933,1928,1920,1912,1904,1894,1882,1868,1855,1842,1829,1817,1808,1801,1795,1787,1780,1776,1770,1763,1755,1750,1745,1739,1732,1728,1724,1717,1711,1704,1700,1694,1688,1681,1675,1667,1658,1649,1640,1630,1619,1606,1594,1584,1574,1566,1560,1558,1556,1554,1553,1553,1552,1550,1546,1542,1538,1531,1523,1516,1511,1504,1495,1489,1484,1477,1469,1462,1456,1449,1442,1437,1435,1434,1436,1437,1439,1444,1448,1452,1457,1463,1468,1473,1476,1481,1485,1488,1492,1497,1505,1509,1513,1518,1523,1526,1528,1530,1533,1533,1534,1536,1537,1541,1542,1545,1548,1551,1554,1556,1559,1564,1566,1567,1571,1574,1577,1577,1577,1577,1576,1575,1572,1570,1569,1568,1567,1570,1577,1584,1596,1613,1636,1665,1698,1736,1781,1830,1882,1937,1998,2060,2123,2187,2254,2322,2391,2458,2525,2591,2651,2708,2760,2833,2886,2923,2956,2983,3005,3021,3032,3040,3043,3042,3037,3031,3021,3006,2987,2969,2949,2928,2905,2884,2862,2842,2821,2800,2783,2766,2748,2731,2715,2698,2682,2665,2650,2637,2623,2609,2597,2584,2573,2560,2548,2538,2528,2516,2502,2489,2477,2464,2449,2436,2423,2409,2395,2382,2373,2364,2355,2348,2344,2341,2341,2338,2339,2338,2337,2333,2329,2324,2317,2309,2302,2297,2293,2287,2282,2278,2273,2266,2258,2250,2240,2231,2218,2207,2194,2181,2166,2152,2138,2124,2110,2097,2086,2076,2065,2054,2042,2032,2021,2007,1994,1983,1971,1958,1945,1933,1920,1907,1893,1880,1869,1857,1847,1838,1831,1822,1814,1805,1799,1791,1783,1775,1770,1764,1759,1755,1754,1754,1754,1752,1750,1749,1745,1739,1735,1733,1730,1727,1723,1721,1719,1714,1707,1701,1693,1686,1678,1670,1663,1656,1648,1640,1634,1629,1623,1617,1614,1611,1607,1605,1604,1605,1606,1607,1609,1612,1615,1618,1619,1622,1623,1623,1621,1623,1626,1626,1626,1628,1629,1628,1627,1624,1623,1622,1621,1619,1619,1620,1618,1616,1613,1612,1608,1604,1603,1604,1604,1605,1606,1607,1607,1604,1600,1595,1590,1584,1576,1568,1561,1555,1549,1542,1540,1535,1529,1525,1521,1519,1516,1512,1511,1508,1506,1501,1498,1497,1494,1488,1483,1480,1475,1471,1468,1466,1466,1465,1465,1468,1475,1483,1494,1508,1527,1549,1575,1606,1644,1688,1733,1784,1839,1899,1959,2023,2089,2157,2225,2292,2360,2428,2494,2556,2618,2676,2731,2802,2858,2898,2932,2961,2987,3008,3023,3033,3039,3042,3043,3039,3032,3022,3010,2995,2977,2957,2937,2915,2892,2869,2846,2824,2801,2779,2759,2741,2723,2706,2691,2677,2662,2647,2631,2616,2602,2587,2571,2557,2543,2527,2513,2499,2486,2473,2460,2449,2438,2426,2416,2406,2397,2388,2378,2369,2362,2357,2348,2342,2337,2334,2330,2323,2318,2313,2306,2298,2291,2287,2282,2278,2273,2270,2265,2261,2256,2253,2251,2246,2240,2231,2222,2211,2199,2186,2174,2161,2147,2131,2116,2101,2082,2065,2049,2034,2017,2003,1991,1982,1972,1962,1953,1945,1936,1926,1917,1909,1902,1892,1882,1873,1864,1854,1845,1837,1830,1824,1818,1812,1810,1806,1803,1798,1797,1795,1793,1790,1789,1789,1787,1784,1782,1781,1782,1781,1781,1781,1781,1777,1773,1769,1765,1759,1751,1746,1742,1736,1729,1724,1718,1711,1703,1695,1689,1684,1680,1676,1672,1670,1667,1664,1665,1666,1670,1671,1675,1677,1680,1680,1681,1681,1681,1679,1676,1675,1673,1670,1664,1659,1654,1647,1640,1632,1628,1624,1619,1616,1616,1616,1617,1617,1616,1618,1619,1617,1616,1615,1616,1614,1614,1615,1617,1615,1613,1612,1613,1610,1609,1607,1606,1605,1602,1602,1606,1605,1605,1605,1608,1608,1607,1604,1601,1597,1591,1584,1579,1574,1570,1566,1565,1568,1573,1580,1591,1606,1625,1649,1679,1715,1758,1804,1853,1908,1968,2030,2094,2158,2225,2291,2357,2422,2487,2551,2611,2667,2722,2806,2857,2895,2930,2962,2988,3008,3026,3039,3047,3051,3050,3046,3037,3024,3010,2993,2975,2954,2932,2910,2888,2863,2840,2819,2798,2776,2755,2736,2718,2700,2682,2666,2652,2637,2623,2608,2594,2580,2565,2551,2537,2526,2511,2496,2482,2468,2453,2436,2421,2408,2394,2381,2370,2364,2357,2351,2346,2341,2340,2338,2337,2340,2343,2348,2353,2359,2364,2370,2375,2380,2384,2387,2388,2388,2388,2387,2383,2379,2372,2365,2357,2344,2330,2318,2302,2285,2266,2249,2230,2209,2186,2164,2143,2120,2098,2078,2060,2042,2026,2014,2005,1997,1989,1982,1976,1971,1963,1957,1952,1950,1947,1941,1937,1931,1926,1916,1907,1898,1888,1875,1862,1849,1838,1825,1816,1809,1804,1799,1796,1792,1790,1785,1781,1778,1777,1778,1776,1778,1781,1784,1789,1791,1796,1803,1808,1810,1813,1814,1814,1811,1807,1803,1798,1792,1786,1781,1777,1771,1762,1755,1748,1742,1733,1726,1719,1713,1706,1701,1698,1695,1692,1690,1689,1691,1692,1692,1692,1692,1691,1687,1685,1683,1682,1679,1676,1675,1672,1669,1664,1659,1656,1652,1648,1644,1642,1639,1638,1635,1635,1633,1632,1629,1628,1626,1623,1620,1616,1614,1612,1608,1604,1600,1597,1592,1590,1592,1596,1602,1613,1630,1652,1678,1708,1743,1784,1826,1873,1926,1984,2046,2111,2179,2250,2325,2398,2472,2548,2622,2692,2757,2821,2881,2935,3008,3062,3100,3130,3156,3176,3190,3200,3201,3197,3190,3178,3162,3143,3126,3106,3085,3065,3046,3028,3008,2988,2970,2953,2934,2915,2898,2884,2870,2856,2842,2830,2817,2801,2785,2770,2755,2738,2721,2705,2689,2673,2654,2635,2617,2599,2578,2557,2540,2524,2507,2491,2477,2465,2454,2443,2436,2429,2422,2416,2412,2409,2406,2404,2401,2401,2399,2397,2394,2391,2390,2389,2386,2384,2382,2378,2373,2368,2361,2353,2341,2329,2318,2305,2291,2276,2264,2250,2236,2218,2203,2186,2170,2153,2136,2119,2102,2085,2066,2050,2034,2018,2002,1990,1978,1967,1953,1943,1932,1921,1910,1901,1893,1885,1876,1867,1861,1853,1846,1838,1831,1826,1819,1810,1803,1794,1786,1777,1769,1763,1757,1752,1747,1745,1745,1743,1741,1741,1742,1741,1741,1741,1741,1741,1739,1737,1736,1733,1730,1725,1722,1718,1713,1708,1704,1702,1700,1694,1689,1686,1682,1679,1677,1676,1677,1678,1679,1680,1684,1685,1686,1688,1692,1693,1692,1691,1690,1689,1685,1680,1674,1668,1660,1653,1645,1642,1636,1631,1627,1624,1622,1619,1615,1614,1612,1610,1608,1606,1607,1607,1606,1608,1611,1612,1613,1615,1618,1621,1621,1618,1616,1612,1605,1599,1592,1584,1576,1568,1561,1554,1548,1541,1534,1530,1527,1525,1526,1532,1541,1553,1568,1591,1620,1653,1691,1737,1789,1845,1905,1970,2040,2110,2183,2258,2334,2411,2486,2559,2632,2703,2769,2831,2892,2976,3036,3079,3117,3150,3177,3197,3213,3223,3227,3225,3221,3212,3200,3185,3169,3154,3138,3119,3097,3076,3055,3032,3008,2985,2965,2945,2924,2905,2889,2874,2858,2843,2829,2820,2807,2795,2785,2776,2764,2750,2735,2720,2703,2686,2669,2652,2633,2615,2595,2578,2561,2544,2527,2511,2497,2483,2467,2455,2445,2435,2425,2420,2415,2413,2409,2405,2402,2399,2393,2387,2381,2373,2366,2354,2345,2337,2327,2319,2311,2305,2299,2290,2283,2278,2272,2265,2254,2244,2233,2221,2205,2192,2177,2162,2146,2127,2108,2090,2069,2049,2031,2013,1996,1977,1959,1943,1927,1911,1896,1883,1870,1856,1843,1832,1822,1810,1800,1792,1784,1776,1767,1759,1752,1746,1741,1737,1735,1733,1731,1728,1727,1726,1724,1722,1722,1723,1723,1722,1720,1721,1720,1716,1714,1712,1710,1706,1703,1702,1701,1701,1699,1699,1696,1692,1685,1679,1677,1672,1669,1664,1661,1657,1653,1649,1645,1642,1638,1632,1630,1629,1630,1630,1629,1629,1629,1626,1623,1620,1616,1612,1607,1604,1601,1598,1595,1594,1594,1593,1592,1589,1589,1588,1584,1581,1579,1578,1574,1571,1570,1569,1566,1561,1556,1551,1546,1538,1532,1528,1522,1517,1513,1511,1510,1510,1507,1508,1509,1509,1509,1509,1511,1515,1517,1519,1523,1525,1527,1528,1530,1531,1531,1528,1527,1528,1528,1530,1534,1544,1556,1571,1592,1619,1653,1691,1735,1787,1844,1906,1971,2042,2117,2193,2271,2348,2425,2501,2574,2642,2709,2772,2829,2882,2955,3007,3040,3071,3098,3120,3137,3147,3156,3159,3157,3151,3144,3133,3118,3102,3084,3065,3045,3021,2996,2972,2946,2919,2893,2868,2845,2825,2803,2784,2768,2752,2736,2722,2709,2697,2683,2669,2656,2641,2625,2607,2589,2571,2552,2532,2511,2494,2476,2458,2441,2425,2410,2395,2383,2374,2368,2361,2356,2354,2354,2354,2356,2358,2361,2365,2366,2366,2368,2368,2365,2362,2360,2355,2350,2341,2335,2325,2315,2304,2290,2278,2264,2249,2235,2220,2208,2192,2176,2161,2149,2133,2116,2101,2083,2066,2047,2029,2012,1995,1978,1962,1950,1938,1926,1915,1906,1900,1892,1883,1875,1867,1859,1849,1837,1825,1813,1799,1787,1778,1770,1762,1754,1749,1746,1743,1738,1737,1736,1736,1735,1733,1734,1733,1732,1731,1731,1731,1730,1727,1724,1723,1720,1716,1715,1715,1714,1712,1711,1711,1709,1707,1705,1704,1702,1699,1697,1695,1694,1693,1691,1687,1684,1680,1674,1667,1662,1656,1649,1643,1640,1637,1633,1628,1624,1621,1614,1607,1601,1597,1593,1588,1585,1583,1580,1580,1577,1578,1580,1580,1580,1581,1583,1584,1586,1587,1590,1592,1593,1593,1595,1594,1592,1588,1585,1581,1575,1568,1565,1563,1561,1559,1558,1557,1556,1554,1553,1551,1552,1551,1550,1552,1555,1560,1566,1576,1591,1609,1632,1658,1693,1734,1781,1832,1891,1954,2018,2085,2155,2226,2296,2363,2430,2496,2559,2620,2678,2734,2787,2858,2908,2946,2979,3005,3028,3046,3059,3063,3062,3056,3047,3032,3013,2994,2973,2951,2928,2905,2884,2860,2837,2814,2791,2771,2750,2730,2714,2699,2685,2670,2655,2643,2629,2615,2602,2589,2577,2562,2549,2536,2523,2511,2499,2487,2478,2467,2455,2444,2432,2420,2407,2395,2383,2373,2362,2351,2344,2338,2332,2325,2320,2316,2311,2306,2302,2300,2297,2294,2292,2291,2288,2285,2281,2278,2275,2270,2263,2258,2253,2246,2237,2228,2219,2208,2193,2181,2167,2154,2136,2119,2103,2088,2072,2055,2040,2024,2008,1991,1973,1955,1937,1917,1896,1877,1858,1839,1823,1809,1797,1787,1778,1774,1770,1766,1764,1761,1760,1758,1756,1751,1747,1744,1737,1731,1726,1720,1716,1710,1703,1700,1694,1688,1681,1676,1672,1666,1660,1656,1650,1645,1639,1635,1634,1630,1628,1627,1629,1629,1629,1629,1629,1628,1625,1623,1621,1621,1620,1618,1616,1616,1612,1608,1603,1600,1596,1590,1585,1584,1584,1581,1581,1582,1583,1583,1582,1583,1585,1588,1590,1592,1596,1599,1598,1596,1595,1591,1585,1575,1570,1563,1556,1546,1539,1532,1525,1518,1512,1508,1505,1501,1498,1496,1497,1497,1499,1504,1508,1513,1518,1524,1531,1536,1539,1541,1543,1544,1544,1545,1545,1547,1545,1544,1543,1542,1541,1536,1534,1532,1529,1526,1525,1526,1530,1537,1549,1567,1591,1618,1651,1692,1741,1793,1850,1911,1978,2049,2120,2196,2273,2350,2426,2501,2576,2650,2720,2785,2847,2906,2980,3031,3067,3097,3120,3138,3153,3164,3170,3172,3174,3171,3166,3157,3146,3135,3120,3104,3085,3067,3048,3027,3006,2985,2964,2942,2921,2901,2884,2866,2848,2833,2818,2805,2791,2775,2759,2745,2727,2709,2690,2671,2652,2634,2616,2600,2584,2569,2554,2543,2531,2521,2512,2504,2497,2488,2482,2474,2467,2459,2449,2439,2431,2422,2411,2401,2393,2386,2377,2369,2362,2357,2349,2342,2336,2331,2326,2320,2314,2310,2305,2299,2291,2285,2278,2269,2257,2246,2234,2220,2202,2187,2170,2153,2134,2117,2102,2086,2070,2051,2035,2016,1999,1980,1963,1946,1930,1912,1898,1885,1873,1861,1850,1843,1836,1830,1824,1819,1816,1812,1808,1805,1803,1798,1792,1785,1781,1775,1767,1761,1757,1752,1748,1743,1740,1737,1730,1723,1716,1710,1704,1696,1690,1685,1681,1677,1674,1673,1671,1668,1666,1667,1669,1669,1670,1669,1668,1667,1663,1661,1660,1659,1658,1656,1658,1658,1657,1653,1648,1644,1639,1633,1627,1624,1620,1614,1610,1606,1603,1600,1595,1592,1588,1583,1579,1574,1570,1565,1559,1554,1551,1547,1543,1540,1538,1536,1533,1532,1531,1530,1528,1525,1523,1520,1517,1511,1509,1506,1502,1498,1494,1491,1487,1482,1475,1472,1470,1466,1463,1463,1465,1466,1469,1474,1481,1489,1494,1499,1504,1507,1509,1508,1509,1511,1510,1510,1511,1514,1515,1517,1521,1528,1537,1550,1567,1592,1622,1657,1698,1747,1802,1860,1921,1988,2059,2132,2206,2282,2361,2440,2517,2592,2668,2739,2808,2869,2928,3005,3057,3093,3122,3148,3166,3178,3187,3191,3189,3183,3174,3162,3146,3126,3104,3081,3057,3032,3007,2982,2957,2931,2906,2881,2860,2839,2819,2802,2787,2773,2759,2745,2733,2720,2707,2693,2681,2669,2655,2638,2623,2609,2592,2572,2557,2541,2525,2510,2495,2481,2467,2453,2441,2431,2421,2412,2403,2398,2393,2390,2386,2384,2383,2382,2380,2378,2376,2375,2370,2364,2361,2356,2352,2346,2341,2335,2328,2320,2310,2301,2290,2277,2262,2248,2234,2218,2201,2187,2172,2157,2143,2130,2117,2102,2088,2074,2061,2049,2033,2018,2005,1992,1977,1963,1949,1936,1923,1908,1894,1882,1870,1858,1846,1836,1826,1815,1805,1797,1791,1784,1779,1774,1771,1766,1759,1753,1748,1741,1732,1725,1718,1713,1708,1704,1701,1699,1695,1691,1688,1687,1685,1681,1678,1674,1670,1664,1658,1654,1650,1648,1644,1643,1644,1644,1645,1647,1650,1652,1653,1653,1652,1650,1646,1641,1636,1632,1625,1619,1615,1613,1610,1608,1606,1605,1604,1601,1598,1596,1593,1589,1583,1580,1575,1570,1565,1562,1561,1560,1559,1558,1559,1560,1560,1560,1562,1563,1561,1560,1559,1557,1555,1551,1548,1545,1542,1536,1533,1530,1528,1523,1518,1514,1508,1501,1494,1490,1486,1482,1479,1476,1478,1477,1476,1476,1477,1478,1478,1481,1487,1497,1510,1527,1551,1580,1613,1651,1694,1744,1798,1855,1914,1979,2047,2115,2185,2256,2328,2401,2472,2542,2613,2682,2746,2810,2897,2959,3003,3044,3081,3110,3132,3149,3160,3164,3159,3150,3136,3117,3093,3068,3040,3011,2979,2946,2913,2882,2848,2816,2785,2756,2728,2701,2675,2653,2632,2610,2591,2574,2559,2543,2528,2514,2502,2488,2474,2461,2448,2435,2420,2408,2395,2382,2370,2360,2352,2345,2337,2328,2321,2314,2307,2300,2293,2288,2284,2279,2276,2275,2275,2275,2274,2278,2279,2281,2280,2281,2281,2280,2278,2277,2276,2274,2271,2265,2260,2254,2247,2236,2226,2216,2203,2186,2171,2156,2139,2120,2099,2079,2056,2032,2009,1990,1972,1953,1937,1925,1913,1901,1889,1879,1870,1860,1849,1839,1829,1820,1809,1798,1790,1781,1771,1761,1753,1746,1736,1726,1718,1711,1704,1696,1688,1683,1679,1674,1670,1669,1669,1668,1669,1671,1674,1675,1676,1679,1683,1686,1688,1690,1693,1695,1695,1694,1695,1694,1692,1688,1687,1686,1683,1681,1678,1675,1671,1667,1663,1660,1656,1652,1648,1646,1643,1641,1637,1637,1637,1636,1633,1631,1631,1630,1627,1624,1622,1622,1619,1615,1614,1612,1609,1606,1603,1601,1598,1593,1589,1586,1583,1577,1571,1566,1562,1557,1553,1548,1544,1539,1533,1527,1524,1520,1517,1512,1512,1510,1510,1514,1517,1524,1532,1545,1562,1584,1610,1641,1676,1720,1768,1821,1878,1940,2007,2074,2144,2219,2295,2373,2449,2526,2603,2678,2748,2817,2884,2947,3026,3083,3123,3156,3182,3202,3218,3228,3231,3231,3228,3220,3207,3191,3173,3151,3129,3103,3077,3051,3025,2997,2970,2945,2921,2896,2875,2856,2837,2819,2801,2786,2771,2756,2741,2725,2710,2694,2675,2656,2638,2621,2602,2583,2565,2549,2530,2512,2494,2479,2461,2444,2428,2415,2404,2393,2384,2376,2370,2364,2359,2357,2356,2354,2352,2351,2351,2349,2349,2348,2348,2348,2347,2346,2346,2344,2340,2335,2329,2323,2314,2302,2291,2282,2267,2250,2234,2218,2200,2181,2160,2141,2123,2103,2085,2070,2055,2041,2025,2011,1999,1985,1971,1957,1944,1931,1916,1902,1889,1878,1865,1853,1842,1833,1822,1809,1798,1786,1775,1761,1750,1743,1735,1727,1720,1717,1714,1712,1710,1709,1710,1710,1709,1710,1712,1714,1715,1718,1722,1724,1724,1724,1721,1719,1713,1707,1702,1698,1695,1690,1686,1684,1679,1673,1666,1661,1655,1650,1645,1640,1638,1634,1631,1630,1632,1632,1631,1633,1634,1635,1634,1632,1632,1629,1626,1622,1618,1616,1611,1606,1600,1595,1589,1580,1572,1563,1556,1548,1540,1532,1528,1523,1520,1518,1517,1515,1515,1515,1516,1516,1518,1520,1525,1528,1531,1534,1538,1544,1548,1551,1557,1561,1565,1564,1563,1561,1557,1551,1543,1537,1531,1524,1517,1514,1511,1512,1514,1522,1532,1547,1565,1591,1624,1664,1707,1760,1819,1885,1953,2027,2106,2190,2274,2358,2443,2529,2612,2693,2771,2847,2918,2981,3039,3119,3172,3207,3237,3262,3280,3291,3297,3299,3296,3287,3274,3261,3244,3224,3201,3177,3153,3127,3096,3067,3037,3006,2976,2948,2923,2901,2878,2857,2838,2821,2804,2786,2769,2754,2739,2724,2711,2699,2686,2673,2660,2647,2634,2618,2601,2583,2566,2547,2527,2509,2495,2480,2465,2454,2448,2442,2437,2432,2430,2430,2427,2424,2423,2421,2418,2414,2411,2406,2401,2395,2388,2383,2379,2372,2366,2360,2353,2344,2334,2325,2316,2306,2293,2280,2265,2249,2229,2208,2189,2167,2145,2124,2104,2084,2064,2044,2026,2007,1990,1971,1953,1936,1921,1905,1890,1878,1867,1856,1845,1836,1828,1819,1811,1804,1799,1794,1787,1781,1776,1769,1761,1753,1744,1737,1727,1718,1709,1701,1692,1682,1675,1669,1664,1657,1654,1654,1652,1651,1651,1651,1652,1652,1651,1653,1655,1657,1657,1660,1664,1665,1665,1664,1663,1661,1659,1656,1655,1653,1651,1647,1644,1642,1639,1633,1627,1621,1614,1605,1598,1593,1588,1584,1581,1581,1581,1582,1582,1582,1586,1584,1582,1580,1578,1576,1571,1567,1562,1558,1553,1547,1544,1539,1532,1527,1521,1517,1514,1510,1507,1505,1504,1501,1500,1499,1499,1496,1495,1493,1494,1494,1495,1496,1500,1503,1506,1508,1512,1515,1515,1514,1513,1512,1508,1501,1497,1493,1489,1482,1477,1474,1472,1470,1472,1479,1490,1506,1527,1555,1589,1628,1671,1722,1780,1843,1908,1978,2053,2129,2205,2284,2364,2445,2523,2600,2677,2751,2818,2879,2959,3017,3054,3086,3113,3134,3148,3156,3159,3158,3153,3143,3129,3113,3092,3068,3041,3016,2987,2958,2931,2906,2882,2859,2836,2817,2799,2783,2766,2750,2738,2724,2709,2693,2679,2663,2645,2625,2608,2589,2570,2553,2534,2519,2503,2488,2475,2461,2449,2435,2423,2411,2399,2386,2375,2365,2357,2347,2338,2332,2327,2324,2320,2317,2318,2320,2320,2321,2323,2325,2325,2326,2327,2327,2326,2322,2319,2317,2313,2307,2300,2295,2286,2276,2262,2249,2235,2216,2196,2178,2158,2140,2120,2103,2088,2072,2056,2041,2028,2014,2001,1985,1972,1957,1944,1930,1916,1904,1891,1878,1865,1854,1842,1833,1823,1815,1809,1801,1795,1793,1792,1790,1787,1785,1784,1780,1776,1773,1768,1764,1757,1750,1743,1735,1727,1718,1710,1705,1700,1693,1687,1685,1679,1676,1674,1674,1674,1674,1673,1673,1673,1673,1671,1671,1672,1672,1670,1668,1671,1669,1667,1666,1665,1666,1666,1665,1665,1667,1665,1663,1659,1655,1649,1643,1635,1631,1625,1618,1613,1607,1603,1596,1591,1586,1579,1572,1564,1557,1552,1547,1544,1543,1545,1548,1549,1549,1553,1555,1558,1560,1564,1568,1571,1573,1574,1574,1574,1571,1568,1566,1562,1557,1551,1548,1541,1537,1532,1528,1526,1524,1524,1529,1538,1551,1568,1591,1619,1653,1691,1735,1784,1839,1897,1958,2026,2098,2173,2248,2324,2402,2478,2551,2622,2690,2753,2812,2864,2937,2986,3019,3044,3064,3078,3086,3089,3088,3082,3071,3058,3042,3023,3001,2975,2948,2919,2889,2855,2824,2794,2763,2734,2707,2682,2661,2639,2618,2600,2582,2564,2547,2529,2512,2493,2474,2454,2436,2418,2397,2378,2362,2346,2331,2315,2300,2288,2273,2258,2246,2235,2227,2218,2211,2205,2203,2199,2199,2203,2208,2215,2222,2231,2241,2249,2253,2259,2264,2266,2266,2266,2264,2262,2257,2252,2245,2239,2230,2220,2210,2201,2188,2174,2158,2143,2127,2109,2091,2073,2055,2036,2019,2001,1987,1971,1955,1941,1928,1915,1903,1890,1878,1867,1852,1840,1828,1817,1805,1795,1787,1778,1769,1758,1747,1738,1728,1718,1708,1699,1692,1685,1681,1679,1678,1678,1677,1678,1680,1681,1680,1679,1678,1676,1673,1670,1668,1669,1667,1665,1666,1665,1664,1662,1661,1661,1659,1656,1654,1653,1651,1650,1646,1645,1642,1640,1636,1636,1634,1635,1635,1635,1637,1639,1639,1639,1639,1637,1634,1627,1624,1619,1614,1607,1602,1598,1593,1587,1583,1582,1578,1575,1573,1570,1568,1564,1560,1559,1558,1556,1553,1551,1550,1549,1548,1546,1547,1547,1545,1544,1545,1546,1546,1546,1547,1549,1548,1547,1546,1547,1545,1541,1536,1532,1527,1521,1515,1513,1511,1512,1514,1521,1534,1551,1573,1603,1640,1684,1734,1790,1853,1919,1988,2063,2142,2224,2309,2393,2478,2563,2645,2723,2799,2869,2935,2993,3070,3123,3157,3183,3205,3220,3229,3233,3233,3229,3221,3209,3193,3176,3156,3133,3109,3084,3061,3036,3009,2984,2960,2934,2908,2884,2862,2840,2818,2797,2779,2759,2739,2720,2703,2687,2671,2654,2638,2622,2607,2589,2573,2557,2543,2527,2510,2494,2480,2465,2453,2444,2436,2429,2420,2414,2409,2404,2398,2392,2386,2380,2373,2365,2359,2356,2351,2347,2343,2340,2336,2331,2326,2322,2316,2309,2301,2294,2285,2276,2265,2256,2244,2230,2215,2202,2188,2174,2157,2139,2122,2105,2086,2067,2049,2033,2014,1998,1984,1970,1956,1941,1928,1915,1902,1889,1876,1864,1854,1842,1830,1820,1812,1802,1792,1782,1773,1762,1750,1739,1730,1721,1713,1705,1701,1697,1694,1691,1692,1693,1693,1695,1698,1701,1704,1705,1708,1710,1712,1712,1711,1709,1707,1703,1698,1695,1692,1689,1682,1678,1672,1665,1656,1648,1642,1636,1631,1628,1628,1628,1628,1627,1627,1626,1624,1620,1617,1616,1613,1608,1603,1600,1597,1591,1588,1585,1583,1579,1574,1571,1568,1562,1555,1551,1547,1542,1538,1533,1530,1528,1523,1520,1518,1519,1519,1518,1521,1527,1530,1534,1536,1540,1543,1544,1547,1550,1555,1556,1556,1558,1559,1558,1555,1552,1550,1546,1539,1535,1529,1526,1520,1515,1513,1511,1508,1505,1504,1505,1505,1507,1511,1521,1531,1547,1568,1596,1630,1669,1715,1766,1822,1884,1948,2019,2094,2170,2248,2329,2412,2494,2575,2656,2736,2814,2886,2954,3017,3099,3154,3190,3221,3245,3260,3269,3274,3274,3265,3252,3235,3214,3191,3163,3136,3109,3081,3051,3022,2995,2966,2936,2907,2879,2852,2824,2797,2773,2752,2732,2713,2695,2682,2669,2654,2641,2629,2617,2601,2586,2572,2558,2543,2526,2513,2500,2486,2472,2458,2446,2434,2420,2408,2397,2385,2373,2362,2352,2344,2337,2330,2327,2326,2324,2323,2325,2327,2327,2328,2328,2328,2328,2326,2321,2317,2312,2305,2296,2288,2281,2271,2262,2254,2245,2234,2220,2205,2189,2172,2154,2134,2116,2099,2079,2059,2043,2029,2012,1997,1980,1965,1946,1929,1911,1893,1878,1862,1847,1835,1822,1812,1801,1792,1786,1779,1774,1769,1767,1765,1761,1756,1752,1748,1743,1740,1737,1735,1733,1730,1730,1732,1732,1731,1730,1729,1730,1728,1726,1724,1721,1717,1712,1706,1701,1694,1688,1683,1679,1676,1674,1672,1673,1675,1674,1673,1673,1671,1670,1665,1663,1663,1661,1660,1660,1661,1660,1659,1655,1653,1650,1645,1638,1632,1627,1620,1613,1608,1605,1601,1596,1593,1591,1589,1587,1585,1585,1585,1584,1582,1582,1580,1579,1577,1576,1577,1579,1579,1580,1583,1586,1585,1586,1586,1586,1585,1582,1578,1576,1571,1566,1561,1558,1553,1549,1545,1541,1539,1536,1534,1534,1535,1536,1537,1539,1545,1551,1559,1570,1586,1605,1627,1655,1688,1726,1768,1817,1871,1932,1995,2063,2137,2213,2292,2370,2450,2531,2610,2685,2757,2828,2895,2955,3009,3081,3128,3157,3180,3198,3210,3214,3214,3211,3203,3187,3166,3142,3114,3082,3046,3007,2968,2929,2888,2848,2811,2775,2740,2708,2680,2654,2631,2607,2587,2567,2550,2530,2514,2499,2486,2470,2456,2442,2430,2416,2403,2390,2378,2365,2352,2341,2331,2320,2309,2298,2290,2281,2274,2267,2263,2260,2257,2254,2254,2255,2257,2259,2264,2271,2278,2283,2289,2296,2300,2302,2304,2303,2303,2299,2293,2286,2277,2266,2253,2239,2225,2209,2192,2174,2156,2139,2119,2099,2082,2065,2047,2030,2014,1999,1982,1965,1947,1931,1912,1895,1877,1862,1849,1834,1821,1810,1801,1791,1780,1771,1765,1756,1745,1736,1727,1716,1705,1695,1686,1680,1672,1665,1662,1660,1657,1655,1654,1655,1657,1658,1661,1664,1667,1667,1668,1670,1673,1674,1676,1678,1682,1686,1687,1689,1692,1695,1695,1696,1699,1700,1701,1698,1699,1699,1697,1693,1692,1690,1686,1681,1676,1669,1664,1657,1648,1642,1635,1625,1617,1608,1600,1593,1582,1576,1570,1565,1559,1554,1551,1549,1545,1543,1541,1540,1537,1535,1536,1536,1536,1535,1536,1538,1540,1542,1545,1548,1552,1554,1556,1558,1559,1559,1556,1555,1554,1551,1547,1544,1541,1536,1532,1527,1523,1522,1519,1516,1516,1517,1517,1519,1521,1527,1534,1542,1556,1574,1595,1624,1658,1700,1749,1803,1864,1931,2001,2075,2153,2234,2319,2403,2488,2571,2655,2737,2814,2886,2956,3019,3099,3157,3196,3226,3249,3267,3279,3285,3284,3276,3267,3252,3233,3210,3187,3162,3135,3106,3076,3047,3016,2985,2955,2927,2899,2870,2842,2815,2791,2768,2745,2726,2708,2691,2674,2660,2648,2635,2623,2608,2596,2582,2567,2552,2539,2526,2512,2496,2484,2472,2459,2444,2430,2418,2404,2390,2375,2365,2356,2345,2335,2330,2326,2320,2316,2314,2315,2313,2310,2308,2307,2306,2303,2300,2298,2295,2291,2286,2280,2275,2266,2257,2246,2237,2223,2208,2192,2178,2162,2145,2126,2110,2092,2074,2054,2035,2018,1997,1977,1959,1941,1923,1903,1887,1872,1857,1843,1828,1815,1803,1792,1779,1773,1766,1760,1754,1749,1745,1741,1736,1730,1727,1724,1721,1716,1712,1711,1708,1704,1703,1702,1702,1699,1698,1699,1700,1698,1696,1694,1692,1688,1683,1677,1673,1668,1663,1659,1658,1656,1651,1649,1649,1648,1646,1643,1645,1644,1642,1640,1639,1636,1632,1627,1623,1619,1614,1609,1604,1603,1601,1600,1599,1601,1602,1603,1602,1601,1600,1598,1593,1589,1586,1581,1575,1569,1564,1560,1555,1551,1548,1544,1541,1537,1534,1533,1531,1529,1527,1526,1525,1524,1522,1521,1519,1516,1512,1509,1507,1506,1503,1502,1502,1502,1503,1503,1506,1509,1511,1512,1514,1517,1516,1517,1518,1519,1520,1519,1518,1518,1517,1513,1508,1506,1502,1496,1492,1492,1495,1499,1506,1519,1534,1554,1578,1609,1646,1689,1736,1791,1851,1918,1990,2066,2145,2228,2313,2395,2480,2564,2647,2726,2803,2879,2951,3013,3115,3178,3221,3257,3289,3315,3333,3346,3352,3355,3352,3340,3324,3307,3283,3254,3222,3188,3152,3113,3073,3033,2996,2957,2920,2884,2853,2822,2794,2768,2745,2724,2704,2687,2673,2661,2648,2635,2622,2610,2598,2585,2572,2562,2550,2535,2521,2509,2496,2481,2467,2456,2445,2435,2424,2416,2409,2403,2398,2393,2390,2387,2384,2382,2380,2381,2379,2378,2379,2380,2379,2377,2373,2371,2368,2362,2356,2351,2346,2337,2329,2321,2313,2301,2288,2274,2261,2244,2225,2208,2189,2169,2148,2127,2107,2089,2068,2049,2032,2015,1999,1982,1966,1951,1936,1920,1906,1893,1881,1866,1852,1840,1825,1812,1798,1788,1778,1770,1761,1754,1749,1744,1738,1733,1729,1724,1719,1713,1708,1705,1700,1696,1694,1692,1690,1686,1684,1684,1682,1682,1681,1684,1686,1685,1685,1686,1687,1686,1681,1677,1674,1670,1664,1658,1654,1650,1646,1642,1639,1637,1634,1631,1631,1632,1631,1630,1628,1628,1626,1623,1621,1622,1622,1621,1620,1620,1622,1621,1619,1619,1619,1616,1612,1609,1607,1604,1598,1592,1587,1580,1574,1567,1562,1557,1550,1546,1543,1543,1541,1539,1540,1541,1542,1541,1542,1542,1545,1545,1547,1550,1555,1558,1561,1566,1572,1574,1575,1577,1578,1578,1577,1574,1572,1569,1564,1559,1555,1551,1547,1542,1539,1539,1537,1533,1532,1535,1539,1542,1552,1565,1583,1605,1632,1665,1705,1749,1801,1859,1924,1993,2066,2142,2223,2305,2389,2474,2559,2644,2727,2806,2884,2958,3026,3087,3172,3230,3268,3299,3324,3343,3355,3360,3361,3358,3346,3330,3309,3287,3260,3229,3196,3162,3127,3091,3054,3019,2985,2951,2918,2888,2861,2832,2804,2780,2756,2731,2707,2683,2659,2636,2613,2589,2568,2549,2530,2511,2493,2477,2460,2444,2428,2414,2401,2387,2374,2362,2354,2344,2337,2333,2331,2329,2330,2332,2335,2341,2344,2349,2356,2363,2367,2372,2376,2380,2382,2382,2383,2383,2380,2376,2370,2364,2355,2345,2331,2319,2304,2287,2269,2251,2234,2214,2194,2175,2157,2138,2119,2100,2081,2063,2042,2022,2002,1982,1962,1941,1922,1905,1887,1869,1853,1839,1825,1810,1797,1784,1774,1760,1749,1739,1730,1719,1707,1698,1690,1681,1673,1668,1665,1661,1657,1654,1653,1653,1653,1653,1654,1656,1657,1657,1658,1661,1663,1662,1660,1660,1658,1655,1652,1652,1652,1651,1652,1656,1662,1667,1671,1677,1684,1688,1690,1692,1691,1690,1686,1683,1681,1679,1675,1671,1669,1667,1663,1659,1654,1650,1645,1637,1629,1623,1616,1607,1598,1591,1583,1574,1566,1560,1556,1552,1549,1548,1550,1552,1554,1556,1559,1561,1561,1562,1562,1563,1563,1560,1561,1558,1557,1555,1555,1556,1556,1555,1553,1552,1552,1548,1545,1541,1538,1532,1527,1523,1520,1518,1514,1514,1514,1517,1520,1526,1538,1553,1569,1592,1623,1661,1704,1753,1808,1872,1938,2009,2085,2168,2255,2344,2437,2532,2629,2723,2813,2902,2987,3066,3139,3208,3299,3362,3404,3441,3471,3491,3504,3509,3510,3502,3489,3471,3449,3424,3393,3360,3327,3291,3253,3214,3175,3137,3099,3062,3027,2995,2962,2932,2905,2881,2859,2837,2816,2798,2780,2763,2746,2730,2714,2697,2680,2665,2650,2635,2620,2607,2594,2583,2571,2559,2549,2537,2524,2510,2498,2487,2476,2467,2459,2453,2449,2444,2441,2441,2441,2439,2439,2441,2443,2444,2445,2445,2445,2443,2439,2435,2431,2426,2418,2410,2401,2392,2378,2361,2344,2325,2304,2281,2258,2238,2216,2194,2173,2153,2133,2112,2094,2076,2057,2040,2021,2004,1988,1970,1951,1934,1916,1900,1883,1867,1855,1844,1832,1821,1814,1806,1797,1788,1781,1775,1769,1760,1756,1755,1752,1751,1751,1751,1750,1750,1748,1747,1745,1741,1736,1732,1730,1725,1720,1717,1717,1715,1714,1714,1717,1719,1721,1721,1724,1726,1726,1725,1724,1723,1719,1714,1707,1702,1695,1687,1678,1671,1663,1655,1648,1643,1641,1639,1638,1637,1638,1638,1638,1639,1640,1641,1638,1636,1633,1629,1622,1613,1608,1601,1593,1583,1575,1568,1561,1556,1550,1547,1544,1541,1537,1536,1536,1536,1536,1537,1539,1539,1541,1541,1543,1544,1544,1543,1545,1546,1544,1544,1544,1545,1545,1545,1543,1541,1538,1534,1529,1526,1521,1514,1509,1506,1500,1496,1490,1489,1488,1490,1496,1506,1519,1538,1561,1591,1628,1674,1723,1781,1847,1921,1999,2082,2171,2263,2357,2453,2550,2648,2742,2832,2920,3005,3084,3157,3224,3315,3378,3420,3456,3488,3512,3528,3537,3540,3537,3528,3513,3496,3475,3449,3421,3391,3360,3325,3289,3252,3218,3182,3145,3110,3075,3043,3010,2980,2952,2927,2902,2878,2858,2840,2822,2803,2785,2768,2752,2734,2718,2700,2684,2666,2647,2628,2610,2594,2574,2558,2542,2527,2510,2493,2480,2468,2455,2443,2434,2426,2420,2414,2412,2411,2411,2409,2409,2411,2412,2412,2412,2413,2412,2410,2408,2406,2402,2398,2394,2389,2384,2377,2365,2355,2343,2331,2314,2298,2280,2262,2241,2219,2198,2176,2152,2128,2105,2084,2061,2037,2016,1995,1974,1955,1936,1922,1908,1895,1881,1871,1861,1851,1840,1830,1821,1809,1797,1784,1771,1759,1745,1732,1723,1713,1705,1697,1690,1687,1681,1677,1675,1674,1674,1673,1675,1679,1685,1687,1689,1693,1696,1697,1697,1698,1699,1698,1695,1695,1694,1694,1692,1691,1691,1692,1690,1688,1687,1687,1685,1683,1681,1682,1680,1679,1679,1679,1680,1676,1673,1670,1667,1663,1658,1656,1654,1651,1649,1646,1644,1640,1634,1629,1623,1618,1612,1606,1604,1600,1597,1594,1592,1591,1589,1586,1585,1584,1581,1578,1574,1572,1568,1562,1557,1551,1546,1539,1532,1528,1525,1523,1521,1522,1524,1526,1527,1530,1533,1537,1538,1539,1542,1544,1544,1541,1538,1534,1529,1522,1516,1511,1508,1504,1501,1505,1513,1523,1539,1560,1589,1621,1660,1706,1757,1815,1879,1951,2030,2113,2200,2288,2380,2473,2565,2656,2746,2835,2918,2998,3074,3148,3258,3326,3375,3416,3449,3474,3493,3503,3507,3502,3494,3480,3460,3435,3406,3376,3340,3300,3259,3218,3177,3134,3091,3051,3013,2975,2940,2908,2878,2848,2819,2792,2768,2744,2721,2700,2679,2660,2639,2616,2596,2575,2554,2533,2513,2496,2478,2462,2448,2437,2427,2416,2408,2403,2399,2396,2393,2392,2391,2390,2389,2390,2391,2395,2395,2400,2407,2414,2420,2428,2432,2437,2438,2437,2436,2437,2434,2429,2425,2419,2411,2403,2393,2382,2370,2355,2337,2319,2300,2277,2253,2231,2207,2181,2156,2129,2106,2082,2056,2032,2011,1990,1968,1947,1930,1914,1899,1884,1871,1860,1848,1834,1821,1811,1800,1787,1775,1766,1756,1746,1737,1728,1722,1714,1706,1698,1692,1685,1678,1674,1673,1672,1671,1671,1672,1675,1676,1675,1676,1678,1678,1678,1679,1682,1686,1687,1689,1692,1693,1692,1692,1692,1692,1690,1688,1686,1684,1682,1680,1678,1678,1677,1677,1675,1675,1674,1673,1671,1672,1675,1677,1677,1680,1682,1684,1682,1681,1680,1677,1671,1666,1660,1654,1645,1635,1625,1616,1606,1597,1587,1581,1573,1567,1562,1559,1557,1554,1554,1555,1558,1560,1560,1560,1561,1558,1557,1555,1556,1556,1553,1552,1553,1551,1547,1543,1540,1539,1539,1538,1542,1552,1564,1580,1599,1625,1657,1694,1737,1790,1847,1911,1982,2060,2143,2228,2317,2409,2502,2594,2687,2779,2871,2959,3044,3124,3200,3270,3357,3416,3455,3485,3505,3518,3526,3526,3520,3506,3490,3470,3444,3415,3386,3354,3321,3285,3251,3217,3184,3148,3114,3081,3047,3012,2979,2947,2917,2888,2860,2835,2811,2787,2764,2742,2721,2702,2680,2661,2643,2626,2609,2591,2575,2560,2545,2529,2513,2499,2485,2471,2459,2447,2438,2428,2421,2416,2412,2408,2406,2406,2408,2410,2412,2416,2421,2425,2427,2429,2430,2429,2428,2423,2417,2411,2402,2392,2381,2371,2359,2345,2331,2317,2302,2283,2264,2246,2227,2207,2187,2170,2151,2131,2110,2091,2069,2047,2022,1999,1976,1953,1933,1912,1896,1879,1862,1847,1834,1823,1812,1801,1794,1786,1780,1771,1764,1755,1748,1739,1730,1724,1720,1716,1712,1709,1709,1706,1703,1700,1697,1691,1685,1681,1678,1676,1672,1669,1670,1672,1671,1673,1675,1679,1683,1687,1693,1699,1706,1711,1717,1722,1726,1727,1728,1728,1729,1727,1724,1722,1720,1717,1711,1706,1699,1694,1684,1676,1668,1659,1649,1639,1629,1620,1614,1607,1601,1599,1596,1593,1590,1590,1590,1590,1590,1593,1595,1596,1596,1596,1595,1593,1589,1585,1581,1576,1566,1559,1554,1549,1543,1536,1530,1526,1519,1512,1508,1505,1502,1497,1496,1496,1494,1494,1494,1498,1499,1498,1497,1495,1495,1493,1491,1492,1495,1500,1506,1514,1529,1547,1565,1591,1623,1663,1706,1757,1816,1882,1954,2032,2118,2211,2308,2408,2510,2616,2717,2815,2912,3005,3093,3176,3252,3324,3415,3478,3520,3555,3582,3598,3608,3614,3612,3603,3588,3567,3542,3512,3477,3440,3401,3360,3318,3277,3237,3197,3157,3119,3083,3049,3016,2987,2961,2937,2914,2891,2869,2849,2829,2808,2790,2771,2753,2735,2718,2702,2685,2669,2651,2634,2620,2605,2589,2576,2565,2554,2542,2534,2528,2522,2516,2510,2505,2500,2496,2493,2492,2491,2489,2488,2486,2485,2484,2481,2478,2476,2474,2470,2464,2457,2449,2438,2424,2410,2393,2375,2357,2338,2321,2304,2286,2270,2253,2238,2221,2203,2185,2168,2148,2127,2107,2085,2065,2043,2024,2006,1988,1971,1954,1936,1922,1905,1887,1872,1856,1839,1823,1809,1797,1785,1776,1767,1761,1757,1755,1750,1748,1746,1744,1742,1739,1738,1737,1734,1733,1732,1731,1728,1725,1723,1722,1720,1717,1714,1714,1711,1705,1703,1700,1698,1693,1691,1689,1688,1685,1684,1685,1686,1687,1689,1692,1695,1697,1695,1696,1697,1697,1696,1695,1695,1694,1690,1688,1685,1682,1680,1676,1672,1670,1666,1661,1655,1651,1645,1637,1630,1624,1615,1607,1600,1596,1593,1592,1589,1588,1588,1587,1585,1583,1583,1582,1578,1576,1575,1574,1571,1569,1568,1567,1566,1562,1558,1553,1548,1540,1536,1533,1532,1529,1529,1530,1530,1531,1531,1534,1536,1538,1536,1536,1534,1534,1533,1536,1542,1554,1570,1592,1621,1656,1697,1742,1797,1858,1924,1996,2072,2154,2239,2326,2417,2511,2605,2696,2787,2876,2960,3039,3111,3181,3273,3337,3380,3417,3446,3467,3480,3487,3487,3479,3465,3446,3423,3396,3364,3331,3296,3261,3225,3188,3154,3120,3085,3050,3018,2988,2959,2930,2902,2877,2850,2825,2801,2778,2757,2735,2716,2698,2683,2664,2647,2631,2615,2598,2580,2563,2548,2532,2517,2502,2489,2476,2463,2452,2442,2434,2426,2419,2413,2411,2409,2406,2405,2406,2406,2405,2406,2406,2408,2409,2410,2413,2417,2418,2420,2420,2420,2418,2412,2404,2395,2383,2369,2352,2334,2315,2293,2271,2248,2226,2202,2179,2155,2132,2108,2082,2059,2037,2015,1994,1973,1953,1934,1916,1897,1881,1865,1851,1836,1825,1816,1807,1796,1786,1776,1767,1757,1746,1738,1731,1724,1718,1714,1711,1709,1708,1707,1709,1710,1710,1711,1713,1715,1716,1715,1716,1716,1714,1710,1708,1705,1701,1696,1692,1689,1685,1684,1682,1682,1685,1686,1688,1691,1695,1698,1699,1701,1703,1704,1703,1700,1699,1695,1689,1683,1677,1671,1664,1656,1649,1644,1639,1633,1629,1625,1620,1614,1607,1602,1595,1588,1582,1579,1577,1574,1571,1569,1570,1569,1568,1566,1567,1565,1563,1560,1559,1557,1553,1553,1552,1554,1553,1553,1552,1552,1553,1550,1548,1547,1544,1541,1536,1533,1532,1528,1522,1520,1515,1512,1509,1506,1506,1506,1508,1515,1528,1548,1570,1602,1641,1687,1737,1793,1856,1924,1997,2071,2152,2236,2320,2402,2486,2570,2652,2731,2807,2881,2950,3011,3093,3149,3184,3211,3230,3244,3250,3250,3245,3238,3225,3208,3185,3159,3129,3095,3058,3020,2983,2947,2910,2874,2840,2808,2777,2746,2719,2695,2672,2649,2629,2611,2594,2579,2563,2550,2537,2521,2505,2490,2476,2459,2442,2424,2409,2392,2374,2358,2346,2334,2322,2314,2307,2300,2295,2289,2285,2282,2279,2276,2275,2275,2277,2278,2280,2283,2285,2285,2285,2286,2287,2286,2284,2283,2282,2279,2274,2269,2262,2253,2240,2226,2213,2196,2179,2160,2143,2125,2104,2085,2064,2044,2025,2005,1985,1967,1948,1928,1910,1892,1875,1857,1842,1828,1815,1801,1788,1776,1766,1754,1743,1731,1722,1713,1703,1694,1688,1682,1675,1668,1662,1657,1652,1647,1646,1646,1647,1648,1650,1652,1653,1654,1654,1654,1655,1654,1652,1652,1650,1647,1643,1641,1639,1638,1635,1633,1633,1634,1634,1632,1630,1630,1627,1623,1620,1618,1615,1611,1611,1611,1612,1610,1610,1612,1612,1611,1609,1610,1610,1609,1609,1607,1609,1606,1603,1599,1595,1590,1584,1578,1574,1570,1564,1559,1554,1551,1544,1540,1538,1537,1536,1533,1531,1527,1523,1517,1511,1506,1500,1493,1486,1479,1472,1464,1457,1450,1448,1446,1445,1452,1463,1479,1498,1522,1553,1591,1634,1682,1737,1797,1862,1930,2003,2079,2156,2233,2313,2393,2471,2546,2620,2691,2760,2824,2909,2974,3018,3054,3084,3111,3129,3141,3145,3148,3145,3136,3121,3104,3084,3059,3032,3005,2977,2949,2920,2891,2864,2839,2811,2785,2760,2736,2712,2687,2664,2642,2623,2602,2582,2566,2551,2536,2521,2507,2494,2479,2463,2448,2433,2418,2402,2388,2375,2362,2349,2336,2325,2314,2303,2291,2282,2273,2264,2256,2250,2245,2240,2234,2230,2226,2222,2217,2211,2208,2205,2200,2195,2191,2186,2181,2175,2169,2162,2154,2142,2132,2125,2118,2107,2096,2083,2072,2056,2041,2027,2012,1997,1981,1966,1952,1936,1921,1904,1888,1872,1853,1837,1822,1807,1791,1776,1762,1749,1737,1724,1714,1703,1692,1681,1672,1663,1654,1645,1638,1631,1626,1621,1616,1614,1613,1612,1610,1609,1609,1609,1609,1609,1611,1612,1613,1612,1612,1613,1612,1609,1605,1600,1596,1592,1586,1583,1579,1575,1570,1568,1567,1563,1559,1558,1556,1553,1550,1548,1550,1551,1548,1546,1544,1544,1541,1539,1539,1538,1536,1532,1528,1524,1520,1514,1509,1506,1500,1493,1486,1482,1477,1473,1469,1466,1463,1459,1455,1451,1449,1446,1441,1439,1441,1441,1442,1444,1447,1450,1450,1452,1454,1455,1454,1455,1455,1454,1453,1450,1450,1450,1451,1451,1450,1450,1449,1445,1442,1440,1440,1438,1438,1441,1446,1451,1460,1473,1491,1516,1543,1576,1615,1661,1709,1759,1816,1877,1939,2005,2074,2144,2217,2287,2357,2426,2493,2555,2614,2670,2722,2790,2838,2871,2898,2918,2933,2946,2954,2956,2954,2950,2943,2931,2916,2900,2883,2864,2840,2815,2791,2767,2743,2718,2697,2675,2654,2633,2616,2601,2589,2576,2567,2557,2547,2537,2527,2518,2510,2499,2489,2479,2469,2456,2444,2431,2419,2405,2389,2373,2356,2339,2320,2302,2287,2271,2255,2242,2231,2221,2212,2206,2203,2200,2198,2196,2196,2198,2198,2197,2197,2198,2199,2198,2196,2194,2191,2185,2175,2167,2158,2146,2132,2118,2103,2087,2070,2052,2036,2018,2001,1983,1968,1955,1938,1922,1907,1892,1877,1860,1844,1828,1812,1794,1776,1762,1749,1737,1724,1714,1703,1692,1680,1669,1660,1651,1643,1636,1633,1629,1625,1621,1619,1618,1615,1612,1610,1611,1610,1609,1608,1607,1606,1601,1598,1595,1592,1587,1582,1579,1577,1575,1573,1574,1575,1574,1573,1574,1573,1572,1570,1570,1571,1571,1571,1571,1571,1572,1570,1569,1567,1566,1563,1561,1558,1556,1555,1553,1549,1547,1542,1536,1528,1521,1516,1509,1501,1495,1489,1481,1473,1465,1459,1453,1447,1442,1439,1436,1431,1425,1421,1417,1413,1409,1406,1405,1403,1401,1400,1401,1402,1402,1400,1402,1403,1403,1401,1400,1399,1396,1392,1390,1387,1385,1381,1379,1377,1375,1372,1368,1366,1367,1366,1366,1365,1365,1365,1364,1362,1365,1366,1367,1369,1374,1379,1382,1387,1394,1404,1417,1433,1456,1484,1516,1551,1592,1639,1689,1742,1799,1858,1922,1983,2048,2113,2179,2243,2305,2366,2424,2478,2527,2572,2635,2679,2708,2734,2758,2774,2786,2794,2799,2800,2795,2789,2780,2768,2751,2732,2714,2695,2676,2658,2642,2629,2615,2602,2590,2581,2571,2563,2554,2548,2543,2539,2533,2530,2527,2523,2516,2510,2502,2493,2481,2468,2455,2440,2423,2405,2387,2369,2350,2331,2313,2296,2281,2263,2249,2239,2229,2220,2214,2211,2209,2206,2205,2205,2205,2203,2201,2202,2203,2205,2204,2204,2206,2204,2201,2197,2194,2189,2181,2174,2166,2157,2147,2136,2124,2113,2100,2083,2068,2051,2034,2014,1996,1978,1960,1941,1921,1903,1885,1866,1848,1833,1820,1808,1796,1787,1781,1775,1769,1765,1762,1760,1756,1753,1749,1746,1742,1737,1733,1731,1729,1724,1721,1717,1712,1706,1701,1697,1692,1688,1681,1675,1668,1661,1654,1648,1642,1638,1633,1631,1629,1630,1629,1629,1629,1629,1630,1629,1629,1629,1630,1630,1631,1634,1636,1637,1638,1639,1639,1638,1634,1632,1629,1626,1620,1615,1610,1604,1596,1587,1582,1576,1570,1564,1559,1555,1550,1543,1539,1536,1531,1527,1524,1521,1519,1514,1512,1511,1511,1509,1509,1510,1512,1513,1512,1514,1514,1515,1514,1515,1518,1519,1520,1521,1524,1525,1524,1523,1521,1520,1517,1511,1507,1504,1500,1494,1490,1489,1485,1482,1478,1478,1477,1477,1481,1487,1496,1509,1524,1543,1568,1597,1628,1667,1710,1759,1810,1863,1921,1981,2040,2098,2158,2218,2275,2331,2386,2439,2488,2531,2593,2639,2670,2700,2725,2747,2766,2779,2791,2799,2803,2800,2794,2786,2774,2759,2741,2725,2706,2687,2665,2645,2625,2607,2585,2566,2550,2535,2518,2506,2494,2482,2472,2463,2455,2449,2443,2434,2427,2420,2410,2398,2386,2374,2361,2347,2334,2322,2310,2296,2284,2273,2264,2254,2243,2234,2227,2220,2214,2210,2209,2207,2206,2206,2207,2210,2212,2215,2219,2223,2226,2228,2229,2233,2234,2233,2232,2230,2226,2217,2207,2198,2188,2176,2163,2150,2139,2125,2110,2096,2082,2067,2050,2036,2021,2008,1994,1979,1966,1951,1937,1921,1908,1897,1884,1872,1860,1850,1838,1825,1813,1802,1793,1782,1771,1762,1753,1745,1736,1730,1725,1721,1718,1716,1715,1712,1711,1710,1712,1714,1714,1713,1715,1715,1715,1714,1712,1711,1709,1704,1699,1695,1689,1683,1674,1669,1663,1656,1651,1649,1648,1646,1642,1638,1635,1631,1627,1625,1622,1621,1617,1615,1613,1613,1612,1609,1609,1612,1613,1613,1613,1615,1613,1610,1606,1603,1600,1597,1593,1588,1585,1579,1572,1565,1560,1554,1546,1539,1535,1531,1526,1524,1523,1524,1522,1521,1524,1526,1528,1530,1533,1536,1538,1540,1541,1542,1541,1538,1533,1530,1530,1526,1523,1520,1518,1514,1509,1504,1499,1495,1491,1487,1486,1485,1485,1487,1491,1500,1509,1523,1540,1563,1587,1614,1648,1687,1730,1776,1826,1880,1938,1997,2057,2121,2187,2252,2316,2381,2446,2510,2569,2626,2682,2755,2808,2847,2883,2915,2940,2962,2979,2992,2999,3003,3006,3006,3000,2993,2985,2973,2956,2936,2914,2893,2871,2848,2827,2807,2788,2771,2755,2742,2731,2719,2708,2700,2693,2686,2677,2667,2658,2647,2634,2622,2610,2597,2585,2571,2558,2546,2532,2519,2507,2497,2483,2471,2459,2450,2441,2430,2419,2411,2400,2389,2379,2370,2363,2356,2349,2345,2342,2337,2334,2331,2329,2325,2321,2317,2313,2309,2303,2295,2288,2282,2273,2263,2252,2240,2227,2213,2198,2184,2170,2154,2138,2123,2109,2093,2076,2061,2044,2028,2011,1997,1983,1968,1953,1938,1925,1911,1896,1880,1865,1852,1837,1823,1812,1801,1791,1780,1769,1761,1754,1747,1740,1736,1733,1730,1726,1724,1721,1717,1714,1713,1714,1714,1715,1717,1720,1721,1721,1721,1721,1721,1720,1719,1719,1719,1719,1716,1715,1715,1712,1710,1707,1704,1701,1693,1685,1680,1673,1667,1662,1657,1656,1653,1651,1651,1653,1654,1654,1655,1656,1656,1653,1650,1646,1641,1634,1628,1623,1619,1614,1606,1601,1596,1591,1586,1580,1577,1572,1566,1560,1554,1549,1544,1539,1535,1530,1522,1516,1509,1505,1500,1494,1490,1488,1487,1485,1485,1488,1490,1490,1490,1490,1491,1491,1491,1492,1497,1499,1501,1502,1505,1507,1509,1509,1510,1512,1511,1509,1509,1506,1505,1502,1499,1499,1499,1498,1498,1502,1509,1521,1538,1561,1593,1629,1670,1718,1772,1830,1891,1957,2025,2096,2165,2238,2310,2385,2457,2528,2599,2669,2735,2796,2896,2960,3005,3043,3078,3106,3128,3145,3158,3165,3166,3164,3157,3148,3134,3117,3100,3082,3063,3041,3020,2999,2979,2958,2936,2918,2899,2882,2865,2851,2839,2826,2815,2804,2796,2787,2777,2769,2761,2754,2745,2736,2728,2720,2709,2697,2684,2672,2657,2641,2624,2609,2594,2576,2560,2546,2532,2517,2504,2492,2483,2474,2464,2456,2449,2443,2437,2434,2432,2431,2428,2425,2423,2421,2419,2415,2410,2406,2398,2388,2379,2370,2360,2346,2333,2317,2301,2283,2264,2246,2228,2208,2188,2169,2151,2132,2112,2094,2075,2056,2036,2017,2002,1986,1969,1952,1938,1924,1911,1897,1885,1873,1861,1849,1836,1825,1814,1802,1790,1778,1770,1760,1750,1742,1736,1729,1724,1719,1717,1714,1710,1708,1706,1704,1701,1699,1697,1698,1695,1694,1695,1697,1698,1698,1698,1699,1699,1696,1692,1688,1683,1679,1674,1670,1668,1665,1661,1658,1655,1650,1644,1638,1635,1629,1623,1617,1612,1607,1601,1597,1595,1593,1591,1587,1584,1582,1579,1575,1573,1572,1571,1569,1567,1567,1565,1562,1559,1558,1556,1552,1548,1545,1540,1535,1530,1526,1524,1522,1519,1517,1516,1515,1513,1510,1509,1509,1509,1509,1509,1510,1510,1509,1508,1510,1512,1512,1512,1513,1512,1509,1506,1503,1501,1497,1495,1493,1493,1492,1491,1491,1491,1491,1488,1483,1480,1477,1473,1468,1466,1469,1474,1481,1495,1516,1543,1573,1609,1652,1699,1751,1808,1872,1941,2012,2087,2163,2242,2322,2401,2478,2556,2630,2703,2772,2839,2903,2986,3044,3086,3122,3152,3176,3196,3209,3215,3216,3214,3207,3195,3181,3166,3149,3130,3109,3086,3062,3039,3012,2986,2963,2940,2918,2896,2878,2862,2843,2825,2809,2793,2778,2762,2746,2730,2715,2698,2681,2664,2649,2632,2614,2596,2581,2563,2547,2532,2518,2503,2489,2475,2463,2452,2440,2431,2423,2418,2413,2409,2407,2406,2406,2402,2401,2401,2399,2394,2390,2386,2381,2375,2368,2362,2356,2348,2340,2334,2327,2320,2311,2303,2295,2285,2273,2262,2252,2240,2227,2215,2202,2190,2177,2163,2151,2138,2125,2108,2091,2075,2059,2039,2019,2000,1980,1960,1938,1919,1902,1886,1869,1856,1847,1837,1829,1822,1819,1815,1812,1810,1810,1810,1809,1808,1807,1805,1802,1797,1793,1789,1785,1779,1773,1768,1763,1755,1749,1743,1740,1735,1732,1729,1730,1730,1729,1728,1727,1727,1725,1724,1723,1724,1722,1720,1719,1718,1718,1714,1714,1715,1713,1710,1706,1702,1697,1691,1684,1679,1674,1666,1660,1655,1651,1645,1638,1634,1630,1625,1619,1613,1611,1607,1606,1604,1604,1605,1604,1600,1599,1598,1596,1594,1593,1595,1596,1594,1593,1592,1591,1588,1583,1578,1573,1566,1558,1552,1546,1541,1535,1532,1531,1532,1533,1538,1549,1563,1582,1606,1636,1672,1714,1761,1816,1876,1940,2008,2081,2158,2237,2316,2397,2477,2556,2632,2705,2775,2840,2902,2957,3030,3080,3113,3138,3161,3177,3186,3190,3189,3186,3178,3165,3148,3131,3109,3084,3057,3029,3000,2969,2938,2908,2879,2848,2819,2789,2761,2733,2705,2678,2654,2630,2607,2583,2564,2546,2527,2508,2493,2477,2460,2444,2429,2414,2398,2382,2365,2351,2338,2324,2312,2301,2293,2284,2276,2271,2266,2262,2259,2259,2261,2263,2266,2270,2276,2282,2285,2291,2296,2303,2306,2309,2312,2314,2315,2313,2310,2306,2300,2291,2281,2273,2262,2251,2237,2225,2213,2196,2178,2160,2141,2120,2096,2076,2057,2039,2019,2003,1986,1971,1956,1939,1926,1912,1900,1885,1870,1857,1843,1828,1813,1800,1786,1771,1758,1746,1735,1724,1713,1705,1698,1692,1686,1682,1680,1678,1676,1677,1681,1685,1689,1693,1700,1705,1710,1715,1720,1728,1731,1735,1737,1742,1743,1743,1743,1743,1744,1739,1734,1729,1723,1713,1703,1694,1685,1675,1665,1654,1646,1635,1624,1615,1608,1601,1594,1589,1588,1586,1586,1586,1586,1588,1588,1587,1587,1588,1588,1588,1589,1591,1594,1596,1595,1596,1597,1595,1593,1592,1592,1592,1589,1587,1585,1582,1578,1573,1569,1567,1564,1560,1559,1556,1552,1547,1543,1541,1537,1535,1534,1536,1539,1545,1554,1569,1589,1611,1639,1673,1713,1758,1808,1865,1928,1997,2069,2149,2233,2321,2408,2497,2588,2675,2759,2838,2914,2983,3046,3103,3178,3228,3261,3284,3301,3314,3317,3315,3307,3296,3279,3258,3233,3206,3175,3142,3108,3075,3044,3010,2978,2946,2916,2886,2856,2828,2803,2780,2757,2735,2716,2698,2677,2658,2641,2624,2608,2590,2575,2561,2547,2532,2516,2502,2488,2472,2456,2440,2425,2408,2390,2374,2361,2347,2334,2324,2316,2308,2299,2292,2287,2283,2277,2273,2272,2269,2267,2264,2263,2264,2264,2262,2262,2259,2257,2252,2245,2241,2233,2224,2213,2201,2188,2173,2157,2138,2121,2101,2080,2062,2043,2024,2003,1985,1966,1947,1927,1908,1893,1877,1861,1846,1834,1820,1807,1792,1778,1768,1756,1744,1733,1722,1714,1702,1693,1685,1679,1672,1665,1662,1659,1656,1650,1647,1643,1641,1636,1633,1632,1631,1629,1626,1624,1622,1621,1618,1617,1617,1617,1615,1612,1610,1607,1604,1597,1593,1590,1583,1577,1572,1569,1565,1562,1558,1559,1558,1556,1555,1556,1556,1555,1553,1553,1551,1547,1540,1534,1529,1523,1516,1511,1508,1505,1500,1496,1493,1489,1483,1478,1475,1473,1469,1466,1468,1469,1470,1470,1472,1473,1475,1476,1475,1477,1477,1475,1474,1473,1470,1467,1463,1460,1458,1456,1452,1450,1448,1446,1442,1438,1435,1431,1427,1421,1416,1414,1411,1407,1406,1406,1407,1407,1411,1420,1433,1447,1468,1496,1529,1567,1608,1654,1705,1761,1818,1879,1944,2010,2076,2143,2211,2277,2340,2401,2460,2516,2569,2640,2693,2729,2758,2782,2803,2818,2828,2832,2832,2830,2820,2806,2789,2769,2746,2722,2694,2668,2641,2615,2587,2562,2539,2517,2496,2479,2465,2453,2441,2432,2426,2420,2413,2409,2404,2399,2392,2384,2377,2369,2360,2347,2335,2322,2306,2289,2271,2255,2238,2221,2204,2191,2178,2166,2154,2144,2135,2127,2120,2115,2114,2113,2110,2109,2109,2107,2106,2105,2106,2105,2104,2102,2102,2103,2101,2097,2092,2087,2080,2068,2055,2043,2029,2013,1995,1977,1960,1941,1921,1904,1886,1868,1850,1834,1820,1807,1794,1781,1769,1757,1746,1735,1726,1715,1704,1692,1679,1666,1653,1638,1624,1613,1599,1588,1576,1568,1560,1553,1548,1545,1544,1543,1542,1543,1544,1545,1545,1545,1546,1546,1545,1542,1542,1540,1536,1531,1527,1524,1520,1515,1511,1508,1506,1503,1501,1502,1503,1503,1504,1506,1508,1507,1507,1506,1505,1501,1495,1490,1486,1481,1474,1470,1467,1464,1462,1460,1460,1457,1455,1451,1448,1444,1439,1434,1429,1426,1423,1418,1414,1411,1407,1403,1398,1394,1393,1391,1389,1388,1387,1386,1383,1381,1381,1380,1379,1380,1382,1387,1390,1394,1398,1403,1407,1410,1412,1415,1418,1418,1419,1420,1419,1417,1414,1412,1410,1407,1404,1404,1407,1410,1415,1423,1436,1451,1469,1492,1519,1551,1584,1621,1661,1705,1748,1794,1839,1887,1935,1982,2030,2080,2128,2174,2218,2259,2318,2359,2390,2419,2443,2463,2478,2491,2499,2501,2500,2495,2487,2474,2460,2446,2433,2418,2400,2385,2369,2354,2336,2320,2305,2291,2276,2264,2254,2245,2236,2230,2224,2219,2212,2204,2195,2186,2177,2165,2151,2140,2127,2113,2100,2089,2078,2066,2054,2045,2039,2032,2025,2020,2019,2016,2015,2015,2018,2022,2026,2030,2035,2041,2048,2053,2060,2068,2074,2078,2080,2083,2082,2078,2073,2068,2062,2054,2042,2033,2022,2010,1997,1983,1972,1959,1944,1930,1917,1906,1894,1881,1870,1859,1847,1836,1827,1820,1812,1802,1795,1787,1778,1768,1761,1754,1748,1741,1732,1726,1717,1708,1698,1687,1679,1671,1663,1657,1654,1652,1648,1645,1642,1639,1634,1631,1628,1628,1626,1624,1624,1625,1625,1625,1624,1624,1624,1622,1618,1616,1614,1609,1605,1601,1599,1594,1589,1584,1580,1575,1569,1564,1560,1558,1555,1553,1554,1555,1556,1555,1555,1556,1556,1554,1552,1551,1549,1545,1542,1539,1536,1529,1522,1517,1512,1505,1499,1494,1490,1485,1479,1476,1474,1475,1473,1473,1474,1476,1476,1476,1476,1476,1477,1476,1477,1479,1481,1481,1481,1480,1481,1479,1480,1483,1489,1495,1504,1514,1529,1546,1564,1589,1616,1647,1679,1716,1757,1800,1842,1887,1936,1985,2031,2079,2125,2172,2217,2257,2297,2335,2382,2413,2434,2451,2464,2472,2479,2481,2479,2473,2467,2460,2452,2442,2434,2427,2419,2411,2403,2396,2390,2382,2375,2368,2363,2354,2347,2340,2333,2325,2316,2306,2298,2291,2282,2273,2266,2259,2252,2243,2235,2228,2220,2211,2205,2200,2195,2189,2184,2181,2177,2173,2169,2166,2165,2163,2162,2162,2163,2163,2161,2162,2165,2169,2170,2171,2173,2173,2174,2170,2169,2168,2165,2160,2155,2149,2141,2133,2125,2119,2113,2105,2096,2087,2077,2066,2055,2045,2038,2026,2016,2004,1992,1978,1961,1946,1932,1917,1902,1887,1872,1858,1845,1832,1821,1812,1804,1796,1792,1790,1789,1788,1788,1788,1785,1781,1778,1776,1774,1770,1766,1762,1759,1753,1746,1740,1736,1731,1724,1717,1710,1705,1697,1692,1687,1685,1684,1680,1680,1680,1680,1678,1675,1675,1673,1670,1668,1669,1670,1667,1665,1662,1662,1658,1654,1648,1645,1640,1634,1629,1624,1621,1617,1614,1615,1617,1618,1620,1625,1630,1635,1637,1640,1642,1644,1642,1640,1639,1638,1634,1631,1629,1630,1627,1624,1621,1621,1617,1613,1610,1608,1606,1599,1596,1593,1588,1583,1575,1569,1562,1554,1545,1539,1536,1532,1529,1528,1529,1530,1532,1533,1534,1536,1534,1533,1530,1531,1531,1528,1529,1530,1530,1531,1534,1536,1538,1540,1543,1548,1554,1559,1564,1570,1578,1583,1589,1599,1611,1624,1641,1661,1687,1718,1752,1790,1833,1879,1929,1980,2034,2089,2144,2196,2250,2302,2353,2400,2444,2486,2523,2554,2592,2616,2633,2642,2649,2653,2654,2650,2647,2643,2639,2632,2623,2615,2604,2591,2577,2566,2553,2541,2528,2514,2502,2490,2476,2466,2457,2448,2439,2432,2428,2427,2424,2424,2427,2430,2432,2433,2432,2432,2429,2426,2419,2412,2405,2393,2383,2374,2365,2354,2345,2337,2330,2323,2318,2314,2313,2313,2313,2313,2317,2321,2321,2320,2320,2319,2315,2309,2304,2298,2292,2283,2276,2269,2261,2254,2245,2238,2233,2224,2216,2207,2200,2192,2181,2173,2166,2157,2146,2135,2125,2113,2099,2086,2071,2057,2040,2021,2002,1987,1971,1953,1936,1922,1907,1892,1880,1867,1855,1844,1833,1824,1816,1808,1800,1793,1787,1782,1775,1770,1767,1764,1761,1758,1757,1757,1755,1752,1751,1750,1747,1744,1743,1744,1744,1742,1741,1741,1742,1741,1741,1742,1742,1741,1740,1738,1734,1732,1726,1722,1719,1714,1708,1704,1700,1695,1692,1687,1682,1680,1676,1671,1667,1665,1662,1658,1656,1656,1656,1655,1657,1661,1666,1672,1675,1681,1686,1689,1688,1687,1685,1681,1673,1666,1658,1648,1638,1628,1620,1612,1602,1594,1588,1583,1577,1574,1571,1571,1570,1569,1569,1569,1570,1569,1570,1573,1575,1580,1582,1586,1591,1596,1598,1602,1604,1607,1607,1606,1605,1605,1604,1603,1602,1602,1600,1598,1597,1595,1593,1587,1583,1580,1574,1568,1562,1559,1558,1556,1558,1563,1573,1584,1598,1616,1641,1669,1700,1737,1781,1828,1878,1930,1985,2042,2099,2154,2212,2267,2321,2370,2416,2459,2497,2548,2577,2594,2605,2612,2616,2618,2614,2608,2599,2589,2577,2561,2545,2527,2509,2490,2472,2456,2441,2427,2414,2404,2396,2387,2380,2375,2370,2368,2362,2361,2361,2360,2359,2359,2359,2358,2355,2352,2348,2344,2337,2330,2324,2317,2311,2303,2297,2292,2288,2281,2274,2269,2264,2257,2251,2248,2246,2244,2244,2248,2255,2262,2267,2276,2285,2294,2302,2308,2317,2325,2331,2335,2340,2344,2344,2344,2341,2338,2335,2327,2319,2311,2303,2290,2278,2265,2252,2238,2223,2208,2195,2182,2168,2153,2144,2132,2121,2108,2099,2089,2077,2065,2055,2044,2031,2020,2008,1998,1987,1974,1963,1954,1943,1932,1921,1913,1904,1896,1889,1882,1878,1873,1868,1863,1859,1855,1849,1844,1841,1838,1835,1832,1831,1831,1829,1829,1829,1832,1833,1832,1831,1830,1828,1822,1816,1811,1804,1796,1789,1782,1778,1772,1766,1763,1760,1757,1754,1748,1745,1741,1736,1731,1728,1724,1720,1715,1713,1712,1710,1709,1710,1714,1716,1716,1717,1718,1719,1716,1713,1709,1704,1697,1688,1680,1673,1665,1658,1651,1647,1643,1639,1636,1636,1635,1632,1630,1628,1627,1624,1620,1618,1617,1616,1614,1616,1620,1623,1627,1629,1635,1644,1649,1654,1660,1666,1671,1673,1676,1678,1677,1676,1674,1673,1673,1670,1669,1671,1674,1677,1683,1692,1706,1721,1740,1764,1793,1826,1863,1903,1948,1995,2042,2091,2142,2194,2244,2291,2337,2382,2423,2460,2494,2524,2561,2582,2594,2604,2608,2608,2609,2607,2602,2596,2587,2580,2570,2558,2545,2532,2518,2502,2487,2472,2458,2444,2430,2417,2406,2394,2384,2373,2365,2357,2348,2342,2337,2335,2331,2330,2328,2330,2330,2329,2329,2331,2331,2328,2326,2325,2323,2320,2317,2314,2312,2309,2306,2305,2304,2306,2307,2311,2316,2323,2329,2337,2346,2354,2360,2365,2372,2376,2380,2382,2383,2384,2385,2381,2378,2374,2367,2360,2350,2342,2333,2321,2306,2293,2278,2261,2242,2224,2207,2189,2169,2152,2134,2119,2102,2087,2073,2059,2047,2033,2022,2011,1999,1988,1977,1969,1961,1951,1942,1938,1932,1927,1922,1920,1919,1920,1918,1920,1923,1924,1924,1924,1925,1926,1923,1922,1921,1920,1917,1913,1909,1907,1903,1897,1891,1887,1882,1877,1873,1869,1867,1862,1857,1853,1848,1843,1835,1829,1823,1819,1814,1811,1810,1808,1806,1806,1807,1809,1809,1809,1809,1809,1807,1802,1797,1793,1786,1776,1770,1762,1754,1747,1739,1732,1727,1721,1715,1712,1708,1703,1697,1695,1694,1692,1688,1684,1680,1676,1670,1663,1657,1650,1641,1632,1626,1619,1611,1604,1597,1593,1588,1583,1579,1577,1576,1574,1572,1573,1575,1574,1574,1578,1580,1583,1585,1586,1590,1589,1589,1588,1587,1588,1588,1587,1590,1594,1596,1599,1603,1608,1611,1613,1615,1617,1618,1617,1616,1620,1623,1627,1632,1642,1656,1672,1689,1712,1739,1768,1799,1836,1877,1920,1965,2014,2066,2121,2174,2226,2281,2334,2384,2430,2473,2514,2552,2584,2629,2660,2679,2693,2706,2716,2721,2721,2722,2720,2715,2708,2701,2693,2685,2675,2664,2655,2646,2636,2626,2619,2614,2609,2603,2600,2598,2596,2591,2587,2586,2583,2580,2574,2569,2564,2560,2550,2542,2535,2527,2517,2506,2499,2489,2480,2470,2464,2458,2452,2445,2442,2440,2436,2433,2431,2430,2430,2429,2429,2430,2431,2431,2433,2432,2434,2434,2432,2432,2433,2433,2432,2431,2432,2431,2429,2427,2425,2422,2416,2409,2403,2396,2388,2381,2373,2368,2360,2352,2344,2337,2328,2318,2306,2296,2286,2273,2260,2245,2232,2216,2200,2186,2174,2162,2151,2141,2135,2128,2121,2116,2112,2109,2104,2098,2094,2091,2085,2078,2071,2065,2057,2048,2039,2031,2025,2017,2008,2002,1996,1988,1981,1977,1972,1969,1965,1963,1964,1965,1965,1964,1966,1966,1965,1964,1964,1964,1962,1959,1955,1953,1949,1944,1939,1934,1927,1919,1910,1904,1898,1889,1879,1870,1863,1851,1838,1827,1817,1806,1794,1783,1773,1765,1757,1750,1744,1741,1737,1733,1731,1731,1728,1727,1727,1725,1726,1725,1725,1727,1728,1728,1729,1732,1736,1737,1737,1738,1739,1738,1735,1731,1730,1727,1723,1719,1716,1713,1709,1702,1699,1694,1688,1682,1677,1673,1668,1662,1658,1656,1654,1652,1651,1652,1655,1656,1659,1663,1667,1671,1672,1674,1676,1677,1676,1675,1673,1672,1668,1663,1659,1654,1648,1641,1635,1631,1626,1621,1619,1621,1624,1629,1638,1655,1676,1701,1732,1770,1814,1857,1908,1961,2019,2077,2135,2195,2257,2317,2375,2430,2485,2536,2584,2627,2688,2732,2763,2791,2816,2838,2854,2866,2876,2881,2882,2879,2876,2870,2863,2852,2841,2830,2817,2803,2790,2778,2766,2753,2740,2731,2723,2716,2710,2706,2703,2700,2697,2694,2691,2687,2682,2675,2669,2662,2654,2644,2638,2630,2622,2614,2605,2599,2592,2584,2578,2572,2566,2558,2551,2546,2541,2535,2528,2525,2522,2518,2517,2517,2519,2522,2525,2528,2533,2535,2536,2535,2534,2530,2524,2516,2506,2494,2481,2464,2448,2430,2412,2393,2373,2357,2340,2322,2306,2290,2277,2262,2247,2234,2223,2210,2195,2182,2168,2155,2138,2123,2109,2094,2080,2066,2052,2038,2024,2009,1995,1980,1965,1951,1937,1925,1914,1902,1891,1883,1876,1868,1861,1855,1852,1849,1843,1841,1841,1840,1838,1836,1835,1835,1833,1830,1830,1830,1828,1827,1825,1824,1821,1818,1814,1812,1808,1803,1798,1793,1787,1780,1772,1764,1757,1747,1738,1730,1724,1718,1712,1708,1707,1706,1705,1704,1707,1709,1712,1713,1715,1718,1719,1720,1720,1719,1718,1715,1710,1707,1703,1699,1696,1694,1693,1690,1688,1687,1688,1684,1680,1675,1672,1666,1660,1653,1649,1646,1641,1636,1633,1632,1630,1628,1629,1630,1631,1629,1629,1629,1631,1630,1629,1631,1630,1629,1627,1628,1627,1627,1624,1622,1621,1619,1614,1610,1609,1607,1604,1601,1599,1599,1596,1593,1591,1591,1590,1588,1586,1586,1585,1583,1584,1587,1592,1599,1609,1625,1645,1669,1696,1729,1766,1806,1848,1895,1944,1995,2045,2097,2150,2204,2255,2305,2356,2406,2452,2498,2539,2597,2639,2666,2691,2712,2727,2738,2746,2752,2753,2749,2745,2740,2731,2720,2707,2695,2680,2664,2647,2632,2619,2606,2594,2583,2575,2567,2560,2553,2548,2544,2537,2531,2527,2523,2516,2509,2503,2497,2487,2476,2466,2457,2446,2435,2424,2416,2410,2404,2400,2399,2401,2402,2402,2408,2413,2416,2419,2423,2427,2428,2427,2427,2428,2426,2422,2419,2417,2414,2408,2401,2397,2394,2389,2381,2376,2372,2366,2357,2348,2341,2330,2318,2305,2294,2281,2267,2254,2241,2228,2215,2200,2186,2174,2159,2144,2130,2118,2107,2094,2080,2069,2057,2044,2030,2018,2006,1994,1981,1969,1958,1947,1935,1925,1916,1908,1899,1890,1882,1873,1865,1855,1847,1840,1833,1824,1817,1811,1803,1795,1787,1780,1774,1767,1761,1755,1749,1743,1735,1729,1725,1721,1714,1711,1709,1707,1704,1701,1699,1698,1696,1694,1691,1689,1686,1680,1677,1673,1671,1668,1668,1668,1670,1673,1674,1677,1680,1683,1684,1689,1693,1695,1696,1698,1701,1702,1699,1697,1695,1693,1687,1679,1673,1665,1657,1649,1642,1637,1629,1622,1615,1610,1603,1595,1586,1581,1574,1567,1560,1555,1551,1547,1541,1537,1533,1529,1525,1520,1521,1520,1519,1518,1522,1525,1527,1532,1536,1541,1546,1551,1556,1565,1571,1577,1581,1585,1588,1588,1586,1584,1582,1578,1572,1565,1560,1554,1549,1545,1542,1544,1547,1554,1567,1583,1604,1627,1657,1694,1734,1777,1826,1877,1932,1988,2049,2113,2179,2244,2308,2373,2436,2496,2552,2608,2659,2727,2775,2811,2842,2865,2883,2900,2913,2920,2925,2929,2933,2933,2929,2924,2917,2907,2896,2883,2871,2857,2842,2827,2814,2802,2791,2778,2766,2758,2749,2739,2730,2722,2714,2706,2699,2696,2693,2692,2690,2690,2691,2692,2691,2691,2690,2689,2685,2680,2675,2669,2659,2650,2641,2633,2625,2615,2608,2599,2592,2584,2575,2569,2563,2556,2549,2544,2539,2533,2525,2519,2513,2503,2494,2485,2478,2470,2463,2457,2452,2445,2436,2426,2418,2408,2398,2385,2373,2360,2344,2329,2314,2300,2285,2270,2254,2241,2228,2215,2202,2190,2178,2166,2153,2142,2132,2122,2110,2101,2091,2080,2066,2055,2044,2032,2021,2008,1997,1986,1977,1968,1961,1956,1949,1944,1940,1939,1937,1934,1934,1932,1931,1927,1921,1917,1912,1904,1896,1889,1881,1873,1865,1860,1855,1853,1849,1845,1843,1842,1840,1838,1838,1840,1841,1841,1845,1848,1851,1853,1855,1856,1857,1856,1854,1853,1851,1846,1839,1834,1830,1825,1819,1813,1808,1801,1793,1785,1779,1774,1768,1764,1762,1762,1762,1759,1757,1757,1755,1752,1748,1747,1746,1742,1739,1738,1738,1735,1729,1724,1719,1712,1703,1697,1690,1685,1677,1670,1664,1659,1651,1645,1640,1635,1628,1623,1619,1618,1614,1612,1611,1613,1615,1616,1617,1620,1623,1623,1622,1623,1623,1622,1620,1620,1619,1618,1615,1611,1608,1605,1600,1593,1589,1586,1583,1581,1585,1593,1606,1623,1647,1678,1712,1749,1793,1842,1896,1951,2009,2072,2135,2199,2266,2335,2404,2472,2537,2604,2666,2726,2782,2858,2918,2959,2996,3030,3062,3088,3110,3128,3143,3154,3157,3158,3155,3149,3139,3127,3114,3099,3083,3064,3045,3028,3008,2988,2972,2958,2945,2931,2920,2910,2899,2888,2876,2866,2856,2845,2833,2823,2813,2802,2789,2775,2762,2747,2731,2715,2699,2684,2670,2656,2643,2632,2620,2609,2600,2595,2589,2583,2577,2572,2566,2559,2552,2545,2539,2532,2525,2518,2513,2505,2496,2488,2480,2474,2465,2456,2448,2439,2426,2415,2404,2393,2382,2369,2358,2348,2337,2324,2312,2300,2286,2271,2254,2238,2222,2202,2181,2163,2144,2125,2107,2090,2076,2062,2046,2033,2020,2011,1999,1991,1986,1982,1978,1973,1968,1965,1959,1951,1944,1935,1926,1914,1901,1891,1881,1868,1857,1849,1843,1835,1828,1823,1819,1816,1811,1807,1805,1802,1798,1796,1796,1796,1795,1795,1796,1798,1798,1796,1795,1792,1789,1782,1776,1771,1765,1758,1750,1746,1741,1735,1730,1728,1726,1723,1720,1719,1720,1720,1717,1715,1714,1711,1707,1703,1701,1700,1697,1694,1690,1686,1682,1674,1668,1662,1655,1646,1637,1631,1625,1616,1609,1604,1601,1599,1596,1595,1597,1599,1600,1602,1604,1606,1606,1606,1607,1609,1607,1607,1607,1608,1609,1609,1612,1616,1619,1622,1625,1630,1632,1634,1636,1639,1641,1641,1639,1638,1637,1635,1632,1628,1627,1624,1617,1612,1607,1605,1599,1595,1594,1597,1599,1605,1618,1636,1657,1683,1714,1754,1797,1846,1902,1963,2029,2096,2168,2243,2319,2396,2469,2542,2613,2682,2745,2804,2859,2907,2968,3010,3039,3060,3079,3095,3108,3116,3120,3119,3117,3112,3103,3093,3083,3073,3058,3043,3028,3012,2993,2971,2950,2929,2909,2887,2864,2845,2826,2805,2784,2762,2742,2721,2701,2683,2665,2648,2632,2616,2602,2589,2573,2559,2546,2532,2519,2505,2494,2485,2476,2467,2460,2456,2453,2449,2446,2444,2443,2440,2437,2437,2438,2438,2438,2439,2442,2446,2449,2452,2455,2458,2458,2458,2458,2458,2455,2451,2447,2441,2434,2423,2413,2401,2386,2368,2352,2336,2319,2301,2281,2262,2244,2222,2202,2184,2166,2148,2130,2114,2097,2081,2064,2049,2036,2021,2007,1995,1985,1975,1964,1953,1943,1934,1926,1917,1908,1900,1892,1883,1874,1869,1864,1857,1852,1849,1846,1844,1842,1841,1842,1841,1839,1838,1836,1834,1830,1828,1826,1825,1823,1821,1819,1818,1817,1815,1816,1817,1817,1815,1814,1812,1809,1804,1799,1797,1793,1789,1784,1780,1778,1774,1772,1771,1770,1770,1766,1763,1760,1755,1747,1739,1733,1726,1718,1709,1704,1698,1693,1688,1687,1687,1686,1683,1679,1677,1673,1668,1662,1658,1653,1646,1642,1638,1635,1632,1627,1623,1621,1619,1615,1614,1615,1617,1616,1617,1619,1623,1625,1626,1630,1634,1637,1639,1641,1643,1645,1643,1642,1641,1638,1635,1633,1634,1637,1642,1649,1660,1677,1697,1723,1755,1793,1837,1886,1938,1995,2055,2119,2184,2254,2327,2400,2474,2548,2622,2694,2763,2830,2898,2961,3045,3107,3150,3188,3219,3246,3269,3285,3296,3301,3304,3300,3292,3280,3264,3245,3221,3193,3166,3140,3112,3085,3057,3031,3005,2980,2955,2934,2914,2894,2874,2859,2844,2830,2817,2804,2792,2779,2764,2750,2738,2725,2712,2698,2686,2673,2659,2646,2634,2623,2611,2599,2588,2577,2567,2556,2543,2533,2523,2512,2503,2494,2487,2478,2471,2464,2460,2455,2449,2445,2442,2439,2434,2431,2427,2424,2418,2412,2408,2402,2394,2385,2375,2365,2354,2342,2329,2315,2299,2280,2261,2243,2222,2202,2181,2163,2146,2128,2113,2098,2086,2074,2063,2052,2043,2035,2026,2016,2007,1999,1989,1978,1968,1959,1949,1940,1932,1928,1923,1917,1912,1910,1907,1904,1902,1900,1900,1897,1895,1892,1892,1891,1888,1886,1887,1887,1885,1883,1883,1882,1882,1879,1875,1873,1869,1865,1862,1860,1857,1851,1845,1840,1834,1825,1818,1811,1804,1797,1792,1788,1786,1783,1780,1777,1775,1772,1766,1760,1755,1750,1744,1739,1735,1732,1728,1723,1719,1715,1711,1705,1699,1695,1691,1685,1681,1679,1678,1676,1675,1676,1679,1680,1682,1685,1686,1688,1688,1688,1687,1687,1683,1679,1677,1675,1671,1667,1664,1662,1659,1656,1653,1652,1649,1648,1648,1649,1648,1646,1643,1641,1639,1635,1630,1625,1623,1618,1613,1609,1606,1602,1597,1594,1593,1599,1601,1610,1622,1640,1663,1688,1721,1762,1808,1861,1919,1984,2052,2123,2199,2277,2358,2439,2520,2603,2685,2764,2840,2914,2982,3046,3144,3204,3245,3280,3310,3336,3355,3367,3372,3373,3368,3358,3342,3324,3305,3283,3258,3234,3209,3183,3155,3126,3099,3072,3046,3021,2998,2978,2957,2936,2916,2898,2880,2861,2846,2830,2817,2802,2788,2774,2760,2746,2730,2716,2704,2693,2680,2669,2659,2649,2637,2625,2616,2607,2598,2589,2583,2577,2570,2560,2553,2546,2538,2531,2525,2521,2518,2513,2509,2507,2505,2502,2496,2491,2483,2475,2466,2457,2451,2443,2434,2426,2418,2410,2401,2390,2380,2366,2352,2336,2320,2306,2291,2272,2254,2235,2215,2193,2170,2148,2126,2104,2082,2062,2043,2025,2006,1991,1979,1967,1955,1944,1937,1929,1919,1910,1901,1893,1885,1877,1872,1868,1862,1858,1853,1852,1851,1850,1852,1854,1855,1855,1855,1855,1856,1855,1853,1853,1853,1851,1850,1849,1852,1854,1854,1853,1853,1851,1849,1845,1842,1841,1837,1833,1830,1829,1826,1825,1824,1824,1822,1819,1817,1813,1808,1803,1794,1789,1783,1776,1766,1757,1748,1738,1728,1717,1711,1703,1693,1686,1679,1674,1669,1665,1663,1663,1661,1659,1655,1651,1648,1642,1636,1632,1626,1620,1614,1609,1603,1599,1593,1589,1585,1581,1577,1575,1573,1571,1569,1568,1569,1571,1572,1572,1575,1576,1577,1575,1575,1576,1575,1572,1570,1566,1562,1555,1548,1542,1538,1531,1525,1522,1522,1522,1525,1535,1549,1568,1592,1624,1664,1709,1761,1820,1886,1959,2033,2113,2197,2283,2370,2454,2539,2622,2702,2778,2849,2917,2981,3074,3132,3174,3208,3237,3261,3281,3294,3300,3303,3302,3296,3284,3268,3251,3228,3201,3173,3145,3118,3091,3063,3038,3014,2991,2968,2944,2924,2903,2882,2860,2839,2820,2800,2781,2764,2748,2733,2717,2702,2689,2674,2660,2647,2636,2623,2611,2598,2585,2572,2559,2545,2532,2520,2508,2496,2485,2478,2470,2462,2456,2450,2444,2439,2433,2430,2428,2424,2420,2420,2421,2423,2423,2424,2426,2426,2424,2421,2417,2415,2409,2400,2393,2381,2366,2349,2330,2311,2291,2270,2249,2231,2214,2197,2183,2170,2158,2146,2131,2118,2104,2088,2071,2054,2041,2025,2011,1997,1984,1971,1959,1946,1935,1926,1916,1906,1898,1890,1883,1876,1870,1865,1860,1854,1850,1847,1846,1843,1841,1841,1839,1836,1832,1828,1826,1823,1819,1817,1819,1818,1818,1818,1819,1820,1821,1821,1822,1825,1826,1825,1822,1822,1818,1812,1805,1799,1792,1784,1778,1773,1770,1767,1763,1759,1756,1751,1746,1740,1736,1730,1724,1719,1716,1715,1710,1705,1700,1697,1690,1685,1681,1677,1671,1666,1660,1655,1648,1638,1631,1624,1618,1611,1604,1599,1597,1595,1592,1592,1594,1595,1596,1598,1600,1603,1603,1603,1604,1603,1600,1596,1594,1592,1588,1583,1578,1574,1568,1560,1555,1552,1550,1549,1550,1558,1569,1585,1606,1634,1669,1709,1754,1805,1864,1927,1994,2065,2141,2219,2297,2376,2457,2537,2613,2689,2762,2834,2902,2964,3050,3112,3153,3185,3212,3231,3242,3245,3243,3235,3221,3200,3176,3150,3122,3090,3057,3024,2992,2959,2927,2897,2867,2838,2809,2780,2753,2725,2698,2672,2649,2626,2602,2580,2561,2542,2522,2501,2482,2466,2448,2431,2416,2403,2392,2379,2369,2361,2355,2348,2344,2341,2341,2339,2338,2338,2338,2338,2338,2338,2340,2341,2343,2344,2346,2348,2350,2351,2354,2357,2358,2359,2358,2358,2355,2352,2347,2342,2338,2332,2327,2323,2317,2312,2303,2295,2286,2275,2260,2246,2231,2215,2194,2176,2159,2143,2125,2109,2095,2081,2066,2049,2034,2018,2001,1985,1971,1958,1944,1931,1920,1910,1900,1890,1879,1869,1860,1851,1841,1833,1826,1818,1810,1805,1802,1800,1797,1794,1790,1788,1784,1780,1775,1770,1764,1756,1749,1744,1738,1733,1729,1724,1718,1710,1702,1696,1689,1680,1672,1666,1660,1655,1649,1648,1645,1644,1642,1642,1645,1649,1653,1657,1662,1669,1673,1676,1680,1685,1687,1689,1693,1698,1701,1701,1700,1700,1698,1694,1690,1686,1683,1678,1672,1668,1664,1660,1656,1652,1649,1647,1643,1639,1637,1637,1635,1633,1635,1637,1641,1641,1642,1643,1644,1642,1641,1641,1639,1636,1635,1635,1635,1635,1633,1634,1633,1631,1626,1621,1616,1609,1600,1593,1587,1581,1577,1574,1576,1582,1592,1603,1621,1643,1671,1703,1743,1789,1840,1895,1957,2028,2102,2177,2256,2337,2421,2505,2587,2668,2748,2822,2893,2959,3021,3101,3156,3193,3224,3247,3263,3272,3277,3275,3270,3261,3250,3237,3220,3199,3177,3153,3125,3096,3067,3040,3010,2981,2953,2926,2900,2876,2853,2834,2817,2800,2786,2771,2759,2746,2732,2720,2708,2694,2679,2666,2653,2638,2623,2608,2592,2575,2558,2539,2522,2507,2492,2478,2466,2456,2447,2437,2428,2422,2416,2409,2402,2397,2392,2386,2379,2373,2368,2362,2355,2350,2348,2345,2340,2335,2333,2328,2320,2313,2305,2296,2288,2276,2265,2254,2240,2225,2209,2191,2173,2152,2131,2112,2093,2075,2056,2044,2028,2014,1998,1983,1967,1952,1935,1920,1907,1893,1880,1865,1852,1839,1825,1810,1798,1786,1775,1765,1756,1750,1743,1737,1735,1735,1736,1737,1738,1740,1742,1744,1744,1745,1746,1746,1746,1746,1746,1746,1746,1746,1747,1750,1750,1748,1748,1748,1747,1743,1741,1739,1736,1734,1732,1731,1730,1727,1725,1723,1722,1719,1717,1715,1715,1714,1712,1710,1710,1707,1703,1697,1692,1687,1679,1672,1666,1658,1651,1640,1632,1623,1615,1605,1598,1592,1587,1582,1579,1579,1578,1577,1578,1581,1584,1584,1585,1585,1586,1584,1581,1579,1578,1577,1576,1576,1577,1579,1580,1579,1578,1578,1576,1575,1575,1576,1577,1577,1578,1579,1579,1578,1575,1574,1573,1570,1565,1562,1560,1558,1557,1560,1566,1573,1586,1603,1626,1654,1687,1727,1775,1829,1891,1957,2029,2105,2183,2263,2344,2428,2511,2591,2671,2747,2821,2888,2948,3003,3075,3123,3154,3180,3199,3209,3215,3218,3215,3207,3195,3181,3166,3147,3124,3100,3074,3044,3013,2981,2950,2919,2887,2857,2829,2805,2777,2754,2731,2711,2693,2674,2657,2642,2626,2610,2596,2583,2567,2554,2538,2524,2510,2495,2479,2465,2453,2440,2427,2412,2401,2388,2375,2362,2352,2343,2335,2326,2322,2319,2314,2310,2306,2304,2301,2296,2293,2291,2292,2291,2291,2293,2294,2294,2290,2289,2285,2278,2271,2262,2254,2243,2231,2218,2207,2194,2180,2163,2146,2129,2108,2086,2067,2048,2028,2009,1993,1977,1963,1947,1932,1920,1908,1895,1881,1870,1859,1847,1836,1827,1817,1807,1796,1786,1779,1772,1762,1752,1743,1735,1725,1717,1710,1703,1696,1690,1684,1681,1679,1677,1675,1676,1678,1678,1678,1680,1681,1680,1678,1679,1680,1679,1680,1681,1684,1687,1689,1690,1694,1694,1695,1694,1695,1696,1697,1696,1697,1699,1698,1695,1692,1688,1683,1675,1671,1667,1664,1659,1654,1652,1649,1645,1641,1638,1636,1633,1629,1626,1624,1622,1620,1617,1617,1616,1613,1610,1609,1608,1606,1602,1601,1599,1596,1592,1591,1590,1589,1586,1585,1584,1585,1584,1583,1585,1587,1590,1591,1592,1595,1598,1597,1597,1596,1594,1590,1583,1578,1571,1561,1550,1541,1533,1528,1524,1524,1530,1541,1558,1582,1612,1647,1687,1733,1785,1846,1909,1976,2050,2126,2203,2281,2360,2441,2520,2595,2670,2742,2811,2873,2955,3015,3055,3088,3116,3137,3153,3160,3163,3163,3159,3147,3133,3114,3092,3066,3036,3004,2971,2936,2898,2862,2826,2791,2757,2724,2696,2671,2647,2624,2605,2587,2569,2550,2534,2519,2504,2486,2471,2456,2441,2424,2406,2391,2376,2362,2348,2336,2324,2312,2299,2288,2280,2272,2266,2260,2259,2257,2256,2254,2254,2255,2255,2255,2258,2262,2264,2265,2265,2264,2264,2261,2257,2255,2251,2246,2240,2232,2225,2215,2202,2190,2178,2165,2151,2135,2122,2107,2090,2073,2057,2042,2025,2008,1994,1981,1969,1954,1941,1928,1915,1898,1882,1868,1854,1839,1825,1813,1802,1791,1780,1770,1762,1755,1745,1737,1731,1723,1716,1709,1705,1700,1695,1688,1683,1678,1672,1667,1664,1663,1664,1664,1664,1667,1669,1670,1672,1675,1678,1678,1680,1681,1684,1685,1686,1688,1690,1690,1690,1690,1690,1690,1688,1687,1686,1685,1683,1679,1676,1673,1670,1665,1660,1655,1649,1641,1633,1626,1618,1610,1600,1593,1587,1582,1577,1577,1576,1576,1574,1572,1571,1570,1567,1564,1562,1559,1554,1549,1546,1543,1540,1535,1533,1532,1532,1530,1531,1533,1537,1538,1540,1542,1545,1547,1550,1554,1562,1566,1570,1573,1577,1579,1579,1580,1581,1584,1582,1581,1578,1575,1569,1563,1557,1551,1545,1542,1541,1547,1554,1566,1585,1611,1644,1683,1726,1776,1834,1895,1961,2033,2109,2188,2267,2348,2430,2509,2586,2658,2729,2796,2859,2915,2991,3045,3082,3114,3142,3165,3180,3190,3196,3197,3189,3176,3160,3142,3119,3094,3067,3040,3009,2977,2946,2916,2888,2859,2831,2807,2784,2761,2738,2717,2699,2681,2664,2648,2634,2620,2608,2597,2588,2579,2569,2559,2549,2540,2530,2519,2508,2498,2488,2474,2461,2448,2435,2420,2406,2394,2382,2370,2360,2353,2347,2343,2339,2337,2336,2336,2335,2334,2334,2334,2330,2325,2322,2317,2311,2303,2298,2291,2285,2276,2267,2256,2245,2230,2216,2202,2186,2168,2149,2129,2110,2089,2068,2047,2029,2008,1988,1970,1953,1936,1919,1901,1887,1872,1857,1841,1827,1812,1797,1782,1768,1757,1746,1737,1729,1724,1720,1714,1710,1708,1705,1703,1699,1696,1694,1691,1686,1683,1682,1681,1680,1680,1681,1682,1680,1680,1682,1687,1689,1691,1696,1700,1704,1705,1705,1707,1704,1701,1697,1695,1693,1690,1687,1688,1688,1687,1686,1685,1685,1681,1677,1673,1670,1667,1661,1656,1651,1645,1638,1630,1624,1619,1612,1608,1603,1599,1597,1594,1592,1591,1592,1588,1588,1586,1586,1584,1579,1577,1575,1574,1571,1571,1573,1575,1573,1573,1573,1574,1574,1572,1572,1571,1568,1562,1558,1554,1549,1545,1541,1538,1536,1536,1536,1538,1540,1542,1543,1544,1546,1545,1544,1544,1544,1545,1544,1546,1549,1549,1547,1546,1546,1547,1549,1551,1555,1565,1577,1590,1609,1634,1662,1695,1733,1776,1825,1878,1935,1999,2068,2138,2213,2288,2366,2443,2520,2596,2672,2745,2815,2880,2941,2996,3067,3114,3146,3169,3184,3194,3199,3196,3190,3178,3166,3151,3134,3114,3093,3071,3046,3020,2994,2969,2943,2914,2889,2864,2840,2816,2792,2771,2750,2728,2708,2687,2669,2652,2634,2618,2603,2590,2574,2561,2548,2536,2522,2507,2492,2479,2464,2449,2435,2423,2410,2396,2383,2372,2362,2351,2344,2339,2335,2332,2329,2329,2329,2328,2327,2327,2330,2330,2329,2329,2330,2330,2327,2325,2324,2323,2319,2313,2307,2298,2287,2275,2263,2249,2236,2219,2203,2185,2168,2148,2128,2109,2089,2071,2051,2033,2017,2000,1985,1969,1956,1942,1924,1906,1890,1873,1856,1839,1826,1814,1801,1789,1777,1767,1756,1745,1735,1727,1719,1712,1704,1699,1695,1691,1689,1690,1691,1691,1692,1693,1696,1698,1699,1698,1698,1698,1696,1693,1691,1689,1686,1684,1683,1685,1685,1684,1683,1684,1684,1683,1682,1682,1680,1679,1680,1682,1685,1688,1691,1695,1700,1703,1705,1705,1709,1708,1706,1704,1702,1701,1696,1693,1689,1686,1682,1677,1673,1669,1666,1662,1659,1657,1656,1653,1651,1649,1647,1642,1636,1632,1627,1619,1611,1601,1591,1582,1571,1561,1553,1546,1537,1530,1527,1522,1519,1516,1515,1515,1515,1516,1518,1521,1523,1527,1531,1538,1545,1551,1555,1561,1566,1570,1570,1572,1574,1573,1570,1569,1568,1565,1562,1557,1552,1544,1536,1528,1522,1521,1520,1523,1532,1546,1563,1589,1620,1658,1703,1750,1802,1863,1927,1993,2064,2139,2219,2300,2382,2464,2547,2627,2702,2773,2840,2903,2995,3053,3093,3126,3153,3174,3192,3205,3212,3215,3215,3208,3197,3181,3164,3142,3116,3089,3062,3033,3002,2969,2938,2906,2874,2842,2811,2782,2754,2729,2704,2685,2665,2647,2630,2615,2601,2589,2574,2561,2550,2536,2521,2505,2489,2472,2452,2432,2415,2399,2383,2368,2357,2349,2342,2337,2334,2334,2335,2337,2339,2343,2347,2350,2354,2357,2358,2361,2361,2362,2362,2360,2358,2354,2350,2344,2337,2328,2320,2310,2298,2285,2270,2256,2239,2219,2199,2180,2159,2135,2112,2091,2069,2046,2024,2002,1984,1963,1947,1933,1921,1909,1897,1887,1878,1868,1857,1848,1841,1833,1823,1813,1804,1797,1788,1779,1772,1767,1760,1754,1751,1749,1747,1744,1741,1742,1743,1745,1745,1747,1749,1751,1750,1751,1753,1752,1751,1750,1751,1749,1748,1746,1744,1742,1740,1737,1734,1733,1732,1732,1733,1734,1735,1735,1735,1736,1737,1735,1734,1734,1733,1731,1728,1725,1722,1717,1711,1705,1701,1696,1689,1684,1680,1677,1672,1666,1661,1656,1650,1644,1639,1633,1628,1621,1616,1612,1607,1601,1596,1592,1590,1586,1582,1580,1580,1575,1570,1568,1567,1566,1565,1564,1565,1565,1564,1562,1562,1561,1561,1560,1560,1562,1562,1564,1567,1572,1575,1577,1580,1584,1587,1590,1591,1592,1595,1596,1597,1604,1614,1626,1642,1665,1695,1730,1771,1819,1872,1929,1992,2057,2130,2206,2283,2362,2443,2525,2604,2682,2757,2830,2898,2961,3016,3090,3137,3167,3191,3209,3220,3224,3225,3223,3215,3204,3189,3175,3157,3135,3111,3089,3065,3039,3011,2984,2956,2927,2898,2867,2838,2808,2778,2750,2724,2699,2675,2654,2635,2619,2604,2589,2576,2564,2551,2537,2524,2512,2501,2489,2477,2468,2459,2449,2440,2432,2424,2416,2408,2403,2399,2394,2388,2382,2377,2372,2365,2359,2355,2351,2347,2343,2340,2339,2340,2337,2336,2334,2332,2327,2324,2319,2314,2306,2298,2290,2282,2273,2261,2250,2237,2223,2204,2184,2164,2144,2122,2098,2078,2057,2037,2017,1998,1981,1965,1949,1935,1925,1913,1903,1890,1880,1868,1854,1840,1828,1816,1804,1792,1782,1773,1764,1754,1746,1740,1733,1726,1720,1714,1711,1707,1705,1705,1705,1706,1707,1710,1715,1720,1722,1726,1731,1734,1733,1731,1730,1727,1723,1719,1714,1711,1708,1706,1704,1703,1703,1700,1699,1699,1699,1697,1694,1692,1691,1689,1686,1685,1684,1681,1678,1676,1676,1673,1670,1668,1667,1666,1661,1658,1655,1652,1649,1644,1639,1635,1630,1621,1614,1609,1603,1597,1592,1589,1586,1583,1579,1577,1575,1570,1565,1560,1557,1552,1547,1546,1546,1548,1548,1548,1550,1551,1552,1552,1554,1556,1558,1559,1560,1563,1564,1565,1565,1568,1572,1576,1579,1583,1586,1587,1586,1586,1585,1582,1581,1577,1574,1572,1569,1569,1572,1578,1585,1596,1611,1631,1654,1684,1722,1767,1818,1873,1936,2003,2076,2153,2232,2315,2401,2484,2566,2648,2726,2801,2871,2935,2996,3048,3115,3160,3191,3214,3232,3246,3255,3257,3255,3249,3240,3227,3209,3189,3168,3143,3116,3087,3058,3028,2997,2967,2939,2912,2887,2861,2836,2814,2792,2771,2751,2735,2718,2702,2687,2672,2658,2643,2628,2615,2603,2592,2581,2572,2564,2555,2545,2535,2526,2518,2507,2496,2487,2477,2466,2454,2444,2433,2423,2413,2405,2398,2394,2389,2384,2385,2386,2387,2387,2388,2389,2386,2380,2374,2368,2360,2350,2340,2331,2321,2309,2297,2286,2277,2264,2251,2237,2223,2207,2189,2173,2156,2140,2124,2103,2086,2068,2049,2028,2011,1992,1974,1954,1937,1918,1900,1880,1861,1845,1830,1814,1798,1785,1773,1761,1751,1743,1735,1728,1721,1715,1710,1705,1699,1694,1690,1688,1685,1681,1681,1680,1680,1681,1682,1683,1685,1686,1688,1692,1696,1697,1699,1701,1704,1704,1704,1703,1702,1699,1695,1692,1690,1689,1685,1683,1682,1682,1681,1681,1682,1682,1681,1679,1677,1678,1673,1669,1665,1662,1657,1651,1646,1641,1638,1632,1626,1621,1618,1613,1608,1607,1605,1605,1605,1606,1608,1612,1613,1613,1616,1617,1616,1613,1613,1613,1611,1610,1608,1609,1608,1606,1605,1604,1603,1597,1593,1591,1588,1585,1582,1581,1580,1579,1579,1580,1581,1582,1580,1581,1582,1582,1580,1579,1580,1582,1581,1581,1582,1584,1582,1578,1576,1574,1572,1569,1566,1564,1563,1560,1557,1555,1554,1551,1550,1552,1557,1563,1572,1589,1610,1638,1673,1714,1764,1820,1880,1949,2022,2100,2182,2264,2350,2438,2524,2609,2694,2777,2855,2930,3001,3067,3156,3218,3260,3295,3322,3342,3355,3363,3363,3358,3349,3336,3318,3295,3267,3237,3205,3169,3132,3095,3059,3024,2989,2955,2925,2896,2868,2841,2817,2796,2775,2754,2735,2718,2701,2684,2669,2655,2640,2622,2604,2588,2572,2554,2537,2522,2506,2491,2475,2461,2447,2434,2421,2410,2401,2393,2388,2382,2381,2381,2382,2384,2386,2390,2392,2393,2395,2399,2401,2402,2401,2402,2401,2397,2391,2385,2378,2367,2356,2344,2334,2322,2309,2296,2284,2270,2254,2239,2224,2207,2190,2172,2154,2136,2115,2096,2075,2057,2038,2019,2002,1986,1972,1954,1939,1923,1908,1891,1873,1857,1842,1826,1814,1804,1796,1788,1779,1772,1767,1761,1757,1753,1753,1754,1754,1755,1757,1761,1762,1764,1766,1768,1769,1765,1762,1759,1756,1752,1747,1743,1740,1735,1731,1728,1726,1724,1721,1721,1720,1720,1719,1718,1720,1721,1721,1721,1724,1726,1726,1724,1722,1719,1715,1711,1706,1700,1694,1688,1679,1673,1666,1659,1654,1650,1648,1645,1641,1639,1638,1635,1630,1626,1625,1624,1622,1623,1626,1631,1634,1635,1637,1641,1642,1644,1644,1647,1646,1643,1641,1639,1638,1636,1632,1631,1629,1627,1626,1627,1629,1631,1632,1634,1636,1638,1640,1643,1648,1653,1657,1661,1669,1674,1679,1681,1682,1683,1681,1677,1672,1667,1662,1656,1650,1648,1648,1651,1657,1670,1690,1713,1740,1774,1813,1858,1905,1960,2024,2091,2163,2237,2317,2398,2480,2561,2643,2724,2800,2873,2943,3009,3071,3163,3219,3259,3289,3314,3334,3346,3351,3348,3340,3326,3308,3284,3259,3230,3200,3164,3128,3091,3054,3015,2976,2940,2904,2867,2833,2801,2771,2743,2715,2689,2666,2642,2618,2596,2576,2557,2539,2520,2503,2488,2470,2452,2437,2423,2409,2397,2386,2377,2370,2364,2361,2358,2356,2355,2353,2354,2357,2357,2357,2359,2363,2367,2369,2374,2379,2386,2390,2395,2399,2404,2404,2404,2403,2401,2395,2387,2379,2367,2357,2342,2328,2314,2300,2284,2267,2251,2234,2216,2198,2181,2165,2146,2128,2108,2088,2068,2045,2023,2001,1980,1958,1936,1918,1900,1884,1867,1852,1838,1824,1807,1792,1779,1764,1749,1735,1725,1716,1707,1699,1692,1687,1682,1676,1672,1670,1669,1668,1667,1669,1671,1673,1674,1678,1682,1684,1683,1684,1685,1686,1686,1688,1690,1693,1695,1696,1701,1704,1707,1709,1713,1720,1725,1731,1739,1745,1751,1754,1756,1760,1760,1758,1757,1754,1751,1745,1739,1734,1727,1721,1712,1704,1697,1688,1679,1671,1665,1659,1651,1644,1638,1631,1622,1614,1608,1602,1595,1590,1584,1583,1581,1577,1575,1574,1573,1570,1567,1566,1564,1560,1556,1553,1550,1551,1549,1550,1551,1555,1556,1555,1556,1557,1555,1554,1553,1551,1550,1547,1545,1545,1543,1542,1542,1544,1545,1546,1548,1550,1552,1553,1554,1558,1562,1567,1572,1581,1593,1608,1625,1648,1678,1714,1755,1801,1857,1920,1987,2061,2140,2224,2311,2401,2493,2586,2679,2771,2860,2948,3031,3109,3180,3246,3340,3393,3428,3455,3475,3487,3492,3494,3489,3476,3459,3437,3411,3379,3343,3306,3266,3224,3179,3135,3092,3050,3008,2968,2934,2902,2872,2843,2816,2793,2770,2749,2731,2714,2697,2682,2667,2654,2641,2626,2612,2600,2587,2574,2561,2549,2538,2527,2515,2504,2496,2486,2475,2465,2457,2448,2440,2433,2428,2425,2420,2419,2418,2418,2417,2418,2418,2420,2420,2418,2416,2415,2412,2407,2402,2397,2390,2383,2373,2363,2353,2340,2327,2315,2302,2288,2272,2256,2240,2223,2205,2184,2166,2147,2127,2107,2086,2067,2047,2026,2007,1988,1970,1951,1934,1918,1902,1888,1873,1861,1851,1840,1828,1818,1807,1798,1786,1776,1767,1757,1748,1740,1734,1729,1726,1723,1721,1720,1717,1714,1712,1711,1708,1705,1702,1701,1698,1694,1691,1689,1688,1687,1685,1683,1682,1681,1678,1677,1679,1681,1681,1682,1686,1691,1694,1700,1706,1714,1720,1724,1730,1735,1739,1741,1743,1747,1749,1747,1746,1744,1743,1741,1736,1732,1729,1723,1715,1708,1700,1690,1679,1670,1661,1654,1645,1638,1634,1630,1625,1621,1616,1613,1606,1602,1598,1595,1592,1586,1582,1579,1574,1570,1567,1565,1564,1564,1561,1560,1561,1560,1556,1554,1553,1552,1549,1546,1547,1545,1542,1539,1536,1535,1531,1525,1521,1516,1509,1501,1494,1489,1487,1485,1485,1492,1504,1518,1538,1564,1601,1642,1690,1746,1809,1878,1953,2034,2122,2214,2308,2403,2501,2598,2692,2784,2874,2961,3042,3116,3184,3272,3329,3366,3396,3420,3434,3443,3447,3445,3439,3426,3409,3390,3367,3341,3314,3284,3254,3220,3184,3148,3111,3073,3036,3001,2968,2936,2902,2871,2840,2813,2786,2761,2739,2719,2699,2677,2660,2642,2624,2608,2592,2579,2566,2551,2538,2526,2514,2502,2492,2484,2477,2469,2461,2456,2451,2445,2438,2433,2430,2427,2426,2426,2427,2428,2428,2426,2427,2427,2426,2425,2424,2423,2421,2418,2413,2409,2403,2395,2387,2378,2369,2358,2346,2333,2320,2306,2288,2271,2251,2231,2208,2187,2166,2144,2120,2096,2074,2051,2027,2004,1982,1962,1943,1923,1904,1887,1873,1856,1840,1827,1814,1801,1790,1781,1774,1767,1761,1757,1754,1753,1749,1745,1745,1744,1741,1741,1742,1744,1745,1745,1746,1748,1748,1747,1747,1747,1747,1744,1740,1738,1735,1733,1731,1732,1733,1735,1736,1739,1743,1746,1749,1753,1757,1761,1763,1766,1768,1769,1768,1764,1762,1759,1752,1744,1737,1729,1718,1706,1696,1686,1674,1660,1647,1636,1626,1615,1605,1598,1591,1584,1577,1572,1570,1567,1565,1563,1563,1565,1564,1565,1567,1570,1572,1574,1579,1582,1585,1587,1590,1594,1593,1590,1588,1586,1584,1581,1578,1577,1576,1573,1570,1567,1563,1560,1557,1554,1552,1551,1548,1547,1547,1550,1553,1561,1572,1586,1604,1625,1653,1688,1728,1774,1828,1892,1960,2034,2114,2199,2290,2382,2477,2572,2669,2764,2857,2947,3033,3114,3189,3256,3318,3396,3447,3479,3505,3523,3533,3538,3536,3526,3511,3490,3466,3436,3401,3364,3324,3284,3243,3200,3161,3121,3082,3043,3008,2974,2944,2913,2886,2862,2838,2816,2793,2774,2758,2741,2724,2708,2694,2680,2666,2653,2641,2629,2613,2599,2587,2573,2559,2545,2533,2521,2510,2498,2489,2479,2471,2462,2457,2454,2450,2447,2444,2445,2446,2445,2443,2444,2445,2445,2442,2440,2438,2432,2425,2416,2408,2397,2385,2372,2359,2344,2328,2311,2295,2278,2261,2243,2226,2209,2190,2172,2155,2137,2120,2102,2081,2063,2043,2023,2003,1983,1963,1944,1924,1907,1892,1877,1862,1847,1836,1824,1811,1800,1790,1780,1771,1761,1753,1746,1738,1730,1724,1720,1716,1713,1712,1714,1717,1720,1723,1726,1731,1732,1732,1734,1735,1738,1738,1739,1742,1743,1744,1744,1748,1750,1751,1752,1754,1755,1755,1753,1752,1750,1746,1741,1736,1732,1727,1721,1717,1715,1711,1707,1704,1701,1700,1697,1693,1691,1689,1684,1678,1672,1666,1659,1649,1642,1635,1629,1624,1619,1616,1613,1609,1606,1603,1600,1598,1595,1594,1593,1592,1590,1588,1588,1586,1585,1581,1578,1577,1575,1570,1567,1566,1565,1563,1563,1564,1566,1567,1568,1570,1571,1574,1573,1573,1574,1574,1572,1573,1574,1575,1574,1570,1570,1570,1569,1568,1571,1578,1591,1608,1632,1664,1703,1747,1801,1865,1935,2011,2094,2184,2279,2374,2470,2569,2668,2763,2855,2944,3029,3108,3180,3246,3333,3392,3430,3462,3487,3503,3509,3510,3505,3491,3471,3444,3414,3380,3342,3299,3258,3214,3170,3125,3082,3043,3005,2967,2932,2900,2870,2841,2814,2790,2769,2745,2722,2700,2681,2661,2640,2623,2605,2589,2572,2556,2542,2528,2512,2499,2487,2477,2464,2453,2444,2435,2428,2418,2411,2407,2403,2398,2396,2394,2392,2391,2391,2391,2394,2395,2396,2398,2400,2400,2398,2395,2393,2387,2380,2372,2366,2358,2349,2339,2329,2320,2308,2293,2278,2262,2243,2221,2198,2176,2152,2126,2100,2073,2049,2024,1998,1973,1948,1925,1901,1877,1858,1838,1819,1801,1785,1770,1755,1740,1730,1721,1714,1708,1704,1702,1699,1695,1693,1691,1690,1686,1686,1687,1691,1693,1696,1700,1705,1709,1713,1716,1722,1725,1726,1729,1732,1734,1735,1735,1736,1739,1737,1736,1736,1736,1733,1729,1725,1720,1715,1710,1706,1703,1702,1702,1700,1698,1697,1693,1688,1686,1684,1682,1679,1677,1677,1676,1674,1672,1670,1666,1659,1652,1646,1639,1631,1622,1615,1608,1602,1595,1591,1589,1587,1585,1583,1584,1584,1583,1581,1583,1584,1584,1583,1583,1585,1586,1585,1585,1584,1584,1581,1576,1572,1569,1564,1559,1556,1555,1554,1553,1553,1553,1551,1548,1546,1544,1542,1539,1536,1532,1529,1524,1520,1518,1516,1516,1513,1512,1513,1516,1518,1524,1534,1545,1560,1579,1606,1640,1679,1726,1780,1842,1911,1988,2070,2159,2252,2346,2443,2541,2639,2733,2827,2917,3006,3087,3162,3232,3337,3395,3435,3467,3492,3508,3517,3519,3514,3502,3482,3458,3429,3395,3356,3315,3274,3229,3185,3140,3097,3054,3012,2971,2932,2895,2859,2825,2795,2768,2744,2720,2700,2682,2664,2646,2629,2613,2596,2579,2558,2539,2520,2501,2482,2465,2450,2437,2424,2415,2409,2403,2396,2391,2388,2387,2386,2384,2384,2385,2384,2384,2386,2388,2390,2390,2392,2396,2400,2402,2402,2403,2403,2400,2394,2390,2383,2375,2363,2351,2341,2327,2311,2294,2277,2259,2237,2215,2193,2171,2147,2123,2098,2076,2054,2031,2009,1989,1968,1944,1921,1900,1878,1855,1834,1817,1799,1783,1767,1754,1741,1728,1716,1705,1696,1689,1681,1676,1674,1673,1672,1672,1673,1675,1677,1677,1677,1681,1682,1682,1683,1686,1689,1691,1693,1698,1701,1705,1709,1714,1718,1722,1724,1726,1730,1732,1735,1739,1743,1747,1749,1752,1756,1761,1762,1763,1762,1762,1763,1759,1757,1755,1751,1745,1739,1733,1727,1720,1713,1709,1704,1700,1696,1692,1691,1686,1681,1677,1674,1672,1665,1660,1656,1653,1647,1640,1635,1630,1626,1620,1617,1615,1612,1609,1607,1607,1606,1604,1603,1603,1604,1604,1604,1605,1605,1606,1603,1601,1599,1595,1591,1588,1586,1584,1582,1580,1582,1584,1588,1593,1603,1615,1631,1652,1678,1714,1755,1804,1861,1927,2002,2081,2167,2260,2357,2456,2555,2653,2751,2845,2935,3021,3101,3174,3240,3298,3373,3422,3450,3472,3487,3493,3492,3486,3476,3459,3436,3409,3381,3348,3311,3270,3229,3188,3144,3099,3057,3018,2978,2937,2900,2866,2834,2803,2773,2746,2723,2698,2674,2653,2633,2615,2595,2577,2561,2545,2527,2510,2493,2477,2461,2446,2433,2422,2411,2401,2393,2387,2381,2375,2370,2368,2365,2362,2359,2360,2361,2363,2364,2367,2370,2374,2376,2379,2382,2385,2385,2385,2386,2382,2377,2369,2360,2351,2339,2326,2315,2303,2289,2272,2256,2239,2220,2199,2179,2159,2140,2118,2095,2073,2051,2026,2002,1979,1956,1933,1911,1890,1873,1856,1840,1825,1814,1801,1790,1777,1766,1755,1743,1731,1719,1711,1703,1694,1687,1683,1677,1673,1668,1665,1663,1660,1659,1660,1661,1662,1664,1665,1669,1674,1674,1678,1680,1685,1686,1688,1692,1693,1693,1694,1695,1695,1695,1694,1693,1694,1694,1693,1693,1692,1692,1689,1686,1685,1684,1682,1681,1683,1686,1687,1688,1688,1689,1688,1685,1680,1676,1670,1662,1652,1643,1632,1620,1608,1598,1589,1579,1571,1564,1559,1554,1551,1548,1548,1549,1550,1550,1552,1555,1557,1558,1560,1564,1566,1568,1571,1575,1580,1580,1583,1586,1588,1590,1590,1588,1587,1583,1579,1573,1567,1561,1555,1549,1547,1545,1544,1544,1549,1558,1568,1583,1604,1633,1666,1706,1756,1814,1880,1953,2033,2120,2210,2306,2402,2502,2601,2699,2794,2885,2973,3057,3135,3208,3275,3365,3426,3468,3503,3528,3546,3556,3561,3557,3546,3530,3510,3483,3451,3415,3377,3336,3292,3246,3202,3158,3115,3071,3030,2992,2955,2919,2887,2857,2832,2806,2781,2759,2740,2721,2700,2683,2666,2650,2633,2615,2599,2583,2566,2550,2534,2518,2501,2483,2468,2454,2440,2426,2413,2403,2392,2382,2374,2368,2363,2357,2352,2350,2351,2351,2352,2355,2359,2361,2364,2364,2365,2366,2363,2358,2354,2348,2337,2323,2310,2294,2276,2255,2235,2214,2193,2170,2149,2128,2106,2082,2060,2041,2020,1998,1976,1956,1936,1916,1895,1875,1857,1841,1823,1807,1793,1780,1766,1753,1742,1733,1723,1713,1705,1698,1690,1683,1679,1676,1673,1667,1663,1659,1656,1652,1646,1643,1640,1637,1634,1633,1632,1629,1624,1620,1617,1615,1612,1612,1613,1616,1619,1622,1625,1630,1634,1637,1641,1644,1647,1648,1648,1648,1647,1643,1640,1638,1637,1634,1631,1629,1627,1625,1620,1614,1610,1604,1597,1589,1585,1578,1571,1566,1563,1560,1557,1556,1556,1557,1556,1555,1556,1557,1560,1561,1561,1563,1563,1564,1563,1564,1563,1562,1559,1556,1554,1551,1546,1541,1538,1535,1530,1526,1524,1522,1519,1517,1515,1514,1512,1509,1507,1507,1505,1501,1499,1497,1494,1491,1488,1485,1482,1479,1477,1477,1481,1486,1494,1506,1524,1546,1572,1606,1647,1696,1751,1815,1887,1966,2051,2140,2232,2329,2425,2520,2617,2712,2804,2891,2974,3052,3124,3186,3267,3323,3359,3387,3408,3423,3429,3429,3421,3408,3390,3365,3334,3302,3266,3227,3185,3143,3099,3053,3009,2967,2927,2887,2849,2813,2779,2749,2719,2691,2664,2641,2619,2596,2578,2562,2548,2533,2518,2506,2492,2477,2462,2450,2436,2421,2404,2390,2374,2358,2343,2329,2318,2308,2298,2293,2290,2290,2289,2290,2295,2299,2304,2307,2313,2317,2322,2323,2325,2327,2328,2325,2323,2321,2318,2314,2308,2303,2298,2290,2281,2270,2258,2244,2226,2208,2190,2171,2147,2123,2100,2076,2050,2025,2002,1980,1958,1934,1913,1893,1873,1854,1835,1818,1802,1785,1768,1754,1741,1727,1716,1704,1695,1687,1679,1672,1669,1666,1664,1663,1665,1668,1670,1672,1674,1677,1678,1679,1679,1679,1679,1677,1676,1677,1678,1679,1680,1684,1686,1688,1689,1692,1694,1696,1696,1698,1699,1700,1701,1702,1703,1703,1703,1701,1699,1695,1690,1685,1680,1675,1671,1662,1657,1650,1643,1632,1624,1615,1607,1598,1591,1584,1579,1572,1567,1563,1561,1557,1553,1550,1548,1545,1540,1535,1530,1524,1521,1515,1512,1509,1508,1507,1508,1508,1507,1506,1504,1503,1502,1499,1496,1496,1491,1486,1483,1477,1474,1469,1463,1456,1452,1448,1443,1442,1443,1447,1453,1465,1481,1503,1528,1561,1601,1648,1701,1759,1823,1895,1973,2051,2138,2226,2319,2411,2505,2601,2695,2784,2868,2949,3025,3094,3183,3244,3285,3316,3338,3353,3361,3361,3354,3344,3327,3307,3281,3252,3221,3187,3150,3113,3077,3040,3003,2965,2930,2897,2864,2831,2801,2772,2743,2716,2691,2668,2646,2625,2605,2586,2569,2551,2532,2517,2501,2484,2465,2449,2433,2416,2400,2384,2371,2360,2347,2337,2329,2321,2312,2303,2295,2290,2284,2279,2274,2273,2272,2271,2270,2271,2273,2274,2275,2278,2279,2280,2278,2277,2275,2270,2263,2255,2247,2240,2229,2218,2206,2193,2176,2159,2140,2121,2100,2078,2056,2034,2011,1989,1966,1945,1922,1899,1876,1856,1836,1815,1793,1773,1755,1738,1721,1708,1697,1688,1676,1667,1659,1652,1643,1636,1630,1625,1620,1617,1615,1616,1618,1619,1622,1625,1629,1629,1630,1631,1631,1630,1628,1629,1630,1630,1630,1632,1635,1638,1640,1642,1643,1643,1642,1640,1640,1639,1636,1633,1630,1626,1623,1618,1614,1615,1614,1613,1613,1616,1617,1618,1620,1622,1623,1623,1621,1621,1619,1618,1616,1611,1610,1606,1598,1592,1585,1579,1571,1562,1553,1546,1537,1529,1521,1515,1508,1503,1499,1496,1494,1489,1488,1488,1488,1486,1486,1485,1487,1486,1484,1482,1481,1478,1475,1471,1468,1465,1461,1458,1456,1456,1452,1451,1451,1452,1453,1454,1460,1469,1481,1495,1513,1541,1572,1608,1651,1703,1763,1827,1899,1977,2063,2152,2243,2337,2433,2525,2617,2705,2791,2873,2949,3019,3086,3144,3216,3263,3292,3314,3328,3336,3338,3333,3321,3306,3287,3263,3238,3207,3177,3146,3110,3072,3034,2997,2961,2923,2887,2853,2821,2790,2760,2732,2707,2682,2659,2638,2620,2600,2582,2566,2551,2537,2522,2508,2494,2481,2466,2450,2434,2419,2402,2385,2370,2355,2341,2326,2314,2303,2295,2287,2279,2275,2271,2267,2262,2261,2261,2260,2260,2261,2264,2267,2270,2273,2276,2279,2281,2279,2277,2274,2269,2259,2246,2235,2220,2203,2184,2165,2143,2120,2097,2075,2055,2031,2010,1988,1967,1946,1925,1905,1887,1869,1850,1831,1815,1799,1782,1766,1751,1738,1723,1710,1700,1691,1682,1672,1665,1659,1654,1647,1641,1637,1631,1626,1621,1618,1618,1617,1618,1618,1620,1623,1623,1624,1626,1628,1627,1625,1627,1627,1626,1624,1624,1624,1624,1622,1622,1623,1622,1621,1621,1622,1622,1623,1624,1626,1629,1630,1630,1631,1634,1636,1637,1637,1639,1640,1638,1638,1637,1634,1629,1623,1618,1611,1604,1595,1586,1579,1570,1561,1552,1542,1535,1527,1518,1511,1507,1500,1497,1495,1493,1490,1488,1487,1486,1484,1483,1481,1482,1482,1481,1479,1479,1478,1474,1469,1466,1466,1464,1461,1461,1463,1463,1462,1463,1464,1465,1465,1464,1466,1465,1463,1460,1458,1457,1455,1453,1452,1455,1459,1464,1474,1488,1505,1525,1551,1584,1624,1667,1718,1777,1843,1914,1991,2071,2159,2247,2334,2423,2513,2602,2688,2771,2852,2929,2998,3060,3139,3192,3225,3250,3267,3278,3282,3279,3272,3259,3241,3217,3190,3160,3126,3091,3057,3023,2989,2952,2916,2882,2850,2816,2783,2754,2725,2697,2671,2646,2627,2607,2586,2567,2550,2533,2514,2497,2482,2467,2452,2436,2422,2409,2394,2379,2368,2357,2348,2338,2328,2321,2314,2308,2301,2298,2297,2295,2293,2293,2294,2294,2295,2296,2297,2299,2300,2302,2304,2305,2304,2303,2300,2297,2293,2287,2281,2274,2265,2254,2243,2232,2221,2207,2190,2174,2155,2135,2113,2091,2068,2044,2018,1993,1968,1944,1921,1901,1883,1866,1849,1833,1817,1801,1786,1769,1755,1742,1731,1719,1710,1703,1696,1689,1684,1679,1676,1670,1664,1660,1658,1655,1651,1649,1648,1646,1643,1640,1640,1640,1638,1636,1637,1639,1638,1637,1639,1642,1643,1644,1645,1647,1650,1649,1648,1650,1651,1650,1649,1650,1651,1648,1647,1645,1641,1637,1632,1625,1621,1616,1611,1603,1598,1592,1586,1580,1574,1568,1562,1557,1553,1550,1547,1543,1542,1542,1542,1543,1544,1545,1547,1545,1544,1541,1539,1534,1528,1522,1517,1510,1503,1495,1489,1483,1477,1472,1468,1465,1462,1457,1456,1453,1449,1444,1442,1443,1447,1454,1464,1479,1500,1525,1556,1597,1644,1695,1753,1819,1889,1963,2038,2117,2200,2284,2367,2449,2532,2612,2687,2759,2824,2889,2969,3027,3067,3099,3125,3145,3158,3167,3170,3167,3163,3152,3138,3118,3094,3068,3036,3003,2966,2929,2891,2852,2813,2776,2741,2708,2675,2648,2623,2599,2577,2558,2541,2525,2508,2491,2476,2460,2442,2424,2409,2393,2376,2358,2343,2329,2315,2300,2288,2275,2263,2250,2239,2229,2220,2211,2203,2197,2192,2187,2183,2180,2179,2178,2177,2178,2180,2183,2186,2188,2192,2195,2195,2194,2191,2188,2184,2177,2169,2163,2153,2141,2127,2112,2097,2077,2060,2042,2025,2007,1988,1969,1949,1931,1910,1891,1874,1858,1841,1827,1813,1801,1788,1773,1759,1746,1733,1718,1706,1694,1683,1670,1659,1650,1641,1632,1622,1614,1608,1599,1590,1581,1574,1565,1558,1552,1550,1547,1545,1546,1550,1555,1560,1566,1573,1581,1587,1593,1599,1603,1604,1604,1602,1602,1602,1601,1599,1599,1598,1597,1596,1596,1597,1596,1595,1593,1592,1589,1585,1583,1581,1579,1576,1575,1576,1576,1574,1571,1571,1569,1567,1564,1561,1561,1559,1554,1549,1545,1538,1529,1522,1517,1510,1503,1497,1494,1491,1490,1489,1489,1491,1492,1493,1495,1498,1500,1502,1503,1505,1505,1503,1501,1498,1494,1489,1483,1477,1472,1467,1461,1457,1456,1455,1454,1455,1457,1465,1472,1482,1498,1519,1543,1574,1613,1661,1713,1771,1837,1910,1988,2069,2153,2240,2330,2418,2504,2590,2674,2753,2829,2901,2970,3032,3114,3172,3212,3244,3266,3283,3293,3297,3294,3285,3272,3253,3230,3204,3175,3145,3111,3075,3038,3002,2964,2926,2891,2858,2825,2795,2766,2740,2716,2694,2674,2658,2642,2627,2612,2599,2586,2572,2557,2543,2529,2516,2501,2487,2474,2460,2443,2427,2412,2397,2382,2365,2353,2341,2331,2319,2310,2303,2295,2288,2282,2280,2279,2276,2273,2270,2270,2267,2265,2263,2262,2262,2259,2255,2252,2248,2242,2234,2225,2216,2204,2191,2175,2161,2145,2127,2109,2092,2073,2052,2032,2011,1991,1970,1949,1929,1911,1892,1873,1855,1839,1824,1810,1799,1791,1781,1772,1765,1760,1754,1747,1740,1735,1730,1723,1714,1706,1701,1693,1686,1678,1674,1670,1665,1660,1656,1650,1643,1636,1632,1630,1627,1625,1625,1628,1629,1631,1634,1639,1643,1645,1647,1650,1653,1654,1653,1653,1652,1648,1641,1635,1629,1623,1617,1612,1607,1604,1600,1598,1596,1597,1596,1594,1595,1596,1596,1595,1595,1596,1599,1599,1597,1596,1596,1594,1590,1588,1586,1581,1575,1570,1564,1558,1553,1547,1546,1544,1541,1540,1539,1540,1539,1538,1540,1543,1544,1544,1543,1541,1536,1530,1525,1520,1515,1512,1508,1508,1507,1507,1508,1510,1512,1512,1511,1512,1513,1512,1509,1507,1507,1505,1503,1502,1504,1508,1513,1521,1535,1555,1579,1610,1649,1696,1750,1809,1876,1949,2025,2104,2186,2270,2355,2440,2524,2606,2689,2766,2836,2903,2963,3039,3090,3124,3153,3175,3188,3197,3201,3198,3189,3173,3154,3130,3101,3071,3040,3007,2973,2937,2903,2870,2835,2803,2771,2743,2714,2686,2661,2638,2616,2597,2579,2566,2553,2542,2531,2523,2514,2506,2496,2485,2474,2460,2444,2427,2412,2397,2380,2363,2349,2334,2319,2304,2289,2278,2267,2255,2247,2241,2236,2230,2228,2228,2228,2229,2230,2232,2234,2234,2234,2235,2235,2234,2233,2230,2230,2228,2224,2219,2214,2206,2197,2185,2171,2156,2138,2121,2104,2088,2072,2053,2036,2021,2004,1986,1966,1949,1931,1912,1893,1876,1861,1845,1828,1814,1802,1790,1776,1763,1751,1738,1725,1712,1702,1692,1684,1676,1671,1667,1664,1660,1657,1658,1657,1655,1652,1652,1650,1649,1648,1649,1650,1650,1649,1649,1650,1650,1649,1648,1650,1652,1652,1654,1655,1658,1659,1659,1659,1658,1657,1654,1653,1653,1651,1647,1644,1641,1638,1634,1630,1626,1624,1621,1619,1619,1620,1621,1619,1617,1617,1615,1610,1604,1599,1595,1590,1584,1579,1574,1570,1567,1562,1561,1557,1556,1555,1555,1556,1554,1552,1552,1550,1548,1545,1544,1544,1544,1542,1543,1543,1543,1540,1538,1536,1534,1529,1526,1525,1524,1521,1516,1514,1510,1506,1502,1498,1496,1494,1491,1488,1487,1484,1481,1478,1476,1477,1476,1478,1482,1487,1494,1504,1516,1533,1555,1582,1616,1657,1705,1756,1813,1875,1944,2013,2087,2167,2250,2335,2422,2510,2597,2682,2760,2836,2906,2972,3030,3106,3159,3191,3215,3233,3242,3244,3239,3228,3214,3194,3170,3140,3109,3076,3040,3002,2965,2928,2890,2851,2815,2780,2748,2717,2688,2662,2638,2614,2591,2572,2556,2539,2524,2510,2497,2484,2469,2455,2442,2430,2415,2401,2388,2375,2363,2349,2337,2327,2316,2305,2297,2290,2285,2280,2276,2274,2270,2268,2266,2266,2266,2268,2270,2274,2279,2283,2286,2288,2289,2289,2288,2286,2283,2280,2273,2265,2257,2249,2238,2224,2213,2200,2187,2169,2151,2132,2112,2090,2067,2046,2027,2006,1986,1966,1949,1930,1911,1894,1878,1864,1848,1833,1820,1807,1795,1783,1773,1762,1752,1740,1730,1721,1712,1702,1696,1691,1686,1680,1676,1675,1674,1672,1671,1672,1673,1674,1674,1673,1676,1677,1676,1676,1677,1678,1678,1679,1682,1685,1687,1692,1695,1700,1701,1705,1710,1715,1719,1721,1724,1727,1727,1727,1726,1725,1725,1723,1721,1718,1716,1714,1708,1705,1700,1695,1687,1679,1673,1668,1661,1657,1653,1651,1649,1648,1648,1649,1649,1647,1645,1644,1641,1637,1633,1632,1628,1624,1617,1611,1603,1594,1584,1576,1568,1561,1554,1547,1540,1536,1531,1526,1525,1526,1529,1536,1546,1562,1582,1605,1637,1675,1719,1767,1823,1888,1957,2031,2109,2191,2276,2359,2441,2523,2604,2681,2754,2823,2888,2946,2999,3067,3115,3147,3171,3189,3203,3208,3207,3202,3194,3181,3163,3142,3119,3094,3065,3025,2995,2962,2927,2891,2857,2824,2790,2756,2722,2693,2662,2632,2604,2578,2554,2530,2508,2489,2472,2454,2439,2425,2412,2400,2386,2372,2362,2350,2337,2323,2310,2299,2287,2276,2270,2265,2260,2256,2253,2255,2256,2257,2259,2260,2262,2261,2260,2260,2260,2260,2260,2259,2259,2257,2254,2250,2246,2240,2234,2228,2222,2217,2210,2202,2194,2183,2168,2152,2134,2118,2099,2080,2062,2046,2028,2008,1989,1969,1950,1929,1910,1892,1875,1858,1839,1823,1809,1795,1781,1768,1758,1747,1735,1724,1718,1710,1703,1697,1693,1689,1684,1680,1678,1678,1675,1673,1669,1668,1665,1662,1659,1659,1659,1661,1662,1665,1670,1673,1677,1682,1688,1695,1699,1704,1709,1714,1716,1716,1718,1721,1720,1719,1719,1720,1720,1717,1715,1713,1711,1708,1703,1701,1697,1692,1687,1683,1679,1673,1666,1660,1655,1650,1644,1640,1638,1637,1634,1633,1632,1631,1627,1622,1620,1618,1615,1613,1613,1613,1612,1610,1609,1608,1606,1603,1598,1596,1593,1588,1583,1579,1575,1569,1563,1557,1553,1550,1547,1547,1553,1563,1575,1596,1624,1658,1699,1747,1802,1865,1933,2007,2083,2168,2253,2341,2431,2524,2615,2704,2790,2872,2949,3020,3085,3170,3231,3270,3303,3329,3350,3362,3367,3368,3363,3352,3337,3316,3293,3265,3234,3201,3167,3131,3093,3055,3020,2980,2948,2920,2895,2872,2851,2831,2815,2800,2786,2770,2756,2744,2729,2714,2699,2685,2669,2651,2632,2609,2587,2565,2541,2519,2496,2474,2452,2432,2415,2399,2383,2371,2361,2353,2346,2340,2339,2339,2339,2339,2341,2344,2345,2346,2349,2351,2351,2349,2348,2346,2344,2339,2333,2327,2319,2309,2295,2283,2267,2250,2230,2211,2194,2175,2154,2135,2118,2100,2081,2062,2044,2025,2005,1986,1967,1950,1933,1914,1896,1880,1862,1844,1826,1811,1796,1781,1768,1757,1748,1738,1728,1722,1717,1712,1708,1704,1701,1699,1696,1694,1695,1695,1692,1691,1692,1694,1694,1693,1696,1701,1703,1706,1708,1710,1709,1708,1704,1701,1699,1695,1691,1689,1688,1686,1685,1684,1685,1684,1681,1679,1678,1677,1673,1669,1665,1662,1658,1655,1652,1652,1650,1648,1648,1649,1650,1649,1648,1649,1649,1646,1643,1640,1636,1629,1621,1613,1606,1597,1587,1580,1575,1572,1567,1565,1564,1562,1560,1558,1557,1556,1554,1554,1554,1558,1561,1563,1566,1570,1574,1577,1577,1580,1580,1576,1574,1571,1568,1565,1562,1562,1565,1572,1582,1596,1617,1638,1665,1698,1736,1782,1831,1887,1947,2012,2081,2153,2231,2313,2397,2482,2569,2657,2743,2826,2905,2981,3052,3117,3176,3255,3309,3343,3369,3390,3401,3405,3399,3389,3374,3353,3327,3298,3268,3232,3195,3159,3122,3084,3045,3008,2973,2938,2904,2870,2841,2814,2787,2761,2738,2717,2699,2681,2666,2653,2641,2624,2614,2605,2596,2585,2572,2559,2543,2526,2509,2494,2479,2462,2446,2430,2415,2401,2387,2373,2362,2350,2341,2334,2332,2329,2329,2332,2338,2344,2348,2353,2356,2359,2360,2357,2356,2355,2352,2348,2341,2334,2325,2313,2298,2285,2269,2254,2236,2219,2202,2184,2163,2142,2123,2101,2079,2056,2036,2016,1995,1977,1960,1943,1925,1906,1888,1871,1854,1837,1821,1808,1794,1781,1769,1760,1751,1741,1731,1723,1717,1710,1702,1697,1694,1690,1686,1684,1684,1684,1682,1683,1683,1683,1683,1682,1683,1685,1686,1685,1684,1685,1685,1683,1681,1681,1680,1679,1680,1682,1685,1690,1693,1698,1703,1707,1710,1710,1711,1710,1708,1706,1702,1698,1691,1682,1676,1669,1663,1656,1650,1647,1643,1639,1637,1637,1636,1635,1634,1633,1630,1626,1621,1617,1613,1607,1600,1594,1589,1584,1577,1571,1567,1563,1558,1554,1552,1550,1547,1543,1543,1543,1543,1542,1541,1542,1544,1544,1544,1547,1548,1546,1544,1543,1541,1539,1536,1534,1532,1530,1527,1524,1522,1522,1522,1524,1530,1540,1552,1571,1595,1626,1664,1708,1761,1821,1889,1961,2043,2131,2223,2320,2417,2518,2619,2715,2808,2898,2982,3060,3130,3194,3251,3329,3370,3395,3414,3426,3432,3434,3431,3421,3404,3385,3362,3333,3300,3265,3229,3190,3150,3110,3073,3036,3000,2966,2935,2907,2877,2849,2824,2801,2780,2759,2740,2724,2707,2691,2674,2658,2643,2625,2608,2592,2576,2561,2543,2522,2506,2490,2473,2461,2449,2437,2424,2413,2404,2395,2385,2377,2369,2363,2356,2349,2344,2340,2335,2330,2327,2325,2322,2317,2315,2314,2311,2306,2298,2292,2284,2274,2263,2253,2242,2230,2215,2202,2187,2173,2156,2139,2121,2104,2085,2065,2044,2026,2005,1985,1966,1948,1929,1909,1891,1874,1857,1838,1820,1803,1787,1771,1755,1741,1729,1717,1703,1694,1685,1676,1667,1659,1652,1647,1640,1636,1634,1633,1631,1629,1629,1631,1632,1635,1636,1640,1644,1647,1652,1658,1664,1668,1672,1677,1681,1683,1684,1685,1688,1686,1684,1681,1677,1674,1666,1659,1654,1646,1638,1631,1626,1622,1618,1614,1612,1613,1613,1612,1612,1614,1615,1615,1613,1611,1609,1604,1600,1597,1593,1587,1581,1575,1570,1563,1557,1552,1549,1546,1541,1537,1535,1531,1527,1523,1521,1519,1517,1514,1513,1514,1514,1515,1514,1518,1519,1520,1520,1521,1521,1519,1515,1513,1514,1510,1508,1503,1501,1501,1500,1502,1508,1518,1530,1547,1572,1604,1641,1686,1739,1803,1870,1945,2028,2114,2205,2298,2392,2488,2584,2676,2764,2850,2930,3004,3070,3130,3208,3258,3290,3316,3335,3346,3350,3349,3342,3328,3308,3284,3255,3222,3185,3145,3106,3065,3023,2981,2942,2905,2869,2833,2801,2772,2741,2712,2685,2661,2638,2615,2594,2575,2556,2536,2518,2498,2481,2460,2438,2418,2398,2379,2359,2341,2324,2309,2292,2280,2269,2260,2251,2244,2240,2238,2236,2236,2238,2242,2246,2249,2255,2260,2267,2269,2273,2276,2278,2279,2277,2276,2273,2268,2263,2257,2251,2242,2231,2221,2214,2203,2190,2178,2166,2152,2137,2119,2104,2088,2070,2051,2032,2012,1992,1970,1950,1931,1911,1890,1870,1851,1833,1813,1795,1779,1763,1747,1731,1718,1707,1696,1687,1680,1676,1673,1669,1665,1663,1662,1660,1660,1661,1664,1666,1668,1672,1675,1677,1678,1678,1679,1679,1678,1675,1677,1676,1674,1670,1668,1666,1663,1660,1658,1658,1657,1655,1654,1655,1654,1654,1654,1654,1656,1655,1656,1657,1659,1660,1660,1660,1661,1660,1658,1656,1653,1652,1649,1646,1641,1637,1632,1627,1624,1622,1620,1617,1615,1614,1611,1610,1606,1604,1600,1597,1590,1585,1579,1572,1563,1554,1544,1536,1525,1516,1508,1501,1495,1492,1494,1500,1508,1522,1540,1567,1598,1633,1676,1728,1784,1845,1915,1991,2072,2157,2245,2338,2432,2525,2615,2704,2788,2864,2937,3003,3065,3140,3193,3227,3256,3277,3289,3296,3297,3291,3278,3260,3239,3213,3182,3148,3111,3074,3034,2994,2954,2913,2873,2831,2790,2750,2711,2671,2636,2605,2574,2542,2511,2481,2451,2421,2391,2365,2340,2316,2293,2272,2253,2235,2218,2204,2194,2185,2176,2169,2164,2159,2155,2150,2146,2145,2145,2145,2149,2155,2162,2170,2177,2188,2200,2209,2218,2228,2236,2240,2243,2246,2247,2246,2242,2238,2234,2227,2217,2208,2197,2185,2172,2156,2141,2126,2110,2091,2075,2058,2041,2023,2007,1991,1975,1957,1938,1921,1903,1885,1866,1846,1827,1805,1782,1759,1737,1716,1696,1679,1664,1651,1641,1629,1622,1617,1612,1606,1603,1601,1598,1594,1591,1589,1587,1588,1586,1590,1592,1593,1595,1598,1602,1603,1603,1605,1608,1610,1610,1612,1614,1617,1617,1616,1616,1616,1613,1610,1609,1607,1605,1601,1599,1599,1597,1596,1595,1597,1599,1600,1602,1606,1609,1611,1612,1613,1612,1611,1607,1604,1600,1596,1590,1587,1584,1580,1576,1571,1570,1567,1563,1561,1559,1558,1556,1554,1552,1552,1551,1546,1541,1535,1529,1522,1516,1514,1516,1519,1528,1544,1567,1594,1629,1672,1724,1784,1848,1920,2000,2085,2173,2263,2355,2448,2540,2629,2717,2804,2885,2961,3031,3099,3182,3237,3273,3300,3318,3327,3329,3324,3312,3292,3269,3242,3211,3176,3141,3104,3068,3029,2992,2955,2918,2882,2845,2810,2779,2747,2717,2687,2662,2636,2610,2588,2569,2550,2531,2514,2499,2485,2471,2453,2437,2419,2400,2380,2359,2341,2324,2308,2292,2278,2266,2253,2241,2232,2225,2218,2212,2209,2210,2211,2211,2212,2216,2220,2223,2227,2229,2234,2233,2231,2227,2223,2216,2207,2197,2188,2178,2167,2156,2144,2134,2122,2110,2101,2091,2077,2064,2050,2036,2019,2001,1981,1963,1944,1924,1903,1883,1864,1842,1821,1802,1782,1764,1745,1728,1714,1701,1687,1674,1662,1650,1637,1624,1612,1602,1591,1582,1575,1569,1564,1560,1557,1556,1556,1555,1554,1554,1554,1552,1551,1551,1553,1554,1553,1556,1558,1561,1562,1564,1568,1570,1570,1570,1569,1569,1568,1566,1566,1567,1565,1562,1559,1557,1556,1552,1549,1548,1546,1544,1543,1545,1546,1546,1544,1544,1544,1541,1537,1532,1529,1523,1515,1508,1501,1495,1487,1480,1475,1470,1465,1459,1457,1454,1450,1445,1442,1440,1440,1437,1436,1437,1438,1438,1438,1442,1445,1446,1448,1450,1451,1452,1451,1449,1447,1444,1439,1434,1432,1429,1426,1423,1423,1426,1432,1441,1456,1477,1503,1534,1573,1618,1670,1726,1787,1854,1927,2004,2086,2172,2261,2352,2441,2530,2618,2701,2780,2854,2923,2985,3063,3113,3145,3168,3182,3190,3194,3191,3182,3168,3150,3127,3100,3070,3038,3006,2971,2935,2902,2870,2837,2806,2776,2748,2721,2694,2670,2647,2625,2605,2583,2564,2548,2531,2514,2500,2486,2473,2459,2444,2432,2418,2402,2385,2369,2354,2337,2321,2307,2293,2278,2263,2250,2236,2224,2211,2200,2193,2187,2181,2176,2173,2170,2166,2160,2155,2151,2147,2139,2132,2125,2118,2109,2100,2094,2088,2082,2076,2069,2064,2055,2045,2036,2025,2011,1994,1974,1956,1937,1916,1895,1875,1853,1831,1809,1788,1769,1749,1731,1715,1705,1694,1684,1676,1670,1664,1656,1648,1641,1635,1628,1621,1616,1610,1605,1597,1591,1584,1577,1570,1564,1559,1555,1550,1546,1546,1544,1541,1537,1536,1535,1534,1532,1529,1529,1529,1528,1529,1529,1531,1531,1533,1537,1542,1547,1552,1556,1561,1563,1563,1562,1563,1562,1559,1557,1557,1554,1550,1546,1544,1542,1539,1535,1533,1531,1528,1522,1517,1514,1508,1502,1494,1489,1484,1478,1472,1469,1465,1460,1454,1450,1447,1445,1441,1438,1438,1437,1435,1434,1434,1434,1434,1433,1435,1438,1439,1438,1439,1440,1438,1435,1430,1426,1419,1412,1405,1401,1398,1395,1394,1396,1400,1404,1410,1419,1435,1454,1476,1507,1543,1586,1633,1687,1746,1811,1877,1948,2023,2103,2182,2262,2343,2425,2503,2578,2647,2712,2772,2823,2887,2929,2955,2975,2990,3003,3009,3010,3006,3000,2990,2977,2958,2939,2917,2891,2862,2832,2803,2772,2739,2706,2674,2642,2609,2577,2549,2521,2493,2469,2446,2425,2407,2389,2372,2359,2347,2333,2323,2314,2305,2293,2281,2271,2260,2246,2231,2218,2207,2195,2182,2171,2161,2152,2143,2135,2128,2123,2119,2117,2117,2119,2120,2121,2124,2128,2132,2134,2139,2146,2152,2154,2157,2159,2159,2154,2148,2141,2133,2124,2113,2103,2092,2079,2064,2047,2029,2010,1988,1966,1946,1924,1901,1878,1858,1839,1822,1805,1791,1779,1767,1755,1742,1730,1719,1707,1692,1680,1668,1657,1645,1635,1628,1621,1615,1609,1604,1602,1596,1591,1589,1589,1587,1586,1588,1591,1592,1594,1596,1599,1602,1602,1604,1608,1611,1613,1616,1622,1627,1630,1633,1634,1637,1636,1635,1635,1638,1638,1636,1635,1634,1634,1632,1629,1627,1624,1619,1613,1609,1606,1601,1595,1592,1591,1587,1584,1581,1579,1577,1574,1573,1574,1575,1576,1576,1576,1576,1576,1574,1575,1576,1578,1576,1575,1573,1570,1565,1558,1553,1547,1541,1534,1530,1527,1524,1518,1515,1513,1513,1512,1514,1519,1525,1534,1545,1563,1587,1614,1646,1685,1727,1772,1823,1879,1941,2007,2076,2145,2218,2291,2362,2433,2502,2570,2634,2694,2750,2803,2872,2918,2949,2974,2992,3003,3008,3008,3001,2988,2971,2951,2926,2899,2870,2841,2812,2782,2752,2724,2694,2665,2636,2608,2582,2558,2533,2510,2487,2466,2445,2426,2409,2393,2376,2357,2341,2325,2309,2292,2277,2263,2249,2235,2221,2210,2200,2191,2182,2175,2169,2163,2157,2154,2150,2148,2145,2145,2146,2148,2147,2149,2150,2151,2151,2151,2152,2152,2151,2150,2151,2154,2153,2152,2150,2148,2143,2136,2127,2120,2111,2098,2083,2068,2052,2034,2018,2003,1991,1977,1962,1949,1935,1920,1904,1887,1871,1857,1839,1821,1807,1791,1775,1760,1747,1734,1723,1711,1702,1694,1686,1678,1671,1666,1663,1659,1654,1651,1647,1642,1636,1631,1626,1620,1613,1607,1602,1599,1595,1593,1591,1591,1591,1590,1591,1593,1596,1597,1600,1603,1606,1608,1611,1617,1623,1629,1634,1641,1650,1658,1662,1668,1673,1676,1675,1674,1675,1673,1669,1668,1668,1668,1667,1665,1666,1667,1666,1664,1664,1665,1664,1663,1663,1664,1665,1663,1661,1660,1657,1652,1646,1642,1638,1632,1626,1620,1613,1605,1597,1590,1584,1580,1574,1570,1568,1566,1563,1559,1556,1554,1553,1549,1547,1547,1545,1542,1538,1536,1533,1527,1521,1519,1519,1519,1523,1530,1544,1562,1584,1613,1650,1691,1737,1791,1851,1916,1984,2057,2137,2219,2305,2391,2476,2560,2643,2722,2797,2870,2938,3000,3084,3145,3184,3216,3243,3264,3277,3282,3280,3272,3258,3237,3212,3185,3154,3119,3084,3050,3017,2985,2951,2922,2894,2867,2840,2814,2790,2767,2743,2719,2696,2675,2654,2633,2615,2597,2579,2560,2542,2525,2507,2488,2471,2454,2439,2422,2406,2392,2380,2368,2358,2350,2345,2340,2336,2334,2334,2335,2335,2335,2335,2335,2333,2329,2328,2327,2325,2324,2325,2327,2328,2327,2327,2327,2325,2318,2311,2302,2290,2276,2260,2245,2229,2211,2191,2172,2152,2131,2109,2087,2067,2045,2024,2003,1986,1968,1949,1931,1913,1895,1875,1855,1837,1822,1805,1787,1773,1760,1748,1737,1724,1715,1707,1697,1690,1687,1685,1684,1683,1684,1685,1688,1689,1691,1694,1697,1700,1702,1707,1713,1716,1717,1720,1722,1721,1719,1717,1717,1717,1715,1714,1715,1716,1717,1716,1719,1722,1723,1723,1722,1720,1718,1712,1707,1702,1696,1687,1678,1671,1663,1656,1649,1645,1641,1637,1632,1629,1629,1626,1624,1622,1621,1620,1617,1614,1612,1609,1604,1600,1596,1594,1590,1587,1586,1588,1590,1592,1596,1601,1605,1608,1611,1614,1617,1618,1616,1614,1613,1608,1601,1593,1584,1575,1564,1553,1545,1536,1527,1520,1516,1516,1517,1522,1532,1549,1569,1593,1625,1662,1707,1754,1810,1873,1942,2015,2092,2174,2259,2345,2432,2521,2610,2698,2782,2863,2941,3013,3079,3168,3233,3276,3312,3341,3365,3383,3394,3399,3400,3395,3384,3366,3346,3321,3290,3255,3219,3182,3144,3104,3066,3028,2992,2954,2919,2885,2853,2821,2789,2760,2733,2707,2681,2659,2638,2618,2597,2579,2562,2543,2525,2508,2491,2474,2458,2439,2423,2407,2390,2375,2363,2354,2347,2342,2341,2342,2344,2346,2351,2358,2364,2370,2375,2380,2385,2388,2387,2386,2383,2378,2371,2363,2357,2349,2339,2328,2319,2310,2299,2286,2274,2264,2250,2237,2223,2209,2192,2174,2155,2136,2114,2089,2066,2042,2020,1996,1971,1949,1928,1908,1888,1870,1854,1840,1827,1815,1805,1797,1788,1778,1770,1761,1751,1739,1726,1715,1702,1689,1678,1669,1661,1653,1649,1647,1647,1648,1650,1654,1659,1663,1664,1665,1665,1665,1663,1662,1662,1663,1662,1663,1666,1669,1674,1678,1685,1693,1700,1706,1711,1716,1718,1719,1720,1721,1721,1720,1718,1719,1720,1719,1716,1715,1712,1710,1705,1700,1697,1694,1687,1681,1675,1669,1664,1658,1652,1647,1641,1633,1626,1620,1613,1606,1600,1596,1592,1587,1585,1582,1579,1576,1572,1570,1572,1571,1570,1570,1570,1570,1569,1569,1571,1572,1572,1571,1572,1573,1574,1573,1572,1571,1569,1565,1561,1561,1557,1553,1550,1547,1544,1542,1539,1542,1549,1558,1574,1596,1624,1660,1701,1750,1806,1871,1940,2016,2099,2187,2278,2370,2466,2562,2656,2748,2839,2926,3009,3085,3158,3226,3314,3373,3413,3445,3469,3484,3490,3491,3484,3469,3449,3426,3399,3367,3334,3301,3267,3232,3193,3157,3121,3085,3048,3012,2977,2942,2906,2872,2840,2809,2778,2751,2727,2706,2685,2665,2648,2633,2616,2599,2582,2567,2551,2534,2519,2505,2492,2478,2466,2455,2446,2436,2425,2416,2410,2402,2396,2390,2389,2389,2388,2387,2390,2393,2392,2391,2391,2392,2392,2389,2387,2385,2382,2379,2374,2372,2370,2364,2356,2347,2338,2324,2309,2293,2277,2256,2235,2212,2188,2164,2138,2114,2091,2069,2046,2025,2006,1987,1968,1950,1935,1919,1902,1884,1865,1845,1827,1804,1786,1769,1753,1738,1724,1714,1705,1696,1689,1686,1684,1684,1681,1681,1683,1684,1683,1684,1685,1687,1686,1684,1686,1687,1687,1687,1686,1689,1690,1690,1691,1694,1696,1696,1698,1699,1702,1702,1703,1707,1712,1715,1718,1722,1727,1728,1727,1725,1722,1719,1713,1707,1701,1695,1688,1678,1670,1661,1652,1642,1633,1626,1619,1612,1607,1601,1598,1593,1589,1588,1588,1589,1588,1589,1590,1592,1591,1593,1593,1594,1591,1588,1586,1582,1576,1569,1564,1559,1553,1547,1542,1541,1539,1536,1536,1537,1537,1538,1538,1542,1544,1544,1546,1549,1553,1555,1556,1558,1560,1561,1559,1558,1559,1560,1560,1561,1567,1575,1589,1606,1631,1663,1703,1750,1808,1875,1948,2026,2112,2201,2294,2389,2485,2582,2678,2770,2859,2946,3029,3106,3176,3240,3325,3379,3412,3438,3458,3468,3470,3467,3458,3442,3420,3395,3366,3333,3298,3259,3219,3178,3137,3095,3053,3013,2973,2933,2897,2864,2834,2802,2774,2747,2720,2692,2665,2641,2615,2590,2567,2545,2524,2501,2479,2457,2435,2416,2396,2380,2367,2355,2345,2337,2333,2330,2327,2326,2327,2331,2335,2339,2345,2352,2358,2364,2372,2380,2388,2395,2400,2404,2408,2409,2406,2404,2400,2394,2386,2377,2368,2358,2346,2334,2319,2304,2288,2269,2251,2232,2212,2189,2167,2147,2124,2102,2080,2059,2040,2018,1997,1980,1962,1943,1924,1907,1893,1878,1863,1849,1837,1824,1809,1795,1784,1774,1763,1754,1745,1738,1729,1721,1715,1708,1701,1695,1691,1688,1686,1684,1684,1686,1688,1689,1691,1693,1695,1695,1696,1696,1699,1700,1701,1702,1704,1705,1705,1704,1707,1710,1711,1712,1716,1719,1721,1723,1726,1730,1732,1733,1733,1736,1736,1735,1735,1734,1732,1729,1724,1718,1711,1703,1694,1686,1679,1673,1665,1659,1653,1648,1641,1635,1632,1628,1626,1624,1622,1621,1619,1616,1613,1613,1613,