2077,2072,2068,2064,2060,2056,2050,2048,2042,2039,2035,2030,2027,2021,2016,2009,2002,1992,1984,1973,1960,1947,1933,1918,1903,1887,1873,1858,1845,1832,1822,1814,1806,1800,1794,1788,1784,1779,1775,1770,1767,1765,1765,1764,1764,1765,1765,1764,1762,1758,1751,1744,1736,1727,1718,1709,1701,1694,1688,1683,1680,1675,1670,1667,1661,1657,1653,1650,1644,1639,1634,1630,1627,1625,1624,1624,1623,1622,1622,1620,1619,1617,1615,1614,1613,1613,1615,1619,1627,1638,1653,1673,1698,1729,1766,1808,1853,1905,1959,2016,2076,2139,2201,2266,2328,2390,2450,2507,2561,2610,2655,2695,2746,2779,2800,2816,2826,2832,2833,2831,2824,2814,2801,2787,2772,2755,2738,2721,2701,2683,2666,2650,2632,2616,2600,2587,2576,2566,2559,2553,2549,2543,2539,2533,2526,2519,2509,2499,2488,2475,2462,2447,2432,2416,2399,2381,2364,2349,2333,2319,2305,2293,2281,2273,2264,2256,2249,2243,2236,2232,2228,2225,2222,2218,2215,2210,2204,2195,2183,2171,2158,2143,2129,2114,2099,2086,2072,2057,2046,2034,2022,2010,1998,1986,1974,1961,1949,1937,1926,1915,1906,1895,1885,1875,1867,1857,1849,1842,1835,1827,1821,1814,1807,1801,1793,1787,1779,1772,1763,1754,1745,1737,1729,1721,1715,1711,1709,1707,1705,1703,1701,1698,1696,1691,1687,1683,1678,1675,1671,1669,1667,1664,1661,1660,1656,1652,1648,1643,1638,1633,1628,1624,1618,1616,1614,1614,1615,1618,1624,1631,1642,1655,1674,1699,1730,1765,1807,1852,1903,1958,2015,2074,2137,2200,2264,2326,2387,2445,2499,2548,2593,2634,2670,2714,2744,2762,2778,2789,2797,2800,2800,2796,2788,2776,2761,2743,2724,2705,2685,2665,2647,2630,2615,2601,2588,2576,2563,2553,2542,2531,2520,2509,2497,2486,2475,2464,2452,2436,2423,2408,2393,2377,2362,2347,2333,2318,2304,2288,2273,2259,2245,2233,2220,2206,2195,2183,2171,2162,2152,2142,2134,2123,2113,2105,2098,2092,2087,2083,2077,2073,2067,2061,2054,2047,2039,2031,2023,2016,2010,2002,1994,1985,1977,1968,1959,1950,1938,1928,1916,1903,1889,1876,1862,1848,1832,1819,1805,1792,1780,1770,1760,1748,1739,1729,1719,1709,1701,1695,1690,1685,1682,1679,1676,1674,1673,1670,1668,1663,1659,1654,1649,1643,1637,1629,1622,1615,1610,1605,1601,1596,1592,1586,1580,1575,1569,1560,1553,1543,1535,1528,1520,1514,1508,1503,1500,1498,1497,1496,1494,1494,1490,1489,1485,1484,1483,1484,1487,1494,1506,1524,1548,1578,1615,1657,1704,1755,1810,1866,1926,1984,2046,2105,2165,2225,2284,2342,2398,2447,2496,2538,2594,2631,2655,2674,2688,2697,2701,2701,2697,2688,2678,2665,2651,2636,2619,2603,2588,2572,2558,2542,2529,2516,2504,2492,2482,2473,2464,2455,2445,2436,2427,2418,2408,2398,2387,2375,2363,2351,2338,2325,2313,2303,2292,2283,2276,2269,2263,2256,2251,2245,2238,2233,2226,2218,2211,2201,2191,2182,2173,2164,2155,2146,2136,2128,2119,2111,2103,2094,2085,2075,2066,2058,2050,2041,2035,2025,2016,2006,1995,1985,1974,1961,1949,1936,1925,1913,1902,1891,1882,1872,1862,1854,1845,1837,1829,1822,1816,1812,1807,1801,1795,1790,1784,1776,1768,1761,1753,1744,1737,1730,1721,1715,1708,1701,1696,1691,1687,1685,1684,1683,1682,1682,1681,1681,1679,1677,1676,1673,1669,1664,1659,1652,1646,1640,1634,1630,1625,1621,1617,1616,1615,1613,1609,1606,1603,1598,1593,1588,1582,1579,1574,1569,1566,1563,1559,1557,1554,1553,1553,1556,1563,1572,1587,1604,1627,1652,1683,1717,1757,1801,1849,1901,1956,2013,2072,2132,2194,2255,2316,2375,2433,2486,2537,2581,2623,2673,2706,2725,2741,2752,2759,2761,2761,2756,2749,2739,2724,2710,2693,2677,2659,2641,2622,2604,2586,2567,2551,2537,2524,2512,2501,2490,2480,2470,2459,2450,2439,2428,2417,2407,2396,2385,2374,2362,2350,2336,2324,2309,2296,2282,2267,2253,2239,2226,2214,2203,2191,2182,2172,2163,2154,2146,2139,2133,2125,2120,2114,2108,2101,2093,2088,2082,2076,2069,2063,2055,2048,2039,2028,2018,2005,1992,1980,1967,1955,1943,1931,1920,1910,1901,1893,1886,1880,1874,1866,1860,1854,1847,1840,1833,1825,1816,1808,1800,1793,1787,1779,1772,1765,1756,1749,1741,1733,1724,1715,1706,1697,1689,1679,1671,1663,1657,1650,1647,1644,1642,1641,1639,1638,1637,1635,1633,1630,1627,1622,1619,1616,1614,1613,1611,1610,1608,1607,1606,1605,1602,1599,1596,1591,1588,1582,1578,1573,1567,1560,1557,1551,1547,1543,1541,1540,1539,1539,1541,1543,1548,1554,1563,1575,1591,1611,1636,1663,1696,1734,1775,1821,1869,1920,1975,2032,2091,2149,2208,2267,2323,2378,2430,2479,2524,2564,2616,2651,2674,2691,2703,2710,2715,2714,2709,2702,2692,2680,2666,2650,2634,2617,2599,2581,2565,2549,2534,2520,2506,2493,2482,2469,2460,2449,2440,2432,2425,2419,2411,2404,2398,2389,2380,2370,2360,2348,2335,2322,2309,2296,2281,2268,2253,2241,2227,2216,2205,2195,2185,2175,2167,2159,2151,2145,2138,2133,2128,2125,2121,2118,2116,2114,2114,2114,2114,2113,2112,2111,2108,2106,2101,2095,2088,2079,2069,2057,2045,2031,2014,1999,1985,1969,1955,1939,1924,1909,1893,1879,1865,1851,1840,1829,1818,1809,1801,1792,1785,1777,1770,1764,1758,1754,1749,1744,1742,1738,1735,1733,1729,1726,1721,1717,1712,1707,1702,1699,1696,1692,1688,1686,1682,1678,1674,1670,1665,1661,1656,1652,1645,1638,1632,1623,1616,1607,1600,1592,1586,1579,1574,1569,1564,1562,1559,1557,1556,1555,1556,1558,1561,1566,1574,1584,1598,1615,1637,1664,1695,1731,1770,1811,1858,1906,1958,2012,2070,2129,2188,2248,2306,2363,2417,2468,2515,2558,2598,2650,2685,2708,2726,2740,2751,2757,2759,2757,2750,2741,2727,2712,2693,2672,2651,2628,2606,2583,2561,2540,2521,2504,2489,2473,2461,2450,2439,2428,2418,2410,2400,2393,2385,2377,2370,2362,2353,2345,2336,2325,2314,2304,2294,2287,2280,2272,2265,2259,2252,2245,2239,2231,2225,2219,2214,2208,2204,2200,2194,2190,2186,2180,2174,2166,2159,2152,2143,2137,2129,2121,2114,2106,2097,2090,2080,2072,2062,2053,2044,2035,2027,2019,2011,2002,1994,1985,1974,1962,1950,1938,1925,1911,1899,1887,1874,1864,1856,1846,1835,1825,1816,1807,1798,1790,1782,1774,1769,1765,1761,1757,1755,1753,1751,1749,1746,1743,1740,1738,1736,1733,1730,1727,1724,1719,1716,1713,1708,1704,1702,1697,1694,1690,1686,1681,1678,1672,1666,1659,1652,1645,1638,1632,1626,1621,1616,1612,1608,1605,1602,1601,1601,1602,1604,1610,1621,1635,1655,1682,1713,1753,1797,1848,1902,1962,2026,2093,2162,2234,2306,2376,2445,2512,2574,2633,2689,2742,2789,2851,2892,2917,2936,2948,2955,2956,2951,2944,2932,2917,2901,2883,2866,2849,2832,2814,2799,2784,2770,2756,2743,2732,2723,2713,2702,2692,2682,2672,2660,2650,2640,2630,2616,2605,2590,2575,2558,2541,2522,2503,2484,2467,2449,2432,2418,2403,2391,2379,2368,2357,2347,2339,2331,2325,2318,2310,2303,2297,2290,2283,2278,2270,2263,2254,2247,2239,2231,2222,2211,2201,2190,2178,2166,2153,2139,2125,2113,2100,2089,2078,2069,2059,2050,2041,2032,2022,2014,2003,1994,1985,1976,1968,1960,1951,1944,1934,1923,1911,1899,1886,1872,1859,1845,1834,1825,1815,1808,1802,1797,1792,1788,1786,1782,1780,1778,1776,1772,1768,1763,1761,1757,1755,1752,1749,1746,1741,1736,1731,1724,1717,1710,1701,1691,1682,1673,1666,1659,1653,1647,1643,1639,1635,1633,1631,1630,1629,1628,1628,1628,1628,1630,1633,1636,1643,1652,1667,1688,1713,1746,1783,1826,1875,1930,1989,2054,2122,2193,2265,2338,2410,2480,2546,2609,2667,2723,2772,2818,2876,2916,2942,2964,2979,2989,2993,2993,2988,2979,2970,2958,2945,2930,2914,2897,2878,2859,2839,2818,2798,2778,2759,2743,2728,2715,2701,2690,2679,2667,2657,2647,2638,2628,2619,2608,2599,2588,2576,2563,2550,2536,2522,2509,2497,2484,2471,2458,2443,2430,2415,2402,2389,2375,2363,2350,2338,2327,2317,2307,2298,2290,2282,2274,2267,2260,2254,2246,2238,2230,2222,2214,2203,2194,2184,2172,2160,2148,2136,2122,2109,2096,2080,2065,2048,2033,2016,2000,1984,1969,1955,1942,1931,1919,1907,1896,1885,1875,1865,1856,1848,1840,1832,1826,1820,1814,1809,1804,1798,1792,1786,1780,1773,1764,1755,1746,1737,1728,1720,1711,1703,1696,1689,1681,1674,1667,1662,1656,1650,1644,1636,1629,1621,1615,1609,1603,1598,1593,1589,1584,1582,1577,1574,1571,1568,1564,1560,1555,1551,1549,1547,1544,1544,1544,1546,1551,1558,1567,1584,1601,1625,1653,1686,1725,1772,1821,1876,1936,2000,2068,2139,2212,2286,2359,2430,2499,2566,2629,2687,2741,2791,2853,2895,2921,2943,2958,2969,2974,2973,2968,2959,2945,2929,2912,2892,2872,2852,2834,2816,2799,2783,2768,2754,2741,2727,2714,2701,2688,2675,2664,2652,2641,2630,2618,2608,2597,2585,2572,2559,2547,2533,2519,2503,2487,2469,2452,2433,2415,2398,2382,2367,2352,2339,2329,2317,2306,2294,2281,2270,2258,2245,2233,2222,2212,2202,2193,2185,2176,2168,2158,2150,2143,2135,2127,2121,2112,2103,2093,2083,2070,2057,2044,2031,2017,2003,1989,1975,1959,1944,1929,1915,1902,1889,1879,1870,1861,1853,1847,1839,1833,1827,1822,1816,1811,1805,1800,1795,1792,1787,1783,1781,1778,1776,1775,1772,1770,1767,1762,1757,1750,1743,1736,1728,1721,1715,1707,1699,1693,1685,1678,1671,1666,1660,1654,1649,1642,1635,1628,1618,1610,1600,1592,1584,1575,1569,1562,1555,1548,1542,1536,1532,1525,1520,1516,1513,1513,1514,1517,1522,1534,1550,1573,1602,1639,1681,1729,1782,1841,1904,1973,2044,2118,2194,2271,2348,2425,2497,2565,2629,2688,2741,2787,2847,2887,2913,2933,2946,2953,2955,2952,2946,2935,2923,2907,2889,2870,2849,2826,2803,2781,2760,2739,2719,2701,2686,2673,2661,2651,2640,2631,2622,2612,2599,2586,2571,2556,2541,2526,2512,2496,2480,2465,2449,2432,2415,2399,2381,2364,2348,2332,2317,2303,2290,2277,2264,2252,2241,2230,2219,2209,2200,2191,2183,2176,2167,2161,2155,2150,2145,2141,2136,2130,2124,2117,2110,2102,2093,2084,2074,2064,2053,2043,2035,2026,2016,2006,1995,1985,1972,1961,1947,1934,1920,1905,1891,1876,1862,1848,1834,1821,1808,1794,1782,1770,1757,1746,1735,1724,1714,1705,1697,1693,1689,1688,1686,1686,1687,1687,1688,1689,1688,1688,1687,1683,1679,1675,1669,1663,1656,1650,1643,1636,1628,1620,1612,1605,1597,1592,1586,1581,1576,1572,1570,1568,1569,1570,1572,1575,1576,1578,1578,1578,1577,1575,1572,1568,1565,1564,1566,1573,1584,1601,1625,1654,1692,1736,1787,1844,1907,1974,2046,2123,2198,2276,2354,2430,2504,2575,2639,2698,2750,2798,2838,2888,2917,2935,2947,2953,2954,2949,2940,2927,2911,2890,2869,2848,2826,2803,2781,2759,2737,2716,2696,2676,2658,2640,2623,2607,2591,2575,2560,2546,2531,2516,2501,2486,2473,2458,2446,2432,2420,2406,2394,2381,2369,2356,2344,2331,2321,2307,2297,2285,2274,2263,2254,2245,2236,2227,2219,2211,2205,2196,2189,2181,2175,2168,2161,2154,2146,2138,2129,2121,2113,2103,2094,2084,2074,2064,2054,2042,2031,2021,2010,1997,1984,1969,1954,1937,1921,1904,1886,1868,1852,1837,1823,1810,1799,1788,1781,1773,1766,1760,1756,1751,1746,1741,1734,1728,1723,1717,1713,1708,1703,1700,1696,1693,1690,1685,1680,1676,1671,1666,1661,1656,1652,1647,1642,1636,1630,1623,1616,1608,1601,1593,1585,1578,1569,1563,1555,1551,1545,1543,1541,1540,1541,1543,1544,1549,1553,1562,1573,1588,1607,1632,1662,1698,1738,1784,1837,1893,1958,2024,2093,2164,2237,2312,2386,2458,2527,2592,2654,2710,2761,2804,2859,2894,2916,2932,2945,2953,2958,2957,2952,2943,2929,2913,2894,2873,2850,2827,2804,2781,2761,2739,2717,2695,2674,2653,2632,2613,2595,2579,2564,2546,2531,2517,2501,2486,2471,2456,2443,2430,2418,2406,2394,2382,2369,2354,2340,2327,2316,2302,2292,2282,2273,2263,2254,2245,2236,2226,2215,2205,2195,2186,2176,2168,2159,2152,2145,2138,2131,2123,2115,2105,2098,2089,2081,2074,2065,2056,2047,2038,2027,2016,2004,1992,1979,1965,1949,1933,1916,1900,1883,1867,1852,1838,1823,1810,1796,1784,1773,1764,1756,1752,1748,1745,1742,1740,1737,1734,1729,1723,1716,1707,1699,1691,1682,1674,1666,1659,1653,1647,1641,1636,1630,1625,1621,1617,1613,1610,1606,1603,1600,1596,1592,1587,1582,1579,1576,1572,1568,1564,1562,1562,1562,1565,1570,1577,1589,1606,1627,1655,1690,1729,1777,1831,1892,1959,2031,2107,2186,2264,2343,2421,2496,2567,2635,2697,2756,2807,2855,2920,2964,2992,3015,3031,3041,3046,3045,3040,3031,3019,3004,2986,2966,2944,2921,2897,2874,2852,2830,2811,2791,2772,2754,2736,2717,2700,2684,2667,2653,2639,2625,2612,2599,2585,2570,2554,2536,2520,2501,2484,2466,2449,2433,2417,2401,2387,2374,2361,2348,2335,2322,2310,2295,2283,2273,2263,2254,2246,2237,2229,2220,2210,2201,2192,2182,2172,2161,2152,2141,2128,2116,2102,2089,2075,2061,2047,2034,2022,2009,1998,1985,1973,1961,1950,1939,1929,1919,1908,1898,1887,1876,1866,1857,1848,1839,1829,1818,1807,1797,1785,1772,1762,1751,1742,1733,1726,1720,1713,1708,1702,1697,1694,1691,1689,1687,1685,1684,1684,1684,1684,1683,1683,1683,1680,1678,1676,1671,1667,1664,1659,1653,1646,1639,1631,1624,1615,1606,1598,1593,1586,1583,1580,1579,1579,1581,1586,1595,1607,1627,1649,1678,1712,1752,1798,1848,1904,1966,2031,2099,2171,2244,2316,2388,2459,2527,2593,2656,2714,2767,2815,2877,2917,2943,2962,2976,2984,2986,2985,2980,2972,2961,2949,2935,2920,2904,2885,2867,2848,2829,2810,2791,2770,2752,2734,2717,2700,2684,2669,2654,2639,2627,2613,2600,2587,2573,2559,2545,2528,2512,2494,2475,2455,2437,2417,2399,2383,2367,2351,2338,2323,2310,2295,2283,2269,2257,2245,2234,2221,2210,2197,2185,2173,2160,2149,2138,2126,2117,2106,2096,2086,2077,2068,2057,2046,2035,2024,2011,1999,1987,1976,1965,1953,1941,1930,1919,1907,1895,1882,1870,1857,1846,1836,1827,1819,1812,1804,1797,1789,1781,1773,1764,1755,1747,1739,1732,1727,1723,1721,1720,1718,1715,1714,1710,1708,1704,1701,1697,1692,1687,1684,1680,1676,1675,1673,1672,1672,1673,1673,1673,1671,1671,1670,1668,1665,1663,1659,1656,1652,1648,1645,1640,1636,1633,1629,1628,1627,1628,1631,1638,1649,1664,1684,1710,1740,1775,1815,1861,1911,1966,2024,2088,2154,2221,2290,2358,2427,2492,2556,2620,2678,2734,2785,2830,2889,2925,2947,2962,2971,2975,2974,2968,2958,2944,2928,2910,2892,2873,2853,2834,2814,2794,2776,2757,2738,2720,2702,2684,2669,2652,2638,2625,2614,2602,2589,2577,2566,2553,2537,2522,2508,2493,2480,2466,2452,2439,2424,2411,2396,2383,2368,2354,2340,2327,2315,2304,2294,2284,2274,2264,2255,2243,2234,2224,2214,2205,2196,2185,2175,2163,2151,2139,2127,2115,2103,2093,2086,2078,2071,2065,2058,2050,2042,2034,2024,2014,2002,1990,1976,1961,1946,1931,1915,1900,1885,1870,1855,1842,1827,1814,1800,1787,1775,1764,1753,1740,1732,1723,1715,1708,1701,1695,1688,1683,1678,1673,1670,1667,1664,1663,1661,1660,1660,1660,1659,1658,1658,1655,1653,1648,1643,1637,1630,1622,1612,1603,1591,1580,1569,1559,1550,1542,1536,1530,1526,1521,1518,1516,1515,1513,1512,1513,1515,1520,1525,1534,1545,1563,1583,1609,1640,1678,1722,1772,1828,1889,1954,2023,2096,2170,2248,2323,2397,2472,2543,2611,2675,2732,2784,2828,2883,2920,2943,2961,2974,2981,2983,2980,2972,2961,2946,2927,2905,2881,2855,2829,2802,2776,2754,2732,2709,2688,2668,2649,2631,2614,2598,2582,2565,2547,2532,2516,2500,2485,2470,2455,2439,2422,2405,2389,2372,2357,2342,2328,2314,2300,2286,2273,2260,2248,2236,2225,2214,2204,2194,2185,2177,2170,2164,2161,2155,2152,2146,2141,2135,2128,2120,2112,2104,2095,2084,2075,2061,2049,2037,2023,2009,1995,1980,1966,1951,1936,1920,1904,1889,1874,1860,1846,1834,1825,1815,1807,1797,1789,1781,1772,1763,1753,1743,1734,1726,1718,1711,1703,1696,1689,1683,1677,1671,1666,1661,1656,1652,1646,1642,1637,1633,1630,1625,1622,1620,1617,1614,1610,1607,1604,1601,1599,1597,1596,1596,1595,1593,1591,1588,1585,1580,1576,1571,1566,1562,1560,1558,1558,1561,1566,1576,1590,1609,1632,1658,1691,1727,1771,1819,1872,1932,1997,2064,2136,2209,2281,2353,2423,2490,2554,2613,2667,2717,2761,2816,2851,2873,2890,2902,2908,2910,2908,2901,2892,2879,2863,2847,2830,2811,2794,2775,2756,2737,2718,2700,2681,2661,2643,2623,2603,2583,2562,2541,2521,2500,2481,2461,2442,2424,2405,2390,2374,2358,2342,2326,2309,2293,2278,2262,2248,2234,2219,2205,2194,2181,2172,2164,2157,2152,2146,2139,2133,2125,2118,2109,2101,2094,2088,2083,2079,2075,2070,2065,2059,2053,2044,2035,2023,2010,1995,1980,1967,1952,1939,1925,1912,1900,1888,1876,1863,1851,1838,1825,1812,1799,1788,1776,1765,1756,1747,1737,1730,1723,1718,1712,1707,1703,1699,1694,1691,1687,1685,1683,1682,1680,1679,1678,1678,1676,1674,1671,1666,1659,1651,1641,1631,1622,1612,1604,1597,1590,1584,1579,1576,1569,1565,1562,1559,1558,1559,1558,1559,1559,1559,1557,1556,1556,1556,1559,1564,1574,1588,1607,1631,1662,1698,1740,1788,1840,1898,1959,2025,2095,2167,2241,2313,2386,2457,2525,2589,2648,2701,2750,2791,2842,2874,2892,2905,2914,2920,2923,2922,2916,2909,2898,2886,2871,2854,2836,2817,2797,2778,2758,2737,2716,2695,2674,2654,2635,2617,2595,2579,2564,2546,2529,2510,2491,2470,2447,2425,2403,2380,2359,2338,2319,2299,2279,2261,2244,2226,2210,2196,2182,2171,2160,2148,2138,2129,2121,2113,2105,2099,2092,2086,2081,2075,2070,2065,2057,2050,2042,2033,2024,2013,2004,1993,1980,1968,1956,1945,1932,1921,1909,1898,1886,1876,1864,1850,1838,1825,1811,1796,1780,1763,1748,1734,1720,1707,1695,1684,1673,1662,1652,1640,1630,1621,1612,1604,1597,1590,1585,1582,1579,1578,1579,1579,1580,1582,1585,1588,1592,1596,1599,1601,1602,1601,1599,1597,1593,1589,1584,1579,1573,1566,1559,1554,1549,1544,1539,1534,1529,1525,1521,1516,1511,1507,1503,1500,1496,1491,1489,1484,1482,1479,1480,1483,1491,1502,1519,1541,1569,1602,1642,1686,1735,1792,1854,1921,1990,2064,2138,2215,2292,2368,2443,2513,2581,2644,2703,2758,2809,2874,2918,2946,2966,2980,2987,2987,2982,2970,2955,2936,2915,2892,2868,2843,2817,2791,2765,2741,2719,2698,2679,2663,2648,2635,2623,2613,2604,2596,2588,2579,2569,2557,2546,2531,2516,2500,2483,2464,2446,2427,2407,2389,2369,2348,2327,2304,2283,2261,2240,2220,2200,2183,2168,2156,2146,2136,2129,2121,2115,2108,2100,2094,2090,2086,2083,2079,2077,2074,2071,2068,2063,2057,2050,2042,2031,2021,2008,1996,1982,1970,1955,1943,1929,1916,1902,1888,1874,1859,1846,1831,1817,1802,1787,1772,1757,1743,1729,1715,1702,1690,1680,1670,1660,1651,1642,1634,1626,1618,1612,1604,1597,1592,1587,1582,1577,1574,1571,1570,1570,1572,1575,1578,1581,1584,1588,1591,1593,1594,1593,1592,1591,1587,1582,1577,1572,1566,1560,1552,1544,1535,1526,1517,1508,1501,1494,1488,1482,1475,1471,1467,1464,1462,1463,1464,1469,1477,1490,1508,1530,1560,1594,1632,1675,1724,1778,1839,1902,1970,2040,2113,2186,2259,2333,2404,2472,2538,2602,2661,2715,2784,2834,2866,2892,2913,2928,2938,2942,2943,2939,2930,2917,2901,2883,2862,2838,2813,2788,2762,2737,2714,2691,2671,2651,2633,2615,2599,2584,2571,2558,2546,2534,2522,2510,2496,2482,2468,2454,2439,2425,2410,2394,2377,2360,2344,2325,2307,2287,2267,2247,2228,2209,2193,2176,2162,2146,2134,2123,2113,2105,2098,2091,2085,2082,2077,2073,2067,2059,2052,2040,2029,2016,2003,1990,1975,1961,1946,1930,1913,1899,1884,1869,1854,1842,1829,1818,1808,1797,1786,1777,1768,1758,1748,1740,1730,1722,1712,1702,1691,1682,1671,1660,1650,1639,1627,1616,1604,1592,1579,1567,1556,1544,1534,1523,1516,1511,1505,1501,1497,1495,1494,1492,1492,1491,1491,1492,1491,1491,1489,1488,1486,1483,1480,1476,1473,1468,1462,1457,1452,1447,1440,1435,1429,1422,1414,1408,1401,1395,1391,1387,1385,1383,1384,1386,1388,1392,1396,1401,1411,1424,1440,1461,1488,1521,1559,1606,1656,1711,1771,1836,1904,1974,2048,2123,2198,2273,2347,2417,2484,2546,2604,2654,2700,2757,2794,2816,2832,2843,2850,2850,2847,2839,2828,2812,2793,2772,2748,2722,2695,2667,2639,2610,2584,2559,2537,2516,2499,2481,2465,2450,2436,2421,2406,2392,2378,2364,2349,2335,2321,2307,2292,2277,2262,2247,2230,2213,2195,2178,2160,2143,2126,2109,2094,2079,2066,2055,2043,2033,2025,2019,2015,2011,2008,2007,2009,2011,2013,2014,2014,2012,2008,2004,1997,1989,1978,1969,1958,1947,1934,1921,1908,1893,1878,1863,1848,1835,1821,1808,1794,1781,1769,1754,1740,1728,1715,1703,1691,1680,1669,1658,1646,1635,1623,1612,1601,1589,1578,1569,1558,1547,1538,1528,1519,1510,1502,1497,1490,1486,1482,1479,1477,1475,1474,1473,1472,1469,1467,1464,1462,1459,1457,1455,1455,1454,1454,1454,1455,1454,1454,1452,1452,1452,1452,1450,1449,1449,1447,1444,1442,1438,1438,1438,1440,1444,1453,1466,1482,1504,1532,1565,1606,1653,1706,1766,1829,1898,1968,2040,2112,2185,2257,2327,2395,2461,2524,2582,2635,2682,2742,2782,2807,2826,2839,2848,2852,2850,2843,2833,2819,2802,2784,2765,2747,2727,2707,2688,2669,2648,2627,2604,2581,2558,2535,2513,2489,2469,2451,2432,2415,2399,2384,2372,2360,2346,2336,2327,2319,2310,2302,2291,2282,2271,2259,2247,2235,2224,2212,2202,2191,2179,2169,2159,2148,2138,2129,2121,2114,2108,2105,2103,2102,2100,2099,2095,2093,2089,2083,2076,2069,2060,2052,2042,2031,2018,2006,1993,1978,1963,1948,1934,1917,1900,1883,1865,1847,1828,1812,1795,1780,1764,1749,1735,1720,1705,1692,1681,1670,1661,1653,1645,1639,1632,1627,1621,1616,1612,1607,1605,1601,1599,1596,1592,1589,1585,1580,1577,1575,1573,1571,1569,1569,1566,1565,1562,1559,1553,1549,1543,1538,1533,1530,1528,1526,1525,1523,1521,1519,1516,1512,1507,1501,1495,1489,1482,1476,1471,1471,1475,1482,1495,1513,1539,1569,1606,1650,1699,1754,1814,1877,1945,2017,2089,2164,2242,2317,2392,2464,2532,2596,2655,2710,2780,2829,2861,2886,2905,2917,2924,2925,2923,2916,2906,2893,2877,2856,2835,2812,2787,2764,2740,2717,2695,2675,2655,2637,2619,2601,2586,2571,2557,2544,2531,2519,2507,2496,2485,2473,2461,2449,2437,2424,2411,2399,2384,2370,2353,2338,2320,2304,2290,2276,2262,2251,2239,2229,2220,2212,2206,2200,2193,2186,2181,2173,2166,2158,2152,2145,2138,2130,2120,2111,2101,2091,2081,2071,2059,2048,2035,2022,2008,1996,1981,1967,1953,1940,1927,1913,1901,1888,1875,1862,1850,1837,1824,1814,1804,1794,1785,1776,1768,1760,1752,1744,1738,1731,1723,1714,1705,1698,1689,1680,1673,1664,1656,1648,1640,1633,1625,1619,1611,1603,1597,1589,1582,1576,1570,1565,1562,1560,1559,1558,1556,1556,1555,1553,1550,1548,1544,1541,1535,1531,1527,1523,1518,1514,1510,1504,1501,1496,1491,1487,1482,1478,1476,1476,1480,1488,1502,1521,1547,1579,1617,1662,1713,1769,1830,1895,1963,2035,2110,2186,2262,2336,2410,2481,2549,2611,2670,2723,2793,2840,2871,2896,2914,2927,2934,2937,2937,2933,2925,2914,2900,2883,2864,2844,2823,2803,2783,2764,2744,2726,2708,2691,2673,2656,2639,2622,2608,2590,2574,2560,2543,2528,2512,2496,2480,2464,2449,2434,2419,2405,2391,2377,2362,2348,2335,2322,2312,2300,2288,2276,2265,2253,2240,2229,2217,2206,2195,2184,2173,2163,2152,2143,2135,2125,2117,2108,2099,2091,2082,2075,2067,2061,2055,2048,2041,2034,2027,2019,2012,2003,1994,1986,1976,1964,1952,1939,1925,1912,1898,1885,1872,1859,1847,1833,1822,1810,1801,1791,1781,1773,1764,1756,1747,1738,1729,1721,1712,1704,1695,1686,1679,1673,1667,1662,1658,1653,1648,1643,1637,1632,1627,1623,1621,1617,1614,1612,1611,1609,1609,1607,1605,1604,1603,1602,1600,1597,1594,1592,1588,1585,1580,1575,1568,1563,1557,1552,1546,1540,1534,1530,1525,1520,1518,1519,1523,1532,1546,1566,1594,1626,1668,1714,1768,1827,1891,1959,2030,2104,2180,2258,2335,2411,2485,2556,2623,2686,2744,2797,2864,2910,2939,2963,2980,2992,2999,3001,2999,2995,2985,2973,2957,2938,2918,2896,2868,2845,2824,2802,2781,2760,2740,2721,2702,2685,2668,2652,2636,2620,2604,2589,2573,2559,2543,2528,2511,2493,2477,2459,2441,2423,2403,2383,2364,2346,2327,2310,2293,2277,2262,2249,2238,2227,2218,2210,2202,2195,2188,2182,2175,2169,2164,2160,2159,2155,2152,2148,2142,2136,2131,2124,2116,2110,2099,2090,2078,2066,2053,2039,2025,2010,1998,1984,1972,1956,1940,1924,1909,1893,1876,1859,1843,1827,1813,1798,1785,1773,1761,1750,1742,1734,1728,1723,1717,1713,1711,1707,1702,1699,1695,1691,1686,1681,1677,1673,1668,1663,1657,1651,1645,1639,1634,1628,1625,1621,1619,1617,1614,1611,1608,1604,1599,1596,1591,1586,1581,1576,1570,1565,1561,1557,1552,1549,1546,1545,1544,1541,1540,1541,1543,1547,1555,1566,1582,1606,1633,1668,1708,1755,1806,1863,1923,1988,2056,2127,2200,2275,2347,2419,2488,2553,2614,2670,2721,2766,2823,2859,2882,2898,2908,2913,2912,2906,2897,2885,2869,2852,2833,2813,2793,2773,2753,2733,2713,2694,2674,2656,2638,2620,2603,2587,2571,2556,2541,2525,2509,2494,2476,2459,2441,2424,2405,2388,2371,2356,2342,2329,2315,2306,2295,2287,2278,2271,2264,2257,2249,2242,2234,2228,2222,2217,2213,2209,2205,2199,2195,2192,2189,2184,2179,2174,2165,2156,2148,2137,2126,2112,2099,2084,2070,2055,2041,2028,2015,2003,1990,1975,1961,1949,1936,1923,1910,1897,1884,1871,1858,1845,1832,1819,1807,1795,1785,1773,1763,1751,1741,1730,1721,1711,1702,1692,1684,1675,1670,1664,1658,1653,1648,1643,1638,1634,1629,1626,1622,1618,1613,1607,1602,1597,1594,1592,1589,1587,1584,1583,1581,1581,1580,1578,1577,1575,1573,1573,1572,1570,1569,1566,1564,1562,1560,1561,1562,1568,1578,1589,1609,1633,1662,1698,1741,1789,1844,1904,1970,2040,2114,2190,2268,2346,2424,2499,2572,2642,2709,2769,2825,2875,2940,2983,3010,3033,3046,3057,3061,3061,3054,3043,3028,3009,2989,2967,2942,2917,2891,2864,2837,2809,2784,2760,2738,2718,2700,2683,2667,2654,2641,2628,2614,2601,2587,2573,2559,2545,2528,2511,2495,2478,2461,2442,2424,2405,2386,2369,2354,2340,2327,2315,2304,2295,2284,2274,2263,2253,2243,2233,2222,2213,2203,2194,2184,2176,2166,2156,2146,2137,2127,2118,2110,2101,2092,2084,2073,2062,2049,2037,2022,2008,1995,1980,1964,1948,1931,1915,1900,1884,1867,1853,1838,1824,1811,1798,1787,1775,1763,1752,1741,1730,1720,1710,1699,1690,1682,1675,1670,1665,1659,1655,1651,1646,1642,1637,1633,1628,1622,1617,1611,1605,1600,1595,1591,1587,1582,1579,1574,1570,1565,1559,1554,1549,1545,1540,1538,1534,1530,1528,1526,1524,1522,1520,1519,1521,1522,1527,1537,1549,1567,1590,1616,1650,1690,1736,1787,1844,1905,1970,2039,2111,2185,2259,2333,2406,2476,2544,2608,2669,2724,2776,2845,2892,2924,2951,2973,2988,2997,3002,3000,2995,2981,2967,2951,2931,2910,2888,2863,2839,2813,2790,2767,2744,2723,2704,2686,2668,2652,2637,2623,2611,2597,2584,2571,2557,2542,2527,2512,2497,2482,2467,2452,2436,2419,2402,2383,2366,2346,2327,2307,2289,2270,2254,2239,2226,2211,2200,2191,2183,2174,2166,2159,2152,2147,2143,2138,2133,2126,2119,2113,2106,2096,2086,2075,2064,2051,2035,2020,2003,1988,1973,1958,1943,1928,1912,1898,1882,1868,1854,1842,1829,1818,1808,1797,1789,1780,1772,1764,1756,1749,1741,1733,1725,1716,1708,1700,1692,1686,1679,1672,1668,1662,1657,1652,1648,1644,1641,1637,1632,1628,1624,1620,1616,1612,1607,1605,1600,1596,1593,1588,1584,1580,1574,1570,1565,1561,1556,1552,1549,1545,1543,1541,1539,1538,1539,1539,1545,1552,1562,1576,1595,1619,1649,1685,1727,1774,1828,1888,1952,2019,2089,2161,2234,2308,2382,2454,2523,2589,2651,2707,2759,2807,2867,2908,2933,2953,2967,2977,2981,2981,2975,2966,2953,2937,2919,2898,2878,2854,2830,2805,2781,2758,2734,2711,2689,2669,2647,2628,2609,2590,2573,2556,2538,2521,2504,2487,2469,2451,2434,2416,2397,2380,2362,2344,2329,2313,2298,2285,2273,2261,2249,2235,2224,2212,2199,2190,2179,2169,2161,2154,2147,2140,2133,2125,2117,2110,2103,2095,2086,2077,2071,2063,2056,2050,2043,2035,2029,2019,2011,2000,1989,1977,1964,1951,1939,1924,1912,1900,1885,1873,1859,1846,1834,1821,1808,1794,1782,1769,1758,1748,1739,1732,1725,1719,1715,1711,1707,1702,1697,1691,1684,1677,1669,1661,1655,1650,1647,1644,1642,1641,1640,1640,1639,1637,1635,1634,1630,1627,1622,1620,1616,1613,1610,1606,1603,1601,1599,1597,1594,1590,1586,1580,1575,1569,1565,1560,1557,1555,1556,1559,1565,1575,1589,1607,1631,1661,1697,1740,1788,1842,1899,1960,2025,2095,2167,2239,2312,2384,2453,2519,2582,2638,2690,2737,2799,2841,2867,2889,2905,2916,2923,2924,2922,2916,2905,2892,2875,2857,2836,2814,2791,2768,2746,2723,2700,2677,2655,2635,2615,2596,2578,2561,2545,2528,2514,2498,2484,2468,2452,2435,2417,2400,2382,2365,2348,2330,2313,2298,2282,2267,2252,2238,2225,2213,2202,2191,2182,2173,2164,2154,2146,2135,2125,2116,2106,2097,2088,2079,2070,2062,2054,2047,2040,2032,2024,2015,2006,1999,1989,1980,1972,1964,1953,1942,1931,1919,1906,1892,1878,1862,1846,1829,1812,1796,1780,1766,1752,1740,1729,1719,1710,1703,1696,1691,1686,1683,1679,1677,1673,1669,1664,1659,1652,1646,1640,1634,1627,1621,1617,1614,1607,1603,1598,1593,1590,1585,1581,1577,1574,1571,1567,1565,1563,1561,1559,1557,1555,1552,1551,1547,1543,1538,1533,1528,1520,1515,1508,1504,1500,1498,1499,1503,1511,1526,1545,1571,1603,1641,1686,1735,1790,1849,1912,1977,2043,2111,2180,2247,2315,2381,2444,2504,2559,2607,2652,2709,2746,2771,2790,2805,2815,2819,2820,2815,2805,2792,2775,2757,2735,2713,2691,2669,2647,2624,2604,2583,2566,2547,2530,2512,2496,2480,2462,2446,2428,2408,2391,2373,2356,2339,2322,2305,2288,2270,2254,2238,2222,2207,2192,2179,2165,2152,2140,2128,2118,2107,2096,2084,2074,2064,2056,2049,2042,2038,2032,2028,2022,2017,2013,2008,2002,1997,1990,1983,1974,1966,1958,1948,1938,1927,1917,1906,1894,1882,1869,1855,1841,1826,1812,1797,1781,1766,1751,1737,1724,1710,1698,1687,1676,1666,1656,1648,1639,1631,1623,1613,1606,1598,1590,1582,1575,1569,1562,1555,1547,1539,1530,1522,1513,1504,1494,1485,1475,1467,1457,1450,1444,1437,1434,1430,1428,1426,1425,1424,1425,1426,1427,1428,1428,1429,1430,1429,1430,1429,1430,1431,1432,1435,1437,1440,1446,1453,1466,1481,1502,1529,1562,1599,1641,1688,1741,1795,1854,1915,1976,2040,2104,2169,2231,2291,2349,2404,2453,2498,2539,2591,2627,2651,2670,2685,2693,2699,2699,2694,2687,2676,2665,2652,2637,2623,2610,2597,2583,2571,2558,2545,2532,2519,2507,2496,2484,2474,2463,2454,2444,2435,2424,2414,2403,2393,2381,2368,2353,2339,2323,2308,2292,2275,2258,2240,2222,2205,2187,2169,2153,2139,2126,2113,2102,2094,2085,2077,2069,2062,2053,2043,2035,2023,2012,2002,1993,1984,1973,1964,1954,1944,1933,1924,1913,1901,1890,1879,1868,1858,1847,1835,1824,1813,1802,1791,1780,1771,1761,1751,1742,1733,1723,1713,1703,1691,1681,1671,1662,1652,1644,1635,1629,1621,1614,1608,1603,1598,1594,1591,1589,1586,1584,1583,1582,1578,1576,1574,1571,1568,1566,1561,1555,1549,1542,1533,1524,1517,1508,1501,1494,1488,1482,1477,1474,1472,1469,1469,1468,1468,1465,1463,1457,1453,1448,1443,1438,1435,1433,1433,1435,1440,1447,1459,1474,1494,1520,1553,1591,1637,1687,1743,1802,1864,1929,1993,2059,2124,2189,2253,2314,2373,2427,2476,2523,2580,2619,2645,2666,2684,2696,2703,2706,2705,2701,2692,2683,2670,2657,2642,2627,2610,2594,2577,2560,2544,2529,2513,2499,2486,2474,2462,2451,2442,2431,2420,2410,2399,2387,2373,2358,2342,2324,2307,2288,2271,2253,2236,2221,2205,2191,2177,2165,2156,2146,2139,2134,2128,2124,2121,2116,2111,2107,2102,2096,2091,2085,2080,2075,2069,2063,2057,2051,2043,2037,2029,2022,2013,2003,1992,1982,1969,1959,1947,1934,1921,1909,1895,1881,1867,1854,1842,1829,1818,1806,1794,1781,1768,1756,1745,1733,1722,1713,1704,1696,1688,1682,1677,1670,1666,1661,1657,1653,1650,1645,1641,1637,1635,1630,1626,1622,1618,1614,1609,1605,1599,1594,1590,1583,1578,1574,1568,1563,1559,1555,1549,1545,1541,1536,1532,1528,1522,1518,1513,1509,1505,1502,1500,1497,1496,1496,1497,1497,1498,1499,1500,1502,1506,1510,1516,1525,1537,1554,1578,1606,1641,1682,1729,1780,1837,1898,1963,2029,2097,2164,2232,2298,2363,2425,2483,2540,2590,2638,2681,2734,2767,2786,2801,2810,2815,2816,2813,2805,2796,2783,2767,2749,2730,2710,2690,2670,2651,2631,2613,2594,2578,2563,2548,2535,2524,2513,2503,2491,2479,2466,2452,2438,2423,2408,2395,2380,2367,2353,2340,2327,2311,2298,2284,2272,2257,2244,2228,2214,2199,2184,2171,2159,2148,2138,2128,2117,2108,2097,2085,2074,2064,2053,2042,2033,2023,2014,2004,1996,1988,1980,1973,1967,1962,1956,1950,1942,1936,1928,1920,1909,1899,1888,1877,1864,1852,1839,1828,1816,1804,1793,1781,1772,1762,1751,1742,1732,1724,1714,1706,1699,1691,1686,1681,1675,1672,1668,1662,1657,1652,1647,1641,1635,1630,1625,1618,1613,1608,1603,1597,1593,1590,1587,1585,1585,1584,1585,1584,1585,1583,1582,1581,1580,1578,1577,1575,1572,1568,1564,1561,1558,1555,1553,1551,1547,1544,1540,1536,1532,1529,1527,1530,1537,1548,1565,1588,1617,1650,1690,1736,1785,1841,1899,1961,2026,2092,2160,2228,2296,2363,2427,2488,2545,2598,2647,2707,2749,2776,2798,2816,2829,2839,2845,2846,2843,2836,2825,2813,2799,2783,2766,2746,2726,2705,2684,2663,2642,2622,2602,2582,2563,2545,2527,2509,2493,2477,2461,2447,2435,2423,2412,2402,2391,2380,2370,2359,2347,2334,2322,2309,2296,2284,2271,2260,2248,2237,2225,2215,2204,2193,2182,2171,2162,2152,2144,2136,2130,2123,2117,2112,2108,2103,2101,2098,2095,2091,2085,2080,2072,2064,2053,2042,2029,2016,2001,1987,1972,1958,1943,1928,1912,1898,1884,1871,1860,1848,1838,1828,1819,1810,1801,1793,1787,1779,1773,1767,1762,1754,1746,1738,1729,1720,1710,1701,1692,1684,1677,1670,1664,1658,1652,1651,1648,1647,1647,1647,1650,1650,1652,1653,1653,1654,1654,1654,1654,1653,1650,1648,1645,1643,1641,1637,1634,1630,1625,1621,1616,1611,1607,1602,1597,1595,1594,1596,1603,1612,1625,1643,1667,1695,1730,1770,1815,1865,1920,1981,2044,2110,2178,2249,2320,2389,2456,2521,2583,2642,2696,2745,2789,2846,2884,2909,2929,2944,2956,2962,2964,2962,2954,2945,2932,2916,2897,2876,2854,2832,2808,2786,2765,2746,2727,2712,2696,2682,2669,2656,2642,2630,2616,2601,2582,2564,2544,2525,2505,2487,2468,2450,2432,2416,2400,2385,2370,2356,2342,2328,2315,2302,2291,2280,2270,2261,2254,2247,2241,2234,2229,2220,2211,2201,2191,2180,2170,2159,2150,2142,2130,2120,2108,2096,2084,2072,2060,2048,2035,2022,2009,1996,1983,1971,1959,1948,1936,1925,1914,1903,1892,1880,1868,1859,1847,1838,1827,1816,1807,1796,1786,1774,1765,1754,1744,1736,1726,1717,1711,1705,1696,1690,1682,1674,1666,1659,1651,1645,1638,1631,1626,1622,1618,1614,1613,1611,1610,1608,1607,1605,1603,1600,1597,1595,1593,1590,1588,1585,1584,1584,1584,1583,1582,1582,1580,1579,1581,1582,1584,1591,1601,1616,1635,1661,1691,1727,1767,1812,1861,1916,1974,2038,2104,2173,2245,2315,2386,2456,2523,2589,2649,2707,2760,2806,2868,2909,2936,2956,2969,2979,2983,2984,2979,2972,2961,2947,2931,2912,2891,2868,2844,2819,2795,2772,2751,2732,2712,2695,2678,2662,2647,2633,2620,2605,2591,2576,2564,2546,2531,2514,2498,2480,2464,2448,2433,2417,2400,2383,2365,2347,2328,2308,2287,2268,2250,2232,2215,2201,2186,2172,2158,2146,2134,2124,2113,2103,2092,2080,2070,2058,2048,2039,2030,2020,2010,2001,1991,1984,1975,1967,1959,1950,1942,1935,1928,1921,1914,1906,1897,1888,1880,1870,1860,1847,1835,1823,1811,1799,1788,1777,1766,1757,1749,1741,1734,1728,1723,1717,1712,1709,1706,1705,1703,1700,1698,1697,1694,1693,1689,1686,1684,1680,1675,1670,1664,1656,1649,1644,1639,1634,1630,1625,1621,1617,1612,1609,1603,1599,1593,1589,1586,1585,1582,1581,1579,1579,1580,1580,1583,1585,1589,1593,1599,1608,1619,1636,1656,1684,1717,1757,1802,1854,1912,1975,2043,2114,2188,2266,2343,2421,2496,2568,2636,2700,2759,2813,2860,2902,2951,2981,2998,3007,3011,3011,3005,2996,2983,2966,2947,2927,2903,2878,2851,2823,2794,2766,2740,2716,2692,2671,2651,2633,2616,2599,2583,2569,2555,2539,2525,2510,2497,2483,2468,2452,2436,2418,2401,2383,2366,2349,2332,2317,2300,2286,2270,2255,2243,2230,2218,2206,2196,2186,2176,2166,2158,2149,2141,2131,2120,2110,2099,2090,2079,2068,2058,2049,2039,2028,2017,2005,1993,1982,1969,1958,1946,1935,1926,1916,1907,1898,1890,1881,1871,1860,1848,1837,1824,1809,1794,1778,1763,1749,1735,1723,1710,1700,1690,1682,1675,1667,1660,1654,1647,1641,1634,1626,1620,1613,1607,1602,1597,1594,1592,1590,1589,1588,1587,1585,1585,1585,1584,1584,1586,1585,1587,1586,1586,1583,1579,1576,1570,1564,1558,1552,1547,1542,1537,1531,1526,1521,1517,1513,1508,1507,1504,1503,1504,1509,1516,1527,1544,1566,1595,1628,1668,1714,1765,1821,1881,1945,2011,2080,2151,2222,2292,2362,2431,2496,2556,2615,2666,2713,2771,2810,2835,2853,2865,2873,2874,2870,2863,2850,2834,2816,2794,2769,2744,2715,2686,2657,2626,2597,2569,2542,2515,2492,2468,2447,2428,2411,2393,2377,2361,2347,2332,2316,2300,2284,2269,2254,2239,2225,2211,2197,2184,2172,2160,2150,2141,2133,2124,2116,2108,2101,2094,2088,2083,2078,2072,2067,2060,2054,2048,2041,2036,2032,2028,2026,2024,2018,2014,2008,2002,1993,1982,1971,1959,1945,1933,1921,1911,1900,1890,1880,1869,1856,1845,1834,1822,1809,1797,1783,1769,1753,1739,1724,1712,1700,1688,1677,1669,1660,1654,1649,1644,1639,1635,1632,1629,1625,1623,1620,1616,1613,1610,1608,1605,1604,1603,1602,1601,1600,1597,1593,1590,1587,1583,1580,1577,1574,1571,1567,1564,1563,1559,1557,1555,1554,1550,1547,1542,1537,1531,1525,1521,1518,1518,1520,1527,1538,1556,1577,1606,1639,1680,1727,1780,1838,1901,1967,2035,2106,2177,2249,2318,2387,2453,2516,2575,2630,2681,2744,2787,2814,2837,2852,2862,2867,2866,2861,2853,2842,2829,2813,2795,2775,2754,2732,2708,2683,2658,2633,2609,2585,2562,2540,2518,2499,2480,2457,2441,2426,2412,2398,2384,2369,2352,2335,2319,2300,2282,2265,2249,2234,2219,2206,2195,2182,2171,2159,2148,2137,2127,2117,2107,2098,2091,2083,2077,2072,2066,2060,2056,2051,2047,2042,2037,2033,2029,2023,2019,2012,2007,2000,1992,1983,1971,1960,1949,1938,1925,1913,1900,1886,1873,1860,1848,1836,1823,1810,1799,1788,1778,1768,1758,1749,1739,1730,1722,1714,1707,1700,1694,1689,1684,1678,1672,1669,1665,1661,1657,1652,1646,1640,1635,1627,1621,1615,1610,1604,1599,1593,1588,1582,1577,1570,1564,1559,1553,1548,1545,1543,1541,1540,1539,1540,1542,1545,1546,1548,1551,1551,1554,1557,1563,1573,1586,1602,1623,1648,1678,1711,1752,1797,1848,1902,1962,2024,2090,2158,2225,2294,2360,2424,2486,2545,2601,2654,2703,2749,2809,2848,2874,2894,2909,2918,2923,2922,2916,2907,2894,2878,2861,2840,2819,2797,2775,2753,2732,2711,2692,2673,2655,2639,2623,2612,2600,2589,2579,2569,2558,2547,2533,2520,2505,2489,2471,2453,2433,2413,2393,2371,2350,2328,2308,2287,2268,2250,2234,2220,2207,2197,2188,2181,2175,2170,2164,2160,2157,2153,2150,2145,2143,2139,2135,2130,2124,2117,2107,2097,2085,2072,2058,2042,2028,2013,1999,1985,1972,1961,1951,1939,1929,1920,1910,1900,1888,1876,1865,1853,1841,1829,1817,1806,1794,1780,1768,1754,1740,1724,1709,1694,1681,1669,1658,1648,1639,1631,1623,1615,1607,1599,1592,1586,1578,1572,1565,1560,1556,1553,1550,1549,1549,1551,1550,1548,1545,1541,1537,1533,1528,1524,1521,1518,1516,1516,1516,1516,1517,1518,1519,1520,1522,1523,1527,1531,1538,1547,1561,1577,1597,1622,1654,1692,1736,1784,1837,1893,1954,2018,2085,2154,2225,2295,2364,2431,2496,2557,2614,2666,2714,2755,2810,2847,2871,2890,2906,2917,2926,2929,2929,2926,2918,2907,2893,2877,2861,2844,2827,2809,2794,2779,2764,2752,2741,2729,2719,2709,2699,2687,2675,2661,2646,2629,2612,2593,2573,2553,2532,2511,2490,2467,2444,2420,2397,2373,2350,2329,2310,2290,2273,2257,2243,2229,2218,2205,2195,2185,2178,2171,2165,2159,2154,2149,2143,2138,2132,2124,2116,2105,2094,2082,2069,2056,2041,2029,2014,2000,1986,1972,1959,1944,1932,1919,1905,1892,1879,1867,1855,1845,1834,1824,1815,1806,1796,1788,1781,1773,1765,1756,1748,1739,1730,1720,1712,1702,1695,1686,1678,1669,1663,1654,1648,1641,1635,1629,1625,1621,1617,1614,1613,1610,1610,1609,1608,1610,1611,1613,1612,1611,1609,1604,1599,1593,1588,1585,1580,1576,1573,1570,1566,1562,1557,1553,1550,1546,1544,1541,1538,1537,1537,1537,1543,1548,1557,1569,1584,1604,1631,1664,1701,1745,1795,1851,1909,1974,2040,2109,2178,2249,2318,2388,2453,2515,2572,2625,2672,2713,2764,2798,2818,2832,2841,2844,2842,2835,2823,2805,2784,2761,2736,2709,2682,2655,2630,2606,2583,2561,2542,2524,2507,2486,2468,2453,2436,2421,2406,2392,2377,2363,2349,2336,2322,2309,2296,2283,2269,2254,2239,2225,2212,2198,2185,2172,2159,2148,2137,2126,2117,2107,2098,2090,2083,2076,2069,2063,2056,2051,2047,2042,2039,2031,2026,2018,2010,2001,1989,1977,1965,1951,1939,1925,1912,1900,1887,1875,1863,1852,1839,1828,1816,1805,1794,1784,1775,1767,1759,1751,1743,1735,1727,1717,1708,1701,1694,1688,1684,1681,1677,1673,1668,1662,1657,1649,1643,1636,1628,1622,1615,1610,1605,1597,1595,1591,1587,1583,1580,1576,1571,1567,1563,1558,1554,1551,1547,1544,1540,1536,1533,1529,1524,1521,1519,1517,1516,1513,1510,1507,1504,1499,1493,1489,1487,1486,1486,1491,1500,1514,1533,1557,1587,1622,1661,1707,1758,1812,1871,1934,1998,2064,2130,2196,2261,2324,2386,2444,2498,2547,2591,2655,2690,2711,2726,2737,2742,2741,2735,2725,2710,2692,2670,2647,2623,2598,2574,2554,2533,2514,2496,2482,2467,2455,2442,2432,2421,2409,2400,2392,2382,2372,2364,2355,2345,2334,2321,2309,2294,2281,2266,2251,2238,2225,2211,2199,2187,2176,2165,2155,2145,2135,2125,2115,2104,2093,2082,2071,2061,2051,2043,2034,2029,2022,2015,2007,2001,1993,1986,1980,1973,1964,1958,1950,1943,1935,1927,1919,1910,1902,1894,1888,1882,1874,1868,1859,1853,1843,1834,1826,1816,1807,1798,1789,1779,1770,1756,1745,1732,1720,1707,1693,1680,1668,1658,1648,1641,1634,1628,1622,1617,1612,1608,1603,1601,1598,1598,1597,1598,1598,1597,1598,1598,1598,1595,1594,1592,1588,1585,1582,1581,1580,1579,1582,1583,1587,1588,1590,1591,1593,1594,1595,1599,1605,1613,1625,1641,1662,1691,1724,1763,1807,1857,1909,1963,2021,2083,2145,2210,2273,2335,2398,2457,2512,2565,2613,2657,2713,2751,2776,2794,2808,2816,2820,2819,2812,2801,2787,2770,2750,2727,2702,2676,2652,2628,2605,2583,2564,2545,2527,2512,2496,2483,2472,2460,2449,2437,2427,2415,2403,2391,2376,2363,2350,2336,2320,2305,2287,2268,2249,2230,2211,2193,2176,2161,2146,2134,2123,2114,2105,2097,2090,2083,2076,2071,2065,2062,2056,2052,2047,2043,2040,2035,2030,2026,2021,2014,2008,1999,1991,1982,1974,1964,1954,1944,1933,1922,1912,1902,1891,1881,1872,1862,1850,1840,1830,1819,1808,1795,1782,1769,1755,1744,1732,1721,1711,1699,1688,1678,1668,1659,1653,1648,1642,1639,1636,1633,1633,1631,1632,1632,1630,1628,1625,1623,1620,1616,1610,1605,1598,1591,1583,1576,1569,1564,1559,1556,1554,1552,1551,1550,1547,1543,1540,1536,1532,1529,1525,1524,1524,1525,1526,1532,1540,1553,1570,1592,1620,1650,1687,1728,1772,1822,1876,1934,1994,2060,2127,2194,2264,2331,2398,2463,2522,2577,2625,2671,2726,2762,2784,2802,2815,2823,2826,2825,2821,2815,2804,2791,2774,2756,2735,2715,2692,2669,2647,2627,2608,2589,2571,2557,2541,2528,2516,2505,2491,2481,2470,2459,2447,2433,2419,2404,2388,2371,2353,2335,2317,2297,2277,2258,2238,2220,2204,2189,2178,2167,2158,2152,2148,2144,2141,2137,2134,2130,2127,2123,2118,2114,2110,2103,2097,2091,2084,2077,2067,2058,2048,2036,2022,2010,1997,1986,1974,1964,1954,1944,1934,1925,1915,1904,1894,1884,1872,1861,1852,1842,1833,1824,1818,1812,1806,1799,1794,1786,1779,1771,1763,1755,1747,1739,1731,1722,1713,1705,1698,1690,1684,1677,1671,1666,1659,1653,1647,1642,1638,1633,1630,1627,1623,1620,1617,1612,1607,1600,1595,1590,1586,1584,1583,1582,1582,1582,1584,1584,1585,1584,1586,1588,1590,1592,1595,1599,1605,1612,1620,1633,1649,1671,1698,1730,1767,1809,1857,1909,1964,2024,2084,2146,2211,2275,2338,2401,2460,2518,2572,2619,2664,2702,2751,2783,2805,2823,2835,2843,2847,2846,2843,2835,2823,2809,2792,2775,2755,2734,2711,2690,2668,2646,2623,2604,2585,2567,2551,2535,2521,2505,2491,2476,2462,2446,2432,2421,2407,2394,2378,2364,2347,2332,2317,2303,2288,2276,2264,2253,2243,2236,2225,2217,2209,2201,2194,2186,2179,2172,2166,2158,2150,2142,2135,2127,2119,2111,2101,2094,2086,2076,2068,2059,2050,2041,2032,2023,2014,2005,1996,1989,1980,1973,1962,1953,1942,1929,1918,1907,1894,1882,1872,1862,1853,1843,1833,1823,1813,1802,1791,1782,1772,1762,1753,1743,1733,1722,1712,1701,1690,1681,1675,1669,1664,1661,1658,1655,1653,1653,1652,1653,1653,1652,1652,1650,1648,1644,1639,1633,1627,1619,1613,1606,1599,1594,1586,1583,1578,1576,1574,1573,1573,1573,1574,1574,1575,1574,1574,1573,1574,1574,1576,1579,1584,1592,1603,1617,1636,1660,1687,1721,1760,1806,1857,1912,1972,2037,2105,2176,2245,2318,2389,2457,2524,2586,2643,2695,2740,2779,2826,2853,2867,2876,2880,2879,2874,2864,2852,2837,2820,2801,2781,2761,2740,2718,2695,2673,2653,2633,2616,2600,2587,2573,2562,2551,2542,2533,2524,2514,2504,2492,2478,2464,2448,2431,2413,2395,2376,2355,2336,2316,2297,2280,2263,2248,2234,2221,2209,2199,2191,2183,2176,2170,2164,2157,2151,2145,2138,2132,2123,2115,2105,2094,2084,2073,2063,2053,2042,2032,2023,2013,2002,1992,1982,1973,1962,1952,1940,1931,1920,1908,1897,1886,1875,1863,1851,1839,1828,1816,1805,1796,1788,1782,1777,1773,1766,1763,1757,1752,1747,1741,1734,1730,1723,1720,1715,1711,1707,1704,1699,1695,1691,1686,1682,1677,1672,1666,1660,1654,1649,1643,1637,1631,1626,1619,1614,1609,1604,1600,1597,1593,1589,1585,1582,1579,1577,1576,1575,1574,1573,1574,1574,1575,1576,1580,1586,1598,1615,1637,1666,1700,1739,1784,1833,1885,1942,2004,2067,2134,2201,2268,2336,2403,2468,2531,2589,2645,2696,2744,2803,2843,2868,2887,2899,2905,2906,2904,2896,2887,2875,2860,2845,2826,2807,2788,2767,2748,2729,2710,2691,2673,2648,2630,2610,2589,2569,2548,2528,2508,2489,2472,2453,2437,2419,2403,2386,2369,2355,2340,2325,2311,2298,2285,2272,2259,2246,2233,2219,2207,2196,2183,2171,2159,2146,2132,2118,2103,2088,2074,2061,2047,2037,2026,2016,2007,1999,1988,1980,1970,1961,1953,1945,1938,1932,1924,1917,1909,1900,1890,1880,1868,1858,1845,1832,1817,1802,1786,1770,1755,1739,1723,1710,1697,1684,1674,1664,1657,1650,1644,1639,1636,1634,1633,1632,1631,1632,1634,1635,1637,1639,1641,1641,1642,1642,1641,1639,1637,1635,1633,1631,1627,1625,1624,1621,1620,1619,1617,1617,1615,1613,1611,1609,1605,1603,1600,1598,1595,1595,1594,1595,1597,1600,1603,1610,1619,1633,1649,1671,1699,1731,1769,1816,1867,1925,1991,2060,2134,2209,2287,2363,2438,2513,2583,2651,2715,2774,2827,2876,2936,2975,2999,3016,3028,3032,3032,3027,3017,3005,2987,2967,2947,2923,2900,2876,2851,2828,2805,2783,2762,2742,2725,2706,2689,2672,2655,2640,2622,2604,2585,2566,2547,2527,2508,2489,2468,2450,2431,2413,2395,2377,2359,2343,2326,2313,2299,2288,2277,2266,2256,2247,2237,2229,2221,2213,2205,2198,2190,2183,2175,2167,2159,2150,2141,2132,2122,2111,2102,2091,2081,2070,2058,2049,2039,2032,2024,2017,2010,2002,1993,1982,1969,1956,1942,1929,1914,1898,1883,1867,1852,1837,1823,1807,1794,1781,1770,1759,1750,1741,1731,1723,1716,1708,1702,1695,1689,1683,1677,1672,1668,1664,1659,1655,1650,1645,1642,1638,1634,1632,1629,1626,1623,1620,1617,1613,1609,1604,1600,1595,1591,1587,1584,1583,1580,1579,1579,1577,1576,1574,1574,1573,1575,1579,1585,1592,1604,1620,1642,1668,1701,1740,1785,1836,1892,1953,2017,2085,2155,2226,2299,2371,2441,2509,2575,2636,2692,2742,2788,2847,2886,2912,2933,2948,2957,2961,2960,2953,2944,2928,2909,2888,2863,2838,2810,2782,2754,2727,2701,2677,2654,2633,2614,2595,2580,2567,2555,2544,2534,2524,2514,2503,2492,2480,2465,2450,2433,2415,2396,2377,2359,2340,2320,2301,2281,2265,2247,2231,2216,2204,2194,2185,2176,2167,2159,2153,2146,2141,2136,2132,2128,2123,2120,2115,2111,2106,2100,2095,2089,2081,2073,2064,2054,2044,2035,2024,2014,2005,1995,1984,1973,1960,1947,1934,1920,1905,1893,1880,1868,1859,1847,1838,1829,1820,1810,1802,1793,1785,1778,1771,1765,1760,1755,1749,1743,1736,1727,1718,1708,1699,1690,1683,1676,1671,1666,1661,1659,1654,1651,1649,1646,1644,1641,1636,1633,1628,1624,1619,1613,1608,1603,1599,1594,1591,1587,1583,1579,1574,1570,1566,1563,1560,1559,1559,1563,1567,1575,1587,1605,1626,1654,1686,1725,1768,1819,1874,1932,1996,2063,2130,2199,2267,2335,2401,2465,2527,2585,2641,2692,2739,2801,2844,2872,2897,2916,2929,2938,2941,2940,2932,2921,2904,2885,2864,2841,2814,2787,2759,2730,2702,2673,2647,2621,2594,2570,2541,2520,2501,2483,2466,2451,2437,2423,2408,2396,2383,2371,2359,2347,2336,2324,2310,2298,2285,2271,2258,2245,2232,2220,2208,2197,2186,2175,2165,2156,2147,2138,2129,2119,2111,2102,2092,2081,2071,2060,2050,2040,2029,2019,2009,2001,1992,1982,1973,1966,1958,1952,1944,1937,1928,1920,1911,1900,1890,1879,1867,1854,1842,1829,1820,1807,1796,1786,1777,1767,1758,1748,1739,1730,1723,1716,1711,1703,1697,1689,1682,1675,1668,1661,1657,1655,1653,1652,1652,1652,1653,1654,1653,1652,1650,1648,1646,1644,1642,1638,1636,1634,1631,1627,1624,1621,1619,1617,1614,1609,1603,1598,1591,1585,1579,1572,1567,1561,1558,1553,1549,1547,1548,1551,1558,1570,1588,1613,1642,1679,1721,1769,1825,1887,1952,2021,2093,2168,2243,2317,2392,2462,2529,2592,2650,2703,2750,2808,2847,2870,2886,2897,2904,2905,2901,2893,2882,2866,2848,2826,2803,2778,2754,2728,2702,2675,2650,2626,2603,2583,2564,2546,2529,2512,2498,2483,2470,2456,2442,2426,2411,2396,2380,2365,2349,2334,2318,2301,2285,2267,2249,2231,2213,2196,2181,2166,2154,2143,2136,2128,2122,2117,2113,2110,2108,2106,2105,2103,2101,2099,2097,2093,2088,2084,2080,2072,2064,2056,2045,2033,2018,2005,1989,1974,1960,1945,1930,1916,1901,1887,1872,1858,1842,1827,1812,1799,1784,1771,1758,1747,1736,1727,1718,1710,1703,1693,1684,1675,1664,1653,1642,1632,1622,1613,1605,1600,1595,1590,1585,1582,1580,1578,1576,1575,1575,1574,1573,1573,1572,1573,1573,1574,1573,1574,1570,1567,1563,1559,1554,1549,1545,1541,1538,1537,1536,1534,1534,1537,1539,1546,1554,1565,1582,1603,1628,1660,1697,1741,1789,1844,1902,1966,2032,2104,2176,2249,2323,2396,2467,2537,2604,2667,2725,2779,2827,2886,2925,2949,2965,2976,2981,2980,2974,2965,2949,2932,2911,2885,2858,2829,2798,2767,2735,2705,2676,2647,2621,2596,2573,2550,2530,2511,2495,2480,2467,2454,2441,2430,2417,2405,2393,2381,2368,2354,2341,2326,2311,2297,2283,2267,2251,2236,2221,2207,2194,2183,2173,2163,2156,2150,2143,2137,2131,2126,2120,2113,2107,2099,2091,2081,2072,2063,2052,2043,2033,2023,2010,1998,1983,1968,1952,1937,1920,1903,1887,1872,1858,1844,1832,1821,1810,1801,1793,1785,1778,1771,1763,1755,1750,1744,1739,1735,1730,1725,1721,1716,1712,1706,1702,1697,1693,1688,1684,1679,1675,1670,1666,1663,1660,1658,1656,1654,1652,1650,1647,1644,1639,1634,1628,1623,1618,1613,1609,1605,1599,1594,1587,1580,1576,1571,1565,1561,1558,1557,1558,1559,1565,1571,1581,1594,1612,1635,1663,1694,1733,1777,1827,1880,1939,2002,2069,2137,2209,2279,2350,2419,2487,2550,2609,2665,2716,2761,2820,2859,2883,2901,2912,2917,2916,2910,2900,2887,2869,2849,2826,2803,2779,2755,2732,2708,2684,2661,2638,2617,2596,2578,2561,2545,2529,2514,2500,2486,2469,2454,2437,2422,2406,2389,2372,2355,2337,2321,2306,2291,2277,2263,2250,2236,2220,2204,2189,2174,2159,2147,2134,2125,2112,2102,2092,2083,2073,2065,2058,2053,2047,2043,2039,2034,2028,2022,2014,2007,2000,1989,1979,1966,1954,1941,1927,1913,1899,1886,1872,1859,1845,1832,1818,1805,1795,1784,1774,1764,1754,1744,1734,1724,1716,1708,1700,1694,1687,1681,1675,1670,1664,1659,1655,1651,1649,1648,1648,1649,1649,1650,1651,1651,1650,1649,1647,1643,1641,1637,1634,1630,1626,1623,1620,1616,1611,1606,1601,1594,1589,1583,1577,1573,1567,1563,1561,1557,1557,1558,1559,1562,1564,1570,1576,1585,1596,1611,1630,1652,1680,1713,1752,1797,1847,1903,1964,2026,2093,2163,2232,2302,2372,2441,2509,2571,2632,2685,2736,2780,2835,2869,2889,2903,2911,2914,2914,2909,2900,2888,2873,2858,2838,2819,2797,2773,2750,2726,2700,2675,2650,2627,2605,2585,2565,2547,2531,2515,2499,2485,2470,2456,2442,2429,2414,2401,2388,2374,2362,2348,2335,2323,2310,2297,2286,2271,2259,2246,2233,2220,2207,2197,2185,2176,2168,2159,2150,2143,2135,2125,2116,2105,2096,2087,2079,2072,2063,2056,2047,2040,2031,2022,2012,2002,1991,1981,1971,1962,1951,1940,1928,1917,1905,1894,1884,1873,1864,1855,1845,1835,1825,1814,1803,1793,1782,1772,1763,1752,1744,1735,1727,1719,1710,1699,1690,1679,1668,1657,1647,1638,1628,1621,1617,1614,1612,1611,1608,1606,1605,1603,1601,1598,1596,1592,1589,1586,1584,1580,1577,1573,1569,1563,1558,1553,1546,1541,1536,1532,1528,1525,1520,1517,1516,1515,1514,1516,1519,1524,1531,1543,1560,1583,1611,1644,1684,1729,1779,1835,1896,1961,2030,2102,2178,2255,2334,2414,2489,2563,2631,2694,2751,2803,2850,2906,2943,2966,2981,2989,2993,2990,2983,2973,2958,2941,2921,2897,2872,2844,2817,2788,2759,2731,2702,2675,2648,2623,2600,2579,2560,2541,2525,2510,2493,2478,2462,2446,2429,2411,2393,2375,2357,2338,2319,2299,2281,2263,2248,2233,2219,2206,2194,2184,2176,2168,2164,2159,2155,2151,2148,2146,2143,2140,2138,2133,2129,2126,2122,2118,2115,2111,2107,2102,2097,2091,2083,2077,2070,2061,2050,2039,2025,2013,2000,1987,1974,1961,1948,1936,1924,1912,1900,1888,1878,1866,1856,1846,1837,1830,1823,1816,1810,1804,1798,1793,1787,1782,1777,1770,1764,1757,1752,1745,1739,1733,1728,1723,1719,1715,1712,1707,1705,1701,1697,1690,1685,1680,1674,1667,1662,1655,1648,1640,1632,1623,1614,1603,1592,1582,1571,1564,1558,1553,1552,1553,1557,1564,1572,1583,1600,1621,1647,1677,1713,1753,1798,1848,1902,1959,2019,2083,2146,2210,2272,2334,2394,2449,2503,2554,2600,2643,2694,2731,2753,2771,2783,2790,2791,2788,2781,2769,2754,2737,2718,2698,2676,2655,2632,2609,2588,2567,2547,2527,2507,2489,2471,2454,2438,2422,2406,2392,2377,2363,2344,2331,2317,2303,2289,2276,2262,2250,2239,2227,2216,2208,2199,2191,2184,2178,2170,2164,2156,2148,2142,2135,2127,2120,2114,2107,2101,2096,2091,2089,2084,2080,2076,2072,2067,2061,2055,2047,2038,2028,2018,2006,1993,1982,1968,1955,1939,1925,1910,1898,1883,1871,1858,1846,1831,1817,1802,1788,1774,1760,1749,1738,1728,1720,1713,1707,1702,1698,1695,1692,1688,1684,1681,1676,1672,1667,1662,1657,1653,1648,1641,1637,1632,1627,1623,1619,1615,1611,1606,1603,1599,1594,1591,1590,1589,1588,1588,1586,1584,1583,1579,1576,1574,1571,1568,1566,1563,1561,1561,1562,1567,1573,1585,1602,1624,1652,1686,1726,1772,1825,1880,1939,2001,2066,2131,2199,2268,2335,2403,2468,2529,2588,2640,2689,2752,2795,2824,2848,2867,2880,2889,2892,2891,2886,2877,2865,2851,2835,2817,2799,2779,2759,2741,2720,2699,2680,2663,2646,2630,2615,2600,2587,2573,2559,2547,2532,2518,2503,2488,2472,2455,2436,2417,2398,2378,2358,2340,2322,2304,2287,2270,2255,2240,2225,2210,2197,2186,2175,2165,2155,2146,2138,2131,2124,2119,2113,2109,2104,2100,2094,2090,2086,2082,2075,2070,2063,2055,2047,2038,2029,2019,2008,1996,1983,1971,1957,1943,1928,1912,1898,1883,1869,1857,1844,1832,1821,1808,1797,1785,1775,1764,1755,1747,1741,1736,1732,1728,1722,1718,1714,1709,1706,1701,1698,1693,1689,1685,1679,1676,1671,1668,1665,1662,1659,1657,1655,1652,1650,1646,1643,1637,1632,1625,1619,1611,1604,1598,1594,1587,1582,1575,1568,1563,1558,1552,1547,1542,1538,1536,1536,1536,1541,1549,1561,1577,1598,1625,1660,1700,1747,1799,1859,1922,1988,2057,2129,2202,2275,2346,2416,2481,2542,2599,2651,2698,2741,2792,2826,2846,2860,2869,2872,2870,2864,2854,2842,2826,2808,2787,2766,2744,2722,2699,2679,2657,2638,2619,2601,2585,2569,2555,2541,2525,2511,2497,2483,2469,2456,2443,2430,2418,2405,2392,2380,2367,2353,2341,2328,2316,2303,2290,2277,2264,2248,2233,2218,2203,2191,2176,2162,2149,2136,2124,2116,2107,2099,2092,2084,2078,2073,2065,2058,2051,2042,2034,2023,2014,2003,1993,1981,1971,1960,1950,1939,1929,1917,1904,1892,1880,1867,1855,1844,1833,1822,1812,1800,1790,1779,1770,1762,1753,1747,1742,1738,1736,1732,1731,1728,1725,1722,1717,1714,1710,1706,1702,1697,1691,1686,1681,1676,1672,1668,1664,1659,1656,1651,1649,1644,1641,1639,1637,1634,1633,1631,1630,1629,1628,1626,1624,1621,1617,1614,1608,1605,1600,1595,1589,1583,1577,1571,1567,1561,1557,1554,1550,1549,1549,1550,1556,1563,1576,1592,1614,1642,1677,1719,1765,1817,1875,1936,2002,2072,2143,2216,2287,2357,2426,2491,2553,2612,2664,2713,2754,2807,2840,2861,2876,2885,2890,2889,2883,2874,2862,2847,2830,2811,2793,2771,2748,2724,2697,2671,2646,2623,2600,2578,2558,2538,2519,2502,2486,2469,2452,2439,2427,2416,2405,2396,2387,2377,2365,2353,2340,2327,2314,2300,2287,2274,2260,2246,2233,2219,2206,2193,2181,2170,2159,2149,2139,2130,2119,2110,2100,2091,2083,2074,2068,2059,2052,2045,2036,2029,2020,2011,2002,1993,1984,1972,1960,1946,1931,1914,1897,1880,1864,1850,1835,1823,1812,1801,1791,1780,1770,1761,1753,1747,1739,1732,1725,1719,1712,1707,1701,1696,1689,1685,1680,1675,1669,1664,1657,1650,1645,1639,1633,1628,1624,1623,1621,1620,1619,1619,1617,1617,1614,1611,1609,1609,1607,1607,1607,1607,1604,1601,1598,1594,1590,1585,1580,1575,1570,1567,1562,1558,1553,1548,1545,1540,1535,1532,1528,1527,1522,1517,1514,1509,1506,1504,1503,1504,1509,1517,1528,1542,1561,1585,1614,1649,1690,1736,1788,1844,1907,1975,2044,2117,2191,2265,2338,2410,2479,2546,2608,2666,2718,2764,2823,2861,2884,2900,2911,2915,2913,2905,2893,2877,2857,2835,2811,2785,2758,2732,2705,2680,2656,2634,2613,2595,2578,2562,2549,2536,2525,2512,2501,2487,2474,2458,2441,2424,2406,2386,2365,2344,2323,2302,2283,2265,2247,2230,2216,2202,2188,2176,2166,2157,2148,2140,2133,2127,2121,2117,2113,2110,2105,2100,2095,2088,2079,2071,2061,2050,2039,2027,2014,2002,1990,1978,1965,1955,1943,1934,1925,1916,1906,1899,1890,1881,1872,1862,1852,1842,1831,1821,1810,1799,1786,1774,1761,1750,1739,1728,1716,1707,1698,1686,1678,1669,1661,1656,1651,1648,1646,1646,1645,1646,1646,1646,1646,1644,1644,1644,1642,1641,1639,1636,1633,1629,1625,1622,1618,1614,1609,1606,1601,1596,1592,1589,1587,1585,1583,1582,1583,1583,1584,1584,1584,1583,1581,1578,1575,1570,1566,1561,1555,1547,1540,1535,1529,1525,1522,1525,1531,1544,1560,1584,1614,1649,1692,1739,1793,1852,1913,1980,2050,2121,2195,2267,2341,2411,2480,2543,2604,2660,2713,2780,2826,2855,2878,2895,2906,2911,2910,2905,2894,2879,2859,2837,2811,2783,2754,2724,2693,2664,2637,2611,2588,2567,2547,2528,2509,2493,2478,2464,2451,2437,2424,2411,2396,2383,2369,2354,2339,2324,2308,2292,2276,2259,2243,2228,2213,2201,2188,2176,2168,2159,2151,2145,2137,2130,2122,2114,2107,2101,2093,2088,2083,2077,2072,2067,2061,2055,2048,2042,2032,2023,2012,2000,1987,1975,1960,1947,1932,1918,1905,1892,1879,1867,1856,1844,1832,1822,1812,1801,1793,1785,1777,1769,1760,1751,1743,1735,1725,1716,1705,1694,1684,1672,1662,1652,1641,1632,1622,1613,1607,1602,1599,1594,1592,1591,1589,1587,1585,1583,1583,1580,1578,1576,1573,1569,1567,1562,1557,1552,1547,1542,1538,1533,1528,1522,1517,1512,1509,1506,1503,1500,1499,1497,1497,1497,1495,1495,1494,1497,1498,1502,1509,1520,1533,1552,1576,1606,1641,1682,1728,1781,1840,1903,1971,2043,2118,2194,2271,2347,2422,2495,2564,2629,2689,2744,2792,2851,2888,2909,2927,2936,2939,2937,2932,2921,2910,2897,2882,2865,2847,2828,2807,2787,2767,2746,2726,2706,2686,2667,2649,2631,2612,2594,2577,2558,2541,2522,2504,2484,2468,2450,2431,2414,2397,2381,2365,2349,2333,2317,2302,2289,2276,2265,2254,2246,2236,2228,2219,2210,2199,2190,2180,2172,2162,2153,2144,2136,2128,2120,2112,2103,2095,2086,2077,2070,2061,2051,2043,2033,2025,2017,2009,2000,1992,1982,1973,1964,1954,1943,1930,1917,1902,1889,1873,1859,1844,1830,1817,1805,1792,1781,1770,1757,1746,1734,1722,1711,1700,1688,1676,1665,1654,1644,1635,1627,1619,1614,1608,1604,1597,1592,1587,1581,1575,1569,1564,1559,1554,1549,1545,1541,1536,1530,1525,1520,1516,1511,1507,1503,1497,1493,1489,1481,1478,1473,1468,1464,1459,1454,1449,1443,1438,1433,1429,1426,1426,1429,1437,1450,1469,1495,1528,1569,1616,1670,1731,1796,1866,1941,2019,2099,2180,2261,2339,2415,2488,2557,2622,2682,2737,2806,2852,2882,2905,2923,2934,2938,2938,2932,2923,2909,2892,2872,2851,2828,2805,2781,2757,2735,2714,2693,2673,2654,2637,2620,2606,2592,2577,2564,2551,2536,2521,2505,2490,2474,2459,2444,2428,2414,2400,2387,2370,2358,2345,2332,2320,2310,2298,2287,2278,2267,2257,2247,2238,2229,2221,2213,2205,2199,2192,2186,2179,2174,2168,2162,2156,2149,2141,2134,2126,2118,2109,2098,2087,2074,2062,2050,2037,2024,2011,1997,1983,1970,1956,1941,1926,1910,1894,1877,1860,1843,1825,1807,1790,1774,1759,1744,1730,1717,1707,1696,1688,1680,1674,1668,1664,1658,1653,1648,1642,1639,1633,1628,1622,1616,1611,1606,1603,1599,1597,1595,1592,1591,1588,1586,1585,1584,1581,1578,1576,1574,1571,1568,1567,1564,1562,1561,1560,1561,1562,1562,1563,1564,1564,1564,1564,1564,1562,1562,1560,1557,1555,1555,1555,1558,1563,1572,1585,1603,1628,1661,1698,1743,1792,1848,1910,1975,2045,2118,2195,2272,2352,2430,2507,2580,2650,2716,2776,2830,2879,2940,2979,3003,3021,3035,3041,3044,3042,3035,3023,3009,2991,2970,2946,2921,2895,2868,2840,2812,2785,2759,2732,2705,2681,2655,2631,2606,2582,2556,2533,2510,2488,2467,2447,2427,2410,2394,2378,2364,2350,2336,2324,2311,2299,2286,2272,2259,2247,2235,2223,2211,2198,2185,2172,2159,2146,2133,2121,2109,2098,2089,2079,2071,2065,2058,2053,2048,2042,2038,2033,2029,2026,2021,2015,2008,2002,1994,1985,1975,1964,1954,1941,1928,1914,1899,1884,1869,1854,1840,1825,1811,1797,1783,1770,1759,1745,1733,1720,1709,1698,1688,1679,1670,1662,1653,1646,1640,1635,1630,1625,1622,1619,1616,1613,1611,1610,1607,1604,1601,1598,1594,1589,1585,1581,1576,1571,1567,1561,1556,1552,1548,1544,1539,1536,1531,1527,1523,1520,1516,1513,1508,1504,1499,1492,1486,1479,1473,1468,1464,1462,1461,1463,1468,1478,1493,1515,1543,1576,1618,1667,1721,1783,1849,1921,1996,2075,2155,2238,2318,2398,2478,2556,2628,2697,2760,2817,2889,2938,2970,2996,3014,3027,3033,3033,3027,3018,3003,2985,2965,2940,2915,2889,2862,2834,2808,2781,2754,2727,2703,2680,2658,2638,2617,2597,2578,2559,2542,2524,2507,2490,2473,2455,2439,2423,2408,2392,2376,2361,2345,2330,2316,2302,2289,2275,2261,2247,2235,2224,2212,2203,2194,2186,2178,2170,2164,2159,2154,2149,2144,2140,2135,2130,2125,2118,2110,2104,2096,2088,2080,2072,2065,2056,2045,2033,2023,2010,1998,1984,1969,1954,1938,1921,1904,1885,1867,1849,1832,1816,1801,1785,1772,1759,1747,1737,1727,1716,1708,1703,1698,1694,1691,1689,1686,1683,1680,1676,1670,1665,1659,1651,1644,1635,1625,1615,1604,1595,1586,1578,1572,1567,1562,1558,1555,1553,1549,1548,1546,1545,1544,1544,1545,1546,1547,1548,1547,1546,1545,1543,1541,1541,1540,1540,1541,1546,1552,1563,1579,1601,1629,1664,1706,1754,1809,1870,1937,2007,2079,2154,2231,2310,2390,2469,2548,2622,2695,2762,2823,2880,2953,3002,3035,3059,3077,3088,3093,3092,3086,3074,3060,3041,3020,2999,2975,2950,2923,2897,2870,2843,2818,2795,2774,2753,2732,2707,2688,2668,2649,2629,2609,2591,2572,2553,2533,2513,2493,2473,2454,2433,2414,2395,2377,2359,2341,2324,2306,2289,2272,2258,2244,2231,2221,2210,2200,2191,2182,2173,2164,2156,2149,2140,2131,2121,2111,2100,2091,2081,2072,2063,2052,2043,2035,2027,2018,2010,2000,1989,1978,1967,1956,1946,1937,1926,1914,1902,1889,1875,1861,1846,1831,1815,1797,1779,1761,1742,1724,1708,1694,1680,1669,1658,1648,1639,1631,1625,1619,1614,1609,1606,1605,1605,1605,1605,1606,1607,1606,1606,1604,1603,1602,1601,1598,1595,1591,1587,1584,1582,1579,1577,1575,1574,1573,1572,1570,1570,1570,1569,1571,1573,1575,1577,1581,1586,1595,1606,1624,1646,1675,1710,1752,1801,1856,1918,1986,2059,2135,2215,2296,2377,2458,2538,2616,2691,2761,2826,2885,2937,2983,3041,3075,3095,3108,3113,3113,3107,3098,3084,3066,3046,3022,2997,2969,2942,2913,2884,2855,2827,2800,2774,2750,2728,2709,2691,2672,2656,2640,2623,2607,2592,2576,2561,2544,2527,2509,2491,2473,2455,2437,2419,2400,2381,2362,2343,2325,2308,2291,2276,2261,2247,2232,2218,2205,2193,2182,2171,2161,2152,2143,2137,2130,2125,2120,2114,2109,2103,2098,2092,2086,2079,2070,2059,2047,2034,2020,2006,1994,1980,1968,1957,1943,1931,1917,1904,1891,1879,1867,1858,1849,1841,1832,1823,1813,1803,1793,1781,1771,1760,1750,1737,1724,1711,1699,1687,1674,1663,1653,1645,1639,1635,1631,1628,1625,1624,1623,1622,1622,1622,1624,1625,1626,1626,1627,1626,1626,1625,1624,1623,1624,1623,1621,1619,1619,1617,1614,1613,1611,1608,1606,1603,1600,1598,1597,1597,1601,1605,1615,1629,1648,1674,1705,1742,1786,1837,1892,1954,2020,2092,2166,2243,2322,2402,2479,2555,2631,2700,2765,2825,2879,2926,2985,3023,3047,3065,3077,3082,3083,3077,3066,3051,3032,3011,2991,2967,2942,2917,2892,2866,2841,2815,2789,2764,2740,2717,2694,2672,2650,2630,2612,2593,2576,2558,2540,2522,2503,2486,2466,2447,2428,2408,2388,2369,2352,2335,2318,2303,2288,2272,2259,2245,2231,2217,2203,2191,2178,2165,2153,2142,2133,2123,2116,2109,2101,2094,2085,2078,2071,2065,2059,2053,2047,2041,2035,2028,2022,2014,2005,1995,1983,1970,1957,1943,1928,1912,1894,1877,1860,1845,1829,1816,1804,1792,1781,1770,1759,1748,1739,1731,1723,1718,1712,1709,1705,1701,1698,1695,1692,1689,1687,1684,1680,1675,1669,1663,1655,1647,1641,1633,1626,1619,1615,1609,1605,1599,1595,1591,1587,1585,1583,1582,1582,1581,1580,1578,1574,1569,1565,1561,1557,1552,1546,1540,1534,1528,1522,1517,1515,1517,1523,1532,1548,1569,1595,1629,1668,1714,1767,1827,1893,1965,2041,2122,2205,2290,2374,2456,2537,2613,2686,2753,2814,2868,2914,2970,3004,3023,3034,3041,3042,3038,3029,3016,2999,2979,2956,2932,2905,2878,2850,2821,2792,2765,2738,2712,2688,2665,2645,2621,2603,2585,2570,2555,2539,2524,2509,2494,2478,2463,2445,2426,2408,2388,2370,2350,2331,2311,2291,2274,2258,2242,2228,2214,2202,2190,2180,2171,2160,2151,2143,2133,2125,2116,2106,2096,2086,2077,2068,2058,2050,2042,2032,2024,2015,2007,2000,1993,1986,1978,1971,1961,1952,1942,1932,1920,1910,1898,1887,1876,1863,1851,1837,1823,1808,1795,1781,1768,1756,1741,1729,1718,1706,1696,1689,1681,1675,1669,1664,1659,1655,1652,1647,1644,1640,1635,1633,1629,1627,1625,1621,1620,1617,1613,1611,1609,1604,1601,1595,1589,1582,1575,1568,1560,1554,1549,1543,1540,1537,1536,1535,1536,1536,1536,1537,1537,1539,1541,1544,1549,1556,1566,1580,1599,1623,1652,1689,1732,1779,1832,1891,1955,2023,2094,2170,2244,2319,2393,2467,2537,2603,2665,2723,2774,2819,2875,2912,2934,2951,2961,2965,2964,2957,2946,2931,2911,2889,2865,2839,2813,2785,2758,2731,2707,2680,2655,2631,2607,2583,2561,2539,2517,2498,2477,2457,2439,2420,2401,2383,2365,2349,2331,2313,2296,2279,2262,2244,2226,2209,2194,2177,2162,2148,2136,2124,2114,2106,2099,2093,2089,2086,2083,2081,2079,2076,2074,2072,2070,2066,2061,2057,2049,2041,2030,2022,2010,1998,1984,1969,1953,1937,1922,1907,1893,1881,1868,1857,1846,1837,1826,1817,1807,1798,1789,1781,1773,1764,1756,1747,1737,1728,1717,1708,1699,1691,1683,1675,1668,1660,1654,1647,1641,1635,1630,1625,1622,1619,1617,1616,1615,1615,1615,1615,1615,1616,1615,1615,1615,1613,1610,1608,1604,1601,1597,1593,1587,1582,1573,1567,1558,1550,1542,1537,1533,1532,1533,1538,1549,1563,1583,1609,1642,1681,1726,1777,1833,1895,1961,2032,2104,2180,2256,2333,2411,2486,2560,2629,2695,2756,2811,2882,2930,2961,2985,3003,3014,3019,3019,3013,3003,2988,2971,2949,2926,2901,2877,2851,2825,2799,2774,2749,2726,2705,2686,2667,2651,2634,2620,2603,2590,2577,2561,2546,2530,2512,2494,2477,2457,2438,2418,2398,2379,2359,2339,2321,2303,2285,2267,2250,2233,2217,2202,2187,2174,2161,2150,2139,2128,2119,2109,2101,2093,2085,2075,2066,2056,2045,2033,2022,2009,1996,1983,1971,1961,1951,1940,1929,1918,1907,1897,1886,1876,1865,1853,1841,1827,1812,1797,1781,1766,1752,1738,1725,1713,1702,1693,1682,1677,1670,1666,1664,1661,1659,1658,1656,1654,1652,1649,1645,1642,1638,1635,1630,1626,1623,1618,1613,1607,1600,1594,1589,1583,1580,1576,1574,1571,1569,1566,1563,1559,1556,1553,1550,1547,1545,1542,1539,1537,1535,1533,1533,1537,1542,1552,1566,1583,1607,1633,1666,1707,1751,1803,1862,1926,1996,2070,2149,2230,2311,2392,2473,2550,2625,2697,2764,2826,2881,2931,2992,3030,3053,3069,3077,3079,3075,3065,3051,3035,3015,2993,2971,2946,2921,2894,2869,2843,2819,2796,2773,2753,2734,2718,2702,2688,2675,2663,2651,2638,2626,2611,2598,2580,2565,2549,2532,2512,2491,2471,2449,2428,2407,2386,2366,2348,2330,2314,2298,2284,2271,2260,2248,2238,2228,2218,2210,2201,2192,2183,2174,2165,2155,2144,2134,2122,2110,2095,2081,2067,2052,2037,2022,2007,1993,1980,1969,1959,1949,1939,1930,1920,1910,1899,1887,1877,1865,1854,1842,1830,1819,1807,1794,1780,1767,1753,1739,1725,1712,1698,1686,1675,1665,1657,1651,1645,1642,1640,1640,1639,1641,1643,1644,1645,1647,1648,1649,1650,1649,1649,1646,1646,1641,1638,1634,1629,1623,1615,1607,1600,1591,1583,1577,1571,1567,1564,1563,1562,1562,1564,1568,1573,1580,1590,1602,1619,1641,1667,1699,1736,1780,1830,1885,1946,2011,2081,2156,2231,2309,2385,2461,2535,2607,2675,2738,2795,2846,2892,2950,2986,3009,3026,3039,3046,3049,3047,3041,3032,3019,3003,2985,2964,2942,2920,2896,2872,2848,2823,2799,2777,2756,2736,2717,2698,2679,2660,2643,2624,2607,2588,2570,2551,2532,2513,2495,2478,2460,2443,2426,2408,2391,2373,2354,2335,2315,2296,2276,2257,2237,2220,2204,2189,2176,2163,2153,2141,2133,2125,2116,2109,2100,2091,2082,2075,2066,2057,2049,2041,2033,2025,2017,2009,2000,1991,1982,1971,1960,1950,1940,1927,1915,1902,1890,1876,1862,1845,1830,1812,1796,1781,1766,1752,1740,1728,1718,1711,1705,1698,1694,1689,1685,1680,1678,1675,1672,1671,1669,1666,1665,1661,1657,1653,1650,1645,1642,1637,1633,1630,1626,1622,1619,1617,1615,1612,1606,1602,1596,1591,1585,1578,1571,1564,1557,1552,1546,1541,1536,1533,1530,1529,1530,1533,1537,1546,1558,1573,1592,1618,1651,1690,1737,1789,1848,1913,1981,2052,2126,2202,2279,2355,2429,2501,2568,2633,2692,2746,2794,2852,2892,2915,2933,2944,2951,2952,2950,2942,2931,2918,2900,2881,2858,2833,2809,2784,2759,2736,2715,2696,2677,2660,2643,2626,2612,2598,2584,2569,2555,2540,2525,2510,2493,2477,2461,2445,2428,2411,2395,2379,2364,2349,2335,2320,2306,2292,2278,2263,2250,2237,2223,2210,2197,2186,2175,2163,2152,2142,2132,2123,2115,2109,2102,2093,2084,2074,2063,2050,2040,2028,2017,2005,1993,1980,1965,1951,1937,1922,1909,1896,1882,1867,1852,1835,1816,1797,1777,1758,1740,1723,1707,1692,1679,1666,1656,1648,1643,1639,1637,1636,1637,1638,1640,1640,1639,1639,1639,1639,1640,1640,1640,1641,1640,1639,1638,1636,1632,1629,1626,1623,1620,1616,1614,1610,1607,1603,1601,1598,1593,1590,1586,1583,1581,1578,1575,1572,1568,1561,1555,1549,1543,1537,1531,1527,1526,1527,1530,1539,1552,1571,1596,1628,1666,1710,1762,1819,1881,1949,2020,2094,2170,2248,2325,2403,2477,2548,2615,2678,2735,2786,2850,2893,2920,2940,2954,2962,2964,2960,2953,2941,2927,2910,2892,2872,2850,2828,2804,2780,2756,2731,2706,2682,2659,2637,2617,2598,2580,2564,2548,2533,2516,2500,2482,2464,2445,2425,2403,2374,2350,2325,2301,2276,2255,2235,2215,2198,2183,2170,2157,2144,2134,2121,2107,2096,2085,2076,2065,2055,2045,2037,2028,2020,2012,2005,1998,1993,1987,1982,1977,1972,1967,1962,1955,1948,1940,1931,1921,1909,1898,1886,1875,1862,1850,1838,1825,1812,1800,1788,1776,1765,1754,1743,1732,1720,1708,1697,1687,1677,1667,1658,1651,1643,1635,1631,1627,1624,1624,1624,1626,1627,1628,1629,1630,1630,1631,1630,1629,1626,1624,1621,1619,1616,1612,1608,1605,1600,1595,1589,1582,1577,1571,1564,1557,1550,1543,1535,1528,1521,1515,1510,1506,1503,1502,1503,1505,1510,1519,1533,1552,1576,1609,1649,1695,1749,1808,1873,1943,2016,2092,2171,2252,2331,2410,2486,2559,2628,2694,2754,2809,2859,2921,2962,2987,3008,3023,3031,3036,3035,3029,3020,3008,2992,2974,2954,2931,2908,2884,2858,2833,2808,2784,2760,2737,2717,2698,2681,2665,2649,2635,2620,2605,2589,2573,2555,2535,2514,2494,2472,2453,2433,2414,2394,2374,2356,2336,2314,2294,2275,2256,2240,2224,2210,2199,2190,2181,2174,2167,2160,2154,2146,2140,2134,2127,2120,2114,2108,2102,2097,2091,2084,2078,2073,2065,2060,2053,2043,2035,2026,2016,2006,1997,1988,1977,1967,1957,1945,1934,1923,1911,1898,1887,1875,1862,1847,1832,1818,1802,1787,1773,1758,1746,1734,1723,1715,1706,1698,1690,1683,1677,1672,1666,1661,1656,1651,1648,1643,1639,1636,1631,1626,1621,1615,1610,1604,1597,1592,1587,1582,1579,1575,1573,1570,1569,1566,1565,1562,1560,1558,1555,1553,1551,1552,1554,1559,1568,1580,1597,1620,1649,1686,1729,1778,1835,1898,1966,2038,2113,2191,2270,2350,2429,2505,2577,2648,2712,2771,2825,2874,2934,2974,2998,3016,3028,3035,3039,3037,3030,3019,3006,2989,2969,2948,2926,2903,2879,2855,2831,2809,2787,2766,2746,2727,2711,2696,2680,2666,2651,2636,2621,2606,2590,2575,2559,2541,2523,2503,2485,2466,2449,2430,2413,2394,2377,2357,2337,2316,2294,2274,2254,2235,2218,2201,2186,2172,2160,2150,2139,2129,2120,2112,2106,2099,2095,2090,2085,2080,2075,2068,2060,2051,2042,2032,2022,2010,1997,1984,1971,1957,1943,1927,1913,1899,1885,1871,1860,1847,1836,1824,1813,1802,1789,1778,1768,1759,1752,1745,1739,1733,1730,1727,1724,1721,1718,1713,1709,1702,1695,1688,1679,1671,1662,1652,1644,1637,1631,1625,1618,1613,1607,1603,1598,1595,1592,1589,1588,1586,1583,1580,1576,1573,1568,1564,1558,1555,1550,1545,1544,1541,1542,1544,1548,1555,1567,1583,1603,1629,1661,1699,1742,1790,1842,1902,1966,2033,2105,2178,2254,2332,2409,2486,2560,2633,2700,2762,2817,2867,2930,2972,2997,3017,3031,3039,3043,3041,3034,3023,3007,2989,2966,2943,2918,2892,2866,2839,2812,2787,2763,2739,2717,2695,2676,2656,2639,2621,2605,2587,2571,2554,2537,2521,2503,2487,2467,2449,2429,2407,2385,2363,2342,2313,2293,2272,2251,2232,2214,2197,2181,2166,2154,2140,2129,2116,2106,2094,2083,2072,2060,2050,2041,2032,2023,2014,2005,1997,1987,1979,1968,1958,1947,1936,1924,1910,1895,1880,1864,1849,1833,1817,1804,1791,1781,1770,1761,1751,1743,1735,1727,1718,1707,1698,1687,1676,1664,1653,1641,1630,1620,1610,1600,1591,1583,1575,1568,1562,1556,1551,1546,1542,1538,1536,1535,1535,1535,1535,1538,1541,1543,1547,1548,1552,1553,1554,1552,1551,1548,1544,1539,1535,1528,1522,1515,1508,1500,1493,1487,1484,1481,1482,1487,1496,1514,1537,1568,1604,1650,1701,1759,1822,1891,1962,2036,2111,2189,2265,2342,2415,2487,2556,2620,2681,2737,2806,2855,2889,2917,2938,2956,2966,2973,2976,2973,2966,2956,2940,2921,2900,2874,2847,2819,2789,2758,2729,2700,2672,2645,2619,2595,2571,2549,2526,2503,2480,2458,2436,2415,2395,2374,2354,2334,2315,2297,2278,2259,2241,2223,2206,2187,2169,2154,2138,2123,2110,2097,2086,2077,2068,2062,2055,2049,2042,2035,2028,2021,2015,2008,2001,1992,1987,1978,1971,1964,1954,1945,1934,1924,1911,1898,1885,1871,1856,1841,1826,1812,1798,1783,1769,1756,1742,1728,1714,1700,1689,1677,1666,1658,1649,1643,1635,1629,1623,1620,1616,1612,1609,1606,1603,1600,1598,1595,1591,1586,1581,1575,1570,1563,1559,1552,1549,1544,1540,1534,1531,1526,1520,1514,1509,1505,1499,1496,1491,1489,1486,1485,1487,1491,1497,1508,1523,1542,1567,1595,1629,1671,1716,1767,1823,1885,1949,2017,2088,2160,2233,2306,2376,2445,2511,2573,2631,2684,2732,2792,2832,2857,2876,2889,2897,2900,2897,2889,2878,2863,2846,2826,2805,2782,2758,2732,2706,2679,2645,2619,2592,2567,2546,2525,2505,2487,2468,2452,2435,2419,2403,2387,2370,2353,2336,2320,2304,2286,2269,2252,2234,2216,2200,2182,2164,2147,2130,2112,2097,2081,2066,2052,2040,2028,2017,2008,1999,1988,1980,1972,1964,1959,1952,1946,1941,1936,1930,1925,1919,1914,1906,1899,1892,1884,1876,1866,1857,1847,1834,1821,1809,1795,1781,1766,1752,1737,1723,1710,1696,1683,1675,1665,1658,1650,1643,1638,1631,1624,1617,1610,1602,1595,1588,1582,1574,1567,1560,1552,1544,1537,1529,1523,1517,1511,1507,1502,1500,1497,1494,1494,1493,1493,1494,1493,1495,1496,1498,1500,1504,1508,1516,1526,1540,1558,1581,1611,1647,1689,1738,1792,1851,1915,1982,2054,2127,2201,2273,2348,2419,2489,2555,2617,2675,2726,2771,2826,2861,2882,2898,2907,2911,2909,2901,2888,2872,2851,2827,2801,2773,2745,2716,2686,2657,2629,2600,2574,2549,2526,2505,2485,2466,2448,2430,2412,2393,2376,2357,2340,2321,2302,2282,2263,2243,2223,2204,2185,2167,2150,2134,2118,2105,2091,2077,2066,2055,2046,2039,2032,2026,2022,2016,2012,2008,2003,1998,1993,1989,1983,1979,1975,1970,1965,1957,1949,1941,1932,1922,1913,1903,1893,1882,1872,1861,1849,1836,1823,1809,1792,1776,1759,1743,1728,1712,1698,1684,1671,1658,1644,1633,1621,1609,1598,1588,1580,1574,1568,1566,1565,1563,1560,1558,1556,1552,1549,1546,1544,1541,1539,1536,1534,1531,1528,1525,1521,1517,1512,1506,1500,1493,1488,1483,1481,1481,1483,1489,1501,1518,1540,1567,1600,1640,1685,1733,1791,1851,1918,1988,2063,2137,2214,2291,2365,2439,2510,2578,2643,2704,2762,2848,2898,2929,2955,2975,2987,2993,2994,2989,2980,2965,2947,2926,2903,2877,2852,2825,2798,2771,2744,2716,2690,2664,2639,2615,2593,2573,2553,2536,2518,2502,2484,2469,2451,2433,2416,2398,2381,2363,2346,2330,2312,2295,2278,2261,2244,2228,2213,2199,2185,2172,2159,2149,2139,2130,2123,2117,2112,2109,2106,2103,2103,2099,2095,2091,2086,2078,2071,2063,2053,2044,2033,2022,2008,1995,1980,1965,1950,1935,1918,1901,1884,1868,1850,1833,1816,1803,1788,1776,1766,1756,1748,1741,1732,1725,1716,1708,1700,1692,1682,1674,1666,1658,1649,1639,1629,1620,1609,1600,1592,1584,1578,1571,1566,1560,1556,1552,1548,1545,1543,1541,1541,1541,1544,1545,1546,1549,1551,1557,1564,1576,1592,1615,1643,1675,1715,1760,1810,1867,1930,1999,2071,2146,2224,2301,2379,2454,2527,2596,2660,2718,2770,2816,2856,2912,2940,2956,2966,2970,2968,2960,2949,2930,2909,2885,2859,2831,2802,2774,2747,2722,2697,2674,2651,2629,2608,2588,2570,2547,2530,2513,2495,2477,2458,2439,2423,2404,2385,2367,2350,2332,2314,2295,2277,2257,2238,2217,2199,2179,2159,2142,2125,2110,2096,2084,2072,2061,2053,2044,2037,2031,2026,2022,2018,2016,2013,2012,2009,2008,2005,2001,1996,1990,1982,1972,1962,1952,1940,1928,1917,1904,1892,1879,1868,1855,1843,1831,1821,1810,1800,1790,1780,1770,1759,1751,1742,1733,1724,1715,1707,1700,1692,1685,1678,1669,1662,1655,1648,1641,1634,1627,1621,1615,1611,1607,1603,1600,1595,1591,1587,1582,1580,1577,1575,1572,1572,1572,1573,1576,1578,1582,1586,1594,1605,1619,1639,1663,1690,1723,1761,1805,1854,1910,1969,2035,2102,2174,2246,2320,2393,2465,2536,2606,2671,2732,2788,2837,2880,2932,2962,2980,2992,2997,2998,2994,2986,2972,2954,2934,2910,2885,2858,2830,2801,2774,2747,2722,2697,2674,2653,2633,2616,2599,2582,2567,2551,2534,2517,2501,2483,2467,2450,2433,2415,2395,2377,2354,2333,2309,2286,2263,2241,2221,2203,2187,2174,2161,2150,2138,2129,2121,2115,2110,2107,2104,2101,2098,2092,2087,2080,2073,2064,2055,2045,2035,2024,2014,2002,1991,1980,1969,1957,1946,1934,1922,1910,1899,1888,1876,1865,1854,1843,1831,1819,1807,1795,1783,1772,1760,1748,1736,1726,1715,1705,1696,1686,1679,1672,1665,1660,1655,1651,1647,1644,1642,1639,1636,1633,1630,1624,1619,1613,1608,1604,1600,1598,1596,1594,1593,1590,1587,1582,1578,1573,1567,1563,1558,1552,1548,1544,1540,1540,1541,1546,1555,1569,1588,1614,1645,1682,1727,1775,1830,1890,1955,2025,2098,2175,2253,2332,2409,2485,2557,2627,2693,2754,2811,2862,2926,2967,2992,3009,3019,3023,3022,3015,3004,2991,2970,2950,2927,2904,2879,2854,2827,2802,2777,2753,2729,2705,2682,2660,2639,2619,2598,2578,2558,2536,2516,2495,2473,2452,2431,2410,2389,2370,2351,2331,2312,2294,2276,2258,2239,2222,2206,2189,2173,2158,2144,2130,2120,2109,2103,2095,2091,2088,2084,2080,2076,2071,2067,2061,2052,2043,2035,2025,2015,2005,1994,1983,1971,1959,1945,1931,1917,1900,1887,1870,1855,1840,1826,1811,1796,1782,1768,1755,1742,1729,1714,1700,1686,1670,1655,1641,1627,1615,1602,1592,1584,1578,1571,1567,1565,1562,1560,1558,1555,1553,1550,1549,1548,1548,1549,1550,1552,1553,1555,1557,1558,1558,1557,1556,1554,1551,1547,1540,1534,1528,1522,1517,1511,1507,1501,1499,1499,1498,1501,1507,1514,1527,1544,1564,1590,1620,1657,1698,1746,1800,1859,1924,1994,2069,2145,2225,2306,2386,2464,2540,2611,2678,2739,2798,2848,2912,2955,2980,3001,3015,3023,3028,3027,3022,3013,3000,2981,2960,2936,2910,2883,2855,2824,2793,2759,2727,2694,2662,2631,2600,2570,2540,2511,2484,2457,2431,2406,2384,2362,2341,2321,2300,2282,2263,2247,2231,2217,2205,2194,2183,2172,2162,2151,2140,2128,2117,2105,2094,2082,2072,2062,2054,2043,2037,2030,2024,2019,2012,2005,2000,1994,1987,1982,1975,1968,1960,1953,1945,1935,1925,1912,1900,1888,1874,1861,1847,1834,1823,1810,1799,1789,1779,1773,1766,1759,1754,1748,1740,1732,1723,1715,1707,1699,1692,1684,1676,1668,1658,1651,1643,1635,1628,1622,1615,1610,1604,1601,1597,1593,1590,1589,1588,1588,1587,1587,1588,1587,1587,1585,1581,1578,1574,1568,1563,1555,1549,1542,1535,1528,1524,1520,1515,1513,1510,1509,1508,1508,1507,1507,1512,1520,1533,1554,1583,1619,1664,1716,1776,1841,1912,1988,2065,2145,2223,2303,2380,2457,2531,2602,2670,2734,2793,2845,2912,2956,2983,3003,3018,3027,3030,3026,3019,3006,2987,2963,2935,2903,2871,2837,2803,2770,2736,2704,2674,2645,2618,2591,2565,2540,2516,2492,2469,2446,2423,2401,2379,2358,2337,2318,2299,2281,2263,2244,2226,2207,2188,2170,2152,2135,2118,2104,2092,2080,2072,2066,2060,2056,2055,2055,2054,2054,2052,2051,2048,2046,2041,2037,2033,2029,2023,2019,2012,2004,1995,1984,1971,1956,1941,1924,1909,1893,1879,1864,1849,1835,1820,1805,1790,1777,1762,1749,1737,1725,1714,1703,1692,1681,1672,1663,1654,1644,1637,1629,1622,1614,1608,1603,1597,1592,1588,1582,1579,1575,1570,1564,1559,1553,1547,1542,1538,1535,1532,1530,1527,1525,1522,1522,1521,1520,1518,1517,1516,1514,1511,1509,1509,1507,1507,1507,1508,1509,1511,1514,1517,1521,1526,1534,1544,1558,1578,1603,1635,1675,1723,1779,1841,1910,1984,2062,2144,2227,2310,2393,2473,2552,2626,2697,2762,2823,2877,2927,2988,3028,3054,3072,3084,3090,3088,3081,3068,3050,3028,3003,2976,2945,2915,2884,2854,2823,2793,2764,2736,2702,2676,2652,2630,2607,2585,2564,2541,2520,2496,2474,2453,2430,2407,2386,2367,2348,2330,2315,2302,2288,2275,2260,2246,2232,2217,2204,2191,2180,2168,2156,2146,2135,2124,2114,2101,2090,2078,2069,2061,2054,2050,2047,2044,2041,2039,2035,2030,2021,2010,1999,1986,1971,1957,1943,1929,1916,1903,1889,1875,1860,1846,1832,1818,1805,1791,1778,1767,1756,1743,1731,1717,1703,1690,1675,1662,1648,1636,1626,1617,1607,1600,1594,1589,1585,1581,1579,1577,1576,1575,1574,1572,1571,1569,1566,1565,1561,1557,1554,1549,1546,1541,1539,1535,1533,1531,1530,1528,1527,1525,1523,1521,1519,1515,1513,1510,1506,1503,1499,1494,1494,1494,1499,1507,1521,1541,1566,1598,1635,1679,1730,1788,1852,1921,1995,2073,2154,2237,2321,2407,2490,2571,2649,2721,2788,2848,2902,2971,3015,3043,3065,3082,3092,3095,3094,3087,3075,3058,3037,3011,2983,2953,2921,2890,2857,2826,2794,2763,2732,2704,2676,2651,2627,2605,2584,2564,2547,2528,2511,2493,2476,2460,2443,2427,2411,2394,2378,2363,2348,2332,2315,2297,2279,2262,2245,2228,2214,2199,2188,2176,2164,2153,2140,2127,2114,2101,2086,2072,2058,2046,2033,2023,2013,2004,1994,1986,1977,1971,1963,1955,1947,1938,1929,1919,1908,1898,1886,1875,1863,1852,1842,1831,1822,1811,1801,1792,1781,1772,1761,1750,1737,1723,1710,1696,1683,1670,1658,1648,1638,1630,1622,1614,1607,1600,1594,1588,1582,1577,1571,1565,1561,1554,1549,1544,1541,1537,1536,1534,1533,1533,1535,1536,1539,1542,1544,1546,1547,1547,1545,1544,1542,1539,1535,1531,1526,1520,1514,1507,1502,1496,1489,1486,1482,1480,1481,1480,1486,1494,1508,1528,1555,1590,1632,1682,1738,1800,1870,1946,2028,2114,2203,2294,2384,2474,2561,2644,2722,2794,2860,2919,2972,3038,3081,3110,3131,3147,3157,3161,3159,3150,3135,3117,3095,3072,3047,3020,2992,2962,2931,2899,2867,2835,2804,2773,2744,2717,2691,2667,2644,2620,2597,2573,2550,2526,2505,2483,2463,2443,2423,2405,2386,2366,2348,2330,2312,2295,2280,2267,2252,2240,2229,2220,2210,2200,2191,2182,2172,2163,2153,2146,2137,2127,2117,2108,2097,2087,2077,2067,2057,2049,2039,2031,2020,2010,1999,1988,1976,1965,1952,1940,1928,1914,1899,1886,1870,1856,1841,1825,1810,1795,1781,1766,1753,1739,1725,1711,1696,1683,1670,1657,1646,1636,1626,1618,1609,1603,1596,1592,1589,1588,1585,1584,1583,1581,1580,1580,1579,1579,1578,1578,1576,1574,1572,1569,1569,1567,1566,1565,1564,1565,1563,1563,1562,1562,1561,1561,1558,1556,1552,1548,1542,1539,1534,1531,1527,1525,1520,1518,1515,1516,1520,1527,1538,1556,1579,1607,1643,1682,1729,1782,1841,1905,1973,2045,2122,2203,2284,2367,2449,2529,2607,2683,2753,2818,2876,2928,2996,3041,3069,3090,3104,3112,3114,3110,3100,3086,3067,3046,3022,2995,2966,2936,2897,2866,2836,2807,2778,2751,2724,2698,2673,2650,2626,2603,2580,2559,2536,2515,2493,2473,2450,2429,2406,2384,2362,2339,2318,2298,2278,2259,2241,2224,2207,2190,2174,2158,2143,2131,2118,2109,2100,2093,2086,2080,2075,2070,2064,2060,2054,2050,2043,2037,2030,2023,2014,2006,1996,1985,1974,1962,1951,1938,1927,1913,1898,1885,1870,1855,1840,1825,1811,1798,1786,1775,1765,1756,1747,1741,1734,1728,1723,1716,1709,1702,1694,1687,1680,1672,1667,1663,1657,1654,1648,1645,1642,1639,1636,1633,1631,1627,1624,1620,1616,1613,1610,1607,1605,1603,1602,1603,1604,1604,1606,1606,1606,1604,1602,1601,1599,1598,1597,1593,1589,1584,1579,1574,1570,1563,1558,1552,1545,1540,1534,1533,1532,1534,1541,1552,1569,1592,1622,1659,1702,1753,1811,1873,1942,2015,2094,2176,2259,2343,2427,2508,2586,2661,2732,2798,2857,2911,2979,3022,3049,3068,3081,3086,3087,3081,3069,3054,3034,3012,2987,2960,2932,2902,2872,2840,2810,2779,2749,2721,2693,2667,2642,2617,2592,2568,2545,2523,2500,2480,2459,2440,2420,2401,2379,2357,2334,2312,2292,2271,2254,2236,2220,2207,2193,2181,2170,2160,2150,2142,2136,2130,2123,2119,2113,2108,2102,2096,2091,2084,2078,2072,2066,2057,2049,2041,2028,2016,2002,1985,1968,1951,1934,1917,1899,1885,1869,1855,1842,1829,1817,1805,1793,1781,1769,1757,1745,1732,1720,1709,1698,1687,1677,1667,1660,1654,1648,1644,1639,1634,1630,1626,1622,1620,1618,1616,1615,1615,1614,1613,1613,1610,1609,1606,1603,1600,1596,1592,1588,1585,1581,1576,1573,1569,1565,1563,1561,1560,1558,1558,1559,1558,1559,1560,1560,1560,1558,1556,1555,1551,1548,1546,1545,1545,1550,1559,1574,1596,1625,1660,1704,1755,1814,1881,1953,2030,2111,2194,2280,2366,2450,2533,2613,2691,2764,2832,2896,2953,3025,3072,3100,3121,3134,3141,3142,3136,3125,3110,3090,3068,3043,3016,2986,2957,2924,2893,2861,2831,2801,2773,2746,2718,2694,2669,2646,2623,2602,2581,2560,2539,2517,2495,2474,2450,2427,2403,2380,2357,2334,2313,2292,2272,2251,2234,2217,2200,2187,2174,2163,2154,2146,2138,2131,2124,2118,2113,2108,2101,2096,2090,2084,2078,2072,2065,2057,2050,2041,2030,2020,2010,1999,1988,1976,1965,1953,1940,1927,1915,1903,1890,1878,1867,1855,1844,1832,1820,1809,1796,1785,1773,1760,1746,1733,1721,1709,1699,1690,1681,1673,1665,1656,1647,1639,1629,1622,1615,1610,1605,1602,1599,1597,1596,1595,1594,1593,1593,1594,1594,1595,1595,1595,1593,1592,1591,1590,1589,1589,1587,1585,1583,1581,1578,1574,1572,1569,1564,1558,1551,1544,1535,1528,1521,1514,1511,1512,1517,1527,1544,1567,1597,1636,1683,1737,1800,1867,1941,2021,2103,2190,2278,2367,2455,2542,2626,2706,2781,2851,2914,2971,3043,3090,3118,3140,3155,3163,3165,3160,3150,3135,3115,3092,3066,3031,3001,2972,2941,2912,2883,2855,2827,2800,2774,2751,2729,2707,2688,2668,2649,2630,2611,2591,2569,2546,2523,2497,2470,2443,2415,2390,2366,2343,2321,2300,2279,2262,2244,2229,2216,2203,2193,2182,2172,2163,2153,2141,2130,2120,2108,2098,2089,2078,2071,2062,2053,2043,2035,2025,2016,2005,1993,1982,1971,1959,1947,1935,1924,1914,1905,1896,1886,1877,1868,1858,1849,1837,1825,1813,1802,1790,1778,1767,1754,1742,1731,1719,1706,1693,1680,1667,1657,1647,1636,1628,1618,1610,1603,1598,1591,1586,1581,1577,1570,1564,1559,1553,1549,1545,1541,1538,1535,1532,1530,1529,1526,1525,1522,1519,1518,1517,1516,1516,1516,1516,1516,1513,1511,1508,1504,1500,1494,1491,1486,1481,1477,1473,1471,1469,1469,1472,1479,1490,1507,1531,1560,1597,1642,1693,1753,1819,1890,1969,2050,2137,2225,2314,2405,2492,2578,2660,2737,2808,2873,2932,2981,3042,3080,3102,3116,3125,3127,3125,3118,3107,3090,3070,3047,3020,2991,2962,2932,2901,2870,2838,2808,2778,2751,2724,2700,2677,2654,2633,2612,2593,2573,2552,2532,2511,2489,2468,2446,2423,2401,2380,2358,2336,2314,2295,2277,2260,2244,2230,2216,2202,2189,2173,2160,2147,2135,2124,2113,2105,2095,2087,2079,2071,2064,2057,2049,2041,2034,2027,2017,2008,1998,1988,1976,1966,1954,1942,1930,1920,1907,1895,1882,1868,1854,1838,1823,1807,1790,1775,1760,1744,1731,1719,1707,1698,1688,1679,1672,1665,1657,1648,1640,1631,1622,1614,1606,1597,1591,1583,1577,1570,1563,1556,1549,1542,1535,1530,1524,1520,1517,1516,1515,1514,1512,1510,1509,1509,1510,1513,1513,1516,1516,1517,1517,1515,1514,1513,1508,1506,1501,1498,1494,1489,1487,1483,1480,1478,1475,1474,1474,1475,1480,1487,1498,1513,1534,1562,1596,1638,1688,1745,1809,1879,1955,2035,2120,2207,2295,2385,2473,2559,2643,2722,2797,2865,2926,2980,3045,3087,3112,3130,3142,3147,3147,3141,3131,3117,3099,3076,3052,3025,2996,2968,2938,2906,2876,2845,2816,2786,2758,2731,2705,2681,2656,2634,2613,2590,2568,2544,2521,2496,2472,2448,2425,2403,2382,2362,2342,2324,2306,2290,2276,2260,2248,2236,2224,2212,2199,2188,2176,2164,2153,2144,2133,2123,2113,2104,2095,2087,2078,2071,2064,2056,2047,2037,2029,2017,2006,1994,1982,1970,1958,1945,1931,1917,1904,1892,1880,1866,1853,1841,1827,1816,1803,1790,1778,1766,1755,1744,1734,1724,1715,1706,1697,1687,1679,1671,1663,1656,1647,1639,1629,1621,1612,1605,1597,1590,1584,1579,1575,1572,1568,1566,1565,1565,1566,1568,1568,1568,1566,1565,1563,1560,1558,1555,1553,1551,1548,1545,1542,1538,1533,1530,1525,1521,1516,1510,1505,1501,1496,1491,1488,1487,1485,1484,1485,1488,1495,1508,1527,1553,1586,1628,1677,1733,1795,1864,1941,2021,2106,2194,2283,2371,2459,2543,2623,2700,2770,2835,2894,2945,3011,3062,3088,3107,3119,3126,3125,3119,3108,3092,3070,3046,3019,2989,2958,2925,2892,2859,2826,2795,2763,2735,2706,2679,2654,2631,2607,2584,2561,2538,2515,2492,2466,2442,2415,2388,2362,2336,2310,2286,2262,2241,2220,2201,2183,2168,2155,2141,2132,2122,2113,2105,2098,2091,2087,2080,2077,2074,2071,2069,2067,2062,2061,2058,2054,2048,2042,2036,2028,2020,2011,2002,1993,1983,1973,1961,1947,1932,1916,1899,1881,1862,1844,1825,1806,1788,1769,1751,1733,1716,1701,1687,1674,1661,1649,1638,1629,1619,1610,1601,1593,1585,1577,1570,1564,1558,1552,1547,1543,1541,1539,1537,1537,1536,1536,1536,1534,1532,1529,1525,1520,1516,1512,1506,1502,1498,1493,1490,1486,1482,1479,1477,1476,1475,1474,1473,1470,1466,1463,1460,1456,1456,1456,1460,1468,1484,1503,1531,1562,1602,1650,1707,1771,1841,1920,2004,2092,2183,2275,2368,2459,2549,2634,2713,2788,2857,2921,2976,3044,3090,3117,3136,3150,3155,3154,3148,3135,3118,3096,3070,3040,3009,2976,2943,2910,2877,2846,2815,2785,2757,2732,2708,2686,2664,2642,2623,2603,2582,2562,2541,2520,2499,2477,2455,2434,2412,2390,2368,2347,2327,2307,2288,2270,2248,2232,2217,2202,2188,2174,2159,2147,2134,2121,2109,2096,2084,2072,2061,2054,2046,2039,2031,2024,2017,2009,2001,1994,1987,1980,1975,1968,1960,1951,1942,1932,1923,1912,1901,1890,1877,1864,1851,1837,1823,1808,1793,1777,1762,1747,1731,1717,1702,1688,1674,1661,1650,1640,1632,1624,1618,1613,1607,1602,1596,1591,1586,1583,1579,1576,1572,1568,1563,1559,1554,1549,1545,1540,1533,1527,1521,1516,1511,1506,1503,1500,1497,1495,1495,1493,1494,1494,1494,1498,1499,1500,1504,1509,1517,1529,1548,1572,1601,1637,1679,1729,1784,1846,1914,1987,2064,2142,2223,2304,2386,2465,2544,2621,2692,2759,2821,2876,2926,2988,3027,3052,3068,3078,3082,3080,3074,3062,3046,3026,3004,2980,2955,2929,2903,2877,2849,2821,2794,2768,2745,2721,2698,2676,2655,2633,2613,2591,2572,2553,2533,2514,2492,2472,2451,2428,2404,2380,2355,2331,2306,2283,2259,2236,2213,2193,2172,2153,2136,2120,2106,2095,2082,2073,2065,2057,2050,2045,2038,2030,2024,2016,2008,2001,1993,1985,1976,1966,1957,1947,1937,1927,1917,1904,1891,1879,1866,1852,1840,1827,1814,1800,1788,1776,1763,1751,1742,1732,1724,1715,1708,1699,1689,1680,1671,1661,1652,1642,1630,1619,1607,1594,1582,1570,1558,1549,1540,1532,1526,1520,1515,1510,1506,1501,1497,1494,1492,1488,1485,1483,1480,1476,1474,1472,1473,1473,1474,1476,1478,1481,1482,1482,1481,1478,1475,1473,1468,1465,1461,1461,1463,1468,1477,1493,1517,1547,1585,1631,1684,1744,1810,1882,1957,2039,2124,2211,2299,2389,2476,2558,2637,2712,2782,2845,2903,2974,3021,3050,3071,3084,3091,3091,3085,3073,3057,3037,3014,2987,2959,2930,2894,2867,2841,2817,2794,2773,2753,2734,2715,2697,2678,2659,2640,2620,2598,2578,2556,2535,2515,2494,2473,2452,2430,2405,2380,2356,2329,2302,2277,2251,2227,2205,2185,2166,2150,2132,2117,2102,2088,2074,2062,2054,2045,2038,2030,2023,2017,2011,2003,1995,1988,1981,1973,1965,1956,1948,1938,1927,1918,1909,1898,1887,1875,1862,1847,1833,1817,1802,1785,1770,1755,1740,1725,1712,1699,1687,1677,1666,1657,1647,1638,1628,1618,1611,1604,1599,1594,1590,1586,1581,1575,1569,1561,1553,1546,1537,1532,1526,1521,1516,1510,1506,1501,1496,1491,1489,1487,1483,1482,1480,1478,1474,1471,1467,1463,1459,1456,1453,1450,1446,1447,1445,1444,1443,1443,1443,1444,1443,1443,1444,1447,1452,1463,1477,1497,1526,1559,1602,1651,1706,1767,1836,1908,1985,2065,2146,2229,2314,2396,2477,2556,2628,2695,2756,2810,2858,2918,2958,2983,3003,3017,3026,3029,3025,3018,3007,2992,2974,2954,2933,2907,2880,2851,2822,2793,2763,2732,2703,2672,2643,2615,2587,2560,2536,2512,2491,2471,2452,2433,2412,2392,2371,2349,2328,2307,2288,2268,2249,2232,2217,2201,2187,2172,2157,2144,2130,2116,2102,2089,2077,2064,2053,2039,2028,2016,2006,1995,1984,1975,1965,1957,1950,1942,1936,1931,1928,1924,1922,1918,1915,1909,1902,1894,1883,1870,1855,1841,1826,1812,1798,1785,1774,1762,1750,1739,1729,1718,1708,1697,1688,1678,1667,1655,1644,1631,1618,1604,1591,1580,1567,1557,1549,1539,1532,1524,1518,1511,1506,1502,1498,1497,1498,1498,1499,1499,1499,1498,1497,1494,1492,1489,1488,1486,1483,1481,1478,1474,1469,1466,1460,1456,1449,1444,1437,1430,1425,1421,1415,1412,1408,1404,1400,1397,1395,1395,1398,1406,1417,1435,1456,1483,1516,1553,1597,1647,1705,1768,1837,1911,1987,2067,2148,2231,2313,2392,2467,2539,2604,2663,2718,2769,2832,2874,2902,2924,2941,2953,2959,2960,2957,2949,2936,2918,2897,2873,2847,2821,2794,2766,2739,2711,2682,2655,2628,2602,2578,2556,2534,2512,2491,2470,2451,2431,2410,2390,2371,2351,2332,2313,2292,2272,2250,2228,2206,2184,2162,2142,2123,2105,2086,2069,2052,2036,2022,2009,1998,1988,1980,1973,1967,1961,1957,1954,1950,1945,1941,1936,1929,1921,1913,1902,1890,1877,1862,1848,1835,1823,1813,1803,1793,1787,1779,1773,1767,1760,1753,1746,1739,1732,1723,1717,1710,1701,1693,1687,1678,1669,1661,1650,1642,1631,1622,1612,1600,1589,1575,1562,1548,1532,1519,1505,1493,1482,1471,1462,1453,1444,1437,1430,1424,1418,1413,1408,1403,1400,1396,1394,1393,1392,1392,1394,1395,1399,1401,1403,1406,1408,1409,1410,1410,1409,1410,1407,1405,1401,1397,1390,1386,1380,1375,1369,1364,1360,1356,1355,1356,1360,1367,1378,1394,1415,1443,1476,1518,1568,1623,1684,1752,1825,1901,1981,2063,2146,2228,2309,2386,2462,2532,2594,2650,2702,2766,2816,2843,2861,2875,2883,2885,2883,2876,2865,2850,2832,2811,2788,2764,2738,2713,2687,2662,2639,2616,2595,2575,2556,2537,2518,2501,2482,2462,2444,2423,2400,2377,2353,2328,2302,2277,2252,2228,2205,2182,2160,2141,2121,2102,2088,2073,2060,2049,2040,2030,2021,2012,2005,1998,1992,1986,1980,1975,1970,1967,1964,1963,1960,1958,1956,1954,1950,1945,1938,1929,1920,1909,1898,1885,1873,1859,1845,1832,1818,1804,1788,1770,1753,1735,1716,1700,1686,1673,1661,1652,1643,1636,1630,1622,1617,1610,1602,1595,1587,1580,1574,1567,1561,1555,1549,1542,1535,1525,1517,1508,1500,1492,1487,1481,1476,1473,1472,1470,1469,1469,1468,1467,1467,1464,1463,1460,1459,1458,1459,1459,1460,1459,1457,1456,1453,1450,1447,1443,1440,1438,1436,1434,1431,1429,1426,1424,1420,1418,1418,1418,1423,1430,1442,1458,1481,1510,1542,1584,1632,1687,1748,1814,1885,1959,2035,2112,2190,2266,2341,2414,2482,2549,2609,2665,2714,2777,2818,2842,2859,2870,2876,2876,2872,2863,2851,2836,2818,2798,2776,2752,2727,2701,2676,2648,2623,2600,2577,2557,2540,2524,2508,2495,2483,2471,2458,2445,2430,2413,2397,2378,2359,2340,2314,2294,2274,2249,2227,2204,2182,2160,2141,2121,2101,2084,2068,2055,2044,2036,2030,2023,2017,2013,2008,2004,2002,2000,1996,1992,1989,1983,1979,1972,1967,1962,1955,1949,1941,1933,1926,1917,1908,1898,1887,1876,1864,1852,1838,1825,1811,1796,1783,1769,1756,1744,1732,1722,1711,1700,1689,1679,1669,1661,1654,1649,1645,1643,1639,1635,1631,1626,1622,1618,1613,1609,1605,1600,1595,1588,1582,1576,1568,1559,1551,1543,1536,1529,1525,1520,1517,1514,1513,1512,1512,1512,1514,1514,1514,1515,1515,1514,1515,1513,1510,1509,1507,1503,1498,1494,1489,1485,1482,1480,1482,1488,1498,1515,1536,1564,1599,1640,1690,1746,1808,1875,1947,2021,2098,2175,2250,2325,2398,2469,2536,2600,2660,2715,2764,2827,2872,2901,2925,2943,2955,2963,2967,2964,2958,2949,2936,2921,2904,2884,2863,2841,2815,2790,2766,2740,2715,2691,2669,2649,2628,2609,2592,2575,2557,2540,2523,2507,2490,2473,2458,2442,2426,2408,2390,2372,2355,2339,2320,2303,2285,2268,2253,2238,2223,2208,2195,2180,2167,2152,2138,2124,2111,2099,2088,2079,2072,2064,2059,2054,2049,2043,2040,2035,2030,2025,2019,2014,2007,1998,1991,1981,1971,1961,1950,1941,1931,1919,1908,1895,1882,1867,1853,1838,1823,1808,1792,1778,1764,1750,1738,1727,1716,1707,1698,1690,1682,1673,1664,1656,1649,1641,1634,1628,1621,1615,1610,1606,1600,1594,1590,1586,1582,1579,1575,1571,1565,1561,1556,1550,1546,1540,1535,1530,1525,1520,1515,1512,1508,1507,1505,1502,1500,1498,1494,1493,1491,1490,1491,1490,1493,1499,1508,1521,1542,1565,1597,1634,1677,1727,1782,1843,1908,1977,2051,2126,2203,2279,2355,2428,2498,2565,2628,2687,2739,2787,2849,2890,2917,2939,2956,2967,2974,2976,2973,2966,2955,2941,2924,2905,2885,2862,2841,2820,2799,2779,2758,2741,2723,2705,2688,2672,2657,2642,2625,2610,2594,2577,2559,2541,2521,2500,2478,2455,2434,2412,2390,2369,2348,2326,2305,2284,2265,2246,2229,2213,2198,2183,2171,2157,2146,2134,2123,2114,2104,2097,2089,2081,2074,2068,2061,2056,2049,2041,2033,2024,2015,2003,1994,1985,1977,1969,1960,1952,1942,1933,1924,1914,1902,1890,1879,1867,1856,1844,1831,1820,1808,1797,1785,1775,1765,1759,1751,1745,1739,1732,1725,1719,1712,1704,1696,1688,1680,1673,1665,1657,1651,1646,1641,1635,1631,1626,1622,1617,1613,1608,1604,1601,1597,1593,1590,1586,1583,1582,1579,1577,1576,1573,1571,1567,1565,1563,1561,1557,1553,1548,1543,1537,1532,1527,1522,1518,1517,1516,1518,1526,1538,1556,1580,1609,1645,1687,1736,1790,1850,1913,1981,2052,2125,2201,2279,2356,2430,2502,2570,2635,2696,2751,2801,2863,2905,2933,2954,2970,2980,2985,2985,2979,2969,2955,2939,2920,2900,2878,2856,2833,2810,2788,2765,2743,2720,2698,2677,2657,2639,2622,2605,2590,2575,2560,2545,2528,2507,2489,2471,2452,2433,2413,2393,2376,2355,2336,2318,2300,2282,2266,2252,2241,2229,2220,2211,2202,2194,2185,2177,2170,2165,2158,2152,2145,2138,2130,2122,2113,2105,2097,2089,2082,2075,2067,2059,2050,2041,2030,2018,2006,1994,1979,1965,1949,1935,1920,1906,1891,1878,1865,1852,1840,1827,1816,1805,1794,1782,1772,1762,1752,1743,1735,1728,1721,1714,1709,1702,1697,1692,1686,1681,1677,1672,1666,1661,1655,1649,1643,1636,1631,1627,1622,1618,1615,1613,1611,1611,1610,1610,1610,1611,1610,1610,1608,1607,1603,1601,1598,1594,1590,1586,1583,1580,1578,1576,1574,1572,1572,1571,1569,1568,1569,1570,1573,1580,1592,1610,1634,1664,1701,1745,1793,1847,1906,1970,2038,2108,2183,2256,2329,2400,2470,2537,2602,2662,2719,2770,2817,2873,2909,2931,2947,2957,2962,2961,2957,2947,2933,2917,2897,2876,2852,2828,2804,2778,2753,2728,2704,2680,2658,2638,2618,2598,2580,2562,2544,2524,2507,2489,2472,2453,2436,2419,2401,2381,2362,2343,2324,2306,2290,2271,2254,2237,2221,2204,2187,2172,2156,2142,2129,2118,2107,2098,2089,2082,2074,2068,2064,2058,2055,2052,2049,2044,2041,2036,2031,2024,2017,2007,1998,1987,1976,1966,1953,1942,1929,1918,1905,1892,1879,1865,1849,1833,1818,1804,1789,1774,1762,1749,1737,1726,1716,1706,1696,1687,1677,1668,1660,1652,1645,1639,1634,1628,1622,1618,1613,1608,1602,1597,1592,1587,1582,1576,1571,1564,1557,1551,1544,1536,1530,1526,1521,1516,1512,1509,1506,1503,1500,1499,1498,1498,1498,1498,1496,1494,1492,1491,1490,1488,1488,1488,1490,1490,1496,1501,1513,1529,1548,1572,1604,1638,1678,1724,1773,1826,1884,1945,2010,2074,2140,2206,2273,2338,2402,2462,2519,2573,2622,2686,2731,2759,2783,2802,2815,2824,2828,2828,2823,2816,2806,2793,2777,2758,2738,2716,2694,2671,2648,2625,2602,2581,2562,2544,2525,2507,2490,2472,2455,2438,2421,2406,2390,2374,2356,2338,2317,2296,2274,2254,2234,2214,2198,2181,2166,2151,2139,2126,2113,2101,2090,2078,2068,2056,2045,2037,2029,2021,2013,2004,1997,1987,1979,1971,1963,1955,1949,1942,1938,1931,1925,1919,1913,1905,1898,1889,1881,1871,1863,1854,1847,1839,1831,1823,1814,1805,1796,1786,1775,1763,1752,1739,1725,1712,1700,1688,1676,1667,1657,1649,1640,1631,1623,1617,1611,1606,1602,1598,1593,1590,1586,1584,1582,1580,1578,1576,1573,1571,1569,1566,1563,1560,1557,1552,1548,1543,1537,1531,1527,1520,1514,1509,1503,1496,1492,1488,1485,1483,1481,1481,1483,1489,1496,1508,1523,1541,1565,1594,1626,1663,1705,1752,1804,1861,1921,1986,2052,2122,2191,2260,2326,2391,2452,2509,2562,2611,2656,2714,2754,2782,2804,2819,2829,2836,2838,2836,2830,2820,2810,2795,2781,2766,2750,2733,2716,2698,2679,2661,2642,2626,2610,2595,2581,2567,2553,2538,2523,2507,2491,2469,2450,2430,2409,2388,2366,2344,2322,2301,2281,2259,2238,2218,2200,2183,2167,2152,2139,2127,2116,2107,2098,2090,2082,2076,2070,2065,2061,2057,2053,2047,2041,2032,2024,2015,2005,1994,1983,1972,1960,1948,1936,1924,1912,1901,1891,1882,1873,1864,1856,1848,1840,1832,1823,1814,1803,1790,1779,1767,1755,1745,1734,1724,1712,1702,1692,1682,1671,1662,1652,1642,1632,1624,1616,1611,1606,1601,1596,1592,1587,1584,1580,1577,1573,1569,1566,1564,1561,1557,1553,1549,1546,1545,1544,1545,1545,1543,1541,1538,1533,1529,1526,1522,1518,1515,1511,1507,1504,1502,1499,1499,1501,1506,1516,1529,1547,1571,1602,1639,1682,1731,1787,1847,1912,1981,2053,2127,2203,2277,2350,2420,2487,2549,2606,2659,2706,2767,2808,2835,2855,2871,2882,2887,2889,2886,2879,2868,2855,2838,2819,2797,2775,2749,2724,2698,2674,2651,2630,2609,2591,2576,2563,2550,2538,2527,2515,2503,2490,2477,2461,2444,2427,2408,2390,2370,2353,2332,2312,2291,2271,2251,2232,2215,2199,2184,2170,2157,2147,2136,2126,2114,2105,2095,2086,2077,2070,2065,2060,2055,2050,2044,2040,2032,2025,2017,2008,1999,1991,1982,1973,1964,1953,1942,1930,1917,1903,1889,1876,1863,1850,1839,1829,1819,1808,1798,1787,1775,1765,1753,1743,1732,1721,1712,1705,1699,1693,1690,1684,1679,1674,1669,1665,1662,1658,1653,1649,1643,1638,1632,1627,1620,1615,1611,1607,1602,1599,1593,1591,1587,1585,1581,1578,1574,1571,1568,1564,1561,1558,1555,1554,1551,1549,1547,1545,1543,1539,1537,1533,1531,1528,1527,1528,1531,1536,1547,1559,1577,1600,1629,1663,1703,1749,1799,1857,1919,1986,2056,2130,2204,2278,2352,2421,2488,2551,2610,2665,2715,2762,2822,2862,2886,2906,2919,2927,2930,2928,2920,2909,2893,2874,2853,2831,2807,2782,2758,2735,2713,2692,2673,2655,2637,2621,2606,2591,2575,2561,2545,2530,2513,2496,2476,2457,2437,2415,2395,2375,2356,2338,2321,2304,2289,2273,2258,2245,2234,2222,2212,2202,2192,2183,2176,2168,2160,2152,2145,2140,2134,2129,2125,2122,2118,2115,2111,2104,2098,2090,2081,2071,2061,2050,2040,2031,2022,2011,2002,1992,1982,1970,1958,1943,1930,1916,1901,1887,1874,1861,1849,1837,1826,1816,1804,1796,1788,1778,1768,1758,1749,1739,1732,1724,1719,1714,1710,1706,1702,1698,1694,1690,1686,1681,1676,1671,1668,1662,1657,1652,1647,1641,1636,1631,1626,1622,1618,1615,1611,1607,1604,1601,1600,1599,1598,1597,1596,1593,1591,1587,1584,1581,1577,1573,1568,1564,1560,1555,1551,1548,1543,1541,1539,1540,1545,1555,1569,1588,1614,1644,1682,1727,1776,1832,1894,1961,2034,2108,2183,2261,2338,2412,2487,2559,2627,2693,2754,2812,2863,2930,2972,3000,3021,3034,3041,3043,3038,3030,3018,3003,2985,2965,2943,2919,2895,2870,2844,2819,2794,2771,2749,2729,2709,2691,2673,2656,2637,2621,2608,2593,2578,2563,2545,2527,2508,2488,2469,2449,2429,2409,2388,2369,2349,2332,2315,2299,2282,2269,2256,2246,2236,2225,2216,2209,2200,2192,2187,2182,2177,2173,2168,2164,2159,2153,2146,2138,2129,2118,2107,2096,2083,2070,2056,2043,2029,2016,2004,1991,1978,1964,1951,1937,1922,1906,1891,1874,1859,1843,1829,1817,1806,1797,1789,1779,1772,1765,1758,1754,1749,1745,1742,1739,1734,1728,1722,1715,1708,1701,1693,1685,1678,1670,1662,1655,1647,1640,1633,1627,1622,1620,1620,1621,1622,1624,1625,1628,1629,1629,1627,1626,1625,1623,1621,1620,1618,1616,1614,1612,1610,1607,1604,1602,1600,1598,1597,1600,1605,1614,1628,1646,1671,1702,1740,1784,1835,1891,1952,2018,2087,2159,2231,2305,2379,2450,2521,2589,2654,2714,2771,2822,2890,2937,2969,2995,3015,3030,3038,3041,3037,3028,3015,2997,2978,2955,2929,2903,2873,2845,2815,2786,2759,2731,2708,2685,2665,2647,2629,2611,2594,2576,2560,2544,2527,2510,2493,2475,2457,2437,2418,2396,2375,2353,2331,2311,2293,2276,2259,2245,2234,2224,2214,2207,2202,2199,2196,2194,2192,2191,2189,2185,2181,2177,2170,2163,2155,2147,2136,2126,2115,2105,2095,2083,2071,2059,2047,2034,2021,2007,1993,1979,1966,1950,1935,1921,1906,1891,1877,1863,1851,1838,1829,1820,1813,1807,1800,1793,1785,1777,1769,1760,1750,1742,1734,1726,1719,1710,1702,1693,1684,1676,1668,1660,1653,1644,1639,1633,1631,1629,1628,1629,1628,1629,1629,1630,1631,1632,1633,1633,1633,1633,1631,1630,1628,1626,1623,1621,1619,1616,1614,1611,1609,1605,1602,1599,1597,1599,1602,1609,1621,1637,1659,1687,1722,1763,1812,1868,1929,1996,2068,2143,2221,2300,2381,2462,2541,2619,2694,2766,2832,2895,2951,3025,3076,3107,3133,3151,3164,3171,3173,3168,3161,3147,3130,3111,3089,3065,3039,3014,2989,2964,2939,2914,2891,2868,2847,2825,2806,2786,2767,2748,2731,2713,2694,2676,2657,2639,2619,2597,2574,2549,2524,2497,2471,2446,2422,2399,2377,2356,2338,2322,2305,2290,2277,2266,2255,2245,2237,2229,2221,2211,2201,2191,2180,2168,2157,2146,2135,2124,2113,2103,2092,2081,2071,2060,2048,2039,2027,2016,2003,1991,1979,1965,1952,1939,1925,1912,1900,1889,1876,1865,1855,1845,1834,1825,1814,1804,1793,1782,1772,1761,1752,1740,1729,1718,1707,1696,1683,1669,1656,1641,1627,1616,1605,1593,1585,1575,1569,1562,1558,1553,1550,1547,1546,1544,1544,1542,1541,1540,1541,1541,1541,1541,1540,1540,1542,1540,1541,1540,1539,1538,1538,1537,1538,1537,1538,1541,1546,1555,1568,1584,1606,1634,1668,1707,1752,1806,1864,1929,1999,2072,2151,2231,2314,2399,2481,2562,2640,2713,2781,2844,2901,2951,3014,3056,3081,3100,3113,3120,3121,3118,3111,3100,3083,3064,3042,3017,2989,2962,2934,2908,2882,2857,2834,2813,2790,2769,2749,2728,2703,2683,2663,2642,2621,2599,2578,2554,2531,2508,2483,2457,2432,2407,2384,2361,2340,2318,2298,2279,2262,2245,2229,2214,2199,2186,2172,2160,2148,2137,2127,2117,2108,2100,2092,2088,2084,2079,2076,2073,2067,2062,2056,2050,2042,2036,2028,2020,2012,2004,1995,1985,1977,1967,1958,1949,1939,1928,1919,1908,1899,1889,1880,1871,1862,1854,1843,1834,1823,1814,1803,1791,1781,1769,1757,1746,1733,1721,1709,1698,1687,1678,1669,1662,1654,1647,1641,1635,1632,1627,1626,1623,1620,1617,1615,1613,1611,1610,1609,1607,1606,1605,1603,1600,1597,1593,1589,1585,1580,1576,1571,1565,1558,1552,1545,1538,1533,1530,1526,1524,1523,1526,1530,1538,1548,1566,1587,1616,1649,1689,1735,1789,1847,1912,1982,2056,2135,2215,2298,2380,2462,2542,2619,2692,2758,2819,2872,2919,2977,3013,3034,3048,3056,3057,3052,3042,3027,3008,2986,2961,2934,2906,2876,2847,2819,2792,2766,2740,2715,2690,2668,2647,2628,2609,2591,2574,2555,2538,2521,2502,2484,2467,2449,2430,2413,2396,2378,2361,2344,2326,2309,2292,2276,2261,2246,2233,2219,2206,2195,2184,2173,2164,2154,2146,2136,2128,2120,2111,2103,2094,2086,2078,2071,2064,2057,2051,2044,2039,2031,2022,2010,1999,1986,1972,1960,1945,1929,1914,1898,1881,1864,1847,1834,1820,1807,1794,1781,1769,1757,1744,1732,1720,1711,1698,1687,1675,1665,1655,1645,1635,1625,1615,1606,1598,1590,1581,1574,1566,1560,1553,1547,1540,1535,1528,1524,1520,1516,1512,1510,1508,1507,1507,1506,1506,1505,1504,1503,1502,1500,1500,1499,1499,1498,1496,1497,1497,1496,1495,1493,1491,1488,1485,1481,1476,1473,1470,1468,1465,1465,1465,1467,1472,1479,1490,1508,1531,1559,1597,1638,1688,1744,1805,1872,1944,2021,2100,2184,2269,2353,2437,2518,2596,2669,2739,2802,2859,2911,2976,3020,3046,3066,3080,3087,3086,3079,3068,3051,3029,3004,2975,2946,2912,2879,2846,2812,2777,2743,2711,2679,2649,2623,2595,2568,2542,2518,2494,2469,2445,2423,2400,2377,2357,2337,2317,2299,2281,2264,2247,2231,2216,2200,2188,2174,2160,2147,2135,2123,2110,2099,2086,2074,2063,2054,2045,2036,2028,2021,2013,2007,2002,1995,1990,1983,1977,1971,1966,1961,1956,1951,1947,1944,1938,1932,1927,1920,1912,1906,1897,1887,1875,1860,1844,1828,1810,1792,1774,1754,1735,1716,1699,1681,1664,1648,1632,1617,1602,1589,1577,1568,1558,1550,1543,1537,1531,1525,1522,1518,1515,1512,1511,1509,1506,1504,1502,1500,1499,1497,1497,1496,1495,1494,1493,1493,1493,1494,1492,1493,1491,1490,1489,1488,1484,1482,1478,1474,1469,1466,1463,1461,1457,1454,1452,1448,1443,1438,1433,1429,1426,1426,1431,1437,1450,1468,1492,1522,1560,1604,1655,1713,1779,1850,1926,2005,2088,2172,2257,2341,2424,2505,2583,2656,2728,2793,2853,2930,2984,3018,3045,3065,3077,3082,3079,3067,3051,3032,3009,2985,2958,2930,2901,2872,2843,2813,2784,2756,2729,2703,2676,2650,2624,2600,2575,2551,2528,2506,2485,2464,2442,2422,2401,2379,2356,2332,2309,2284,2261,2238,2215,2195,2177,2160,2146,2134,2123,2114,2108,2100,2094,2090,2087,2082,2079,2076,2072,2067,2063,2057,2052,2045,2039,2031,2023,2013,2004,1992,1980,1967,1954,1942,1928,1913,1898,1882,1866,1851,1835,1820,1806,1794,1781,1769,1757,1744,1730,1716,1703,1691,1679,1671,1662,1655,1649,1644,1639,1635,1630,1626,1622,1618,1614,1609,1604,1600,1597,1594,1592,1589,1588,1586,1583,1583,1582,1581,1580,1580,1580,1579,1581,1582,1583,1583,1583,1582,1581,1580,1578,1576,1574,1571,1569,1564,1558,1551,1543,1534,1527,1519,1513,1511,1511,1515,1522,1536,1557,1584,1620,1661,1712,1768,1832,1903,1980,2060,2143,2228,2314,2398,2482,2564,2641,2714,2781,2842,2897,2967,3015,3045,3070,3088,3102,3108,3111,3108,3101,3089,3073,3052,3028,3003,2976,2949,2922,2896,2869,2841,2816,2789,2761,2735,2709,2683,2658,2634,2609,2586,2563,2539,2516,2492,2469,2446,2422,2399,2375,2351,2327,2305,2282,2261,2241,2221,2204,2185,2168,2153,2137,2122,2108,2096,2085,2075,2069,2064,2060,2056,2055,2054,2052,2050,2047,2042,2037,2031,2023,2014,2004,1993,1981,1969,1955,1942,1929,1915,1902,1888,1874,1861,1845,1832,1820,1809,1797,1785,1774,1764,1756,1747,1738,1729,1722,1715,1709,1701,1693,1684,1676,1666,1658,1650,1642,1636,1628,1620,1613,1604,1597,1589,1582,1575,1566,1556,1548,1540,1533,1528,1525,1524,1524,1525,1527,1529,1531,1534,1535,1536,1537,1538,1539,1538,1535,1533,1529,1527,1524,1522,1519,1520,1523,1528,1538,1553,1575,1603,1638,1681,1732,1790,1855,1925,2002,2081,2161,2243,2326,2411,2494,2574,2652,2725,2793,2856,2915,2990,3041,3075,3102,3122,3136,3144,3147,3145,3137,3125,3109,3090,3069,3048,3026,3003,2979,2954,2929,2904,2879,2855,2832,2807,2784,2761,2737,2714,2690,2666,2641,2618,2594,2571,2546,2523,2499,2476,2453,2429,2406,2383,2361,2339,2319,2298,2279,2260,2241,2222,2205,2188,2173,2160,2148,2140,2132,2125,2117,2111,2103,2095,2089,2080,2073,2065,2057,2049,2040,2031,2022,2012,2001,1989,1976,1962,1947,1932,1916,1899,1883,1867,1851,1834,1819,1802,1788,1772,1756,1742,1728,1717,1706,1696,1687,1677,1666,1655,1643,1631,1619,1610,1602,1595,1590,1588,1585,1585,1584,1586,1586,1588,1586,1585,1585,1584,1582,1582,1581,1580,1580,1580,1577,1575,1573,1569,1565,1559,1555,1550,1546,1541,1539,1536,1532,1529,1525,1521,1518,1515,1511,1509,1507,1507,1506,1510,1512,1520,1532,1551,1575,1606,1644,1690,1743,1803,1871,1944,2022,2104,2188,2275,2363,2450,2536,2618,2695,2768,2837,2898,2956,3024,3069,3096,3116,3129,3134,3133,3126,3114,3096,3070,3044,3017,2988,2958,2928,2899,2868,2840,2811,2784,2756,2730,2705,2679,2655,2633,2610,2591,2572,2553,2536,2518,2500,2482,2464,2446,2425,2406,2385,2363,2341,2319,2298,2277,2258,2241,2224,2208,2191,2174,2160,2144,2128,2109,2097,2084,2073,2065,2056,2049,2041,2035,2028,2021,2013,2005,1997,1988,1979,1970,1963,1954,1944,1935,1924,1914,1903,1893,1883,1873,1865,1854,1847,1837,1827,1815,1804,1789,1775,1759,1746,1734,1721,1709,1697,1684,1672,1660,1648,1636,1625,1615,1607,1602,1596,1591,1588,1585,1581,1576,1571,1566,1562,1559,1557,1554,1554,1553,1552,1550,1549,1547,1546,1543,1541,1538,1538,1533,1530,1526,1523,1522,1520,1519,1516,1517,1517,1517,1518,1518,1518,1516,1514,1511,1510,1506,1503,1502,1501,1502,1505,1511,1522,1539,1559,1587,1620,1663,1712,1770,1835,1908,1987,2069,2158,2248,2337,2426,2513,2597,2675,2749,2816,2877,2930,2977,3034,3069,3088,3102,3109,3110,3105,3097,3083,3066,3046,3024,2999,2973,2945,2915,2884,2854,2823,2794,2767,2742,2718,2695,2675,2655,2634,2614,2594,2576,2558,2540,2523,2506,2487,2469,2449,2428,2407,2386,2362,2339,2317,2294,2272,2251,2230,2212,2194,2179,2165,2153,2143,2133,2125,2116,2109,2104,2098,2094,2091,2087,2083,2078,2072,2063,2053,2041,2029,2016,2002,1990,1975,1963,1950,1937,1923,1908,1891,1876,1862,1846,1831,1816,1802,1788,1775,1761,1749,1737,1725,1714,1704,1694,1684,1676,1667,1660,1653,1648,1643,1639,1634,1630,1625,1620,1612,1605,1596,1588,1581,1574,1568,1562,1558,1554,1551,1549,1546,1544,1543,1544,1543,1546,1548,1550,1552,1554,1555,1557,1559,1561,1564,1565,1565,1565,1565,1564,1561,1558,1554,1549,1542,1535,1526,1519,1513,1506,1502,1496,1493,1489,1488,1485,1484,1483,1485,1487,1492,1503,1517,1535,1557,1585,1620,1661,1711,1768,1834,1904,1982,2065,2150,2239,2329,2420,2509,2596,2681,2762,2837,2909,2974,3033,3109,3159,3189,3213,3228,3238,3237,3233,3222,3206,3186,3162,3135,3106,3076,3044,3011,2978,2945,2910,2877,2844,2813,2783,2753,2725,2698,2673,2648,2624,2601,2578,2553,2528,2505,2480,2457,2434,2412,2391,2370,2351,2329,2308,2289,2269,2251,2233,2217,2202,2188,2176,2163,2152,2142,2134,2126,2119,2114,2109,2104,2098,2092,2085,2076,2068,2059,2052,2041,2034,2024,2014,2004,1993,1981,1970,1960,1948,1936,1924,1911,1898,1882,1865,1849,1831,1813,1798,1781,1765,1752,1739,1728,1718,1710,1703,1696,1690,1683,1676,1670,1664,1659,1651,1645,1636,1627,1620,1612,1607,1604,1602,1600,1598,1597,1595,1593,1591,1589,1586,1585,1581,1578,1575,1572,1567,1563,1557,1552,1548,1543,1539,1535,1531,1529,1525,1522,1520,1519,1520,1522,1522,1526,1527,1531,1531,1533,1534,1534,1534,1533,1532,1532,1533,1536,1543,1553,1569,1591,1621,1656,1700,1751,1810,1875,1948,2026,2109,2195,2285,2377,2468,2556,2644,2726,2804,2876,2942,3001,3052,3114,3152,3173,3185,3189,3187,3179,3164,3146,3122,3097,3068,3038,3006,2972,2937,2901,2865,2832,2800,2770,2741,2714,2688,2663,2633,2610,2589,2567,2547,2528,2508,2489,2472,2452,2431,2412,2393,2373,2354,2335,2316,2296,2276,2258,2238,2220,2203,2186,2171,2157,2146,2136,2128,2121,2115,2111,2108,2104,2100,2097,2095,2091,2087,2081,2076,2070,2065,2057,2049,2039,2029,2018,2006,1995,1984,1972,1961,1947,1933,1919,1902,1888,1871,1854,1836,1819,1801,1784,1766,1749,1733,1716,1702,1688,1676,1665,1655,1644,1636,1628,1622,1615,1609,1605,1601,1595,1591,1587,1583,1579,1576,1573,1572,1569,1569,1569,1571,1573,1575,1578,1580,1580,1580,1579,1578,1576,1572,1568,1564,1560,1556,1552,1547,1541,1537,1531,1526,1520,1516,1512,1508,1504,1501,1498,1496,1494,1496,1499,1506,1516,1531,1553,1580,1615,1656,1706,1762,1826,1898,1975,2058,2143,2233,2322,2412,2501,2589,2673,2753,2829,2899,2963,3018,3091,3139,3168,3189,3206,3214,3216,3213,3203,3189,3170,3146,3119,3090,3059,3028,2995,2963,2932,2901,2871,2842,2814,2785,2757,2730,2704,2679,2655,2631,2609,2584,2562,2539,2515,2491,2469,2445,2422,2400,2380,2359,2339,2319,2297,2277,2256,2237,2216,2198,2179,2163,2148,2134,2121,2109,2098,2088,2078,2070,2063,2056,2050,2043,2036,2031,2023,2016,2007,1997,1988,1976,1964,1953,1941,1929,1918,1905,1894,1883,1872,1862,1851,1840,1829,1816,1804,1790,1777,1764,1751,1739,1726,1712,1698,1685,1672,1659,1648,1636,1624,1612,1603,1594,1585,1579,1573,1568,1564,1559,1555,1551,1548,1546,1542,1541,1538,1536,1533,1531,1529,1526,1525,1522,1520,1518,1516,1513,1509,1505,1502,1498,1495,1489,1486,1481,1477,1472,1468,1463,1461,1456,1454,1450,1446,1443,1440,1436,1435,1434,1436,1441,1448,1458,1474,1495,1522,1557,1598,1649,1708,1775,1850,1931,2018,2110,2203,2297,2390,2482,2570,2656,2737,2812,2881,2945,3001,3072,3117,3146,3168,3182,3190,3191,3189,3178,3163,3144,3122,3098,3070,3041,3011,2979,2947,2914,2881,2850,2817,2786,2755,2728,2701,2674,2650,2628,2607,2585,2565,2543,2522,2501,2480,2458,2438,2416,2395,2372,2351,2331,2311,2293,2276,2258,2241,2226,2211,2198,2185,2173,2160,2148,2138,2128,2118,2110,2104,2097,2090,2083,2075,2067,2059,2050,2040,2029,2017,2006,1993,1979,1967,1952,1939,1925,1910,1896,1881,1867,1853,1839,1827,1813,1802,1790,1779,1769,1757,1747,1737,1725,1713,1700,1687,1674,1662,1649,1638,1627,1617,1607,1599,1590,1583,1577,1572,1567,1560,1554,1549,1543,1538,1532,1529,1525,1521,1516,1513,1509,1504,1500,1495,1490,1489,1486,1485,1484,1483,1483,1484,1483,1484,1486,1486,1488,1488,1487,1485,1482,1478,1472,1467,1460,1455,1448,1441,1434,1425,1418,1412,1408,1405,1404,1408,1418,1435,1457,1487,1525,1571,1626,1688,1758,1835,1919,2008,2100,2197,2293,2391,2487,2579,2669,2754,2833,2906,2972,3032,3105,3154,3183,3205,3220,3228,3230,3223,3213,3196,3174,3149,3121,3090,3058,3025,2991,2956,2923,2890,2859,2826,2795,2765,2735,2706,2679,2652,2627,2603,2581,2557,2535,2514,2493,2472,2451,2431,2411,2390,2370,2350,2329,2310,2290,2273,2256,2239,2224,2209,2196,2182,2169,2156,2144,2131,2120,2110,2099,2090,2081,2072,2063,2053,2043,2033,2024,2014,2005,1997,1987,1977,1966,1957,1948,1938,1929,1919,1909,1900,1889,1880,1870,1858,1845,1832,1817,1804,1789,1775,1762,1749,1737,1726,1713,1702,1690,1679,1668,1659,1649,1639,1630,1620,1610,1600,1591,1582,1572,1564,1557,1550,1545,1540,1535,1532,1529,1525,1521,1518,1513,1508,1502,1496,1491,1486,1481,1475,1474,1468,1466,1464,1461,1460,1459,1457,1457,1457,1457,1457,1456,1456,1455,1455,1453,1452,1450,1449,1446,1443,1440,1437,1435,1434,1433,1433,1435,1436,1442,1449,1461,1476,1497,1525,1559,1602,1653,1715,1783,1859,1942,2029,2121,2215,2311,2409,2504,2597,2686,2768,2845,2914,2976,3031,3100,3144,3172,3190,3203,3208,3204,3195,3177,3157,3131,3102,3071,3037,3002,2965,2928,2890,2852,2816,2780,2748,2717,2688,2660,2635,2610,2586,2562,2538,2516,2495,2473,2452,2425,2405,2385,2365,2344,2327,2308,2291,2274,2259,2242,2227,2213,2198,2183,2170,2159,2147,2137,2127,2120,2113,2106,2099,2092,2085,2077,2070,2062,2055,2048,2039,2032,2025,2017,2010,2002,1994,1986,1977,1967,1958,1948,1937,1925,1913,1899,1885,1870,1854,1838,1821,1806,1789,1773,1759,1744,1731,1718,1705,1693,1681,1669,1658,1647,1636,1626,1616,1608,1600,1593,1587,1581,1575,1569,1565,1560,1556,1552,1548,1545,1540,1537,1533,1529,1525,1521,1515,1511,1506,1501,1497,1492,1490,1487,1485,1482,1479,1474,1473,1470,1469,1469,1470,1471,1473,1475,1475,1476,1476,1474,1473,1469,1467,1464,1461,1458,1454,1452,1450,1452,1457,1466,1481,1501,1530,1566,1611,1663,1723,1789,1862,1941,2024,2110,2200,2289,2377,2465,2551,2631,2709,2781,2846,2908,2986,3040,3077,3105,3128,3144,3151,3155,3151,3141,3125,3105,3082,3054,3024,2991,2956,2921,2887,2851,2816,2781,2748,2715,2686,2656,2630,2603,2578,2555,2532,2511,2492,2471,2453,2433,2412,2393,2373,2354,2335,2313,2293,2273,2253,2233,2214,2196,2178,2162,2147,2133,2120,2108,2096,2085,2076,2068,2061,2056,2052,2047,2043,2041,2038,2034,2031,2029,2025,2021,2015,2010,2002,1993,1983,1970,1957,1942,1926,1909,1893,1878,1863,1849,1837,1824,1811,1799,1788,1776,1763,1751,1739,1727,1716,1705,1693,1680,1668,1656,1643,1632,1620,1609,1600,1590,1582,1574,1568,1562,1557,1552,1550,1546,1545,1544,1544,1544,1544,1545,1546,1546,1547,1547,1546,1547,1544,1543,1541,1538,1535,1532,1527,1524,1518,1512,1507,1504,1499,1493,1488,1483,1477,1472,1468,1465,1462,1462,1462,1464,1465,1469,1475,1484,1497,1514,1537,1565,1602,1644,1694,1752,1815,1886,1961,2041,2125,2212,2298,2385,2468,2550,2629,2705,2775,2841,2900,2954,3021,3064,3091,3111,3124,3130,3130,3126,3115,3100,3081,3059,3033,3005,2976,2946,2916,2885,2855,2824,2795,2768,2741,2717,2695,2675,2657,2637,2620,2604,2587,2571,2554,2539,2521,2503,2485,2464,2443,2422,2399,2375,2352,2327,2304,2280,2257,2235,2213,2194,2174,2156,2140,2125,2111,2099,2088,2078,2070,2063,2056,2050,2044,2038,2032,2027,2020,2015,2008,2000,1992,1981,1971,1960,1948,1935,1922,1908,1894,1882,1870,1859,1848,1838,1827,1815,1803,1790,1776,1760,1746,1730,1716,1700,1686,1673,1659,1648,1637,1626,1617,1609,1602,1595,1590,1585,1581,1578,1574,1569,1565,1561,1556,1552,1547,1540,1536,1529,1525,1521,1516,1513,1509,1507,1506,1504,1503,1502,1501,1501,1499,1498,1496,1494,1494,1492,1489,1487,1484,1480,1476,1472,1466,1463,1461,1456,1454,1450,1449,1449,1446,1443,1442,1440,1440,1443,1450,1462,1482,1507,1539,1579,1626,1681,1743,1813,1889,1972,2058,2148,2241,2333,2425,2513,2601,2683,2762,2835,2902,2962,3038,3086,3118,3141,3157,3166,3170,3167,3158,3140,3120,3097,3071,3042,3011,2980,2948,2915,2882,2849,2818,2786,2755,2727,2700,2674,2651,2629,2607,2588,2569,2552,2534,2516,2498,2480,2462,2445,2427,2410,2391,2372,2354,2333,2313,2293,2271,2252,2231,2213,2195,2177,2161,2144,2132,2120,2109,2099,2090,2082,2075,2069,2063,2056,2050,2044,2037,2030,2024,2015,2007,2000,1991,1983,1975,1966,1956,1945,1935,1925,1913,1901,1889,1873,1858,1841,1825,1808,1792,1776,1761,1748,1735,1725,1714,1706,1698,1689,1679,1671,1661,1649,1639,1628,1619,1610,1601,1593,1587,1580,1575,1568,1563,1558,1553,1549,1544,1541,1538,1537,1534,1533,1532,1529,1528,1528,1527,1524,1522,1519,1517,1515,1513,1510,1508,1506,1503,1501,1499,1496,1494,1494,1492,1491,1490,1488,1486,1483,1480,1478,1474,1471,1470,1470,1472,1475,1481,1492,1509,1530,1558,1594,1635,1682,1735,1795,1862,1934,2011,2092,2177,2263,2350,2436,2521,2603,2683,2757,2827,2892,2950,3025,3074,3106,3132,3151,3162,3167,3168,3161,3151,3134,3114,3090,3063,3032,3001,2967,2933,2900,2868,2838,2807,2778,2752,2726,2702,2680,2657,2636,2615,2594,2572,2551,2528,2505,2483,2458,2435,2411,2390,2367,2347,2327,2308,2288,2270,2252,2235,2219,2203,2189,2175,2163,2151,2139,2129,2118,2109,2099,2089,2080,2072,2064,2055,2045,2037,2027,2018,2010,2002,1994,1986,1979,1970,1963,1954,1946,1937,1926,1916,1904,1891,1879,1868,1854,1843,1830,1817,1806,1792,1780,1768,1755,1744,1732,1719,1707,1697,1686,1674,1664,1653,1642,1630,1621,1612,1603,1595,1586,1577,1571,1563,1556,1550,1545,1541,1536,1532,1530,1527,1527,1523,1523,1520,1519,1516,1513,1509,1505,1501,1495,1489,1484,1477,1473,1467,1463,1460,1457,1457,1456,1456,1456,1456,1456,1456,1454,1455,1455,1455,1455,1454,1454,1456,1460,1468,1479,1496,1518,1547,1583,1628,1678,1737,1804,1878,1959,2044,2133,2227,2320,2413,2505,2594,2680,2761,2835,2903,2964,3017,3082,3124,3148,3163,3173,3175,3170,3160,3142,3121,3097,3069,3040,3008,2976,2942,2906,2871,2837,2802,2769,2740,2710,2681,2656,2631,2607,2584,2562,2541,2520,2500,2480,2460,2440,2419,2398,2376,2355,2335,2314,2292,2271,2250,2231,2211,2194,2178,2163,2149,2137,2125,2114,2105,2097,2090,2083,2078,2074,2071,2067,2063,2059,2055,2050,2045,2038,2031,2023,2015,2008,2000,1990,1980,1971,1960,1948,1937,1924,1912,1899,1885,1871,1856,1840,1823,1807,1790,1774,1759,1744,1730,1717,1704,1692,1681,1672,1663,1653,1643,1635,1627,1618,1611,1605,1600,1595,1590,1586,1582,1580,1577,1573,1571,1567,1563,1559,1554,1550,1546,1542,1540,1538,1535,1535,1535,1534,1534,1534,1534,1534,1534,1533,1533,1533,1533,1532,1531,1529,1526,1524,1521,1519,1516,1513,1509,1508,1506,1506,1510,1518,1530,1548,1573,1604,1644,1690,1743,1802,1869,1942,2020,2102,2188,2276,2363,2450,2536,2619,2698,2773,2842,2906,2963,3036,3083,3111,3133,3147,3154,3155,3148,3137,3121,3102,3078,3051,3025,2995,2966,2936,2906,2877,2848,2819,2791,2763,2736,2709,2683,2658,2633,2609,2587,2558,2536,2515,2493,2471,2448,2425,2401,2380,2359,2338,2318,2298,2280,2261,2241,2224,2207,2191,2177,2163,2149,2134,2121,2109,2098,2087,2077,2068,2058,2051,2043,2037,2031,2024,2018,2012,2006,1998,1991,1982,1973,1962,1952,1941,1930,1918,1906,1893,1880,1868,1856,1843,1830,1817,1803,1790,1775,1761,1747,1733,1719,1707,1695,1684,1673,1663,1652,1642,1634,1627,1620,1613,1609,1604,1600,1596,1591,1587,1582,1580,1577,1575,1572,1570,1566,1563,1560,1557,1554,1550,1548,1543,1540,1537,1533,1531,1528,1525,1524,1520,1516,1513,1510,1506,1500,1496,1491,1486,1481,1474,1470,1465,1461,1457,1452,1450,1448,1447,1447,1449,1453,1460,1470,1486,1508,1535,1571,1615,1666,1726,1792,1864,1945,2028,2117,2208,2301,2394,2485,2573,2659,2740,2816,2886,2950,3006,3077,3123,3150,3171,3184,3189,3190,3183,3172,3155,3134,3111,3085,3057,3028,2998,2966,2935,2902,2872,2842,2814,2788,2763,2739,2717,2693,2671,2649,2627,2605,2584,2562,2540,2520,2498,2475,2453,2431,2408,2386,2362,2338,2315,2291,2268,2246,2225,2206,2187,2169,2151,2136,2123,2111,2100,2088,2080,2073,2066,2059,2054,2048,2042,2036,2031,2024,2019,2012,2002,1993,1982,1969,1956,1944,1931,1918,1906,1894,1881,1870,1858,1846,1835,1825,1814,1804,1793,1783,1771,1759,1745,1732,1719,1705,1691,1678,1666,1652,1640,1630,1619,1609,1602,1593,1586,1580,1573,1567,1561,1557,1551,1544,1540,1535,1530,1525,1522,1518,1515,1513,1509,1508,1507,1505,1504,1502,1500,1498,1496,1493,1492,1489,1485,1481,1478,1474,1471,1470,1466,1464,1461,1459,1458,1457,1456,1454,1452,1450,1448,1448,1445,1444,1442,1441,1440,1442,1447,1455,1466,1484,1508,1540,1581,1628,1685,1748,1818,1894,1976,2062,2151,2243,2335,2428,2519,2607,2691,2770,2844,2912,2974,3052,3104,3137,3162,3180,3189,3194,3191,3183,3169,3150,3126,3100,3070,3041,3009,2976,2945,2912,2880,2848,2818,2788,2759,2733,2706,2680,2656,2634,2611,2589,2569,2549,2528,2508,2488,2467,2448,2427,2407,2386,2364,2343,2321,2300,2279,2260,2240,2223,2206,2189,2175,2160,2145,2131,2119,2106,2094,