-1.086386293373801e-05,0.00043367307150940504,0.0012906920369979633,0.0027352487211341828,0.004609785775384699,0.006508828766249433,0.00798181662021303,0.008731059349858752,0.008704026663028778,0.0080546203909659,0.007023232718259498,0.0058182811988055465,0.004561521197169132,0.0033061972026745263,0.0020882991384221453,0.0009572887332344113,-4.115593127992749e-05,-0.0009126723799993321,-0.0017428523707387813,-0.0026639384945590146,-0.0037597727521249628,-0.004962461623395399,-0.006018816203345767,-0.006575906651906856,-0.006362440362958079,-0.005368930571770193,-0.003907095583951914,-0.0024845522514011266,-0.0015419418064058724,-0.0011998002369539486,-0.001180187824845567,-0.0009762638973884394,-0.00018703804439800095,0.0011860991315051459,0.002679483303594569,0.003601157584324045,0.0034273287081812882,0.0021226108588009735,0.0001919205717320089,-0.0015637899109050438,-0.0024445169479204503,-0.0021812701673017258,-0.001030288265643194,0.0004010681492712786,0.0014856119981756667,0.0018784594394728252,0.0016351228063393218,0.0011072504219988375,0.0007056196113116829,0.0006803839998645563,0.0010321960017517662,0.0015716616365564796,0.00205832403268719,0.0023244343215472318,0.0023246660182557003,0.0021124627890102446,0.0017831435405929778,0.0014246018057409997,0.0010914914650494768,0.0007958050890137553,0.0005037910245859071,0.00014208933643720554,-0.0003747683892725219,-0.0010932447357184724,-0.0019684702864608368,-0.002849969598226033,-0.0035321092144379226,-0.003854303351875239,-0.0037926832897538223,-0.003476128940942743,-0.003101390049345193,-0.0027927676303008313,-0.0025015390476629457,-0.0020256536783299214,-0.0011516325240099141,0.00016982042792613745,0.0017366524453101613,0.003165476902691996,0.004082623604569762,0.00431871697623899,0.003986867789321349,0.0033980614523229603,0.002865487052503505,0.0025134314349075622,0.0022030089155485114,0.001620805504033175,0.00048395228092211213,-0.0012521809254576423,-0.0033002095529721244,-0.005114467617895648,-0.006097043317973663,-0.00583860230141996,-0.004288896333696794,-0.0017907932699590822,0.0010299663473331236,0.003473461415165828,0.004993521572874663,0.005361870374854254,0.004711915375266481,0.0034516798358054258,0.0020841354550748957,0.0010084474157945633,0.0003836725448009684,0.00010956800263050518,-7.513704168461233e-05,-0.00043272879391589153,-0.001087668065471645,-0.001974760640850627,-0.0028892296623918502,-0.0035986587104812505,-0.0039490366275477945,-0.003909948412574022,-0.003545837434796929,-0.002944512736306161,-0.0021559771202721346,-0.0011837195578211098,-3.402002151345275e-05,0.0012123834875720073,0.0023630585779015876,0.0031542691685961894,0.0033681071388447295,0.002972892647128038,0.0022021003930923215,0.0015009175018640404,0.0013324045762280498,0.0019219481922521171,0.0030791522241004144,0.004220851533997139,0.004617824062676775,0.0037537429026639688,0.0016062090232673864,-0.001305880861540973,-0.004136778681600537,-0.006078124467221875,-0.00668860170283575,-0.006032697236103652,-0.004578498380817993,-0.0029301549054528385,-0.0015485626563028912,-0.0006025908623469483,-3.879465952868338e-06,0.00043116723063977647,0.0008125714146607675,0.0011084026770308664,0.0012091629603357625,0.0010679743780134957,0.0008083905841462539,0.0007097459197448379,0.0010595763222627785,0.001956983185829439,0.0031974268917404785,0.004329518827228334,0.004865524860875394,0.004521801179862096,0.0033425145944096907,0.0016409759439868108,-0.00018302750981690017,-0.0018194138976030134,-0.003116147412518462,-0.004034156774812293,-0.004563302588467867,-0.004680173930004599,-0.0043707184103377135,-0.0036783240943423917,-0.0027230147543157116,-0.001671480518843039,-0.0006804701622161982,0.00014934775819606255,0.000787669234659396,0.0012587741272380845,0.0016100471176344043,0.001880720195505392,0.0020838748572974083,0.0022088009805034036,0.002239999737264898,0.002177487666589698,0.002040918607655713,0.00185297444546445,0.0016169780278558162,0.0013121805082012463,0.0009173284271622691,0.0004471590250495947,-3.106301149382717e-05,-0.00042554757237862895,-0.0006845192477396367,-0.0008542943880627978,-0.0010791047242297645,-0.0015224872140357365,-0.0022465910432123656,-0.0031274152097591533,-0.0038743090574632983,-0.004159071449151551,-0.003784128942663007,-0.002786432532002557,-0.0014113443503988615,2.5548494254929322e-05,0.0012990494774885065,0.002356229112292889,0.0032730945207886182,0.004123371889509761,0.00485503976554956,0.005265432584898596,0.005100076779588007,0.004215510293761393,0.002698571148383746,0.0008590262362182842,-0.0009044438472765115,-0.002280507757591098,-0.003155002983146002,-0.0035976678495378816,-0.0037547429821651783,-0.003730344298631486,-0.0035285470939711507,-0.00307369266778692,-0.0022784347134412876,-0.0011185663652020742,0.0003104357393240607,0.0017698920975005522,0.0029083952811174187,0.003366061220149241,0.0029368571877682946,0.0017153289314167058,0.00012506923970778336,-0.0012286353136769482,-0.0018320328693970538,-0.0015151298849007669,-0.0005303152315128319,0.0005927948646157489,0.0013257814676721912,0.0013860926338866313,0.0008188120396554919,-9.959504785087058e-05,-0.0010465123938486914,-0.0018070218730172052,-0.0023204562927963343,-0.0026212756938866176,-0.002736273104747808,-0.0026143047651287134,-0.0021337392729524262,-0.0011809471317685753,0.0002485245257607372,0.0019861884270108423,0.0037055019583344226,0.005019277681705974,0.0056227551668077864,0.005416925589223428,0.004546746282432454,0.0033266500492814505,0.002088326394183521,0.0010354306348447362,0.0001878188191690236,-0.0005607122719264515,-0.0013223566320012745,-0.00212052227468634,-0.0028800619473476896,-0.0034942238545970076,-0.0039054132247128034,-0.004134883416567114,-0.004242692283033504,-0.004253885574428614,-0.004109946942824333,-0.0036846402011423336,-0.0028590562576122154,-0.0016118731451455204,-6.944788134705918e-05,0.0015185446896334503,0.0028704234428728074,0.003784113296972867,0.004209414072098195,0.004243406997129196,0.004055558649427919,0.003787746582874685,0.003484672277509541,0.0030880935936111976,0.0024900494221945335,0.0016096476326097765,0.0004512507463461829,-0.0008813273198651951,-0.002213827486799488,-0.0033537549356709414,-0.004141053407830539,-0.004479106818833287,-0.004339495137380538,-0.003747086946309558,-0.0027630765913166477,-0.0014835461729828681,-5.3973906919289796e-05,0.0013232881995855555,0.0024173676964694387,0.003038037568024206,0.0031133208027825125,0.0027244259998783545,0.0020671457067735636,0.0013578596357288536,0.0007436603946334992,0.0002742366615313182,-5.487074024580502e-05,-0.0002348484520950313,-0.00021708060203099594,4.4498433862232185e-05,0.0005153287836281596,0.001033846959567797,0.001344207732959305,0.0011995076960102163,0.00048017299331882266,-0.0007339745699063262,-0.002170689734105346,-0.0034482580138376316,-0.00420733115305949,-0.0042498585382822265,-0.0036312638161098486,-0.002651530200608519,-0.0017220624799328416,-0.0011515936612088067,-0.0009621220851663568,-0.0008584178502928459,-0.0003995590119254015,0.0007098243251696652,0.0023887583088322588,0.004171585292754991,0.005445621285100627,0.00579174965708379,0.005212789669724758,0.004110590660852243,0.0030384436623464824,0.002391102084943436,0.0022152381366769298,0.0022318276310964863,0.002030967777772655,0.0013105335003305886,2.5268013199925693e-05,-0.001618098270471658,-0.0032894560520255983,-0.004693637552082807,-0.005665497234381451,-0.006166702279435858,-0.00621992222366469,-0.005850765432763749,-0.005086700935376929,-0.00400599004305294,-0.0027814979062532686,-0.0016593911221919437,-0.000856578339656822,-0.000426293007447575,-0.0001841026952950067,0.00022940079228981475,0.0011508419215782249,0.0026612218712051853,0.004468362244504538,0.006006604664062944,0.0067226461569859465,0.0063837991937349065,0.005213282777339963,0.0037601662643041932,0.0025821740283036546,0.001939164986966779,0.0016840108035785784,0.0014087234336696924,0.0007444274675449324,-0.00037712198759010714,-0.0016640206973136409,-0.0026422145578339617,-0.002956950430230825,-0.002604347622275082,-0.00194263698903352,-0.001473052400441131,-0.0015283131855394136,-0.002065449760112274,-0.002692497430048555,-0.002911719511254724,-0.002430038895264777,-0.0013490788392270738,-0.00012047726934199914,0.0007085926102304823,0.0008086405848385459,0.0002491316329997547,-0.000565813635550607,-0.0011654222902394082,-0.0013056609347183376,-0.001090845125496306,-0.0008473554240320761,-0.000850539149686508,-0.0011070000796216302,-0.001344515902076846,-0.00120414122433751,-0.000487315869785618,0.0007127651100263168,0.002068016205117303,0.0031998291421473876,0.0038607453960685535,0.004012005938360294,0.0037808268743647773,0.0033536171101368867,0.002879414619700445,0.002427438853939498,0.0019979974472508336,0.001558279449334494,0.0010735579062048513,0.0005202283848854837,-0.00011553271279797245,-0.0008407314579234374,-0.0016490649696111873,-0.002503709159253634,-0.0033201300527390593,-0.003965718413277978,-0.004287055754386949,-0.004159163923701385,-0.003534830503452731,-0.0024692885021110854,-0.001110380198814789,0.00033438860538214353,0.0016334020189720025,0.0025597911212019097,0.0029235177489331664,0.002621464279914749,0.001700351069283072,0.00039665826684527356,-0.0008943107884989889,-0.0017409604770937384,-0.0018522872315961001,-0.0012211109404523435,-0.00014554403874316856,0.0008972387189549722,0.001464258044225529,0.0013362098309424118,0.0005918805989793248,-0.00045439762934960243,-0.001404549546883863,-0.001937985008770661,-0.0019138364246811725,-0.0013843687021636523,-0.0005331670023310912,0.00041917805263694003,0.001295537445479405,0.0020019622213922643,0.0025261741719030447,0.0029096952284772193,0.0032082359744017336,0.0034501637196259205,0.0036049433017146066,0.0035791326811046424,0.00325229648128545,0.002542238382774893,0.0014620906454701986,0.00012668856318888118,-0.0013043160326434125,-0.002710240822912167,-0.004054637910012954,-0.005348012617702145,-0.006547909445703808,-0.007475711183539053,-0.00783311856113604,-0.007336617511269387,-0.005897181888384298,-0.0037241118286328576,-0.001269555978539942,0.0009670324973516391,0.002660658316329024,0.0037768570009866424,0.004519285708402466,0.005151241054546118,0.005804946996697349,0.006390541469262835,0.00665104467767453,0.006323740747179217,0.005310580736475659,0.0037595780292317173,0.0020133622200289403,0.0004570996625021717,-0.0006494554923740696,-0.0012704380985040574,-0.0015823882638254716,-0.0018696561023710222,-0.002380651813568482,-0.0032046295483950616,-0.004213637485081528,-0.005092979895160399,-0.0054587149947939485,-0.005027413446468502,-0.0037680048511110824,-0.001953783449603912,-7.000418248806614e-05,0.0013883853106849676,0.0021228902985422574,0.002128775215604421,0.001640873878458937,0.0009817112066044954,0.00041631743106178504,9.026150967154554e-05,5.26087823778281e-05,0.00030701788048351935,0.0008329733346634826,0.001565021629233261,0.0023648287333671116,0.0030289598370839233,0.003343300929752627,0.0031563461213231373,0.002431129731862383,0.0012532983460218413,-0.0002002743695188828,-0.0017127570652385074,-0.0030794207623797663,-0.004147382733487278,-0.00483226282988123,-0.0051031468651197825,-0.004940565330907591,-0.0042968268340353635,-0.0031023211575627154,-0.0013391721875153431,0.0008528095406820958,0.0031216080281267836,0.004973957038631965,0.005968011793278365,0.005929240790108198,0.005055061038039893,0.00383120824090235,0.00279511309711835,0.0022705408977131986,0.002210159935812084,0.0022223898135709367,0.001768325182780368,0.00043850538877221153,-0.001814609849541448,-0.004594745743401607,-0.007173949169142223,-0.008758726723174537,-0.008801569436621123,-0.007225651516951482,-0.004462927694539021,-0.0012842198228939956,0.0015052556607742817,0.003364847432750052,0.004174437394262964,0.0041872442273310235,0.0038279438771147457,0.0034589125692163925,0.0032356662200274033,0.0031037379102093372,0.002902459010494929,0.002490439586361007,0.0018174528538069678,0.0009208268718710702,-0.00012107052628474233,-0.0012266074572749417,-0.0023114146581779014,-0.0032645107000507986,-0.003938213279957959,-0.004180635250433355,-0.003904332358278988,-0.0031510214826204613,-0.0021051491427437124,-0.0010343407984079623,-0.0001773149324428362,0.00036545718860388947,0.0006768820871606241,0.0009711285242783188,0.0014628416876195857,0.0022253201346763905,0.0031214354558662333,0.0038564568391943536,0.004129355903409266,0.0037937529439418744,0.002930814965517602,0.0017953721227008427,0.0006805049441113284,-0.00020858915375627759,-0.0008034534896989708,-0.0011407384854410626,-0.001298595672005784,-0.0013527190230001318,-0.0013672511450007344,-0.0013993934398904612,-0.001492565670871295,-0.0016583034570890234,-0.0018690191185760903,-0.0020753397863964816,-0.002232274128028265,-0.0023042142753787135,-0.0022411595824227363,-0.0019568919658090917,-0.0013512462835744811,-0.00038361910043224604,0.0008493047980700284,0.002100514404265863,0.0030555092427368593,0.0034708791565679757,0.0032825831895526643,0.002616215104045826,0.001698782761309733,0.0007350800291270158,-0.00017234006655051325,-0.001017329875659041,-0.0018159780677768085,-0.0025247429553871457,-0.0030125673840708657,-0.003109654787344868,-0.0027033189438396455,-0.0018198063811557385,-0.0006391518455757231,0.0005697009245896035,0.0015607196167817627,0.0022118519822488455,0.00256367518044622,0.002774497489320301,0.0030112835605834195,0.0033300995932397104,0.003612233076360547,0.0036017290356673546,0.0030395597496622336,0.0018315159325720627,0.00015593433192465176,-0.0015612735351283394,-0.0028092405963416832,-0.003221349979436102,-0.0027596933227336906,-0.001760011986420207,-0.0008051779531867791,-0.00047426039312493804,-0.0010751512627651212,-0.002483779670562589,-0.004171149837967512,-0.005415791421264893,-0.005611563753176481,-0.004531565266563909,-0.0024243896180162127,0.00010320584026702646,0.0023570258659540004,0.0038410588934610205,0.004417576173219857,0.004279525883121858,0.003780837266971704,0.0032382728719552497,0.002810337088862952,0.002492691482794804,0.002196384514582777,0.001838957045229694,0.00139145690363461,0.0008679061415818751,0.0002854847082186192,-0.0003618214000906854,-0.00109112204245376,-0.0018889551978174958,-0.0026738458625679327,-0.0032962976918745985,-0.0035854851750570355,-0.003421745561918409,-0.0027967365790857427,-0.0018284155527276004,-0.0007218369582742256,0.00030486266356003595,0.001093107270079799,0.0015827915880794376,0.0018059845934311307,0.001847936846877016,0.0018005200319662295,0.001729452510559522,0.0016627629686712824,0.0015948502231366854,0.0014957666549666147,0.001319594962932972,0.0010137003826679177,0.0005346916995626239,-0.00012739353636257543,-0.0009251371737196177,-0.0017453810948451654,-0.0024281506146420274,-0.0028111104217792855,-0.0027833375012523065,-0.0023260185495717384,-0.0015229492451700691,-0.0005368246195384407,0.00043853584424515153,0.001231089857759576,0.0017298513253242438,0.0019003898211293385,0.0017784581674596227,0.001451733025585855,0.0010381706628339116,0.0006602814479061874,0.0004081632052629954,0.0002916784712831367,0.00020321345546207197,-7.049108851875743e-05,-0.0007593707687444969,-0.00196097057202204,-0.0035043300775848083,-0.004922911099797317,-0.0055925595808595,-0.004999810671237896,-0.003016951122892699,-3.22723368370104e-05,0.0031556425990806967,0.005647482197981958,0.006808753838369999,0.006509492557756931,0.005128581900229304,0.003343736844529399,0.0018320747723914671,0.0010255671070947677,0.0010064150127872627,0.00154251171595381,0.0022076071823933455,0.0025258506999162374,0.002107332883096001,0.0007635857981045154,-0.0014112290302517212,-0.004024529498462325,-0.006466131597423614,-0.008084480065195849,-0.008407770836957923,-0.00732561562492267,-0.0051510330211359395,-0.0025251311825577175,-0.00019052720221826233,0.0012825663572267982,0.001707910909553194,0.001342406521714985,0.0007612280645623182,0.0005929292444588107,0.0012230935254131958,0.0025999648814788103,0.004240705216597698,0.005447374865211685,0.005636573927990045,0.0046234701896969675,0.002718400151781414,0.0005852146174940476,-0.0010714043570220113,-0.001834942738653875,-0.0017546191948190092,-0.0012782602310598783,-0.0009781563904023099,-0.0012234743138526388,-0.0019805075105738743,-0.002841699379370668,-0.0032498840985186596,-0.002783110952112519,-0.0013533533797739877,0.0007596401915182949,0.0030243579294052625,0.004845328094755276,0.005738385230178827,0.005446342637677017,0.003990469324921229,0.001668872663011284,-0.0009975223257826828,-0.003379500980684997,-0.004907342615939758,-0.005250737134020337,-0.004443175731647064,-0.0028872200425362534,-0.0012179139428690907,-6.493796096067165e-05,0.00019130197891659124,-0.00043793103366924287,-0.0015737083430140014,-0.0026467477582800686,-0.0031428297557511203,-0.0028025184154431074,-0.0016906316457385164,-0.00012159452243973648,0.0015012996266623227,0.0028431026667120026,0.0037244331561635475,0.004126876999971779,0.004149221162908416,0.003954498749587046,0.0037239444097889015,0.0036084697544388304,0.0036677474293675665,0.003812773334089317,0.003794734478290603,0.0032799049449693547,0.0020066104996913463,-4.077032806721465e-05,-0.002540278038794609,-0.0048980701959973425,-0.006468061647677177,-0.006834123763554938,-0.006016734556471371,-0.004489316606179587,-0.0029765767061860965,-0.0021196619090664776,-0.0021723197052510405,-0.0028865921846600528,-0.0036488114741802247,-0.0037910259496299658,-0.0029122098898304817,-0.0010493586069694654,0.0013709533617708683,0.003752495311869895,0.005591580966742555,0.006646109663498949,0.006943834258537177,0.006662385972588345,0.00598318927619279,0.005016360460047465,0.0038223413286664395,0.002476005710034387,0.0010938401132282874,-0.00020811518048117366,-0.0013835671196726657,-0.0024775114187509514,-0.003563541537500563,-0.004635684763675031,-0.005539205085512097,-0.006002862712968539,-0.005765106612753082,-0.004723139623791223,-0.0030189192624091345,-0.0010124080791343378,0.000847761184434783,0.0021948476940636327,0.0028743940112145616,0.0029733732292353396,0.0027393687146789465,0.0024382029260573202,0.002227339152691949,0.002106566811006585,0.001958834051683475,0.001643945018603569,0.0010856656896285743,0.0003081869688892678,-0.0005836822201843655,-0.0014526034738602438,-0.002169876641964961,-0.0026336802009710395,-0.0027735724169257233,-0.0025589740618408496,-0.0020160680701521165,-0.0012380718730559063,-0.00036896294406652593,0.0004427790963091224,0.0010989760041399221,0.0015815121102400788,0.0019355802612692006,0.0022142825779528467,0.002419167121059347,0.0024770589800931567,0.002273657606334357,0.0017300751840333933,0.0008796286705924732,-0.00010431168852408274,-0.0009573430304990259,-0.0014372765116202886,-0.0014486991668183037,-0.0011093486847998735,-0.0007109385816895971,-0.0005819320236509434,-0.0009177293277223976,-0.0016677774707136617,-0.002541677068665855,-0.003133883777733484,-0.0031069401160844414,-0.0023478282619022544,-0.001028203469597168,0.0004571389766477197,0.0016493284135838677,0.0022188114196077468,0.0021125698704915984,0.0015853954634296164,0.0010865230530908126,0.00103758913532779,0.001602716879379136,0.0025773468941871066,0.00347583353971501,0.003786668719235494,0.0032526758508125793,0.0020053556261774405,0.00047078060651331317,-0.0008867389182497434,-0.0018137966989566002,-0.002355480995412236,-0.0027443432776877615,-0.003185920464976127,-0.003693129557469601,-0.004073602035732288,-0.004063414746209507,-0.0035064845524272626,-0.0024598287479036503,-0.001164730237210305,8.438080343666746e-05,0.0010807170261674297,0.0017699202887323019,0.002215450256056737,0.0025095190736790832,0.0027012613492918523,0.002786745564303304,0.002751305445944815,0.0026151267358433543,0.0024348265360406157,0.0022531714361703962,0.0020364469524755324,0.0016586722154135786,0.0009659583335123777,-0.00010373434832699232,-0.0014216644069547622,-0.0026711446800935256,-0.0034776609357383146,-0.0036048231782792777,-0.003095331408242136,-0.0022554887051573084,-0.0014790097901097817,-0.0010172511682088176,-0.0008452245586570214,-0.0007106818489741782,-0.0003310513423938013,0.00039282641882671483,0.0012840294452049375,0.0019763077153412984,0.0021281277959761765,0.0016363736854537834,0.0007216192789984087,-0.00017002374057906037,-0.0005973410588888534,-0.0003574674090714692,0.0004086169326277763,0.0012927484368039544,0.0018275144083875526,0.0017084762666849758,0.0009214944408958008,-0.0002703220456834127,-0.0014535595653998028,-0.0022365756425470184,-0.0023937620635954807,-0.0019307545936606894,-0.0010528707543597394,-5.6333165830342504e-05,0.0008051063407444881,0.001411155764365597,0.0017760701285829809,0.001964842658509996,0.0019877934337910953,0.0017588267473414368,0.0011626477151734276,0.00019254720009574504,-0.0009479432027485538,-0.0018796050055126358,-0.002228353265716871,-0.0018494859158518454,-0.0009451180297583583,1.4491884724420617e-05,0.000528046403416129,0.00032087378528375616,-0.0005215787072427604,-0.0016085197199042548,-0.002443360661410751,-0.002654507606383408,-0.0021423988272595276,-0.0010846635249825032,0.00018112879660601218,0.001321492604768075,0.002132667148847261,0.002577540476290063,0.002737671825088628,0.002726277531330647,0.002617770802993436,0.002427014546214079,0.0021347865822680034,0.001728840141495012,0.0012272506989510531,0.0006699742560846347,8.973580976790272e-05,-0.0005123540046489249,-0.0011650180855171716,-0.0018954663837297437,-0.0026858032097813417,-0.003445467910381483,-0.0040218993960546,-0.004250752812211315,-0.004022876235021618,-0.0033327701772456696,-0.0022818042402052183,-0.001035657264623561,0.00023708129480911998,0.0014087257000427742,0.002398135421634688,0.003147241071845449,0.0035989302029822224,0.0037040635103448346,0.0034601863444575927,0.0029544225114572138,0.0023698312831317465,0.0019299829652340925,0.0017944535569905885,0.001956386858059712,0.002206409758389301,0.002201300139868829,0.0016202464553776936,0.0003365202465551825,-0.0014874368284940377,-0.0034409005502862708,-0.005029922617886129,-0.005885100771278833,-0.00590524288048801,-0.005265681852159632,-0.004295056464895991,-0.003294397944653282,-0.002398581802132408,-0.0015507031858055,-0.0005932839925052245,0.0005857899799944925,0.0019430200473726522,0.0032699652081311058,0.004287106662130133,0.004781567961971728,0.0047071362218416395,0.004193607824359737,0.003469380209386401,0.0027480615127188175,0.002140633166613145,0.001630734143854651,0.0011133362339796648,0.00046891294083587827,-0.0003637777590101626,-0.001345696394686697,-0.0023398921329841785,-0.0031550012708112386,-0.0036131224636087,-0.003616734404456101,-0.0031870963846632842,-0.0024542046253096194,-0.0015984347073473312,-0.0007707991435366269,-3.634938568063378e-05,0.0006227106070386545,0.0012428517315863177,0.0017959048218385717,0.002149946635734345,0.002117306408961888,0.0015765762839547014,0.0005968800603186393,-0.0005265767635817726,-0.001373939820751189,-0.001601387944652576,-0.0011294160793180615,-0.0002014001931878646,0.0007304775509450552,0.0012286339224221606,0.0010756605260148887,0.0003548929634738234,-0.0006192673001453832,-0.0014637318296094148,-0.0018898415697907523,-0.0017961364089267452,-0.0012688047044510896,-0.0005121354541967535,0.00024755571841101015,0.0008436696198515093,0.0012127530213549619,0.0013950681309382704,0.0015009850861346804,0.0016565558517142318,0.0019423436603425992,0.0023426662693837243,0.002727414868687006,0.0028857249535212317,0.0026106062042442852,0.0018016095026132468,0.0005310788305807985,-0.0009690459446509711,-0.002398429147553826,-0.0035069150526150137,-0.00417289207203547,-0.00440335161306054,-0.004271462814638061,-0.003845528806630073,-0.0031595105848724325,-0.0022369354915606878,-0.0011380962235236578,1.5184494374582405e-05,0.0010642909303265197,0.0018776701144963483,0.0024127390756652546,0.0027307327913846866,0.002946148334117959,0.003135668749589495,0.003264015593726446,0.0031814841773537207,0.0027063282310309357,0.001749121483407601,0.0004040115546101777,-0.0010524849530763071,-0.0022603918699154774,-0.0029220796130658695,-0.002921135710093501,-0.002359660879370824,-0.001503518242248562,-0.0006676602958174823,-9.513825945591079e-05,0.0001217018243934167,5.3026667809255666e-05,-0.00012024311318649004,-0.00019581568262389898,-3.831805021765021e-05,0.0003716363205651292,0.0009473051966836156,0.0015521794907589327,0.0020632866683740385,0.0024010283378170685,0.0025140695650936475,0.0023455010102599034,0.0018232018512633402,0.0008986431091092808,-0.0003829722960922402,-0.0018319291458933997,-0.003133114618627592,-0.003948233123878565,-0.004061361606148468,-0.0034921265613308194,-0.0025062357556573434,-0.0015027101749526942,-0.0008276678217487808,-0.0006135248479591604,-0.0007326958065282812,-0.0008864417082428856,-0.0007684494244457031,-0.00020684071800236938,0.000781417089145278,0.002024705299301233,0.0032732955748873286,0.004270710868278351,0.004803418707872497,0.004739953718910664,0.004070054099449436,0.002930840991367662,0.0015885643025995914,0.0003568947866498403,-0.0005253486883808455,-0.0009946158019381885,-0.0011780289645029966,-0.0013070623938512458,-0.0015771850172578731,-0.002037987928218318,-0.0025796294319277054,-0.0030180738815886415,-0.003216870252449386,-0.003162466877187661,-0.0029473914081187182,-0.002682789624843758,-0.0024091850940065824,-0.002069017422243483,-0.0015551240467041203,-0.0007960659068533405,0.00018060015453663387,0.0012449785178477108,0.0022187598696681993,0.002951964334627165,0.0033805759270743455,0.003538243771628823,0.003521042030956295,0.0034274816790315493,0.0033065579288634396,0.0031403665830411513,0.002868013002001125,0.0024342969215098613,0.001832432922434085,0.0011132289809028602,0.000353179170971491,-0.00039945308630874707,-0.0011641189800344143,-0.002020959787756577,-0.0030513400776907233,-0.004253770733890408,-0.00548423092623004,-0.00646429163446027,-0.006868129256124233,-0.006455816879258212,-0.005189115517224664,-0.0032673996787442906,-0.0010589708860030012,0.0010407913289685866,0.002750225770033598,0.003966760970332971,0.004730374193770593,0.005125662217945307,0.005200962020290165,0.004961271132244585,0.004426267722411371,0.0036882302378425445,0.0029039717969686564,0.002211735787830116,0.0016325770101354685,0.0010395060115590154,0.0002348646149088615,-0.0009023529686365792,-0.0022932817749701023,-0.0036450313075562435,-0.004563001812230368,-0.004729230432921157,-0.004050128534237684,-0.0027004936123508428,-0.0010509526763542612,0.0004772125012524396,0.0015605786013524804,0.0020656255769856387,0.002055215951777582,0.0017168293193047584,0.0012515821594017015,0.0007807890599382723,0.0003192002907325799,-0.00017348906549798614,-0.0007027780409533842,-0.0011819544536059252,-0.0014595860114894627,-0.0014221266486656521,-0.0010987466583524121,-0.0006825350366587047,-0.0004363804474690724,-0.0005364789138782799,-0.0009564913699057946,-0.001470861213333088,-0.0017756503145739376,-0.0016498469850182147,-0.0010609766320722512,-0.0001620779401261416,0.0008035433624914745,0.0016244601404485088,0.002201463576577177,0.0025527215695538507,0.002757231514611885,0.0028807862010653603,0.00293002137251323,0.0028566196239439463,0.0026014896365477254,0.0021456754978172996,0.0015328609420437332,0.0008483053937666993,0.00016876081098550271,-0.00048154560869063316,-0.001136012788695578,-0.0018431046339377555,-0.0025990249538729326,-0.003299230389112671,-0.00374919057101595,-0.0037458076551371102,-0.0031975935493621503,-0.00221753002362995,-0.0011225476585212605,-0.00031635062084658895,-9.882961443705585e-05,-0.0004972692445336701,-0.0012175764526793859,-0.0017589075494869166,-0.0016471705004762653,-0.0006709425921497965,0.0010062999477409283,0.0029196631682240678,0.004522316759456418,0.005432647100099119,0.005579381738212081,0.005173520229722402,0.0045309306475551925,0.003851908666289105,0.0030901302741652885,0.001995226962309298,0.0003123366499192396,-0.001976434404074682,-0.00452054007627606,-0.0066794346873717825,-0.007793690939822491,-0.007513412690088414,-0.005999644445053276,-0.003870808610772926,-0.0019050118374906166,-0.0006546316490882822,-0.0001916098202932176,-0.00013171375581580783,8.226624379902795e-05,0.0008189077668484409,0.0020420081208166177,0.0033592303950916204,0.004278457711509704,0.00449231979125355,0.004020124861926167,0.003150982598447559,0.0022581096350048993,0.0016104916294161426,0.001278261953258522,0.001154050807760998,0.0010489384963721245,0.000798684003948292,0.0003309915931547355,-0.00032298403490376663,-0.0010604655621963522,-0.0017550848394704806,-0.0022959726299501236,-0.002606815839927273,-0.0026498328199568272,-0.002426312637417686,-0.0019791307799624904,-0.0013918679167647704,-0.0007754998424218324,-0.00024028905509272842,0.00013851289152929107,0.00034494381457018204,0.0004211616648700931,0.0004363752641202965,0.00043919560011933473,0.00042101393852412834,0.00031672496296900954,4.8829494597716423e-05,-0.0004073869865191921,-0.0009773023943508649,-0.0014920264644205114,-0.0017496819245793336,-0.0016038714181762126,-0.0010319288321028576,-0.0001449751305649846,0.0008648677364261189,0.0018076516030859258,0.0025601526882759813,0.0030780128496259566,0.003358498440783525,0.0033906116080212037,0.0031367531441101313,0.0025646519076899708,0.0017058920363529706,0.0006892562616385868,-0.00029189247468953093,-0.001072072944844112,-0.0016098599771824556,-0.0020170361203097394,-0.0024857147284877003,-0.0031447156865660394,-0.003931279019358345,-0.004568547385343152,-0.0046823318282825845,-0.004002022971130314,-0.0025275900076488357,-0.0005561107228060469,0.0014524185403483102,0.0030858782025134385,0.0041364446490281944,0.0046167518203634236,0.004651404194923917,0.00434109233862492,0.003701838927519214,0.0027138612440859695,0.0014279747477928964,3.531250156030199e-05,-0.0011655983549780122,-0.001896621588722486,-0.002047715325133993,-0.0017509617006189805,-0.0013271021897428951,-0.0011257427432146436,-0.001346173619825202,-0.0019401440756906887,-0.0026497347710412356,-0.003153438532334939,-0.0032329167972155884,-0.0028671597970615944,-0.0022090537289042866,-0.0014695678534168907,-0.0007851031867823104,-0.00014657437870688222,0.0005735091340830995,0.0015188786760056182,0.002735540397937424,0.004109989369613939,0.005389141535637256,0.006266279214979965,0.006488339818252777,0.005939128313382686,0.004672410037745933,0.0028918288224385994,0.0008904901941626069,-0.0010296990775970011,-0.0026369740068072868,-0.0038248175098037655,-0.004623075707077217,-0.005155193788305156,-0.005554050182126003,-0.0058739327748164784,-0.006044987873118303,-0.005898000371012452,-0.005250249686927872,-0.004009390195046458,-0.0022414272795946927,-0.0001669697103907969,0.0019122055981077302,0.0037165818307948522,0.005067166201826775,0.005901728698881952,0.00623433582229416,0.006100569751401293,0.005534759042583418,0.00459287061146772,0.0033916548320416804,0.0021168131923159353,0.0009755680598100887,0.0001136049239593242,-0.00045296056145876465,-0.0008456830435456686,-0.0012623304464623203,-0.0018754250875283502,-0.002740404220359736,-0.0037560438422092565,-0.004693042024226507,-0.005275778365624724,-0.005281772299544645,-0.0046197250528528105,-0.0033585896294237474,-0.001701075001793769,8.227114034784367e-05,0.0017269020052512966,0.0030249615423652634,0.0038398013078907627,0.004097204857822644,0.0037813773819646967,0.002953697774757547,0.0017812697543887926,0.0005358157608290092,-0.0004702763450335864,-0.0010008113067760149,-0.001005997779419251,-0.0006534473556119749,-0.00024862571694952317,-8.237529893084658e-05,-0.00028957713602257304,-0.0007944855613608326,-0.001364021513006047,-0.001729271982545702,-0.0017049593230731807,-0.0012497788404989157,-0.000452994386086374,0.0005249233190600553,0.0015131242250995644,0.002363067398518189,0.0029539709891212348,0.0031933745364120534,0.0030324486037000414,0.0024934072117114327,0.0016847698469163318,0.0007795949434403688,-4.4531120860748273e-05,-0.0006752290866352904,-0.0011051664410100656,-0.0014190496536748234,-0.0017358847473094867,-0.0021381984251429443,-0.0026235285574400706,-0.003099311856999977,-0.0034204579184973975,-0.003449803151110825,-0.0031129150524141537,-0.002424078865089886,-0.0014768716139234982,-0.0004103761067546555,0.0006301137992086141,0.0015236614125938544,0.0021912160094999947,0.0026021222918979846,0.0027715819747521314,0.002748772144003533,0.002596633574898745,0.0023699936268407234,0.002102434211631031,0.0018073562224430286,0.0014873478683846391,0.0011399277353576994,0.000755066197010611,0.0003133757253973123,-0.00020275799517164845,-0.0007858411594464322,-0.001385187702498223,-0.0019133342250727023,-0.0022789912957793925,-0.00242743098235668,-0.0023627915999168544,-0.0021395769097896874,-0.0018308548808644957,-0.0014928054484816436,-0.0011431442134564713,-0.0007602952260285204,-0.0003009540782853552,0.00026979760794354176,0.0009434919833147035,0.0016415869434720557,0.002216712895106509,0.002497899532191537,0.002374637516804742,0.0018828949513286922,0.0012355209079155751,0.0007527310243223958,0.0007009344571712187,0.0011157004349041672,0.001720829467631275,0.0020221266349538603,0.0015564970240354763,0.0001711561845769723,-0.001831449681565192,-0.003784047467488777,-0.004949281237233161,-0.0048685404404655176,-0.003580597193029562,-0.0015960389750815191,0.0003531124131023625,0.0016484784321677724,0.0020266061312979294,0.001614837477003472,0.0007789767016403414,-9.526695260987476e-05,-0.0007524263169031509,-0.0010916204715234919,-0.001106514324629008,-0.0008265697953956683,-0.00031121105179910693,0.0003224549392199225,0.0008985140684369679,0.0012428781438235492,0.0012758054625194191,0.0010646837059074543,0.0007885989884053287,0.0006344812169669402,0.0006963957015333155,0.0009407618500084538,0.0012442253843109909,0.0014610868410909565,0.0014735799611017163,0.0012125626778270717,0.000667365847275837,-9.82356469451768e-05,-0.0009342563368531416,-0.001626637066171733,-0.0019685443656582936,-0.0018553087603241144,-0.0013463659090288817,-0.000647466462063664,-1.4114760609144645e-05,0.0003717524848679309,0.0004811602227704221,0.0004280130630371354,0.00037644720430636536,0.0004211521557357964,0.0005132721840988803,0.0004798268103555839,0.00013073830823545694,-0.0006058419198846537,-0.0016006845981649015,-0.0025482001994299583,-0.00309282900306568,-0.002990124400090044,-0.002213655946652477,-0.0009529048941675508,0.0004843754259209409,0.0017973114875155366,0.0027739800604508376,0.003306451536671841,0.0033691026076745905,0.003006940004735919,0.0023484200710886358,0.0016091126618887226,0.001037632563625783,0.0007963087497087301,0.0008388322281856571,0.0008848147628899641,0.000550383857484675,-0.00041269256205189774,-0.0019146006433822713,-0.003511129142237119,-0.004611848496579584,-0.004797623793355462,-0.0040504291631475444,-0.002752099715051033,-0.001458188814329255,-0.0005908612810381162,-0.00023196907413156227,-0.0001238966476879333,0.00013969342458588488,0.0008527032593107732,0.002013582047755575,0.0033182419864669667,0.004326179625793668,0.004700767150576458,0.00438548291109546,0.0036173556678935313,0.002773360165590922,0.0021407312638285886,0.0017455848738851891,0.0013424808096567117,0.0005769413798195262,-0.0007685957221252311,-0.0025902063042335497,-0.0044567038615036,-0.005799115666992748,-0.006194139979827417,-0.005579276206847627,-0.004274353265687567,-0.002798140596093694,-0.0015891778093778952,-0.0007937901789429665,-0.00024078197634651104,0.0003910997117735042,0.0013227692202341188,0.0025006696333097454,0.003609406559615185,0.004262324924713866,0.00424555885039396,0.003655122415793078,0.0028356552102149265,0.0021584324111704476,0.0017806409886307758,0.0015414232333602045,0.00106629493907466,2.3453082657543998e-05,-0.0016195294171312408,-0.0034963715132674887,-0.004971208879541165,-0.005436449915599082,-0.004620174998710962,-0.0027356493443862965,-0.00039438030548512456,0.001665052677617938,0.0028872190211920307,0.003098306621624884,0.0025146915722903075,0.0015840102186478802,0.0007559900422826865,0.0002986539566564465,0.00023594142752512276,0.00041036745325302926,0.0006102463577582083,0.0006805133140083176,0.0005653517857510212,0.0002832277577053615,-0.0001263526227792164,-0.0006399509196904323,-0.00124919353420226,-0.0019294695147310012,-0.0026056582229257857,-0.0031437867820936927,-0.003382371882368706,-0.0031931900725109307,-0.0025409897760429773,-0.0015079042357033323,-0.00026567272388879,0.000991617106877527,0.0021178838162972625,0.003049836158963759,0.003788909164630775,0.0043460645824217594,0.004690137096054425,0.0047402113364236435,0.004413014235817099,0.0036934686234733403,0.002671557419744069,0.0015068501243021713,0.00033786198724406,-0.0007945900819395953,-0.0019408506971936774,-0.0031456483541385328,-0.004332829778166973,-0.005271289442618835,-0.005668284348141725,-0.005338779317824121,-0.004335339894414819,-0.0029453478592485357,-0.0015542342498597725,-0.00046359129939492136,0.000223863940150828,0.000593742857771005,0.0008097688231727903,0.0009876310711973116,0.001135558476980362,0.001191691728678179,0.0011207412055791427,0.0009923827045087848,0.0009759227141153098,0.0012424401300610184,0.0018313361250634995,0.00257036818152106,0.003113887373751242,0.0030959976110695327,0.0023248641178217778,0.0009137993720430666,-0.0007280650651327761,-0.0020517782032551347,-0.002599653904264327,-0.002197755573881093,-0.0010160739281357407,0.0005249150315713063,0.0019418357061824283,0.00287022714075986,0.0031596585121002082,0.0028598766920861526,0.002134677932645988,0.001167255658179084,0.00010702968868138299,-0.0009311898709252096,-0.0018416034581714515,-0.0025137063157303916,-0.002853169315118977,-0.0028295384418616887,-0.0025177819842825072,-0.0020977576855354197,-0.001798657652331308,-0.0018094208295748211,-0.0021967098953181367,-0.002866609518466674,-0.0035836138338508727,-0.004038700921469309,-0.003945876239617629,-0.0031399765987703086,-0.0016440006117408221,0.00032376278792153597,0.0024156714132318544,0.004274109809287642,0.005651194186686988,0.006466599093069433,0.006773299386585031,0.006660484165621648,0.006167441719993431,0.005273380842297233,0.003967873811260801,0.0023403766338885206,0.0006082572403964425,-0.0009522611064751238,-0.0021329435515043357,-0.002891923467271207,-0.003353996598578448,-0.003710338084288674,-0.004083609996387446,-0.004446565537967755,-0.004644461145707295,-0.0045014555689218225,-0.0039374483920746875,-0.003020370378639506,-0.001927574166944567,-0.0008511859955860524,8.709843912965047e-05,0.0008627697277343371,0.0015127612238338595,0.002072363018442094,0.0025305171658579835,0.0028310018588856207,0.0029153903666765063,0.0027769379524469487,0.002486189845670842,0.0021640880962080855,0.0019105042890972933,0.001728661615800463,0.0014983607003509897,0.0010306704473577186,0.00018923070207251154,-0.0009861763735869564,-0.0022360036107791207,-0.003165737267231023,-0.003434056638712436,-0.002947917064203995,-0.0019465258675955815,-0.0009062683882339242,-0.00029920188979564236,-0.00033232599049338573,-0.0008221427730579368,-0.0012914659977914505,-0.0012440714731971549,-0.0004575941351095031,0.0008833488614653961,0.0022931225270459523,0.0032574571426473202,0.003499442558986475,0.0030840799956803186,0.0023208446391438566,0.001549990858196361,0.0009548277307255906,0.0005040878094331519,3.395353276529735e-05,-0.0006047178737244472,-0.0014324537751485551,-0.002319872596207905,-0.0030534503873149,-0.003436926485887637,-0.003371303761652739,-0.0028815601021537495,-0.0020905648394668476,-0.0011622980082765183,-0.00024251985649795683,0.0005803812334770682,0.0012827116840769316,0.0018820744474543822,0.0023964463182230655,0.002807656074581847,0.0030520094623947107,0.003049177756769972,0.002757751731596185,0.0022237259084862326,0.0015836982135666287,0.001006715929071131,0.0005979571092424004,0.00031957922155674513,-1.408809980465043e-05,-0.0006448196835280803,-0.0017162370358482877,-0.0031373007701181975,-0.0045498690098988645,-0.005441457505691511,-0.005366656065962469,-0.0041722612847992155,-0.0021052279698332787,0.0002631119951506831,0.002263555858841103,0.0033892211427595247,0.0034612266829835265,0.0026399145414163295,0.0013150334574017208,-4.2494208823473504e-05,-0.0010037974349516123,-0.0012687010854234761,-0.0007334443749413139,0.00045941954504907356,0.0019239282675346157,0.0031283278718597634,0.0035832544039369764,0.0030463083229530803,0.0016355345735383107,-0.00021592718384334016,-0.0019427835094038529,-0.0030716320569688224,-0.0033764283875125337,-0.0029053091802274614,-0.0018934376700144454,-0.0006308727005204309,0.0006387235317450806,0.0017502062739404997,0.0025939461156191585,0.0030830904544525673,0.003148859759950622,0.002766788487502424,0.0019853286587329004,0.0009252333355176544,-0.0002561559719283386,-0.0014114286720508721,-0.0024290228354014736,-0.003228647253422207,-0.0037449112018696673,-0.003926032342509455,-0.00375516067038699,-0.003274214037310059,-0.0025813009152045926,-0.0017929913928308298,-0.0009946330037145703,-0.0002153962252933032,0.0005542941777305303,0.00131985788176452,0.0020500022528164167,0.002678647527310987,0.0031363355159971223,0.0033850063945664436,0.003431530697799938,0.003314037030431121,0.0030741683569580334,0.0027350377669006125,0.002297560306481332,0.0017543868546202363,0.0011095328676553437,0.00038842958392623964,-0.0003707949897255302,-0.0011406074254172848,-0.0019239119369692359,-0.0027483551913269847,-0.003625683033725276,-0.0044922614981213645,-0.005169611090780672,-0.005385737685337067,-0.004871739897431874,-0.00350350141210787,-0.0014190661983877154,0.0009645969273717717,0.003071787553830052,0.004387452577442547,0.004671511145931357,0.004053251678508067,0.0029524706263136706,0.001872094479472601,0.001176752173153829,0.0009687028387481956,0.0011051688805380575,0.001319647795283163,0.0013653210030592675,0.0011090205990083506,0.0005495717841531359,-0.00022068800575572632,-0.0010726341413863027,-0.0018843552260254669,-0.002561445093623507,-0.003038132153185411,-0.0032689255642616107,-0.0032200764188151346,-0.0028695161577099344,-0.0022212496647741322,-0.0013308916883155125,-0.0003256396300671616,0.0006042996501370475,0.0012555811668398158,0.001492109181041138,0.0013221226860583002,0.0009292393129317527,0.0006266249066441687,0.0007353251534432106,0.0014294916289417773,0.002621725646539025,0.003957162816167028,0.0049372414292779615,0.005124861961718523,0.004333260986704583,0.002703458274444631,0.0006299679593589841,-0.0014270011757970776,-0.003142435404565841,-0.004429370119867589,-0.005387213753182912,-0.006134932672412845,-0.006646538650136707,-0.0067087224137825675,-0.006038020554027634,-0.0044825934489279955,-0.0021734071102021335,0.0004751405173597978,0.0029152145740168724,0.004677683797598243,0.005536177040958524,0.0055555896935165095,0.005023035559203677,0.0043072380819411706,0.003707758630457236,0.0033454908818128805,0.0031256833055580387,0.002784553974206274,0.002010438894311876,0.0006057411297438608,-0.0013705879187720297,-0.003552055126164138,-0.005353711649922871,-0.006188774268019107,-0.005728054196033741,-0.004077084095583797,-0.0017687756157121638,0.0004458474414179112,0.0019186745614378814,0.00237700136022837,0.00200335721554488,0.0012821869805531474,0.0007065188631913673,0.0005171311938310934,0.0006194916520652473,0.0007085196064308406,0.0005044360288256502,-5.5466553007654535e-05,-0.0007832370126881398,-0.0013712579865969425,-0.0015909627539528195,-0.0014272089040012175,-0.00106713069727099,-0.0007619889606417168,-0.0006609029745209176,-0.0007238160915424795,-0.000758079795999862,-0.0005398596671824002,6.212707318702581e-05,0.0010252396037408594,0.002186015945651869,0.003298309909477578,0.004101541273964072,0.004383535755642202,0.004037337032407565,0.00310489140902885,0.0017834345385794007,0.0003693968719272606,-0.0008555469602393924,-0.001746957366314273,-0.002356675946613802,-0.0028818556958488343,-0.0035210227694784245,-0.0043160169829668665,-0.005076793978185352,-0.005444912697710171,-0.005071910704965744,-0.003817005355904294,-0.00185020885285036,0.00040196126329336454,0.0024385041167245955,0.003888889497212066,0.004628737828990636,0.00475783745208541,0.0044798701764353745,0.003973708724047703,0.0033304688832717037,0.0025699582533105043,0.00169510156278091,0.0007318110591059445,-0.0002670827773542751,-0.0012371535740814657,-0.0021097207637519365,-0.0028043217385004997,-0.0032243883829245943,-0.0032765197933884668,-0.0029115800193819726,-0.0021622871495149926,-0.0011501802686212964,-5.5467873194054405e-05,0.0009335404219656077,0.001667544575646454,0.0020657287407367365,0.002126325183250145,0.00192088351371767,0.0015708028990060634,0.001204172174178405,0.0009017580543836563,0.0006564387778881691,0.00037424101955508236,-7.244889970925189e-05,-0.0007602941011581599,-0.001644217054544524,-0.0025445584638228904,-0.0032071926611729157,-0.003410014694916919,-0.0030605052152019897,-0.002232764430224376,-0.0011277947210780372,1.5020217270742334e-05,0.001003771595278139,0.0017364309342053626,0.002192480415171066,0.0023974618885433587,0.0023928906964495013,0.0022281186632620003,0.001965141006348525,0.0016734511994899418,0.0014020658990512517,0.0011422590600848066,0.0008146685104008919,0.00030813475643723214,-0.00043592601914929684,-0.0013396267129737508,-0.002167434252360809,-0.0026040724501181717,-0.0024084939903302833,-0.0015637708884283282,-0.0003295009150498258,0.0008493321117044638,0.0015401685889413744,0.0015246041144435858,0.0008961634227557401,5.203921596820624e-06,-0.000713619564030662,-0.000938223886845263,-0.0005858109281180073,0.0001781050501579207,0.001033404674421791,0.0016428359029457683,0.0017674072966397218,0.0013215876707596077,0.0003709291278585753,-0.0008998804863943512,-0.0022254539840940632,-0.0033054519051725307,-0.003872291361638806,-0.003778713910915097,-0.003066432723713065,-0.001958878883682859,-0.000754080794521462,0.000333080262182981,0.001274461051777229,0.002193996190244535,0.003207875599133613,0.004255549222585888,0.005058328322975722,0.005253752508436179,0.004620093389779743,0.0032329567294734837,0.0014437048578172544,-0.00030203262623635686,-0.0016796226973612965,-0.0025982848591313903,-0.0031591162719702597,-0.0035131303695916114,-0.0037292504633235526,-0.0037567166277593556,-0.003489852474444048,-0.0028738879519775856,-0.001972578874764227,-0.0009548822932953047,-1.6172065270836865e-05,0.0007112920528355613,0.0012045884998251257,0.001531949740932174,0.0017892461863135251,0.002033107149508939,0.002247797797553579,0.0023579585758207447,0.0022727561834538145,0.0019345633736660263,0.0013498265511463425,0.0005932444485923214,-0.00021130650149350175,-0.0009239237089817658,-0.0014265822177442844,-0.0016568725495443755,-0.0016264937859751328,-0.0014127436931121095,-0.0011200672570278862,-0.0008274901711779006,-0.0005527583818355676,-0.00025800372703833804,0.00010609016957691995,0.0005492077458212861,0.0010196253506470556,0.001424392822010509,0.001672550229887457,0.0017086779536369054,0.001517305972149947,0.001105796562812423,0.0004915175788356855,-0.0002862515601475676,-0.001135224872452282,-0.0018928196869434865,-0.0023601312995972473,-0.0023936071015465627,-0.002008490629315547,-0.0014137211572018767,-0.0009210590754202147,-0.0007542757428330681,-0.0008748973921611203,-0.0009616522719483648,-0.0005943952415988977,0.0004518764878543931,0.0019944229568588834,0.0034709809068393274,0.004220006318426242,0.0038587351991922272,0.0025319825539697055,0.000870490070495729,-0.00033665450382873007,-0.0005803458832496543,7.068521045520103e-05,0.0009934962060668896,0.0013531264099284918,0.0005715738193032168,-0.001342473944826549,-0.0037822756357020226,-0.005841263835746397,-0.006743449753322065,-0.006174931559107212,-0.0043630992139876345,-0.0019002810484744395,0.0005588215647674307,0.0025519141567794165,0.0039006638985009247,0.004639147975111936,0.00487392367204749,0.004686629516910946,0.004129347873040517,0.0032802932399291673,0.002285935608345107,0.0013394712777946517,0.0006059526358098287,0.00014857193083985649,-9.3350113710342e-05,-0.0002646628879168194,-0.0005222911810652941,-0.0009702638530326847,-0.0016245495345374437,-0.0024086546774781527,-0.003172055100996026,-0.003726657224131039,-0.003898572614601719,-0.003585348848857694,-0.0027985842904849575,-0.0016714648959930312,-0.00042440141921710377,0.0006995901445069146,0.0015066862764797847,0.0019071598874170412,0.0019351116888361,0.0017244766440306489,0.0014466015770409652,0.0012312484418110898,0.0011053046074556627,0.0009821185833262002,0.0007143728790142427,0.00019090648846466001,-0.0005708394400394771,-0.0013917908496409264,-0.0019878557662027507,-0.0020979063114536555,-0.0016186109944551135,-0.0006691613720296289,0.00045578064969505213,0.0014225895420505337,0.002010548780326818,0.0021977497213838374,0.0021386957243612974,0.002051651429938855,0.0020823033669624662,0.0022214245961540134,0.002320639238672614,0.002189874144820236,0.0017105889930095334,0.000895097988772891,-0.00013285486967586373,-0.0012036185203643905,-0.0021575721463408045,-0.0028632428789854758,-0.0032166338983327793,-0.0031596368955809236,-0.002726499573315615,-0.002079300992628208,-0.0014771190201631089,-0.0011644050084496811,-0.0012340378462216664,-0.0015584528634097425,-0.0018483761577218112,-0.0018135430494309983,-0.0013281440003282197,-0.0004992671514201796,0.00040021954496477,0.001089055361914221,0.0014298442653135257,0.0014900836231930656,0.0014828207456675526,0.0016273254028010887,0.0020139926289678787,0.0025516845767135955,0.003023034089208443,0.003206461532572583,0.0029866201518199713,0.002391295227108067,0.001547450739655069,0.000601069797260347,-0.0003404688307535671,-0.0012132369056800818,-0.001963924753275792,-0.002521557441634626,-0.0028063435236836895,-0.0027719201506297636,-0.0024441096476595465,-0.0019167005741472843,-0.0012972929088973335,-0.0006403155466960474,7.668416489414655e-05,0.0009044542301551126,0.0018295593530372532,0.002709344740670659,0.0032952032865460465,0.003343217747258021,0.002744332359014921,0.0015885149493321613,0.00012451908717428756,-0.0013497359337572986,-0.0025910454427179753,-0.0034550078256734085,-0.003882453194352267,-0.003869621130362595,-0.0034565713820532582,-0.0027316076829334186,-0.0018241387786343216,-0.0008689970438880942,4.1497358030365486e-05,0.0008807432260246238,0.001663837567764415,0.002392583384648455,0.0030141158179517805,0.003428553134205722,0.003540719804194694,0.0033146564238451474,0.0027887793850252746,0.0020432736566271823,0.0011496467050052287,0.0001446706909761445,-0.0009501840953012531,-0.0020795241529897035,-0.0031160177754092104,-0.0038706267403073287,-0.004157107259848106,-0.003878728996545693,-0.0030852069563590866,-0.001960739244050483,-0.0007439757623643908,0.00037666810660562074,0.0013317401940880682,0.0021635781790674768,0.002949475476038245,0.003704373389564309,0.004325831843444182,0.004619985222762316,0.004398674237170041,0.0035923194642143706,0.0023084114688877557,0.0007946459667967898,-0.0006749714610132924,-0.0019206670819547004,-0.002907116362224731,-0.0036939037115437494,-0.00432648910313002,-0.004749742117530847,-0.004809927695071444,-0.00434851074289621,-0.003325987932625014,-0.0018908151815511633,-0.0003426630527728141,0.0009929892219906894,0.001905896128088193,0.0023760297744543357,0.0025425655520826887,0.0025908514179016472,0.002628499798179337,0.0026257859442377586,0.0024552612690899468,0.002003867556561076,0.00128336202688739,0.00046138154626554123,-0.0002177561281959808,-0.0005812370714054945,-0.0006507867239747855,-0.0006508342938431536,-0.0008787169109775258,-0.0015059414188452933,-0.0024359984036919024,-0.00331911328078521,-0.003726040850524337,-0.0033776369513357062,-0.002291002818164455,-0.0007612791320515863,0.0007956393880695464,0.002036323627044716,0.002812139063918041,0.0031732176803495145,0.0032805661905966274,0.0032950127452305274,0.0033052056688389194,0.0033169701365966782,0.0032844891332986623,0.003146013668069697,0.0028390894690154297,0.002297964788712802,0.0014555387049369078,0.0002684967082836108,-0.0012391107550581493,-0.0029415178567034593,-0.004615746851587921,-0.005992075353977309,-0.006828099180236882,-0.006971612017326727,-0.006390882502671075,-0.005174977203448545,-0.0035178447053952214,-0.0016901011878379976,1.1568246534355642e-05,0.0013422431617382477,0.0021910357503475896,0.0026205479208703765,0.0028262974595822245,0.00302620683651475,0.0033405605311410203,0.00373362777557638,0.004047794581472024,0.004100356371176263,0.003778561341260369,0.00308235900346439,0.0021085185693778498,0.0010060299483444475,-6.35524795695602e-05,-0.0009499195852175225,-0.0015339516810598552,-0.001756506030880471,-0.00164829475614692,-0.0013344465787252999,-0.0009935880847540721,-0.0007820562327266658,-0.0007636886943359301,-0.0008873137673502798,-0.0010245880275828183,-0.0010439318279837583,-0.0008792096240814685,-0.0005614818200425526,-0.00020501695131912875,4.14399144898816e-05,5.653650314403321e-05,-0.00020282324718236906,-0.0006810678383460216,-0.0012415600129221248,-0.0017141134643159752,-0.001952009984138318,-0.0018755559537503713,-0.001487937545830183,-0.0008638298463450618,-0.00012171082106733958,0.0006097959891463631,0.001227984788571144,0.0016910174977681604,0.0020374686746209027,0.0023679950026527096,0.0027789324082531535,0.0032709623938220293,0.003687795599260711,0.0037410707447172514,0.003137025584650509,0.0017560343869144693,-0.00021275479738115804,-0.0022750515573229883,-0.003800486885049269,-0.00429033012856651,-0.0036139507599867553,-0.002092542066654996,-0.0003822579128898605,0.0007952904835799067,0.0009561569228865938,5.5022552171889e-05,-0.001506281943671258,-0.003062930864838451,-0.00397329992782611,-0.0038733623278967132,-0.0027901703684943663,-0.0010789353655471013,0.0007686397301754091,0.002341299254254684,0.003442577303071043,0.004085926904179991,0.004376586427554267,0.00437249334153352,0.004023653197955744,0.0032305044229781745,0.0019753502776929934,0.00042590286748775267,-0.001075172818610509,-0.002145854505487633,-0.002551907776361161,-0.0023327963089314367,-0.0017846992094380815,-0.001302178620034335,-0.0011659465950423188,-0.001399346723436634,-0.001775344037851021,-0.0019629998535617924,-0.0017194453372372377,-0.0010153954453385944,-3.498534284269441e-05,0.0009300904663872346,0.0016203008280946869,0.0019088596529942806,0.001825980616079026,0.0015127774024265503,0.0011387623655934186,0.00082332600236491,0.0005919298207064721,0.0003804421248569076,8.220903563018069e-05,-0.00038358022254095497,-0.0010124012854100892,-0.0016916348823385519,-0.002228647728597696,-0.0024224996188637444,-0.002150809891771202,-0.0014322639686569559,-0.0004327205924187761,0.0005916123670685683,0.0013891488159464538,0.0018016352104358057,0.001806183681048503,0.0014968170196061076,0.001026042980793524,0.0005466785892654418,0.0001841739534581958,3.715271607928998e-05,0.0001767406089484226,0.0006195826534774627,0.0012838046752884362,0.0019699742020110383,0.0024054522285962493,0.0023463761597058803,0.001682615657809892,0.0004828632136390678,-0.0010398363825441647,-0.0026054240744909033,-0.003931829080505999,-0.004765270595780264,-0.004900632867335596,-0.004228355769916778,-0.002806956316870551,-0.0009097823480442838,0.0010168083450169997,0.0024984185151415124,0.0032198861288721316,0.0031515706346999677,0.0025392120247767686,0.0017631784323949684,0.0011505456868405668,0.0008449514171094803,0.0007936956006974443,0.0008339382220353339,0.0008039335907448506,0.0006069050012872239,0.00020774221548264444,-0.00039833621150664196,-0.0011893151525212147,-0.0020751431347455673,-0.002854616324127779,-0.0032387695171870105,-0.0029702183688376394,-0.001987544950177005,-0.0005245974577873935,0.0009479712974061794,0.0019356877792843334,0.0021725536726943384,0.0017548630312141955,0.0010664621666379936,0.0005411476661228607,0.0004151219719208308,0.0006248716524398567,0.0009042657617810323,0.0010014457758510844,0.0008605302897752418,0.0006429655258358952,0.0005773312901679326,0.0007490239172841661,0.0009890071905286342,0.0009564608383115598,0.0003724543104591481,-0.0007536310753586436,-0.00206898662798337,-0.003043656778074386,-0.003256011849746172,-0.0026163571074569792,-0.0013958070563674925,-5.991404124242744e-05,0.0009747209029193394,0.0015130251197426677,0.0016008054071595058,0.0014138105683176134,0.0011134472648223316,0.000767199031480383,0.00036963687784255603,-7.661032579543269e-05,-0.0004985269750537402,-0.0007649373800751471,-0.0007666785415805783,-0.0005031154284734887,-0.00010652223962118461,0.000218414885283515,0.0003003425026779187,8.227660034235227e-05,-0.00036869537300601783,-0.0009150962389061054,-0.001417566505523619,-0.0017724386513762898,-0.0019100908473387325,-0.0017814254652998508,-0.001362576069630839,-0.0006797163056323581,0.00017262813373947195,0.0010470366178527662,0.0017934102212137095,0.002316911668551235,0.0026102495754681647,0.0027442715610237253,0.002825172412675557,0.0029403001276035695,0.00311317846325397,0.0032803287689428242,0.0032971625430834486,0.0029777375188276304,0.0021655021620966214,0.0008149531136473992,-0.0009531666627469381,-0.0028596437827233152,-0.004546579004212422,-0.005698490663727012,-0.006149669605788347,-0.005929989837275542,-0.0052325393460346285,-0.004320897456966583,-0.0034166030240561896,-0.0026136762377745332,-0.001856345391227555,-0.0009897204988398955,0.00014033104622589447,0.0015856557030866029,0.0032400216935644342,0.0048528947924965735,0.006104705164194797,0.0067119486416563415,0.0065225378544282965,0.005567488394363003,0.004049354217129824,0.002268211018253734,0.0005112788815547184,-0.0010446595839964268,-0.002365224551064328,-0.0035024534433666515,-0.004483819256310969,-0.005222365008249733,-0.005517636212176081,-0.005157744441543734,-0.004060085062150043,-0.002356688058720229,-0.0003662597517250484,0.0015277111955429939,0.003014462696683382,0.003932846049207337,0.0042653198062574385,0.004084161420721266,0.00350245776921593,0.002655683069083246,0.0017004713832740543,0.0008012988818674037,9.249829263081356e-05,-0.00036784121524486993,-0.0006208741702733015,-0.0007861153081680644,-0.001001958503621343,-0.0013562384013998804,-0.0018415771487613403,-0.0023562000872601103,-0.002746406179743109,-0.0028675439750807537,-0.002636883035538186,-0.002062749474662934,-0.0012477870465408848,-0.000368365406284796,0.0003722852298351717,0.0008179692114581704,0.0009413100257011121,0.0008869140501087279,0.0009261181946890878,0.0013163713487259,0.0021292751844616525,0.0031562496878738563,0.003971778226722211,0.004136803058406657,0.0034255412724952822,0.001936678659181588,2.7380945903813635e-05,-0.0018722693222971115,-0.003437261114218721,-0.00451803143341674,-0.0050946646082596315,-0.005185287401811916,-0.00479022290502288,-0.0039028616376507548,-0.00255830112894365,-0.000870302282016757,0.0009693066492036426,0.0027212132271302804,0.004140517371018651,0.005021750842960382,0.005247002556902832,0.004828318020138748,0.003920554737139084,0.0027822041561475323,0.0016878953549249575,0.000830434214571484,0.0002632036470756416,-8.884360060663877e-05,-0.0003640752130855781,-0.0006893026072890884,-0.0011349685672640015,-0.00170937317815128,-0.002372556784195381,-0.003047321520396706,-0.00362390777345412,-0.003972857608757922,-0.003978193370245515,-0.0035826802581843784,-0.0028190324501718976,-0.0018039102750456323,-0.0006950835668812611,0.00036250413336064223,0.0012695402295364363,0.0019694933701888155,0.002423705135039139,0.0025949437747150557,0.0024624554575515033,0.0020641442392359596,0.0015332939236997387,0.0010894390307374232,0.0009650624976186473,0.0012916480132551373,0.0020040197379524527,0.00282432236959274,0.0033496615080840114,0.0032114048265067746,0.0022343825324491287,0.0005236824445601551,-0.0015582026323852996,-0.0035126127086313567,-0.004873858409758188,-0.005359433417855808,-0.00494543166502568,-0.0038446706019731307,-0.002405897706492012,-0.0009818794975421819,0.0001796868718887395,0.0009846848322705248,0.0014716134058755893,0.0017421755444781287,0.0018844095929958673,0.001929515323959943,0.001860651506476266,0.001657235738377127,0.0013350737431785664,0.0009493642507252007,0.0005597363525327475,0.00018810198330801203,-0.0001940804790748693,-0.0006358102091493875,-0.0011528784052482481,-0.0016862862698874556,-0.0020998218557711943,-0.002219897167815097,-0.0018995145922534695,-0.0010807730765779902,0.00016472150211539142,0.0016292599259996397,0.00300163934938953,0.003939547376951885,0.004172280775770273,0.0036062722858806054,0.0023884716871559217,0.0008827285859211312,-0.00045629965753791503,-0.0012741428835530057,-0.0014843028289003176,-0.0013139749508555387,-0.0011819078089246975,-0.0014615090015815384,-0.002264153726127936,-0.003376008903713842,-0.004385540103158901,-0.004912548805945331,-0.004786699262096049,-0.004070727548608441,-0.002941834001953303,-0.0015424317128433056,8.157399174390399e-05,0.0019172885180481984,0.003859642386325021,0.005635393766671637,0.006852270952404057,0.007162598534873165,0.0064518696025746385,0.004938404931350104,0.00311242888520294,0.0015287468738215209,0.0005511626580821877,0.0001815082746662755,6.90198551986643e-05,-0.0002957392442340691,-0.001295930685416846,-0.0029581802772233297,-0.004900399766838242,-0.0064919609623786635,-0.0071477641731733646,-0.006602740088941248,-0.005023123974515993,-0.002904515794192342,-0.0008275770757949588,0.0007868626274234588,0.0018013915065667018,0.002329146062618917,0.0025985889639727863,0.0028085392359583294,0.0030447512736060493,0.003277392514696966,0.0034139111275364145,0.0033648152172940345,0.00308887912030265,0.0026047508577075754,0.0019738250927672824,0.0012678862025192294,0.000535528146753303,-0.00022067963416400337,-0.0010448990715468845,-0.0019973904807833666,-0.0030946044684734067,-0.004243451993254905,-0.005211581950099619,-0.005671192125654441,-0.005319213289491741,-0.0040277286944434805,-0.0019473921411119956,0.0005011737770608826,0.0027590709015298427,0.0043293078335252845,0.004952385852614269,0.004675455441563998,0.003787988595777599,0.002665814066351555,0.0016111685780283512,0.000772062556797436,0.00016959947449321933,-0.00021040093241345148,-0.00034605506004469866,-0.00019120076077457993,0.00023825636506865267,0.000780589220025305,0.0011345354398316285,0.0009812398022327612,0.0001577797923926111,-0.001228765825001833,-0.002823744093012103,-0.004172672758688281,-0.0049076431385585845,-0.004873350123096532,-0.004142844401255303,-0.002941126046925065,-0.0015361775882034578,-0.0001543395057745039,0.00105552390993423,0.0020182513912372075,0.002712594876380941,0.0031528676175093225,0.0033757171506043292,0.0034279849225913603,0.0033536824172864105,0.0031835964197314604,0.0029321466804369738,0.002601790714648921,0.002190735672517955,0.0016995086113825832,0.001134934913920604,0.0005117039658551707,-0.00014978738394763992,-0.0008312733792695772,-0.0015272373429627035,-0.002247659487562786,-0.0030016757243713312,-0.0037640427250578814,-0.004445506910036323,-0.004895557711783028,-0.0049502019438576,-0.0045066150101878266,-0.0035838958044254322,-0.002333019266864058,-0.0009873134825804804,0.00022245602374744585,0.001147463081631975,0.0017596151570888122,0.002136284277639805,0.0024024615705873914,0.002659815613430148,0.0029368167504856815,0.003183639184201035,0.003313557219136998,0.003267955228415012,0.0030666846565180995,0.002809324497210549,0.002618165792084708,0.0025500693701226654,0.0025305780327518376,0.00235985798419022,0.001802904486319662,0.0007249369516004858,-0.0008018359329799595,-0.002487675217511918,-0.003930019133578308,-0.004786092252063521,-0.004920572604670981,-0.004442622990489607,-0.0036099000804875724,-0.0026620968291529916,-0.001696045649503914,-0.000668121407596768,0.00048060644379115277,0.0016733760660595169,0.0026429705880087456,0.003030087802170323,0.0025811890374415206,0.0013182304780114543,-0.00043019158052267666,-0.0021551979235751445,-0.003374823270609977,-0.003809579706234471,-0.003449391669640159,-0.002504788410246131,-0.0012911659018407422,-0.00011018823210491102,0.0008283659518873041,0.0014337732699401904,0.0017227305012539888,0.0017872025458452647,0.0017551927082280648,0.0017502529145786653,0.0018523664653828076,0.002068086425602644,0.002325861780770529,0.002509298035295986,0.002520214637586253,0.0023383682036717092,0.00203897523738861,0.0017522606222044209,0.001586244502858707,0.0015580403792235633,0.0015734775437390414,0.0014651831877613374,0.0010663938708603475,0.00028219869978716224,-0.000871723428100189,-0.0022700963838244497,-0.003706581036495005,-0.0049344235245803916,-0.005714550026372696,-0.005874692772577322,-0.005373519552571407,-0.004340869131326247,-0.0030542267683173435,-0.0018348484636863793,-0.0008987691545440373,-0.00024355959289429525,0.00034798250182383004,0.0011642919328858144,0.002348242631330909,0.003737632413325747,0.004880513837235402,0.005247015176723886,0.004533622868575749,0.0028828946358421042,0.0008754126649811269,-0.0007233796891922073,-0.0013359777244688572,-0.0008651974720420433,0.0002564495367386537,0.001292967067209442,0.0015870607893879911,0.0008903240549794095,-0.0005359594153218662,-0.0020915207459471855,-0.0031648142229102503,-0.0034246136763422834,-0.0029263442437288674,-0.0020098181804495117,-0.0010822122367804808,-0.0004183413031177132,-6.611205016941876e-05,0.0001297350224115938,0.00042368958651121827,0.0010361429326026061,0.002035630796466848,0.0032771361783960192,0.004429906213536955,0.005100699519332218,0.005008201007967373,0.004121268920673357,0.002678862266501006,0.0010733529010568369,-0.00033818018470990285,-0.0013881997962815356,-0.00213962396527265,-0.002806161907859902,-0.003607953191189514,-0.004637962512055803,-0.005793341109013649,-0.006790003205340836,-0.007250413042344079,-0.006838425703859684,-0.005403031412076477,-0.003080682825306103,-0.00030304688643389825,0.0023193381697599047,0.004212258566253055,0.005064565602091989,0.004952809399731856,0.004288552185027078,0.003603703475516553,0.0032815400777201275,0.0033785386424869373,0.003636512220399485,0.0036748773990501055,0.0032409432516711245,0.002355873182368052,0.0012629696193683854,0.00022602632607396822,-0.0006615742249088232,-0.0015039596966331362,-0.0024447106384723177,-0.0034572632089373122,-0.004267232989527685,-0.004488593122519642,-0.003882965418989732,-0.0025486898825758013,-0.0008963555689218191,0.0005737646589708899,0.0015373449493312323,0.0019814446883440933,0.002138641051659443,0.002283570673499479,0.002530030451553821,0.0027482938578348754,0.0026417252147919322,0.0019333471100750135,0.0005586436051588008,-0.0012408825310198301,-0.0029805651210599365,-0.004131563529287502,-0.004363624418386492,-0.003708220475018982,-0.0025493369856434403,-0.0014343902042624707,-0.0007982443008659496,-0.0007501006789539229,-0.0010426649681179853,-0.0012361812926675205,-0.0009543353312686093,-8.18267527577562e-05,0.0011979704188089936,0.0025227377776783043,0.0035388144717069226,0.004047599500040491,0.004047866900113328,0.003680983449222578,0.003133289862803734,0.002553970108590839,0.0020183568004980865,0.0015325087855990347,0.0010568349878068018,0.0005296410445646587,-0.00011397005928740156,-0.0009210355485094368,-0.001892118900007813,-0.002952813384959507,-0.003945877216623563,-0.004662517366316238,-0.004910460257406117,-0.0045902429777761895,-0.0037408092153161134,-0.0025302614760498226,-0.001196537715620978,3.380722398599704e-05,0.001014047217388478,0.0017072377442911093,0.0021691938564492247,0.0024952933389436526,0.0027576173833644673,0.0029642794781675305,0.0030625321612091473,0.0029834262509916758,0.0026999474793140336,0.002258808398748719,0.0017592439979562586,0.0012864483134294327,0.000842693945282607,0.0003298916170246226,-0.00038995609715633637,-0.0013827483607356723,-0.0025488089013669165,-0.003618280602417984,-0.004255356372179364,-0.004220881397438545,-0.0035009790230661024,-0.002325499158452389,-0.0010629449556974148,-4.7870883297835036e-05,0.0005669677763691295,0.0008560656930529973,0.0010435461553319012,0.001350875942588314,0.0018602246089109023,0.0024716712777841992,0.0029721053576495945,0.0031639394452771174,0.0029692349126015016,0.00244947571740915,0.0017418729053417174,0.0009657589136438912,0.0001641977408820232,-0.0006852938665480888,-0.0016058127718876999,-0.0025512938785702457,-0.0033823890758684972,-0.003908480572223455,-0.003974675964269658,-0.0035442647029403063,-0.0027282917751398133,-0.0017433077269576789,-0.0008183298404028454,-9.9634759097647e-05,0.00039757865334217403,0.0007678779880493052,0.0011407513222148522,0.001598677735166395,0.002137193110809455,0.002686172473237017,0.0031673295561326703,0.003537221838986896,0.0037800575243551503,0.003860062198109436,0.0036818254259103345,0.0031058795677525804,0.0020253401381080524,0.0004599109572100071,-0.0013958733796001746,-0.0032081060340095765,-0.004609900966720866,-0.005325883547386109,-0.00525694790214948,-0.004494371506182897,-0.0032690195584763244,-0.001866507434053641,-0.0005445843435276406,0.0005213957197091328,0.0012558631587108666,0.0016690098237340432,0.0018253816222879604,0.0018100257424190562,0.0017019617253481343,0.001557069097880925,0.001397691739511698,0.0012079856001405362,0.0009397540670082259,0.0005352249526937083,-3.49288991767484e-05,-0.000734150749393858,-0.0014470547267889837,-0.0020073054655276555,-0.002261083428776555,-0.0021375135263610127,-0.001687145602853591,-0.0010619123804055523,-0.0004423180237326061,4.832770907424737e-05,0.0003924414042536584,0.0006637650336050293,0.0009663223866001583,0.0013697728551867816,0.0018774721875986537,0.002434260608256344,0.0029553125547223395,0.0033523492524225327,0.003546230220725282,0.003470368226640307,0.003075132876508976,0.0023381088478453592,0.0012763122728784325,-4.761169568171116e-05,-0.0015299743691580916,-0.00303874354898666,-0.004426055250687984,-0.005534565585708244,-0.00620315379166079,-0.006288530276319073,-0.005713967045396128,-0.004529891752625515,-0.0029423235923663974,-0.0012650926894371473,0.00020522615462697505,0.0013295186631219185,0.002186362347990652,0.002993749977255734,0.003927464959850907,0.00495548675740829,0.005810723734679151,0.006132522553339924,0.005685397613273339,0.004505675664344293,0.0028792088047643956,0.0011745116838857896,-0.00034752281109348476,-0.0016220237430386955,-0.002723753303435299,-0.003725462687447341,-0.004581673137737859,-0.005120812924734524,-0.005148422507430429,-0.004587214476168104,-0.003554755045040379,-0.002320881236761965,-0.001167860685626618,-0.0002437446839090597,0.0004934532028542803,0.0012038782421109231,0.002017288240020652,0.002911540811695164,0.003701703671110244,0.004146365599330643,0.004099076976428441,0.0036043325110990407,0.002873640484365382,0.002152787953336729,0.0015612592016366435,0.0010079666341772688,0.00024754065643702527,-0.0009426138474849242,-0.002564504545533101,-0.004306246056420002,-0.005627138403918553,-0.005993003816091885,-0.005142097749093154,-0.003237674533665487,-0.0008214848049421172,0.001411121054528394,0.002899291951658508,0.0034224258411651807,0.003129194713771272,0.0023982827891615697,0.0016297608817046644,0.0010872343950821236,0.0008553217534852282,0.0008918849019461863,0.001102867180240031,0.0013797597744571427,0.0015941178919601853,0.001589292333154533,0.0012091492457498494,0.00036284547961246486,-0.0009148878892293527,-0.002450106315587135,-0.003970532317935989,-0.005173812016935582,-0.005790343664998192,-0.0056290841448515426,-0.004616035552249921,-0.0028340279683930136,-0.0005502179046056999,0.0018030982852459748,0.003723253215783351,0.004798258049785008,0.004874140428650168,0.004140403550319642,0.0030668755081691224,0.0021964621914379355,0.0018858925526045094,0.0021345869219258065,0.0026057401880120318,0.0028316424558415126,0.002477787057610868,0.0015043340871464406,0.00013974696965413438,-0.0012870991622619579,-0.002523519578017041,-0.0034641785379489623,-0.004100229800502829,-0.004422526746404671,-0.004373879477837241,-0.0038876524507636006,-0.002971479792561729,-0.0017589882487741232,-0.0004814821647954097,0.0006241430473218888,0.0014079659431289237,0.0018407834083964127,0.0019775106103347754,0.0018914866235141287,0.0016381681320211347,0.0012750170622260922,0.0009080245993893553,0.0007005509446779089,0.0008013455842529602,0.0012180227024961889,0.0017285399705643362,0.0019261341900438927,0.0014142173418577862,5.561845133904048e-05,-0.0018789793903921052,-0.003771996823117716,-0.004912531663759376,-0.00480972569028122,-0.003403799653874049,-0.001079848922380527,0.0015006959636946642,0.003652489502740877,0.004885541208128842,0.005015665532904795,0.004156270356691979,0.0026316774786092627,0.0008653170946910802,-0.0007214108282672368,-0.0017899365005526555,-0.0021496967435766737,-0.001807248877603928,-0.0009815897492294087,-5.781347899372669e-05,0.0005331235316096998,0.00047971304173657133,-0.00026921537121009104,-0.0014639922749100816,-0.0026484074781042647,-0.0033532020724170554,-0.0032961560870062388,-0.002489453203434644,-0.0012063541106053094,0.0001619284225768177,0.0012728375748606846,0.0019388791677024803,0.002142773140538441,0.0019897982742686023,0.0016490126214320374,0.0013122811010692795,0.0011604953333550943,0.0013115407067892746,0.001750946101695783,0.0022885534947634655,0.002596714287073214,0.0023435187584690785,0.0013643459739608875,-0.0002258353402477246,-0.0020507146160844048,-0.003616518692721067,-0.004506119335823695,-0.004528327364209267,-0.0037614495027331893,-0.002488038897569751,-0.0010655121949875608,0.00020384019686759119,0.0011516418912078075,0.0017510819536880784,0.002068595969129658,0.0021964131638973084,0.002202385244167441,0.0021147728282814356,0.0019360694594168508,0.0016657196529556932,0.001312876299391622,0.000892916701116594,0.0004153927488715944,-0.0001225855524545625,-0.0007283974996182256,-0.0013944844612824416,-0.0020808154357287866,-0.00271258111947817,-0.0031958405126979554,-0.0034414210204287716,-0.003383804577323897,-0.002989890179230484,-0.0022639187883629476,-0.0012567452644332653,-7.614400702916479e-05,0.0011186055716565788,0.002152756228470417,0.002896277455179201,0.0033170805613979316,0.003491013047076792,0.0035545558700493867,0.0036217733978331796,0.0037118366645358743,0.003730494741870093,0.0035191172918957628,0.0029454866525094278,0.0019844937172689525,0.0007409231297724801,-0.0005990085947433859,-0.0018549643096665964,-0.0029201282617949457,-0.003765991854802113,-0.004389659934287214,-0.004753906634894041,-0.004775125306480169,-0.004375300811772151,-0.003562207457906701,-0.0024766085628716516,-0.00136405997574072,-0.0004778171313311604,3.511968218512546e-05,0.00019992105111547138,0.000193847079600771,0.0002513328944423615,0.0005466089069700377,0.0011152389220100188,0.001848501044624064,0.0025496274852870367,0.0030098698519327783,0.003066103767530194,0.0026320736329193076,0.0017207362219479978,0.00046993755847782553,-0.0008459586919161142,-0.0018566148633044018,-0.0022088537841998012,-0.0017198512736792586,-0.0004884012344289309,0.0011170802399777554,0.002609985661566758,0.003601325095221501,0.003955688603950543,0.0037982990715420112,0.003380805372100644,0.002901168394987876,0.0023915643856232092,0.0017324669543175865,0.0007666765584818762,-0.0005689860024159362,-0.002174984510231445,-0.0038155826950457433,-0.005213866696277893,-0.006155337811557936,-0.006547662445160411,-0.006419637853076289,-0.005877167896313574,-0.005047392119456474,-0.004035362641224792,-0.0029047983283443206,-0.0016845316756469567,-0.00039461224163729125,0.0009220988280965734,0.002183152842462899,0.00328133795777441,0.004129556102548667,0.004708867856064581,0.005080961550747258,0.005344190720845995,0.005553214102249428,0.005656542395028819,0.005503672245202445,0.0049295289732227765,0.0038676631134774682,0.002417433493570943,0.0008167303740068067,-0.0006661212967955321,-0.0018543070590830604,-0.002724770520823225,-0.0033795901404703663,-0.003953510204667808,-0.004518592862823542,-0.005039052189249755,-0.005391954602403106,-0.005430701035365188,-0.005051126781817877,-0.004229709332023408,-0.0030271630952205283,-0.0015696746416738287,-2.307166803940553e-05,0.001433747127769371,0.002637737026113266,0.003473264940049731,0.00389933154617361,0.003960714242054341,0.00377321994132052,0.003481139328348662,0.0031966998276545325,0.002943524852805853,0.002632732429627268,0.0020940217028592107,0.001161862905669457,-0.00021450581683978573,-0.0018923947159508762,-0.0035407628111242084,-0.004744854770731353,-0.005170062171591995,-0.004703688631346313,-0.0034991854297666885,-0.0019014104989851393,-0.0002984589589099275,0.0010189955041401118,0.0019257715677786045,0.002443225422898368,0.0026682404915448488,0.002703788455051687,0.002626698285870067,0.00249187082660093,0.002345259529589171,0.0022182959453737033,0.0021003614250750067,0.0019128116230744028,0.0015164398173860272,0.0007666165461916669,-0.0004024170292622263,-0.0019083921592188454,-0.0035107010040380457,-0.004872766716388532,-0.005670055903969496,-0.005693123396317209,-0.004904670031680252,-0.0034414433886407044,-0.0015778387068068045,0.0003306401905624768,0.0019208674523295158,0.002913911601031728,0.0032061216879142027,0.0029134921762128596,0.0023266686503045156,0.0017813693443923856,0.0015081817342732185,0.0015446096712634864,0.0017510784850344853,0.0019051523949364666,0.0018088877651048101,0.0013569377075298688,0.0005548562846232656,-0.0004924107581072723,-0.0016020134756320977,-0.002543135630068815,-0.0030850247258143925,-0.003063741011394788,-0.002447392278328053,-0.0013667099936639665,-8.648605515577972e-05,0.0010796159272606666,0.0018794328659084338,0.0022120539783371516,0.0021577692547432004,0.0019323139021901697,0.0017797990432219433,0.001845856468075337,0.002087216953188498,0.002267742098118586,0.0020590689492390843,0.0012125106678213247,-0.00027982556806697544,-0.002129412588253992,-0.0038503347303868673,-0.004972991125113921,-0.0052550899316737894,-0.004767728125572641,-0.0038143413531038298,-0.0027484322524741487,-0.001810253186989579,-0.0010674735095865064,-0.0004598080880375871,0.00011475592106745388,0.0007344907863346952,0.0014283465867230755,0.002171322835149154,0.0028796572443192535,0.0034100103033432127,0.0035873312007220176,0.0032765748427439857,0.0024766217155944466,0.0013792680066779337,0.00033531899680711496,-0.00028443238866782735,-0.00027555787325047893,0.0002724798671597181,0.0009998744245607477,0.0014617311226306092,0.0013792108979770877,0.0008023753336683058,7.357381637729124e-05,-0.00039202399098445815,-0.0003671191597793531,5.584947445372193e-05,0.0005411659641887348,0.0007326547896559002,0.00047037644476997454,-0.00013355911468336317,-0.000792290602167824,-0.0012368279202340236,-0.0013793205260335284,-0.001356347074887642,-0.0014407589733820923,-0.0018810748707303825,-0.0027548340243354437,-0.0039044585656143774,-0.004980196435601437,-0.005568153573805626,-0.005349536594658896,-0.004227848247535606,-0.0023738699469072816,-0.0001694786743394342,0.001927429720376026,0.0035390971318757665,0.004478314153451475,0.0047731797559428975,0.004612534443454741,0.004251862387267129,0.003921547554892327,0.0037600463113466025,0.0037778337414954275,0.0038559460773221897,0.003786107641372009,0.0033511322492744532,0.002421723925617151,0.0010260638132515384,-0.0006464776109137023,-0.0023123762586678967,-0.003695615582335941,-0.004610446747526673,-0.004990391297950736,-0.004866339817784106,-0.004323573359266324,-0.0034678488165122354,-0.002411981694466609,-0.0012753209149433055,-0.00018145323205946343,0.000755481796201515,0.0014547421614391392,0.001892031454624413,0.0021061647565010725,0.0021791501134876346,0.0021940767531169517,0.0021912330194623257,0.00214788816093143,0.001994441742692764,0.0016564155177045635,0.0010953635836333823,0.0003253399456624082,-0.000597826898076159,-0.0015967671098096863,-0.0025816164267556388,-0.0034440137931565354,-0.004053531546076636,-0.004279129367311981,-0.004039339207665303,-0.003355866903041213,-0.0023710621403026147,-0.0013049951826000748,-0.0003647612400518098,0.0003473008453504349,0.0008724062077472926,0.001354553151060069,0.0019420028415151652,0.002691424233205367,0.003534773877405849,0.004325655815196245,0.004925597842392195,0.005264997024203063,0.00533880039373584,0.005151719718603575,0.004666971462437801,0.0038059632621786415,0.002502309365548962,0.0007699862089546564,-0.001262960351502711,-0.0033745563372213085,-0.005304536928856128,-0.006811866839165719,-0.0077132692370618025,-0.007903125115974923,-0.007363711460957189,-0.006168067488091661,-0.004469788857815961,-0.0024766370982452395,-0.0004148971913896784,0.0015025783503436504,0.0030955227215044836,0.0042236166329314845,0.004792361301255151,0.0047695701016791485,0.00421479196544064,0.003305392298170516,0.0023279404418985314,0.0016078028917014243,0.0013805002932404595,0.001654235438087312,0.0021452116327629247,0.002354257230973853,0.0017855417932441135,0.00021704117018073307,-0.002122111489785205,-0.004583731963195039,-0.006353273419965293,-0.006810912159592675,-0.005819610159316603,-0.0037862303476830475,-0.0014572577559416034,0.0004442179212259447,0.0015422388168343485,0.0019180461025692357,0.001962665884269916,0.0020836198161561913,0.0024555963449268766,0.0029579449096019594,0.003309039333394549,0.0032831923243657087,0.002859321127851493,0.002214199034562837,0.0015831267601659213,0.0010928545850512309,0.0006800228924725418,0.0001473525118630269,-0.0006786468588834954,-0.0017886031539059316,-0.0029343450892364855,-0.003723061019959337,-0.0038200654375737182,-0.0031486918019110466,-0.0019666816112555103,-0.0007609888416675142,-6.3655595840721516e-06,8.16992311264284e-05,-0.00034336829884056496,-0.0008550878368957421,-0.0010012202921988213,-0.0005551820611623406,0.0003762905965894799,0.0014420703604281953,0.002259860507905315,0.0026124568384460253,0.0025145714274712166,0.002134065863857896,0.0016440009792724395,0.0011129368375610094,0.0005003440447425333,-0.0002535319433690881,-0.00111683861093802,-0.0019186337847086083,-0.002404291699649317,-0.002363456530893359,-0.0017512993425551555,-0.000727878911803373,0.0004072456128283694,0.0013448753017358639,0.0018877393552500462,0.002005031164694346,0.0018056829638068424,0.001459735593015751,0.0011154609187326598,0.0008486269759519436,0.0006536031205132516,0.00046382275841766934,0.00018321036115719188,-0.00028166543218611525,-0.000988222527293837,-0.0019208983267976398,-0.0029587742215779478,-0.003871184838123414,-0.004367785019661341,-0.004206592272056044,-0.0033200241606553987,-0.0018852564366096593,-0.0002773571423547857,0.001091235081326958,0.001962401302295414,0.0023409752822641156,0.002452892969601223,0.0025815065819361598,0.0028874482877675792,0.003321770865678731,0.0036756598170114272,0.003722473248935554,0.0033570402708152187,0.002650115822951195,0.0017963332252271579,0.0009988057036667667,0.0003635549088164524,-0.00013948762995313137,-0.0006370217267436481,-0.0012651962035607482,-0.002083760632973999,-0.0030315690887811816,-0.003938649375730165,-0.004584487827121849,-0.0047760526946600355,-0.0044158729764348665,-0.003538263813034205,-0.002305032321000382,-0.0009643922603233444,0.00021523939237522998,0.0010205652689087396,0.0013583604559254051,0.0012881272290415006,0.0010041699035114424,0.0007638376152201214,0.0007833334701136752,0.0011447296484065736,0.001760668580223073,0.0024175384703553587,0.002874520624716345,0.0029636521909546616,0.0026402633803166266,0.0019710928361849397,0.0010878467070439463,0.00014530676371927943,-0.0006986548278499365,-0.0012943402793972423,-0.0015263920537134435,-0.0013595151062514399,-0.0008772353915186787,-0.0002739128352210506,0.00021706487783732897,0.00042967589312024217,0.0003438730592228428,8.494264595650602e-05,-0.00015718038609307617,-0.00023711039677328026,-0.0001252243665207807,9.55643932825951e-05,0.00029426960639630643,0.00036923809662323245,0.0002889967393184539,7.67443086915065e-05,-0.00024066177340735084,-0.0006728203741732481,-0.0012561842755487822,-0.0019940839983361,-0.0027895670834639486,-0.003430901556112245,-0.0036613735956301232,-0.003305704435409642,-0.002376086424368673,-0.0010825169231910138,0.00026857704652771114,0.001425925437991168,0.0022962845865390213,0.002933040942686288,0.0034269236790621877,0.003786637369866233,0.0039055272133869954,0.0036468469412742166,0.002987480844216495,0.0021050387594196175,0.001321590683755734,0.000917258680150405,0.0009307504468458181,0.0010921325930553184,0.0009552904529221733,0.00016276619742114275,-0.0013193114397740723,-0.0031439811671956186,-0.004739322595253878,-0.005583116410098867,-0.005439410700660897,-0.004435590932147497,-0.0029586749656697335,-0.001448581217858219,-0.00020886619507216007,0.0006739902664016871,0.0012861681141850601,0.0017704952058396396,0.0022185675932290304,0.0026264212010926853,0.002919673075784483,0.0030143516072025037,0.002869901603932641,0.0025075909736646685,0.001993049354169255,0.0013996753496542602,0.0007744040873085403,0.0001223746608469429,-0.0005818527297202956,-0.001359384023991623,-0.002183314643357134,-0.002951120295064459,-0.0034967218658769395,-0.0036475555199345115,-0.0033036757812707086,-0.0024964737684522393,-0.001390669866055203,-0.00022414584910668568,0.0007838170065274331,0.001508311698635655,0.001942909233584684,0.0021669426559998714,0.0022797142743469817,0.0023378190050964325,0.0023257839993246995,0.002172633481882262,0.001805784293869699,0.0012150857144461874,0.0004904614213276513,-0.00019607820191361043,-0.0006666402421441625,-0.0008377832041226086,-0.0007855705483532046,-0.0007239021704431598,-0.0008907591094432883,-0.0013983635621615175,-0.0021383654870156406,-0.0028101635816162626,-0.003066582808602771,-0.002694848913276795,-0.00172703684843424,-0.00041984656719511616,0.0008753612217531576,0.0018707597584001843,0.0024424580103299307,0.0026331975519465825,0.002578299655677919,0.0024127237430733904,0.0022126780695482197,0.0019906710518311148,0.001726218255442317,0.0013992316783216993,0.0010034217314036245,0.0005387897796220571,-2.007714769749515e-06,-0.0006369289483764557,-0.0013803712914453137,-0.0022177026677128214,-0.003084350362657381,-0.003865222115950293,-0.0044185577749008545,-0.004612255827954728,-0.004353599940052267,-0.003602121844783362,-0.002371910781430959,-0.0007375480870120698,0.0011513505810220805,0.003060203017872696,0.004687777747395736,0.0057280010361554085,0.005965652265089727,0.005368450461447808,0.0041247554290197936,0.0025914446281599104,0.001160206605715219,0.00010057768515469028,-0.0005396440209955556,-0.000921770606605769,-0.001297550189839545,-0.0018490962146595917,-0.002573449439569232,-0.003272200113653957,-0.0036502373840552917,-0.0034706366901247915,-0.0026839719734934094,-0.0014649095932145581,-0.00013921256228145425,0.0009576416487206272,0.0016157719351567647,0.0018145972976555949,0.0016925752855931056,0.0014513357730170106,0.0012522903966602863,0.0011581039977190382,0.0011369657169267191,0.0011077799543668977,0.0009853224990789668,0.00069774538600227,0.0001825682066127029,-0.0006070811300465363,-0.0016608840783849388,-0.002847359618480188,-0.0038803989891295736,-0.004373189111544017,-0.003989305675670302,-0.0026279984867013063,-0.0005353520857760122,0.00174328540655957,0.0035676932470501094,0.0044672278551754355,0.004328392738326125,0.003409126724866684,0.0021793615695733536,0.001082178976294076,0.00034899186615477127,-3.744245495877481e-05,-0.00023315204229142615,-0.00036767255601078075,-0.00044248316061233775,-0.00035966163235636584,-5.091546563501726e-05,0.0003965192740211557,0.0007207526772805857,0.0006036278963370011,-0.00013773634856353433,-0.0014043943147628026,-0.002811600540854412,-0.0038443064637613397,-0.004096286445338012,-0.0034659087284927502,-0.002201908824253771,-0.0007731916498582263,0.00036805987964171126,0.0010034888256701818,0.0012304555032777715,0.0013666355563384269,0.001732976593401492,0.002440454168383739,0.003306522105938323,0.0039523565356041545,0.004021731579960249,0.0033852504405335873,0.0022039883017755646,0.0008210702748219618,-0.00043702006246454454,-0.001415733102207737,-0.0021531161063386766,-0.0027739193005696825,-0.003347237253096165,-0.0038092764624271047,-0.003995871178514077,-0.003751407083589832,-0.003035597137850268,-0.0019607238975799805,-0.0007431372992918444,0.0003943790515285857,0.0013099243028562389,0.0019741016106521,0.0024363375945111324,0.002752182067871012,0.002918487153196806,0.002860926249933829,0.0024907355979966422,0.0018028431383292447,0.0009490451098518349,0.00021821005558383564,-9.493318706946171e-05,0.0001278191592418262,0.0007095607572953904,0.00122076440665389,0.0011874736616420858,0.00035791813286419766,-0.0011311465224124043,-0.002794758332468345,-0.004028419539259355,-0.004394491305064682,-0.0038089819222064847,-0.0025401341510864744,-0.0010422359437797786,0.0002672841243935724,0.0011657591549211308,0.0016508644011882204,0.0018493401709762697,0.0018859973755922092,0.0017992234397757286,0.0015471580354271598,0.0010856950416051345,0.00045460374298671527,-0.000193731961360121,-0.0006492760212010982,-0.0007542955688953146,-0.0005013095621017305,-5.367782462623993e-05,0.0003330080310761066,0.00044844121462916237,0.00024224944119987236,-0.00015561232749141464,-0.0005204148558441943,-0.0006668124904015869,-0.0005453536737429048,-0.0002463346431100682,7.801810285259874e-05,0.0003111569138162272,0.0004261190354576882,0.00047316580409166413,0.0005251110575754589,0.0006235624103183264,0.0007565552193103887,0.0008713909670300326,0.0009060290304016963,0.0008170650488100574,0.0005903361711548097,0.0002343234307663123,-0.00023198642836575647,-0.0007832746960132954,-0.0013794968233419055,-0.001953334794047487,-0.002408715860036421,-0.0026400697930139393,-0.002567394798577322,-0.0021692251812608686,-0.0014943174685495481,-0.0006449566553820139,0.00025809036697963764,0.0011088974413847098,0.0018317175522518827,0.0023764368744036367,0.0027064868459007393,0.0027953395324456136,0.002638249175685387,0.002270216802601351,0.0017714648642365072,0.001246537499861093,0.0007806760029803127,0.00039605319565881114,3.7230711339981785e-05,-0.000397353760026983,-0.0009880348370677877,-0.0017261373634781339,-0.002487035938815076,-0.003065340753781548,-0.0032583621133707467,-0.0029552767802716122,-0.0021858019977487324,-0.001106467864782756,6.183285207556641e-05,0.001108653821383276,0.0018874965614840461,0.0023346160980305545,0.0024596997558917677,0.0023229688356189784,0.0020100541827435857,0.0016091085857760621,0.0011903033407339068,0.0007881676338995225,0.00039080847857283943,-5.663892582434028e-05,-0.0006280858202700526,-0.0013734253065030442,-0.0022693744393125492,-0.003186940934053299,-0.003899225071136354,-0.00414167513395655,-0.0037135315052977264,-0.002582095406804582,-0.0009368152361791545,0.0008462801089604055,0.0023281471772380402,0.00317023892421543,0.0032663541712467286,0.00278294655268745,0.0020869794758190683,0.0015885486040063657,0.0015635928626574795,0.0020335358960955527,0.0027561721373330923,0.00333379962387287,0.003391843100842669,0.0027475616396561574,0.0014899910119968284,-6.806492670383932e-05,-0.0015420099468008838,-0.0026518184869845944,-0.0033286718000532047,-0.003697190253008865,-0.003951136563916046,-0.004202443727330418,-0.0043966404912345,-0.004344312561678241,-0.003845522010868554,-0.0028276550291264917,-0.0014118254055366184,0.00012985031675163432,0.0014965200446033968,0.002486682333223487,0.003062042937955974,0.0033210306737081656,0.003409498642235598,0.0034275139257267063,0.0033851550393458494,0.0032245226358085318,0.0028833984961356795,0.002353462785579503,0.0016946264780723491,0.0009985257402636478,0.000327018536363291,-0.0003332205412129874,-0.0010667106887509424,-0.0019677383662514585,-0.003046320328686665,-0.004153801023263998,-0.0049850415553695515,-0.005183150072115486,-0.00451307849327584,-0.0030151286388605185,-0.001040201196441779,0.0008755938185830998,0.0022442794266610685,0.002841206133495807,0.0027793295771865296,0.002404159511150442,0.0020804434317797066,0.0020009292768817795,0.0021204696805482187,0.0022325471771327786,0.002122374900560756,0.0016992166361356283,0.0010375410541084238,0.00031621466475777724,-0.00029787311338281067,-0.0007475658603856813,-0.0011041882908809128,-0.0014957943131747183,-0.001991228637138134,-0.002517595432309056,-0.0028708633209213862,-0.002820806249398432,-0.0022493352474283247,-0.001236760276247714,-4.039184691109388e-05,0.0010248817490696406,0.0017350768375884664,0.0020486737568627977,0.002090220527414552,0.0020401968894423516,0.0020015465479290596,0.001926730549111634,0.001651681357743948,0.0010169235698403185,1.0344964250638342e-06,-0.0012189010824839013,-0.00232362426398805,-0.002998274228304111,-0.0030851568209272094,-0.002650922936598969,-0.0019276479051570014,-0.001168283611125285,-0.0005129672031799109,4.844008379873517e-05,0.0006036349006393682,0.0011989042824201478,0.0017653036478610302,0.0021433969734013687,0.00218892217746881,0.0018869177541308547,0.0013953327233286778,0.0009812031425047362,0.0008772359123474006,0.0011377767513111778,0.0015810287474032339,0.0018606672736945365,0.0016356783509048414,0.0007465362861779007,-0.0006996254315644467,-0.002376037766923767,-0.003877764326674621,-0.004873314538657657,-0.005194731055861145,-0.004846066117699441,-0.0039566460457148185,-0.0027184327229623226,-0.0013314937381416615,3.729906641123e-05,0.00128261652468265,0.0023707138961359415,0.0033225974348557305,0.004170147943031818,0.004902255018897201,0.005431477189729576,0.00560807800625874,0.005284128998877235,0.004397725695979762,0.0030279209647819418,0.0013816370306113748,-0.00028695554444889285,-0.001779204305895871,-0.003012935346836287,-0.004003364345232919,-0.004781481098339958,-0.005313221982713412,-0.005483426146570397,-0.005162659340219338,-0.004315309419070697,-0.0030749828504380112,-0.001728644492812261,-0.000603744121269373,8.808796880953329e-05,0.00036426213033968215,0.000468677569289452,0.000739826753846342,0.0014130001339785908,0.002469128378036314,0.0036252049671418127,0.004477855139587831,0.004713789782864856,0.004258482696364022,0.003279868130353297,0.002062841274570476,0.000849856453173122,-0.0002496289528086523,-0.0012386498857778305,-0.0021381304921428545,-0.0028987893750874374,-0.0033849870851149697,-0.003439483906925807,-0.002981962800813117,-0.0020747178280667166,-0.0009141527091468263,0.000245284477913277,0.0011901635137595682,0.0018178784451388643,0.0021460564737110525,0.0022647142078378274,0.002263652247092717,0.002178087137129588,0.0019818053285435965,0.0016266344413752248,0.0010983050941529779,0.0004499079433819693,-0.00021009431837655095,-0.0007692181271534637,-0.001171567132612601,-0.0014519847450080244,-0.0017220704479312895,-0.002111003939763492,-0.002687003021124589,-0.0033967270673028417,-0.004055354114235204,-0.004400013467109359,-0.004190270387467219,-0.003313831499242689,-0.0018476259186613344,-4.1373422156844514e-05,0.0017728094275656155,0.003302732642025865,0.004389311811765226,0.0050240475348110455,0.0052881913295422175,0.005259172113256258,0.004949402213323452,0.004317327941101101,0.0033366165886280002,0.0020657702202701096,0.0006605911359991696,-0.0006833011112828862,-0.0018159163217639491,-0.002683333458781627,-0.0033094672200001734,-0.003730049126706985,-0.003934990650845125,-0.0038648872264397277,-0.003462612541648543,-0.002738440579554944,-0.0017985405137710755,-0.0008152553553466415,4.110636563290108e-05,0.0006657052924264263,0.001042543845413184,0.0012220462388709294,0.0012755557723724425,0.001258351097686842,0.001199263135779854,0.0011116747001144354,0.0010057184076355421,0.0008855777252844247,0.0007348925060977402,0.0005110027417504064,0.0001677902350988252,-0.0002965847931977587,-0.000799861736564477,-0.0011840090425691474,-0.0012837531158312015,-0.0010203789002135558,-0.0004583939593726398,0.0002183277417339589,0.0007998626149331143,0.001154293795072313,0.0012795533899508922,0.0012788029248729483,0.0012831844249925899,0.001369813669322283,0.0015158769753322297,0.0016066791061846695,0.0014921425147159488,0.0010678504646314112,0.0003442794811607118,-0.0005334207384357949,-0.001335571011488667,-0.001853528321371199,-0.0020088006730395996,-0.0018994020863771814,-0.0017442548756312652,-0.0017477735035438002,-0.0019646309582373287,-0.002254244307943272,-0.002361375265664361,-0.0020767554618361583,-0.0013771622642296053,-0.0004552719100456345,0.0003822762793850342,0.000889003727288134,0.0010204642471380513,0.0009570201576763267,0.0009908127951402117,0.0013426300002157136,0.0020194618144088444,0.0028008225340933127,0.0033619568715539004,0.0034552093145097437,0.00303601040945697,0.0022608834588020883,0.001370898653382108,0.0005445276713916799,-0.00018536152012154765,-0.000904739057590399,-0.001708677951569588,-0.0025860323667148207,-0.0033768667879652266,-0.0038338345270223255,-0.003752160586165956,-0.0030884008069266477,-0.0019953290662716346,-0.000754519935209944,0.0003486654293038858,0.0011340186313530311,0.0015663145963020547,0.001722391013557956,0.0017227101809179685,0.0016722189291513909,0.0016327391802767183,0.001620364334588471,0.0016097800579693354,0.0015375260781450343,0.0013127648791093158,0.0008483821333683516,0.00011183394496818658,-0.0008253854050950496,-0.0017724478974263376,-0.00246319606027242,-0.0026573675315998938,-0.002260940277818921,-0.0014025911904031023,-0.00041048788117682624,0.0003203753374326454,0.0005154968945012383,0.00016539934401899102,-0.0004573836149472485,-0.0009273297255676439,-0.0008782893913901278,-0.00018929172922385455,0.0009524967955679821,0.002141930047800851,0.0029475685501074754,0.003101268046106397,0.0025898432161611017,0.0016149767086200075,0.00046372550047444,-0.000625088916970866,-0.0015261434226512623,-0.0022061025808463508,-0.0026541299053273416,-0.0028277424392288597,-0.002656765041003033,-0.002099931140483775,-0.0012078401037965729,-0.00014077784510998744,0.0008780699893440036,0.001649206903414173,0.002073199151401108,0.002175295168182395,0.0020694809304666103,0.0018873004152983922,0.0017125128329384134,0.0015536213193526706,0.0013607393277246525,0.0010679256030468123,0.0006320802419300551,4.899597286030504e-05,-0.0006526874957764074,-0.001423623738821779,-0.002196574422310324,-0.002879093759800348,-0.003350806561941088,-0.0034823553786896113,-0.0031786822282295025,-0.002428443118493346,-0.001330328690589552,-7.545389444636784e-05,0.0011114233902559082,0.0020450713926664157,0.002631661551287195,0.002876219139826727,0.002848881629658672,0.0026360700730360806,0.002306688564187815,0.0019065204155274845,0.0014694757817518228,0.0010218491329427102,0.0005663477121100982,5.91023443199565e-05,-0.0005874012035364297,-0.001451165806002693,-0.002511306637646542,-0.003579090564091049,-0.004316231118843149,-0.004365160258867013,-0.003539595293454933,-0.001964752565510516,-6.652772189580467e-05,0.001605134160179363,0.002625644149020976,0.0028744468711330447,0.002545961984871891,0.002004088535450425,0.0015815863433462987,0.00143913361275402,0.001540971195549934,0.001727482214752001,0.0018211286672420173,0.001705979266508959,0.0013537212113165435,0.0008028595374092156,0.00011691043064730814,-0.0006497879097673593,-0.0014594579255477725,-0.002269933689326197,-0.003003526584076927,-0.0035346640798555092,-0.0037171657053603722,-0.003446249071356511,-0.0027230576224869145,-0.0016812476556796285,-0.0005537656444892734,0.0004089114457598115,0.0010321630725433554,0.0012813306243244136,0.001271124174874543,0.001217741291918982,0.0013508680562957323,0.001815792637000394,0.002601231244462812,0.0035230862429086263,0.004275724143353917,0.004535166181206457,0.004075346363761287,0.0028516543073393162,0.001019405598547417,-0.001116801664731296,-0.0031962341945421615,-0.004894353306699813,-0.0059796044385549505,-0.0063285453420388205,-0.005919593543349869,-0.0048287716424395884,-0.003230630374528467,-0.0013857417994656805,0.0004042282626145532,0.0018695604101739293,0.002843359349148283,0.0032957601522557002,0.0033187083271164295,0.003076770231741217,0.0027506023035986137,0.002488996812946712,0.002369585812966769,0.002367113167901008,0.0023431323463736454,0.0020821530337452815,0.001384762569611977,0.0001884801784438158,-0.0013495062120572354,-0.0028712394637710487,-0.003949842544485784,-0.004273574754106992,-0.0037819369353694534,-0.0026794630977035,-0.0013271499786474288,-8.11591902236254e-05,0.0008325079081673364,0.001355290583715532,0.0015525829973420332,0.0015375254740335497,0.0014114678941828608,0.001241539165917647,0.0010638518155665167,0.0008893677799723257,0.0007014182631840586,0.00045350392597684946,8.399205098905897e-05,-0.00044680946688026833,-0.0011129088169305147,-0.001801068924788566,-0.0023327245007135886,-0.0025259570111409377,-0.00226939954939737,-0.0015720395880097088,-0.0005657721369833051,0.0005384146347757642,0.0015192199467357638,0.00221029247348768,0.002540098888456751,0.0025374939744951938,0.0023057161985580985,0.0019753476290238796,0.0016520658079824183,0.00137761950227073,0.0011194359316309636,0.0007937996292363236,0.0003127911092997677,-0.00036638737049267953,-0.0012124382669030911,-0.0021238434266631708,-0.0029616476228539242,-0.0035933101999127068,-0.00392543213248787,-0.003910712401112632,-0.003531016949833296,-0.0027759509807262625,-0.001643140831694986,-0.00017305728750365351,0.0014994525697274092,0.003121976790225437,0.004371199880665099,0.004968121551028989,0.004805155470545439,0.0040062555926791334,0.0028763192866346314,0.0017648660525412454,0.0009193264951240761,0.00040130212810747924,9.50762402286765e-05,-0.00021125449406988946,-0.0007166121585965633,-0.0015128180293401113,-0.0025348759860736696,-0.003570580960342425,-0.004329336705546811,-0.004550329633023315,-0.004109604918826526,-0.0030778537247879404,-0.0016976889884259107,-0.00028718173630123495,0.0008848191752049758,0.0016902164807961267,0.002156681776265628,0.0024055569011398868,0.002555104831109438,0.002648818193364839,0.0026485272105924683,0.0024875087682919147,0.002139362817910536,0.0016505506754586068,0.0011130226176171104,0.000598335594330107,0.00010466323165138317,-0.0004387037794190096,-0.001105100918266219,-0.0018846590468034547,-0.00264048701983265,-0.003145433785892956,-0.003186515799863209,-0.0026785289873352824,-0.0017198244223200507,-0.0005574094169485532,0.0005181318742763923,0.0012896386372780568,0.0016829997653139718,0.0017620051001046308,0.0016637126864275122,0.0015179523099293618,0.001394384864156671,0.0012956991385170266,0.0011846816736870882,0.0010167279193771007,0.0007564350207861044,0.0003781829986750463,-0.00013305599134729568,-0.0007670983859802634,-0.0014655098518369112,-0.002112695198560821,-0.0025606580322654277,-0.0026830234628770515,-0.002428821928880265,-0.0018431080102462036,-0.001043658253966143,-0.00017192896737368188,0.0006512225905007129,0.0013454491561702576,0.0018675809952148825,0.002199063064991113,0.002337048951353209,0.0022929836577414466,0.0020942527986801854,0.0017815631052327237,0.00139752011095323,0.0009686640369551355,0.0004907961060467779,-6.903872451858971e-05,-0.0007458978838305395,-0.0015324682903649729,-0.002340589610960453,-0.002998616076546983,-0.0033004816596437364,-0.0030924802336044386,-0.0023556463600699867,-0.0012357202181275603,2.8126107309787963e-06,0.0010797897512154367,0.001807139992909304,0.002146165105150734,0.002189097657539009,0.002083076721135093,0.0019444875050818903,0.0018108116714149348,0.0016487336358011187,0.0014010571725753128,0.0010342482105781259,0.0005549786490130573,-8.757843134662969e-06,-0.0006385514316299171,-0.001336187485950858,-0.0020980735075730545,-0.002868563446664697,-0.003510808737173434,-0.00383027869531514,-0.0036533614288250327,-0.0029220721377603972,-0.0017465855990432615,-0.0003771973584978927,0.0008948446130832235,0.0018543970947653382,0.0024337715258131035,0.002704374941226305,0.0028039975122599223,0.0028511791394255914,0.0028975539478458276,0.0029348165629467238,0.002931882467755873,0.0028606260097630374,0.002686903053343059,0.0023416137815692618,0.0017127619840715145,0.0006898015824252224,-0.0007507680814737552,-0.0024728354521780906,-0.004181433550422939,-0.005514017995680022,-0.006176789933525936,-0.0060480864167175115,-0.005195386635477596,-0.003813270412259247,-0.002137024994851232,-0.0003860197093091971,0.001248998735823232,0.002600325151574593,0.0035319142781918165,0.003969841693346881,0.003933667050278937,0.0035403045152118235,0.0029677314695498577,0.002389659349856566,0.0019087701765596978,0.0015186733807049852,0.0011141175256628348,0.0005496278167753217,-0.0002748543717790417,-0.0013385473487204868,-0.0024735320282286977,-0.003408898347196255,-0.0038733807946399017,-0.0037111367504123987,-0.0029528602133965425,-0.0018045650777140502,-0.0005599823230369104,0.0005166819123797979,0.0012783723575628156,0.001716036799237239,0.0019156408124396695,0.0019863546926911268,0.002001986361942808,0.0019806355318510763,0.0019006435626735966,0.001731279326960036,0.0014542667972604522,0.0010656947385392964,0.0005660095885427983,-4.452273930490365e-05,-0.0007530264320211298,-0.0015085828027414146,-0.00220425292569857,-0.002688902052618997,-0.002815997950229972,-0.0025111630566572824,-0.0018212258037912953,-0.0009110505732710028,-2.6862945016176533e-06,0.0007130147445150294,0.001144653893265278,0.0013143944204078823,0.0013183088932368072,0.0012635608802245997,0.001219363384658264,0.0012007898361991631,0.001179366241826366,0.0011015472925020647,0.0009026606427424686,0.0005197442856638962,-8.537686502284187e-05,-0.0008907278014746294,-0.0017838597214880007,-0.0025650022676878222,-0.0030007634689323444,-0.002914898509753249,-0.0022733462326034984,-0.0012151592447604558,-6.201322053367431e-06,0.0010656667788988303,0.001802401727106516,0.0021591232925582786,0.0022302380668721617,0.002171275960801039,0.0021028964674027397,0.0020505798794841594,0.0019499265929569672,0.0017065987348735831,0.0012670174353135067,0.0006530889985843863,-5.6143650316628924e-05,-0.0007727782181068997,-0.0014354796518006169,-0.0020057707150408512,-0.002436789361906733,-0.0026518955499092362,-0.0025616797919228588,-0.0021133602730141737,-0.001337355994873447,-0.00035635260424756615,0.0006502702972637611,0.0015035290462407183,0.002070565960306625,0.00228086301149733,0.0021190413541370056,0.0016146738707592298,0.0008443176297815363,-5.8552738202804567e-05,-0.0009080545023477176,-0.0015070414941844004,-0.0017231287859430992,-0.0015637010955994349,-0.0011971930948396744,-0.0008890010797455842,-0.0008719455980232402,-0.0012183677508536734,-0.0017873629970925923,-0.0022789378097396165,-0.0023656912004962312,-0.0018335525984286242,-0.000668044214721388,0.0009401153258986103,0.0026570976309418194,0.004104321358713466,0.004963366377637883,0.005064322660618741,0.0044357294819268155,0.00329551456526174,0.0019760902632913963,0.0008052638728471538,-8.382155694180776e-06,-0.0004343606877252985,-0.0006007238050489629,-0.0007145974280488061,-0.0009667300908443549,-0.0014602055982902602,-0.002180672135867169,-0.003004349741946994,-0.0037330139131209507,-0.004148041941667315,-0.004075972183890043,-0.003450089504279107,-0.0023441257922676988,-0.0009581337984898787,0.00044361144998572176,0.0016181648692467688,0.0024153705890145208,0.002805386305934987,0.002856354808038561,0.0026816895579587193,0.002387868920370807,0.002045298267624008,0.0016848192185266134,0.0013068080857454084,0.0008894075639984077,0.00039420198278520906,-0.00022173975496526217,-0.0009800274371440682,-0.001846934496793884,-0.0027107104899729865,-0.0033920943491459014,-0.0036954681261156586,-0.003483589801884742,-0.0027405194159808334,-0.0015896266866671303,-0.0002563686894160117,0.0010066918641009484,0.0019999387997955706,0.0026318142902980717,0.0029322283583085576,0.0030222416641054097,0.0030509272053329617,0.0031211930624998503,0.003232712691810747,0.00326776267558466,0.003032668311527678,0.002345720976677116,0.001138395652702592,-0.0004779469801386302,-0.0022199212959903136,-0.003720817855503245,-0.004662115902621888,-0.004883615686503335,-0.004420110452776397,-0.0034562153429977243,-0.0022365954692513215,-0.0009862533345919126,0.00012423867016721804,0.000973149950749673,0.0014747950847831116,0.0015893886611202661,0.0013549426684760961,0.0009093467731708971,0.0004658880762525659,0.00023368099025328454,0.00031687398921884764,0.0006518028615557255,0.0010277535540528554,0.0011892773129199919,0.0009667201209876546,0.0003627482748094874,-0.0004504074525248207,-0.001215241931768924,-0.0017038709205019265,-0.0018036234342413157,-0.0015376704970146687,-0.0010232109157633888,-0.0003998766056090826,0.00023028788050494708,0.0008235932471743455,0.001374410358012067,0.001874893909182086,0.0022842479503497014,0.002528634137273878,0.0025331363190212374,0.002266223253116594,0.0017664929999769128,0.001129727922112979,0.0004594765422106268,-0.00018878211393050327,-0.0008309418989182259,-0.0015240054313716482,-0.002296358134218715,-0.003082725110983146,-0.0037118062656994275,-0.003966033505210688,-0.003686964405248568,-0.0028663597927109014,-0.0016670398312660976,-0.0003588718842263622,0.0007940928718391269,0.0016331946624684383,0.0021420437572154936,0.0024104045574044725,0.002554477004934967,0.00264208767978458,0.0026627714665076034,0.0025535862516002394,0.0022581304240464166,0.0017770826262870373,0.0011753028832829971,0.0005403768937142389,-7.745523811736028e-05,-0.0006974133788109187,-0.001381414796780573,-0.002158369515410742,-0.0029495817943775895,-0.003555353433703361,-0.0037304220710062037,-0.0033172029051661248,-0.0023589486648298748,-0.0011149486626654387,4.724725214156993e-05,0.0008320523805596851,0.0011674429610262337,0.0012353586349533891,0.0013544916862199702,0.0017764058881591643,0.002513096856884239,0.003303548853239059,0.003748281895283561,0.003536939746397794,0.002630278100761207,0.0012821040709494328,-0.0001102718835425577,-0.0012250958717608112,-0.0019603926918879697,-0.0024184957054470156,-0.002761492582526472,-0.0030534383792633,-0.003201692086117089,-0.0030287488802579784,-0.0024130288391485174,-0.0013973054641074536,-0.00019519627546647365,0.000902579718195519,0.001660228709544921,0.0019902269758210072,0.0019630674836915696,0.001741740954096686,0.001488663730392724,0.0012967743227535519,0.0011700335352268422,0.0010457783466626342,0.0008350411175943868,0.00046173713738611,-0.00010528310554612524,-0.0008276448407568301,-0.001586539950824003,-0.0021991160140593198,-0.002470726964483138,-0.0022708544317545025,-0.0015978514562425298,-0.0005941205582765329,0.0005024700019788458,0.0014478617533910819,0.0020755226076270435,0.002335573397958442,0.002280239779089591,0.002016189832521893,0.0016549900801729185,0.0012824639086406627,0.0009480742608315727,0.0006620573234323848,0.000389952100656984,4.8510692632305116e-05,-0.0004795528920018789,-0.0012964493753023542,-0.002412136767984926,-0.003675964912516476,-0.004770512229424989,-0.005302224488992128,-0.004968770754256479,-0.0037225255509076224,-0.0018299222178708645,0.0002257705493724487,0.0019580245972068405,0.003090849888124813,0.0036517413191792126,0.0038938351091069067,0.004099051188111101,0.004383569826799888,0.004623047146531682,0.00454001448310171,0.003895172167939401,0.002660305833269784,0.0010642183976630306,-0.0005146137347571762,-0.001738676641805848,-0.0024683726770733704,-0.0027978326458066695,-0.002962002218068742,-0.0031815647198530288,-0.0035370089270750854,-0.003933280241371454,-0.004159676081725563,-0.004001995129144851,-0.003347549849066712,-0.0022387328493038857,-0.0008615366051398065,0.0005172510547873782,0.001637095730941637,0.0023272490950184237,0.002563447008773687,0.002479108206513932,0.002319599620864246,0.002343972647522457,0.0027036310009172396,0.003350509833229575,0.004029258813449009,0.0043752878869935995,0.004082244819062572,0.0030533412911134777,0.0014508752160073005,-0.0003831307289665162,-0.0020827831881104326,-0.003396572855011322,-0.004239101673721256,-0.004653673076056013,-0.004735813358001259,-0.004572444177196006,-0.004218651324933943,-0.0037006044169480214,-0.0030250556175442462,-0.0021889406872026033,-0.0011947349166148789,-7.3515798750388e-05,0.001095828118882018,0.0021882309629554448,0.0030601158956650855,0.0035897322995067857,0.0037104702049455696,0.0034288127193507203,0.002832243709880731,0.0020899667267700634,0.0014325560919717236,0.0010890914095620628,0.001182839072786821,0.0016313683759991667,0.0021262289855072773,0.002242506881043197,0.0016495545531576518,0.0003116388629172337,-0.0014507370626253748,-0.003094245926353493,-0.004114876320109236,-0.004288578528518302,-0.0037517450258397075,-0.002880901973256718,-0.00205163951936331,-0.0014269319083221287,-0.0009038141254707514,-0.0002469325164643195,0.0006827734897134935,0.0017608689100340506,0.00261470753066191,0.0028242618270637714,0.002186623192545637,0.0008747767348001094,-0.0006155307603941598,-0.001705930664037918,-0.002025265262801144,-0.0015857481049098014,-0.000750826030418072,-1.832595139290242e-05,0.0002561198835561566,4.0008070047280924e-05,-0.0003878333479340958,-0.0006240808260925979,-0.0003833994111559021,0.00034730237191500906,0.001321764485855969,0.002187353993828093,0.002674774344332837,0.002716187383306808,0.0024400221188841153,0.0020649043847089546,0.0017633680414448373,0.0015694264503721073,0.0013709342876240707,0.0009811345062739091,0.0002473947903278425,-0.0008569773374319568,-0.0021985386252713454,-0.0035186751770110688,-0.004519443327077619,-0.0049641555866795535,-0.0047550209204201,-0.003961109325830048,-0.002787575523275988,-0.001497893667665265,-0.000320708399101863,0.0006172694485962853,0.0013012848832378568,0.00178123225428855,0.0021020169811060896,0.002262083229791901,0.0022317823187000827,0.002019002861396731,0.0017292055348740864,0.0015609589265871413,0.001715423561763402,0.002258664553026862,0.0030202249993500937,0.0036069505276386314,0.003553609324497045,0.0025513711013871176,0.000638405201028272,-0.0017590805203471865,-0.0039757928583889655,-0.005382051442428736,-0.005643921982287747,-0.004833951024612442,-0.0033460290084002995,-0.0016810879635420228,-0.00023295174625898805,0.0008192764099894545,0.001486808924646434,0.0018669615225041683,0.002039813254016624,0.0020218871787871396,0.0017848087503373002,0.0013091438391533382,0.0006330715239439821,-0.00013182812371895897,-0.0008241167273224853,-0.0012843665190486733,-0.0014149090261769929,-0.001223796585992587,-0.0008314508585373429,-0.0004292952902717591,-0.00020089985045830235,-0.00023910950561747794,-0.0005003187347748877,-0.0008201648000233724,-0.000983345256356324,-0.0008146004722721266,-0.0002512672501950276,0.000630698478278237,0.0016440416725420999,0.002556021909636268,0.0031646049557790762,0.0033571303727844976,0.003134725190665485,0.0025996306986923214,0.001912826420686417,0.0012356760904334181,0.0006740071720986795,0.00024466501696924505,-0.00012134713962910543,-0.0005394237522005118,-0.0011122158383318876,-0.0018760831861575232,-0.002774716462999981,-0.003668801677231096,-0.004376671706763661,-0.004731316765101119,-0.004634621049775215,-0.004089344240648058,-0.003194631239445373,-0.0021041494419115174,-0.0009648228015308922,0.00013206021812742132,0.0011598797142604548,0.0021235352490808026,0.0030121933536112577,0.0037764235052906176,0.004346630029750398,0.0046724921945071225,0.0047435263888958405,0.004568409491281687,0.0041314533575215594,0.003372294326313655,0.0022225028200008427,0.0006870394936296493,-0.0010845357100654008,-0.0027962231754127187,-0.004091448036299868,-0.004688513773882942,-0.0044948660001201905,-0.00364051143834355,-0.0024161069919287834,-0.0011517897681687362,-9.970529643464892e-05,0.0006270912274545519,0.0010444719235865813,0.0012399150975402743,0.0013085890483442795,0.0013130021178765013,0.0012735265338469862,0.0011795290022116234,0.001006184601046929,0.0007270692688594148,0.0003206634411187751,-0.00022465335391629623,-0.0009005400279618762,-0.0016616106404046078,-0.00240936207093032,-0.002993199710675437,-0.00324168480650001,-0.0030211308423442607,-0.0022985481584922814,-0.0011757440177334452,0.00012973805976220843,0.0013556827032007702,0.002288473594519009,0.0028340304263374206,0.00303158763815418,0.0030061723687904167,0.0028897265294732482,0.0027564898559978845,0.002604867693348681,0.002385430199924515,0.0020465844297009516,0.0015647116559886214,0.0009444019058509026,0.00020038893161732145,-0.0006536813955965935,-0.0015926900228075986,-0.002550119319850376,-0.0033978340738016997,-0.003963132335523322,-0.004087592585570577,-0.0037008763070854756,-0.002866310876799137,-0.0017672148354748985,-0.0006366322493602529,0.0003334665150930272,0.0010556450145398706,0.0015519019316150122,0.0019031268787874905,0.002177310262058665,0.0023800780264235243,0.002453629240347332,0.002317711105667793,0.0019209147702352988,0.001269129934479969,0.00041935724850141614,-0.0005465101099063162,-0.0015419888617523609,-0.0024753626165561825,-0.003235654803992425,-0.003687696059144689,-0.003693868643760084,-0.003160203066104751,-0.0020859520454155514,-0.0005914167523099819,0.0010915613959820221,0.0026672967697320828,0.0038503253265763436,0.004444926878965932,0.004403751702585642,0.00384058288383468,0.002985441500533939,0.002095057952855041,0.0013568951427683359,0.0008323500413174467,0.0004648618289969835,0.00014172458518858907,-0.00023134015246547332,-0.0006867233543081455,-0.0012016382323402444,-0.0017389756370861605,-0.002284508165900657,-0.002848380606238589,-0.003427780245941563,-0.003959884933135754,-0.004306811474912753,-0.004296655061852009,-0.003806538937994694,-0.002840421878430812,-0.001550805652940307,-0.00018461806698545494,0.0010198722522129955,0.001926916304564014,0.0025349337048019976,0.002932395804398432,0.0032126145721502073,0.0034065590682592524,0.003476582074023981,0.0033685781972905703,0.0030774266552206784,0.0026702955692598507,0.002242831764277274,0.001835879809237054,0.0013789065764231532,0.0007184006982121203,-0.00026776112340676575,-0.0015390647696438779,-0.002841414873299958,-0.0037901874572314493,-0.004051391061777755,-0.003514916581599201,-0.0023560189294296306,-0.0009525371365862482,0.00028756832954748856,0.0010896266863302136,0.0013881749513205263,0.001298057776680811,0.001020518252420485,0.0007442048275087204,0.0005819666686333741,0.0005501987545066447,0.0005765368119366712,0.000524220625817598,0.0002348133180781904,-0.000406046158503443,-0.0013919191928669621,-0.0025444837452603852,-0.0035326123969035223,-0.003980310889357987,-0.003629743270129551,-0.0024787686253148274,-0.0008094197732354931,0.0009221493389787498,0.002282062408973144,0.0030358305761083873,0.0032138682313753667,0.003042738241337651,0.002795838059986423,0.0026522305238798165,0.0026322114277634564,0.0026254790289294335,0.002478304596219416,0.0020845183936849727,0.0014349300048059493,0.0006088875985621009,-0.00027686319050243357,-0.0011272063197301917,-0.0019008041569315097,-0.0025994506424981993,-0.0032257477593128914,-0.003739710701879901,-0.004045350380971157,-0.004019791261554615,-0.0035714668346602503,-0.0026958839701536445,-0.0014977164194628233,-0.00016593442646540977,0.0010864891824792036,0.0020891504391247324,0.0027567725513477363,0.00309232813800784,0.0031567385013285465,0.0030264878760027474,0.002761760700236255,0.002396527483438513,0.0019472511656080558,0.0014276619840798864,0.0008571123208887196,0.0002573030667720249,-0.0003582894101679235,-0.0009912933233122896,-0.0016509463004947566,-0.0023303289323470997,-0.002977957995489265,-0.0034855574311712673,-0.0037088447216625953,-0.003520309925775452,-0.002871343940263196,-0.0018305910356548403,-0.0005747280534189364,0.0006677260466985237,0.0016943920889283279,0.0023930101746302648,0.0027635171166679726,0.002891209780825593,0.002887309444868374,0.002828296714443685,0.002724768365965312,0.0025336953956481513,0.0022030603515222165,0.0017188696767268855,0.0011233243057762901,0.0004915624367714982,-0.00011749318134112419,-0.000701080060998008,-0.001311759584451394,-0.002010590469681094,-0.002801294324513789,-0.003588140590901767,-0.004188516770033531,-0.004399582174754626,-0.004086922017907793,-0.0032503011776912507,-0.0020339722978758626,-0.0006778841833264655,0.0005661214583069988,0.0015167334829919409,0.002112872144159558,0.0024141553173696057,0.0025530534587030174,0.002657205112587444,0.002775578989792032,0.002847647011314948,0.0027408684629503426,0.0023466539805670414,0.0016832724796907788,0.0009344166552786219,0.0003779721130628893,0.00022643542390995085,0.0004696124939730751,0.0008303376117493773,0.0008882681634041222,0.0003197648032216764,-0.00088749493705858,-0.0023883136054706814,-0.0036452143714878716,-0.004209595186303333,-0.003945818126325721,-0.0030663634294276257,-0.0019743193090471585,-0.0010306172353832994,-0.00039533908887926157,