2.1354775113469163e-05,0.0030367236331976175,0.005729735075763173,0.00779933075597572,0.0090174579360104,0.00930790879471674,0.00879159076632488,0.007749569697714322,0.006510758065553138,0.005323754169446256,0.00428108138505668,0.0033279488522611703,0.002337448712455297,0.001203157564283121,-9.801518612348199e-05,-0.001494111230718579,-0.002849039864816886,-0.004010446657033092,-0.0048500624590816326,-0.005285752450847558,-0.005288583608248902,-0.004882952562783881,-0.0041427068541099,-0.003179818994138682,-0.002123172967660226,-0.001092836791549881,-0.00018086388221899216,0.0005539521777225102,0.0010802206387574252,0.0013872809920995495,0.0014858299897491743,0.0014140909003218924,0.001238627219160091,0.0010387449360798164,0.0008742413886757595,0.0007515664564019279,0.0006117782536285542,0.0003566934259152813,-9.09209763685602e-05,-0.0007203720334108318,-0.0013984857414972764,-0.0018975516186453632,-0.001985269806797028,-0.0015381107636653658,-0.0006181872232242126,0.0005329375372790414,0.0015870435543158014,0.00226515728565989,0.002449697236482828,0.0022184413777171447,0.0017864752391348326,0.0013891989932821218,0.001167674382939651,0.0011121869837123536,0.0010855789330194085,0.0009061970839184547,0.00044491199429204636,-0.0003082433508894112,-0.0012320208726899463,-0.00211591932365199,-0.002736027444817283,-0.0029335753426215235,-0.0026650435095738004,-0.00200595691169493,-0.0011126366482044634,-0.00016482893728258976,0.0006839351785838327,0.0013322906071213192,0.0017330597755261601,0.0018814944070232038,0.0018015765450858938,0.0015371128387210709,0.001146208635696951,0.0006921245132980322,0.00022649360513073803,-0.00022798237897144608,-0.0006794193420172301,-0.0011428689963989453,-0.0016001805758154757,-0.0019718447862233173,-0.0021287690537753336,-0.001948703752398823,-0.0013903966762220017,-0.0005407878824701946,0.00039928399095502773,0.0011913138419666555,0.0016599956297614104,0.0017640961070336954,0.0015981344478381767,0.0013256302227825987,0.0010846094432843888,0.0009202576207371187,0.0007792131702752279,0.0005602838094265145,0.00018527162443851422,-0.00035021234438830946,-0.0009661578462852919,-0.0015235762689508035,-0.0018691909448409105,-0.0018834858074844901,-0.001520894047262077,-0.0008321716998912925,4.094259078420452e-05,0.0009030115068399446,0.0015653370772516872,0.0019071184721683202,0.0019103605060431035,0.0016511408822718365,0.0012503106132680888,0.0008081505807598862,0.0003579162784782871,-0.0001352443679717586,-0.0007285358972410551,-0.0014356213000349216,-0.0021810031184342567,-0.00280455705035949,-0.003117048045212754,-0.0029778488077579998,-0.0023541373795374545,-0.001333303230741669,-8.808807380873186e-05,0.001181565367293268,0.0022997689350655035,0.003141238532527852,0.0036338963031138697,0.0037498827810557344,0.003497448444844165,0.0029184123220652924,0.0020867870573377982,0.001100178723182473,6.0361219320552266e-05,-0.0009496549372130735,-0.0018769368069177987,-0.002687596752991804,-0.003339114061405837,-0.0037582062170535505,-0.0038474681585424523,-0.003524778356122918,-0.0027734994952988553,-0.0016707153594914823,-0.000375156928801357,0.000916161561155563,0.0020164895721240337,0.002782534108824077,0.0031307480247941503,0.0030473132315124913,0.0025970360983170867,0.0019215963377040546,0.0012107677449560035,0.000641492505794332,0.000303829325351291,0.00015281488012925342,2.3271777153091393e-05,-0.00028516711339294934,-0.0008886743009370165,-0.001729520471986791,-0.002571149369504447,-0.003089229425124369,-0.0030170105071055985,-0.002273095311727483,-0.0010086981049991514,0.0004474853259840423,0.001719073167589433,0.002525258558616298,0.0027730505206867966,0.0025608395817075125,0.002099480178991071,0.0015962145249455175,0.001160982490454915,0.0007776432519215447,0.0003460257312827154,-0.0002344019120352812,-0.0009852022932380102,-0.0018135341949728147,-0.002536867656270915,-0.0029554452774289827,-0.0029379402288216396,-0.0024793345408058117,-0.0017030131211539586,-0.0008065246805699065,2.115725362501697e-05,0.0006696409022119821,0.0011325417836721675,0.0014819874208200103,0.001810994169937943,0.002173453199998351,0.0025462920787831084,0.0028251887226592868,0.0028531169222811414,0.0024737097858750987,0.0015972184843450683,0.0002618815502181764,-0.0013333195370946978,-0.0028508224895173826,-0.0039039536830401357,-0.0041927501159752766,-0.0036294161816691024,-0.002387398576449811,-0.000840394857270239,0.0005842382958915327,0.001566387301269286,0.0019920207878296663,0.001951823985068731,0.0016563649154001101,0.0013217908818500337,0.0010815415947797802,0.0009528409628162112,0.0008553810062873709,0.0006630602649327485,0.0002690030205442593,-0.00035355377937191807,-0.001115390483780333,-0.001823366433282043,-0.0022491351391927083,-0.0022311721533881785,-0.0017575450276725525,-0.0009780929434638212,-0.000133609151180675,0.0005584314353590863,0.0009950586380098124,0.001206585575636663,0.001300897303299098,0.001374924385263274,0.0014487037468526329,0.0014572663893735365,0.0012982495584499252,0.0009023757053821111,0.0002858020022726525,-0.00044155431755139353,-0.0011116368844650707,-0.0015570419648958695,-0.001666500314984882,-0.0014180388943086741,-0.0008823233571784131,-0.00019758991842457312,0.0004756905920191717,0.0010054477619219173,0.0013244808333250744,0.0014367120562670992,0.0013902723147766756,0.0012317559692247306,0.0009678643007178724,0.0005593210519427444,-4.4205202388531025e-05,-0.0008440053109308644,-0.0017428478033961092,-0.0025433703684229203,-0.0030091908259832125,-0.002966909862832803,-0.002397603170367322,-0.001464088867282116,-0.00045037874846544953,0.00036249974823782376,0.0008219503891908034,0.0009633211370888037,0.0009699751494961011,0.0010550551142265462,0.001330616960011435,0.0017377596169907362,0.002077483935627472,0.0021258736484106935,0.0017702028659472855,0.0010892811688051627,0.000328795187383576,-0.00022126484148938576,-0.0003823334769193442,-0.00018576859391936074,0.0001489776542374728,0.00034878245217774876,0.00025313619831361395,-9.282365962229322e-05,-0.00047704437505240036,-0.000661865044474304,-0.0005333354034721104,-0.00016664805564673405,0.0002219628851525601,0.00039478635781789516,0.00020808118110399025,-0.0003347752948084097,-0.0011040677270331457,-0.0019082883314075472,-0.002558604052149329,-0.0029058713070420237,-0.002852401682055426,-0.002359441519552218,-0.0014653072921573392,-0.00030534702635256735,0.0008939130539266027,0.0018685136902152864,0.0024108669844728576,0.0024612145024777363,0.0021409402254279506,0.0016949276768726878,0.0013620550507220468,0.0012430588114446662,0.001246366951558013,0.001150214891574062,0.0007475327197421589,-1.2618960072663995e-05,-0.0009707598903796796,-0.0018193336482906902,-0.002243148863509031,-0.0020601396346778445,-0.0012934899142050791,-0.0001506867656704661,0.0010661501475220493,0.0020688912018815976,0.0026660049078979786,0.002796454286677691,0.002514983985391088,0.0019439533587135268,0.00121414318827886,0.0004177744332855767,-0.0004086519626401034,-0.0012658078653430527,-0.0021473160886729416,-0.0029952285604593135,-0.0036862424318628998,-0.004066499055190603,-0.004022442640391615,-0.0035461540037732614,-0.002750297294386218,-0.0018183820142684119,-0.0009197735599194294,-0.00014152204009252288,0.0005259126911269828,0.001149256848463467,0.0017896738213664916,0.0024530769331550526,0.003075875099899602,0.003548256559999711,0.003761420413167591,0.003657443904194974,0.0032600526136350077,0.00267101291891003,0.0020300778666908497,0.0014533048105550372,0.0009777803433676136,0.0005422463635365684,1.949737164845468e-05,-0.0007079626536863417,-0.0016622146542443087,-0.0027198928374952973,-0.003633780406348787,-0.004128194363640631,-0.0040260605744858145,-0.0033387174174749614,-0.002264472092525821,-0.001095438458548142,-8.851982431318153e-05,0.0006255861871064788,0.001053125551384572,0.001279755612346119,0.001393531613842677,0.0014363146922062885,0.0014026231480718334,0.0012725997921872716,0.0010489777628042223,0.0007717968316279249,0.0005028634756215257,0.00029216016281569145,0.00014842046805633676,3.139183059421599e-05,-0.0001303252520062873,-0.0004045677689880826,-0.00081848482204815,-0.0013330006762093576,-0.0018393790299939252,-0.0021830439940398166,-0.0022113551520153533,-0.0018309147263988286,-0.0010517705688940174,2.2971575847894644e-06,0.0011252538720538331,0.0020922756110953447,0.0027314304467534385,0.0029750393800364082,0.002869325267009555,0.0025390449032431563,0.002125694103538605,0.001731167391216348,0.0013933603737342948,0.001098037627452639,0.0008079589005751255,0.0004837840352238966,8.618973125145411e-05,-0.0004290559419048381,-0.0011021246217391004,-0.0019380706341646536,-0.002869535281135183,-0.0037435989278320776,-0.004354492475459859,-0.004516025880779309,-0.004139353666357544,-0.0032734962042599938,-0.0020853052778825364,-0.0007905398005299,0.00042474570309420636,0.001451109272240483,0.0022529060484459615,0.002829969263399084,0.00317789169345735,0.0032769311362790756,0.003115784467557047,0.002729000195590289,0.0022135460638195463,0.001701107312466081,0.0012937317914407784,0.0010021362932404801,0.0007337221598847721,0.00034963642716152963,-0.00023783070539617297,-0.0009899484368450504,-0.001741968148634769,-0.0022839626139506777,-0.0024718568382064952,-0.002297991138242298,-0.0018795805863738159,-0.0013797426221982528,-0.0009180415530452611,-0.0005270520023746923,-0.00017258598793263224,0.00019011322153768533,0.0005702905062349103,0.0009340602191706826,0.0012291861739991928,0.0014138920407455392,0.0014655672418571423,0.0013679312511111399,0.0010960305339397548,0.0006213728560129371,-5.688676666879369e-05,-0.0008722599439501854,-0.001673667346095408,-0.0022537395983068032,-0.0024197205913946175,-0.002075981167388762,-0.0012760690085370308,-0.0002155499681090493,0.0008341846923948659,0.0016232886392464636,0.00201063879500856,0.0020043780932422995,0.001740048854790161,0.0014086156741446008,0.001169180767881934,0.001086171956650155,0.0011154970690849305,0.0011378731835210779,0.0010159141208046219,0.000646719118972474,-6.074176700053471e-06,-0.0008998827949239789,-0.0019131484085088244,-0.0028584912102478,-0.0035196320030661202,-0.0037165211169754324,-0.003378857536868299,-0.0025866394259240278,-0.0015437560928592876,-0.0004900909763289718,0.0003993442675371571,0.0010693424115533663,0.0015668164186637122,0.001972810318755588,0.002334670531551135,0.002638751081509184,0.0028291496351002064,0.0028471443061879264,0.0026596166877497804,0.00226204867605726,0.0016653895338926516,0.0008874138342483927,-3.861202143013581e-05,-0.0010435821232659933,-0.002009804489708502,-0.0027836943882164097,-0.0032162990475638102,-0.0032149820861277958,-0.002779771439881803,-0.002004621379802436,-0.0010433676753520986,-5.947993501728005e-05,0.0008146890081917365,0.0014928118788511478,0.0019257774525746857,0.00208693877515737,0.0019710143081325122,0.0016110354367663928,0.0010956049091089201,0.0005589466899030568,0.00013166082778609924,-0.00012707990583949369,-0.00027066436603113167,-0.00044145965997370557,-0.00078368825147552,-0.0013398223878109826,-0.001996473523378223,-0.002520632059736387,-0.002671526729119249,-0.0023242142567955525,-0.0015328185483177309,-0.0005001914542284563,0.0005211004961885399,0.0013345547811342943,0.001856760399980371,0.002109234608151875,0.002168796655037626,0.0021154153205974993,0.0020038056133728274,0.0018611379547846785,0.0016969738442122408,0.00151049121116189,0.0012896588671744821,0.001008006968138549,0.0006291870795766417,0.00012414605041405672,-0.0005060637966656856,-0.00121694936500561,-0.001927552818979713,-0.002544214468519564,-0.002985624025243667,-0.0031946630184463507,-0.0031353408623204185,-0.0027865226792869917,-0.0021466029958549233,-0.001251964287141034,-0.00019563005436379197,0.0008746851419193097,0.0017897143669314826,0.002412123774221184,0.0026832389607286612,0.002637501493006281,0.002377152910870132,0.002020981751110312,0.0016526881486540294,0.0012924077610981808,0.0009028317822131805,0.00042519116636537406,-0.00017353655295312465,-0.0008660731866837861,-0.001559995813277815,-0.0021242765303288134,-0.0024337827630438198,-0.002411493733974422,-0.0020520164356648404,-0.0014208105738933966,-0.0006342467427376673,0.00016979113714365556,0.0008629468253111275,0.0013544576434613995,0.0016113620206854064,0.0016634544183757277,0.0015865435100809165,0.0014654969218296033,0.001350390468544186,0.0012270488742900576,0.0010204141561806239,0.0006343356000271579,1.1251013577946159e-05,-0.0008182999405219578,-0.0017238959863656697,-0.0025103794958946982,-0.0029849050865141777,-0.0030245907469016037,-0.0026145012932204956,-0.001842881759878377,-0.0008624069532410002,0.00016067447245471795,0.0010884257469656225,0.0018328403857816207,0.0023565486437927417,0.0026590061770648053,0.002757482409939164,0.0026714747759957903,0.0024153701094491355,0.001998935386319323,0.0014316187523775608,0.0007270174183637867,-9.267864074445176e-05,-0.0009898648292950255,-0.0019017188707418824,-0.0027325302963999787,-0.0033580547858496376,-0.0036498510558055633,-0.0035171750982274097,-0.002950213204573641,-0.0020408131977085286,-0.000963091074439367,8.421212406822419e-05,0.0009490511051673622,0.001574933661966601,0.0020003771205982725,0.0023095460967977933,0.0025648342731862213,0.0027642316692145378,0.0028493967545119674,0.002754503105549165,0.0024571287344980408,0.001992605242089706,0.0014223669626345636,0.0007829985185895487,5.88519824779156e-05,-0.0007949071006118986,-0.0017891360058612995,-0.002840046548044495,-0.003758185386942169,-0.004306458098880585,-0.004303156467104533,-0.0037142666642215223,-0.0026807303978961883,-0.0014619351821073994,-0.00032516890018101613,0.0005586274457187175,0.0011588902945640451,0.0015533944308323395,0.0018489175136577154,0.002107247354148633,0.0023195045779971094,0.0024365620625720324,0.002425671239076807,0.0023076178246860014,0.002145172224519835,0.0019906261302591946,0.0018313740670929906,0.00157581992800814,0.0010958422138760892,0.00030520325300113283,-0.0007703840763107338,-0.0019727237294395613,-0.003054718735291894,-0.003768555709414658,-0.003956369118835792,-0.0036018876337687517,-0.0028238557356734324,-0.001821991480719252,-0.000806021654788935,6.18233933640524e-05,0.0006957948973946272,0.0010885651744020077,0.0012946368660328735,0.001401794969050591,0.0014949719431858496,0.0016208758492519048,0.0017681662518520766,0.0018764195182829724,0.0018728194733062683,0.0017168386331399468,0.0014251234701524657,0.0010592314195258788,0.0006820049669534547,0.0003099176237933623,-0.00010476917410512246,-0.0006427835540135135,-0.0013487364568661943,-0.002164477437641553,-0.002912039035274987,-0.003348451840079281,-0.003271511457760441,-0.0026221828275286396,-0.0015277432677520022,-0.00026048080839699697,0.0008689779517230933,0.0016312469821771459,0.00195313962581114,0.0019165920373743696,0.0016926820342359537,0.0014545746276777144,0.001315453806910499,0.001310933198385995,0.0014131488820317956,0.0015504841239714223,0.0016188195826803888,0.0014920446864586582,0.0010495476872661065,0.0002268103964470805,-0.0009285798461103968,-0.0022294556555354146,-0.0033784709725669013,-0.004056420309667859,-0.004039184653785697,-0.0032925899856840464,-0.0019978906063707314,-0.0004892230035902813,0.000872860390857415,0.001832802724335882,0.002313275416291942,0.002400040071940744,0.002258826155130576,0.002039330791873189,0.001818224195702763,0.0015981695816125407,0.0013419400900045418,0.0010071711681700465,0.0005629091153720391,-5.672222237283883e-06,-0.0006878195822358842,-0.0014284653384157523,-0.002115095826822314,-0.002591301028224973,-0.0027039474698691644,-0.002367442454894707,-0.0016134286029193747,-0.0005978124505750521,0.0004431300606625899,0.00127122054747475,0.0017268386835570272,0.0017786554066101395,0.0015241475879241627,0.0011421311183114247,0.0008153228498513246,0.0006515999772907378,0.0006360575955851211,0.0006384972120022192,0.0004797045573990133,3.0654574445040325e-05,-0.0007027276573118765,-0.001554888656271305,-0.002253962950307672,-0.0025313505694524196,-0.0022366771943614907,-0.001404834879197855,-0.00024620485668900346,0.0009325245376082688,0.0018406393346356467,0.0023026315363242197,0.002307088134575379,0.0019885883823399534,0.0015516363141662305,0.0011697400001233326,0.0009056090275744882,0.0006907071306073849,0.0003742760229236186,-0.00018281954685241489,-0.0010162851092663484,-0.002013603202695279,-0.0029379894149361503,-0.0035113434148182805,-0.0035211166437753285,-0.002906261137840226,-0.0017862134673036513,-0.0004207415060733324,0.0008823681882920067,0.0018732343332954304,0.0024362525322716606,0.0026073035734033973,0.0025275495317729083,0.002356615267219338,0.002186049848572199,0.0019945679522143972,0.0016675122850691789,0.0010721023851623067,0.000152248135262705,-0.0010047343084237598,-0.002166874036641499,-0.003030206766512315,-0.0033372212632379293,-0.002986400928896896,-0.0020785308970435656,-0.0008762185032878389,0.00030210262511443705,0.0012004467790367682,0.0017017851609452605,0.0018364041924693881,0.0017320955152618426,0.0015395856960810582,0.001367542845848147,0.0012463266664621549,0.0011233244327938415,0.0008860261853347974,0.00040993666258165834,-0.00037465434130369525,-0.001417278935957835,-0.0025194378938251413,-0.003377092154837077,-0.003692899617123051,-0.0033104381658847493,-0.0022970923224756423,-0.0009235704014104143,0.0004530083605106404,0.0015382830317888505,0.002201713594533093,0.0024833118992128186,0.00251874735484025,0.002439797609378036,0.0023107829380722843,0.0021274034251903286,0.001859265999076681,0.0014929859224164146,0.0010431515992986562,0.00053108875512581,-4.136340117149749e-05,-0.0006939521029382047,-0.001438535415906397,-0.0022369905225662384,-0.0029772757491576185,-0.003488852930092048,-0.003595688628483668,-0.0031841564699535514,-0.0022563725401575415,-0.0009475402453783349,0.0004996971158550286,0.0017978019830002087,0.002696847096267332,0.0030605657208065402,0.0029061223766335795,0.0023880113811065203,0.0017303471959000595,0.0011372052630219287,0.0007215060795447896,0.0004817601355322548,0.00032973058702983954,0.00014699612033729345,-0.00016088170613546334,-0.0006338217908849213,-0.0012517445412575118,-0.001941769745965083,-0.00258763516925165,-0.0030437793184929403,-0.0031648117321179062,-0.002853121100925177,-0.002108039284875013,-0.0010473036172634201,0.00012027226831635788,0.0011659792758504576,0.0019247477712999298,0.0023499407977636442,0.0025117280542191695,0.0025406344171954517,0.002547422952657435,0.0025636005428505827,0.0025344828872581487,0.0023649038509869122,0.001985828369390025,0.0013990057411626842,0.0006735966934334364,-9.810214074988628e-05,-0.0008516309613292385,-0.0015711028907328711,-0.0022658491906201233,-0.0029216953495099555,-0.0034650177851177993,-0.003770392356461748,-0.0037129771746400313,-0.003234907771061846,-0.002383746988518483,-0.0012992038561390222,-0.00015864106413356256,0.0008835019982531264,0.0017297360406293865,0.002338690637042818,0.002705290348167099,0.0028435069135406576,0.0027807929087328796,0.0025578026297401503,0.002222418334109749,0.0018148771122255658,0.0013518466711423258,0.0008217632120105602,0.00019852074917756026,-0.0005301573887651234,-0.0013328069867535601,-0.0021191638724952205,-0.002751648699744519,-0.0030836580478740116,-0.0030114336717779484,-0.002517835449184651,-0.0016880078176402468,-0.0006880752765607088,0.00028644772118817776,0.00107228949928011,0.0015844647221472134,0.0018277952139983049,0.0018717028156156037,0.0018039738909534388,0.001687908768975308,0.0015420815775021946,0.0013467975032288233,0.0010664225355173623,0.0006720288554659795,0.0001561110863776211,-0.00045834568528287746,-0.0011099827382063578,-0.0016961977162681776,-0.002087484759616249,-0.002166793575146547,-0.0018831084699940815,-0.0012897536096674151,-0.000537906060388061,0.00018015258631811065,0.0007109608093967529,0.0009992342758592062,0.0010946109915850903,0.0011050769221768175,0.0011262134984787143,0.0011861032812330624,0.001233249336260813,0.0011690552270653012,0.0009033707068946323,0.0004033978534219389,-0.0002855587048281848,-0.0010522570811576258,-0.001754501778153273,-0.0022601750871616816,-0.0024790830035656517,-0.0023768965229744297,-0.001971030670600049,-0.0013162699063205478,-0.0004913232401894934,0.00040711448424234553,0.0012664989313029289,0.0019675970991198423,0.002407663580985325,0.0025317967868440433,0.0023556233401100927,0.0019627827440101848,0.0014728635519202535,0.0009920402858161498,0.0005699209192602033,0.00018522997679709002,-0.0002303423062969034,-0.0007399842180198094,-0.001346813018830795,-0.0019660722905686092,-0.002444056897465829,-0.0026203157100372766,-0.0024038996845672433,-0.0018219052903481444,-0.0010112223311482332,-0.00015752756235396588,0.0005825732171895324,0.0011323940066233034,0.0014959817331470593,0.0017191780269265235,0.0018433070835619481,0.0018814652983285987,0.0018254888273796653,0.0016678923111718197,0.0014145466846465834,0.0010756898616584311,0.0006449029018768436,9.001527956771407e-05,-0.0006257877652872317,-0.0014972721887376245,-0.0024332435975414337,-0.0032501416710450674,-0.003719918861398847,-0.0036567952718188834,-0.0030017418271372966,-0.0018610694754022314,-0.0004775094165095442,0.0008549909271156803,0.0018951782441765674,0.0025308824190415032,0.002794027933554946,0.0028100077136990974,0.002711571621673288,0.002567316359970815,0.0023650927449567222,0.0020538466379724377,0.0016070096040907208,0.0010561194303477632,0.0004676119920816118,-0.00011773893178177282,-0.0007294935972184005,-0.001449619635360782,-0.002330734926214618,-0.003302642147932221,-0.004140181111910539,-0.004533519255512204,-0.0042348208710765115,-0.003198949049274574,-0.0016320856255327863,8.437665281805143e-05,0.0015532073811032427,0.0025173647360119894,0.0029354795532385786,0.002950700919340208,0.002784053445748513,0.0026154413302470836,0.002510824758870246,0.0024217530770526846,0.002243446961440572,0.0018902868265299265,0.0013447477935325028,0.0006567310317119333,-9.779627107799364e-05,-0.0008654407994914205,-0.001635115411512544,-0.002413159441557672,-0.0031699675450664704,-0.003798465633227813,-0.004124465348519367,-0.003979035120036314,-0.0032980339036971424,-0.002184625411153627,-0.0008841191028836701,0.0003246446335813354,0.0012575187580781612,0.0018911740049568201,0.002326757265470672,0.0026821793435656436,0.0029922156431628653,0.003185380642854824,0.0031481363816109865,0.0028248191233422983,0.002278808852938431,0.0016692014020805751,0.0011553712059220534,0.0007909095122670504,0.000478090552995775,1.875766627594923e-05,-0.0007610868025958169,-0.0018824518733442188,-0.0031568820681102845,-0.004241537194192448,-0.004783146742893815,-0.004576756980678422,-0.0036556857505051317,-0.0022687636397489986,-0.0007648888792667404,0.000547837931350997,0.0014979416814358702,0.002067334887465115,0.0023421881726756718,0.002439244926589316,0.0024470735472836066,0.0024006097832034953,0.0022860221026552788,0.002062962710174434,0.001691603063565404,0.0011557894054381461,0.00047700735408921975,-0.0002834672225458586,-0.001033955871702243,-0.0016704026632866496,-0.0020988527724408994,-0.0022579204821566064,-0.0021358427893613443,-0.001775149407437821,-0.0012593895266787226,-0.0006840654967971652,-0.00012465982280330937,0.00038093349741136705,0.000826276051391414,0.0012130637015711257,0.0015286736386777781,0.001740961055957673,0.0018131026809195285,0.0017257992678837032,0.0014880767582240986,0.0011263433165751141,0.0006593075676744387,8.097555647279433e-05,-0.0006274091330554938,-0.0014554615132412758,-0.0023172296629025034,-0.0030386136034190906,-0.0034023757025203683,-0.003237727400745307,-0.0025074012791609914,-0.0013405204298161965,9.708564445894087e-06,0.0012601651881632707,0.002193813561399173,0.0027134863064677294,0.002838699306392806,0.002661395178893378,0.002291315221372603,0.0018168490741378297,0.0012906797768542514,0.000734123641485644,0.00014922861003529425,-0.0004668167290397059,-0.0011042206965242215,-0.0017216642870004565,-0.00223620814676379,-0.002535120946696139,-0.002511697231855818,-0.0021098753110564057,-0.001355048376588956,-0.0003574058677438538,0.0007105927539941329,0.0016531325869707815,0.002297740006650647,0.002541229198146615,0.0023809519768537464,0.0019144908323954226,0.0013004747233890924,0.0006930704777394755,0.00017966634685148404,-0.0002465398808150098,-0.000662299915167335,-0.0011476917220476324,-0.0017116891274660618,-0.0022543473058833615,-0.0025942524411805756,-0.002553210502360089,-0.0020537700544954584,-0.0011737105777461783,-0.00012454224320766348,0.0008356471562157833,0.001508627626128653,0.0018277293661481478,0.0018627183511904925,0.0017614103240971733,0.001661384431521526,0.001616393013321062,0.001571954325037608,0.0013992207848189829,0.0009679570498906889,0.00022209713193663147,-0.0007770793906203626,-0.001857154636286917,-0.0027842683358378375,-0.0033346288934419225,-0.0033620522239814427,-0.002840291679411659,-0.001868125133316378,-0.0006373901091847639,0.0006230216965437039,0.0017063447727482183,0.0024712107879234263,0.0028597669906104597,0.0028923407652617075,0.0026463938581368957,0.002228120222549568,0.0017434645625303137,0.0012738682169572552,0.0008603713106848845,0.0004976119546978765,0.00013839753217412482,-0.0002894804707632005,-0.0008528008333690404,-0.001573124680195691,-0.002392078789340558,-0.003162780473692572,-0.003682521046752803,-0.0037620902044442446,-0.0033041744475748635,-0.002352911888773831,-0.0010879871472200217,0.0002357224108496146,0.00137456863957453,0.002169285876833137,0.002575756431028773,0.002647489990496443,0.00248670613751818,0.0021928939137463633,0.0018343478211493497,0.001450943861663384,0.0010745247491094011,0.0007416034598283475,0.00048174834882644326,0.0002886840698069738,0.00010126453112691285,-0.00017936769656928982,-0.0006340326070371455,-0.0012598191392408154,-0.0019379828077574096,-0.002464174718126168,-0.002632868763301991,-0.002333519696871868,-0.0016076818201784793,-0.000638524642305875,0.0003197551188411083,0.001037970402603262,0.0013922623782464025,0.00139864401125152,0.0011915544827007672,0.0009576937665566432,0.0008534238093283542,0.0009395804433183059,0.0011582830325958934,0.0013576612610525676,0.0013528368708704028,0.0010014481127688655,0.0002688887414305719,-0.0007399830031041908,-0.001798649406609139,-0.0026268699463974886,-0.0029877954329110192,-0.002775425718188017,-0.0020529625706093573,-0.001024369207084762,4.5917751834498766e-05,0.0009270623765066132,0.0014903247272998851,0.0017295232667664205,0.0017337052089736711,0.0016299525833684998,0.0015219374237713597,0.0014474919952742053,0.001369064423834163,0.0011983544847945233,0.0008440880488955467,0.00026317760409466965,-0.000506079450644348,-0.0013430345828920045,-0.0020768902725691544,-0.002539193750442163,-0.002615858154868706,-0.0022797544486238062,-0.001595013496624937,-0.0006963307328704974,0.0002460959575988728,0.0010652938686166553,0.0016329998141412522,0.001887107747049147,0.0018448101203295286,0.0015939904732102583,0.001260011600588681,0.00095577707736337,0.0007336774850193161,0.0005615829773976612,0.0003386352788664255,-4.861998974791716e-05,-0.0006500442124619659,-0.001394212510616913,-0.0020888392259307406,-0.00249247392865193,-0.0024268011343330544,-0.0018679568989129886,-0.0009633611629560447,3.536864073124153e-05,0.0008837795807055979,0.0014393248663500853,0.0016950452260999116,0.001745865313428557,0.0017151986790451283,0.0016826243960775865,0.001644928276511117,0.0015230430529779375,0.0012074970911481182,0.0006212308357737295,-0.0002267534199684824,-0.0012199627135894057,-0.002156668890469772,-0.0028106577874288012,-0.003008838998757559,-0.0026942565997272122,-0.0019460258917836815,-0.0009460614621385712,9.068254566780919e-05,0.0009868209248241103,0.0016414495305143609,0.002027500002210063,0.0021624336488430657,0.002077477684141884,0.0018032432473014926,0.0013731238861540013,0.0008322684830859549,0.00023752641084419447,-0.0003563501172250269,-0.0009141537110641819,-0.001423770840090697,-0.001876469448168053,-0.002234324762889851,-0.00241112699345303,-0.002290372141832693,-0.0017812193901210118,-0.0008852483895758884,0.0002667240058497086,0.0014370536712285033,0.0023611126353538757,0.0028495837453736492,0.002862417357577305,0.0025154620802280217,0.002014650537763697,0.0015502872634668942,0.0012050651899199018,0.0009225137983441481,0.0005512107670890595,-5.896232712173624e-05,-0.0009583453590363243,-0.002046880250606079,-0.0030967998045843357,-0.0038375827576292553,-0.004061895104868117,-0.003702339298042086,-0.0028458911988575456,-0.0016863379198279807,-0.00044530309774952405,0.0006975113420824717,0.0016372055978363148,0.0023362245201057844,0.0027932510947113343,0.0030128219857379584,0.0029947902862154756,0.002747889451082542,0.0023132076752269246,0.001772107943977167,0.0012205261349823484,0.0007177091685344535,0.0002441409859366484,-0.00029337020250847434,-0.0009990227333994844,-0.0018979006294474483,-0.002873472830551451,-0.003678910074032857,-0.004028791491204547,-0.003729396347947376,-0.002778217442309362,-0.0013765514573779287,0.0001521470270547228,0.0014916665652708182,0.002440515725272569,0.0029486597779049837,0.003081609965618854,0.002949585227617076,0.0026486115958332854,0.00223957241137393,0.0017597094339096566,0.0012414372419638398,0.0007163632362116034,0.00020176906162862497,-0.0003143249795607286,-0.0008693167889913241,-0.0014962061480803452,-0.0021811170283608915,-0.002835396575007024,-0.0033066773934108834,-0.0034331964074625814,-0.003118922834035328,-0.0023901813002461343,-0.0013996512938117653,-0.0003699762062156955,0.0004975447712970015,0.0011028064673943307,0.0014734483078231982,0.0017251970502211817,0.0019802923500043717,0.0022912804234119914,0.00261216256895297,0.0028292520145851135,0.0028288496098508335,0.0025588860739816977,0.002048020666369943,0.00137423344755674,0.0006086411464926893,-0.00022234381412921468,-0.0011255898384146883,-0.002086146665959978,-0.003010913384757087,-0.003722102877743152,-0.004020345356499102,-0.0037851439370175485,-0.00304675643033849,-0.0019783319538854683,-0.000812744266435778,0.00025842743738906636,0.0011393481882760418,0.0018159473708685386,0.0023042476953461636,0.0026103548474439436,0.0027273208895226752,0.002655852919301235,0.002418186292460822,0.0020479434252700917,0.0015660957407419645,0.0009684072509381774,0.00024101440005916787,-0.0006026936878207117,-0.0014893829213520845,-0.002283214995456333,-0.0028223055107198672,-0.002979431299122375,-0.0027158096290578766,-0.0020983682655992,-0.0012716422809867767,-0.0004022799765110882,0.00037277127230301904,0.000972990614989704,0.0013754739482270614,0.0016025868647735987,0.001704625543854377,0.0017373098474060987,0.001734021142077608,0.0016826059064829531,0.0015237582521560836,0.0011806306136243742,0.0006093212081881484,-0.00015767715277759532,-0.001002756275607231,-0.001756926887693795,-0.002258210863752031,-0.002404553888826932,-0.0021791871880723133,-0.0016454186578151232,-0.0009222344630888018,-0.0001539655723000727,0.0005194345845837557,0.0009908123371448834,0.0012110192348019566,0.0012025499812028102,0.001050048718631588,0.0008634294831124307,0.0007255080284095086,0.0006499896842519742,0.0005751704129279532,0.0004007452098608183,5.0021925818381514e-05,-0.00047555451277966237,-0.001078418472824268,-0.0015925970179761022,-0.0018440457558334315,-0.001717072390642329,-0.0011998767552882847,-0.00039249144330836844,0.000524454699408875,0.0013475816155853024,0.0019137392167292082,0.0021456369232517006,0.0020648087591128733,0.0017688586697295608,0.0013825196052298645,0.001001669295377452,0.0006538727528523104,0.0002950170801958374,-0.000153111846810349,-0.0007408156298439086,-0.0014369164878866047,-0.0021157202078200183,-0.0025961784703355064,-0.0027163077557373102,-0.002406583290606477,-0.0017264248486640488,-0.0008458891230420196,1.9633582951460995e-05,0.0006918481648267479,0.0010908267183774305,0.001247688586165815,0.0012669162558172967,0.0012620937633795954,0.0012987264154234988,0.0013679802547827522,0.001395594594574122,0.0012751813387714757,0.0009115299785949731,0.0002632502655857035,-0.000623637037953061,-0.0016023208184696943,-0.0024454136953677157,-0.0029046462246075707,-0.0027967711203209706,-0.0020822081653896346,-0.0008977718373449476,0.00047787476399978465,0.0017159455846996409,0.0025487726197443005,0.0028541810015844985,0.002680076778264629,0.0022035765804593556,0.0016461628801824211,0.0011817934272804298,0.000874163963381541,0.0006651960369492561,0.0004162245864564227,-1.617860980399554e-05,-0.0007004794347960199,-0.0015795786702562451,-0.0024728687393361787,-0.003134609569377528,-0.0033476883389879676,-0.003012808346333878,-0.002191400326470698,-0.0010812692863160036,6.190527117390192e-05,0.0010172738332775546,0.0016629426296479826,0.001988940754946116,0.002064169737130955,0.001981981635731374,0.0018133920791697804,0.0015870523454313335,0.0012971351754473685,0.000924728687209865,0.0004553011030129174,-0.0001144667864842869,-0.0007732198852969953,-0.001484368013592877,-0.0021698720349176423,-0.002705779167825519,-0.0029487053360617386,-0.0027924115996860767,-0.002225549192638725,-0.0013514159016887167,-0.00035164233319647496,0.0005864063969508132,0.0013352632266403373,0.0018525551776571144,0.002164235582457876,0.0023296360887868094,0.00241265458204169,0.00246595169423072,0.002519828966296841,0.002567608551141876,0.0025517669249360978,0.0023661581975833934,0.0018872014947694895,0.0010301746167633709,-0.0001926006759645223,-0.0016425188262006608,-0.003075107987517872,-0.0042079299284884485,-0.004809746542860166,-0.0047723990504863895,-0.004134482926912778,-0.003050914804217172,-0.0017303529958370822,-0.00037522814748988697,0.0008511516769324233,0.0018301344889028368,0.002483774373317726,0.0027778354817376673,0.002731846111127389,0.002422128463751818,0.0019641017593784857,0.001473439290443801,0.0010213053853524705,0.0006068440351465238,0.00016547603876576942,-0.000384566698422123,-0.0010760858898329344,-0.0018411468562748458,-0.002507008534521338,-0.0028523969626945934,-0.0027039549689573234,-0.002025939989052414,-0.0009538509308294973,0.00025040741011732315,0.001302221774554896,0.0020051621898342386,0.002314136260779271,0.0023225587035621653,0.002186256920830578,0.002029371559061658,0.0018838506823446654,0.0016912135424199657,0.001357425656572295,0.0008225658919033902,0.00010379261672225509,-0.00070769947189423,-0.001484660444449642,-0.002107802482303598,-0.0024916849050988328,-0.002588682447267646,-0.0023851207969182338,-0.0019042589275079262,-0.001215658225022178,-0.0004359806196134142,0.0002923396632391814,0.0008415965418279611,0.0011393566535622523,0.001188223925603677,0.0010563912406103247,0.0008452210329030043,0.0006475787809744882,0.0005111309154892019,0.000418978398834128,0.0002970929171397377,5.11917786424331e-05,-0.0003767382440573355,-0.0009558939757541527,-0.001547603408319213,-0.001939140256865228,-0.001924669388106369,-0.001400082346415458,-0.0004257057127683684,0.000777346796551226,0.0019000453785642038,0.0026565827200053143,0.0028849731158760395,0.002595032500871363,0.0019474260885533044,0.0011774373509814342,0.00049743915941601,1.7322525121699333e-05,-0.00028582718923012766,-0.0005356377233890401,-0.0008743316966638397,-0.0013688048021162293,-0.00195488161106719,-0.002454189473279399,-0.0026580645634915207,-0.0024320138855868628,-0.001781538708468218,-0.0008458977604786399,0.000167918745818739,0.001066204072665962,0.0017212654344165598,0.0020813764325087027,0.002153490934409214,0.0019834239653383386,0.0016447945500627714,0.0012286706259820115,0.0008200604853720214,0.0004616692819079446,0.00012723618726600297,-0.00026629747607184246,-0.0007994854464378473,-0.0014726957561198729,-0.0021620386327308233,-0.0026476768372735403,-0.0027093468332624344,-0.0022395201980743044,-0.0013104722870198016,-0.00015639407118055713,0.0009212132959792721,0.001676034522432797,0.002006663005212331,0.0019737710791677063,0.0017443688259570179,0.0014983928928080873,0.00134678431784196,0.0012974748210546874,0.0012757319516519872,0.0011765581174538768,0.0009158588720291997,0.0004577635755792743,-0.00018329937808520016,-0.0009522455900588721,-0.001761759332544951,-0.0024980967079758845,-0.0030326093754962074,-0.003246082751032329,-0.00306250903770695,-0.0024790020677950084,-0.0015771280376146567,-0.000507807540527254,0.000547858478387484,0.0014297181752623935,0.002042553783806744,0.002373733118579309,0.002475996112188541,0.0024254232538012703,0.0022797742122748457,0.0020617222123864415,0.0017730146905992976,0.0014219319789630035,0.0010363502622961081,0.0006475219416517443,0.0002564405906060589,-0.00018556521732011883,-0.0007546756008968635,-0.0014921453076210704,-0.002337434764200487,-0.0031072589253014517,-0.0035500743107313012,-0.0034586550349315634,-0.002781236236855513,-0.0016651482112006663,-0.0004032035863352529,0.0006906203297967741,0.0014098002856692405,0.0017220057068386059,0.0017451332288441618,0.0016546195733226918,0.0015795836084742875,0.0015464072813149246,0.0014948907632371673,0.001345268292893541,0.0010648764948830367,0.0006901626055590828,0.00029589940214585266,-5.885046842068804e-05,-0.00036618369593830206,-0.0006629100399562497,-0.0009900739156586378,-0.0013465397246810516,-0.0016649041830625582,-0.001824779789996546,-0.0017011977772008412,-0.001229201345383847,-0.00045429394826416417,0.0004602375886752396,0.0012803900026821867,0.0017873780018712103,0.0018657937248023413,0.0015533318651347096,0.0010260824385940252,0.0005205473905311947,0.00022332192568434044,0.0001791555026638582,0.00026531279159088385,0.000251362948357341,-7.892304333834125e-05,-0.0008008108116876498,-0.0017813489883468894,-0.002711161074846428,-0.0032275510683359952,-0.0030733401884435172,-0.002213783637111484,-0.0008533594347864943,0.0006532563149520612,0.00194664078867096,0.0027904493877287592,0.003125971657940688,0.003043769170733866,0.0027052917434676046,0.0022625194339802256,0.0018094362852155701,0.0013722802692779591,0.0009257930915483643,0.00041894033354010815,-0.00019890466343347555,-0.0009525072445758728,-0.0018168345311699657,-0.0027015346079539895,-0.003455720887337126,-0.003901188405206269,-0.0038886390496998104,-0.003355786252041243,-0.002360123048610395,-0.0010691703630768246,0.00028826258388643265,0.0014884885005566756,0.002371126226877965,0.002871041689795658,0.0030180847858735276,0.0029085060266478046,0.0026591026700262454,0.002360516063559896,0.002047199702414646,0.001694995458806929,0.001244481777752813,0.0006366872783877674,-0.0001549891062480708,-0.0011059374841205646,-0.0021346967885275928,-0.0031077458362916434,-0.0038559765940090855,-0.004206793465112,-0.004029926465271195,-0.0032838482732573558,-0.0020435569921242584,-0.0004954331770971001,0.0011025733471583905,0.0024843892428941966,0.0034435459970090206,0.0038834777634127494,0.003833054339561933,0.003421585074468909,0.002823563109461366,0.002196410058018355,0.0016362864472974545,0.001165885082512242,0.0007509512426441866,0.00032988081231843773,-0.0001598187463074884,-0.0007647352070477833,-0.0015039745458944097,-0.002355573218329166,-0.0032414952360308915,-0.004022975246775731,-0.004520940124352465,-0.00456521451553085,-0.004057492286535972,-0.003020699512352368,-0.0016107923618939902,-8.29539974235941e-05,0.0012782320440446774,0.0022428655235941317,0.002705925151855165,0.002715546103900414,0.0024430788515431463,0.002103956250993941,0.0018661986429658862,0.0017932362379006158,0.001847778107250746,0.0019442923389502856,0.0020067821233376456,0.0019895131800692018,0.0018520682393358698,0.0015223766398778824,0.0008984507552347329,-8.723218353229876e-05,-0.0013727448922191314,-0.002714950761486652,-0.003742251223725647,-0.00410642133332554,-0.0036542797186544817,-0.0025164930437375057,-0.0010573476541426278,0.00028776789102564766,0.001197882149430676,0.0015797273731273267,0.0015602352836744267,0.0013763626787242542,0.001230031257992615,0.001186014933631897,0.0011604359782182675,0.0009959187028865224,0.0005741717051041114,-9.926137989892906e-05,-0.0008832872025472268,-0.0015643309810918675,-0.001954665910046282,-0.001971047352939944,-0.0016558371128414468,-0.001138615541826264,-0.0005674636360225048,-4.933246080477744e-05,0.0003732715188508878,0.0007065154377918723,0.0009696704822825882,0.0011663835491038173,0.0012790861769381438,0.001283900751125347,0.0011701697872863626,0.0009490017879309567,0.0006456534353485664,0.00028227597843974623,-0.0001359911911550663,-0.0006190541296943045,-0.0011682672299146927,-0.0017378440679382268,-0.0022028409675044344,-0.0023637655105036032,-0.002008369918215178,-0.0010204893682686843,0.0005125389352486714,0.002262109581846251,0.0037377522718980176,0.004471221898455298,0.004224430731745254,0.0031093515499996723,0.0015436734257581004,5.5223914312127646e-05,-0.0009625281157521523,-0.0014115926533548966,-0.0014855879951456226,-0.00151662401225685,-0.0017692892244599735,-0.0022958533378227737,-0.0029206219709383228,-0.003346485356195378,-0.0033160859203611066,-0.002741029073734326,-0.0017383353677060769,-0.0005659057298821646,0.0005005796274845452,0.0012830242550672974,0.0017538765996154904,0.0020093260079524144,0.0021870026182315688,0.0023769279578767515,0.0025709900467835783,0.0026704229456645757,0.0025400025917720046,0.0020782664325926323,0.001271116998633665,0.00020824082644057933,-0.0009398658940603951,-0.0019703218878193165,-0.002700592119385445,-0.0030080140237452027,-0.0028489337343999095,-0.0022601768758762917,-0.001349737253892892,-0.00028103069976582334,0.0007507415324231631,0.0015544955269421762,0.0019907387288154053,0.0020177516161750467,0.001713062296729002,0.0012494472141420777,0.0008249888218101575,0.0005748185511124952,0.0005083990762371478,0.0005065772953678676,0.00038178871307123215,-2.734419226490506e-05,-0.0007705231722321736,-0.0017458921515857541,-0.0027217460556053256,-0.003412215644537756,-0.0035792479505866812,-0.003121633008302809,-0.002114531940775518,-0.0007825035814125202,0.0005815797475036311,0.0017153554686339322,0.0024618259142688667,0.0027936602366462927,0.0027862150939295025,0.002561078801379997,0.0022306457825276276,0.0018667748822110927,0.0014991243113987036,0.0011321352368485165,0.0007631543413843729,0.0003899986742779777,8.280270974333895e-06,-0.00039243657270729236,-0.0008246048758054486,-0.0012887905031967546,-0.0017560214328650682,-0.0021570502308355145,-0.002388484051735103,-0.0023399670438300976,-0.0019374586654627435,-0.001188638110283016,-0.00021126298353127464,0.000773938401068845,0.001496164358207886,0.0017269081245564828,0.001382808537481806,0.0005918753816232751,-0.00032200881506939494,-0.0009508585236583053,-0.0009758480679439338,-0.00032529254250468774,0.0007661747013921425,0.001840199930925187,0.002409835843824993,0.002174484434374223,0.0011486827170670722,-0.0003538058913826913,-0.0018617813991711524,-0.0029363578497193605,-0.0033203112483918113,-0.002993352177243564,-0.002131675796259406,-0.00100969140918145,0.00010558391208238458,0.0010281454401683378,0.0016781319929342264,0.0020644002120645765,0.002244331713860205,0.0022828210026747345,0.0022251217803321236,0.0020875008108284764,0.001861528353284021,0.0015251794154319486,0.0010556854452785352,0.00044234147526728274,-0.0003005011907057857,-0.0011212032128378037,-0.001924674626453884,-0.0025811731687203007,-0.00295562083085742,-0.0029512752712863,-0.0025491382822350945,-0.0018224949812253514,-0.0009178513380784493,-1.0733474118129922e-05,0.0007447200830786369,0.001254191403075053,0.001499034950555224,0.0015275290040188097,0.001426942101630257,0.0012873777066183991,0.0011698631761475687,0.0010874705556152462,0.0010025541350850457,0.0008400533372461553,0.000516179293812206,-2.1093491075358894e-05,-0.0007509516007118755,-0.001557143964926941,-0.002242837054156365,-0.0025892366618057816,-0.0024421055029115513,-0.0017894296922566003,-0.0007881135715721924,0.0002836884083309483,0.0011349237192008622,0.001581696748054246,0.001619100186111342,0.0014074504042895515,0.0011797980563196362,0.0011180317855496154,0.0012593215274442134,0.0014775661310359044,0.00154742002820045,0.0012600449500667537,0.0005362439320021627,-0.0005166223380365321,-0.0016324082411929722,-0.002487781422891392,-0.0028313318180223116,-0.00258037970864731,-0.0018421066328459515,-0.0008542098938993677,0.00011961028961000365,0.0008848330549413383,0.0013597823426412209,0.0015602967089080294,0.001551397488699555,0.001402670379514167,0.0011687053061561659,0.0008907377886281096,0.0006014745139011448,0.0003203013960529006,4.23116745554349e-05,-0.0002637894585490342,-0.000637229488127093,-0.0010908091287903997,-0.0015814175891217088,-0.0020077553026811405,-0.002241462748691639,-0.0021762689997440396,-0.001769797322600678,-0.0010603463714935657,-0.0001569152865940897,0.0007887247131898596,0.0016185086032648008,0.002206571901764713,0.0024918273946515973,0.00249182971625302,0.0022858741460231712,0.001968596310135583,0.0015959889746614297,0.0011573979043454658,0.000595875689481907,-0.00013146982596138864,-0.0009907685768231487,-0.0018493063876275154,-0.0025133703589409273,-0.0028085066403873136,-0.002658614374129252,-0.002120454877126404,-0.0013552916841853804,-0.0005540120731476555,0.00014347679111018574,0.0006922400208184214,0.0011287520953278166,0.0015117444487084562,0.0018561711480722149,0.0021034354686350763,0.0021481641030320787,0.0019040836403877545,0.0013640046529038263,0.000612489149782339,-0.00021626207480195797,-0.0010030511076620982,-0.001683689733021797,-0.0022388673109984616,-0.0026492806710655477,-0.0028589606346248264,-0.0027825618806318225,-0.002356895833128247,-0.0016006633479411741,-0.0006361334310916023,0.0003499628611656046,0.001187747592934547,0.0017984229988849167,0.0022137428494744616,0.002527227778665055,0.0028081687497486484,0.0030347880297829036,0.003092237438326996,0.0028408912033851905,0.002215014287484369,0.0012888527203681604,0.0002622532332412451,-0.0006343442994129783,-0.0012619961302658962,-0.001644578467351343,-0.0019377949836865188,-0.002309313271926331,-0.0028052162785601642,-0.0032923897711488338,-0.003520414843085022,-0.0032691117332304207,-0.002490751308279468,-0.0013573424351586896,-0.0001822738193843587,0.0007367804820391935,0.001260310348667428,0.0014542369293134715,0.0015224207636376748,0.0016727702498949136,0.0019982602245816237,0.0024362440917289597,0.0028173160937614104,0.002963405696468972,0.0027737647696195024,0.0022551878809986175,0.0014931000452347402,0.0005953748174308566,-0.0003499227301262354,-0.001280293398408377,-0.002136272573596361,-0.002839524253672504,-0.0032970057534013556,-0.0034329075299474707,-0.003225755428264754,-0.00272316741150469,-0.0020240269693597196,-0.0012406950205847808,-0.00046356133313863753,0.00025653607570232985,0.000904823901797474,0.0014832420122099022,0.001985216958492715,0.0023785541210116917,0.0026099558298115825,0.0026334696247547777,0.0024465519723675276,0.0021062346292694094,0.0017068281471389678,0.0013263670150931001,0.0009737759112779735,0.0005743853676104303,1.2212010486392758e-05,-0.000786916467414446,-0.0017769857124188704,-0.002769235256766142,-0.0034900636622427214,-0.0036974025366857846,-0.0032945203770759694,-0.0023766182935339684,-0.0011840239760757352,7.635143953295062e-06,0.0009942945393063385,0.0016906723911855807,0.002105820515993175,0.002281428333040275,0.0022443447183694005,0.0020043713160363976,0.0015883170808902388,0.0010714369058955045,0.0005691571216740208,0.00018384830254090164,-6.033305962602815e-05,-0.00024572099811114034,-0.0005231507204970434,-0.0010203570842173956,-0.0017461904855297346,-0.002548407563151873,-0.0031574302426055374,-0.003302388032428777,-0.0028431217443562378,-0.0018476182507934586,-0.000570313585205709,0.0006596398065312635,0.0015815791075226584,0.0021040713061010424,0.0023151764337388434,0.0024034979624149404,0.0025359013923264223,0.002756869031382771,0.0029615910358806495,0.0029569020988511525,0.002577856614515776,0.0017955093235771965,0.000752707714834691,-0.00029679197240014307,-0.001114166113284294,-0.001594493664094386,-0.0018094803217643073,-0.0019487359172505009,-0.0021933265916035402,-0.0025943967302908214,-0.0030270788353312906,-0.0032476029203276635,-0.0030235227592654125,-0.002266256482391015,-0.001094444613602006,0.0002049446131274667,0.001296263835916544,0.001933848912871866,0.0020526805818217734,0.0017737851286457056,0.0013322792599797435,0.0009699821637820022,0.0008411775164475812,0.000963000664390343,0.0012183809805944798,0.0014041716481975532,0.0013106398086314796,0.0008119042366726505,-6.347525199375167e-05,-0.0011170924535689704,-0.002040444343874669,-0.002533733421262463,-0.0024307963182042362,-0.001767153763467672,-0.0007564669815569771,0.0003087139250281442,0.001176089989605689,0.0017130684536050074,0.0019186180626884978,0.0018810606566486998,0.0017174037883618959,0.0015234279552584784,0.0013441920454587528,0.0011628936431536483,0.0009078180598027885,0.00048138439338501647,-0.00018990942941278562,-0.0011001129445435342,-0.0021303329584261518,-0.003061905369077666,-0.0036411913200556007,-0.0036731608440002013,-0.0031020422428458764,-0.0020404270886420573,-0.0007322878110491177,0.0005337774795140528,0.00152334023284683,0.0021260399093035263,0.0023701269122715384,0.002379984854881597,0.002299194944339736,0.0022150738148900796,0.002117900866540611,0.0019116256186419622,0.001470832458144744,0.0007196434521880506,-0.00030267237474548695,-0.0014236515582251755,-0.002384655572999764,-0.0029390638000802703,-0.0029556751331060787,-0.0024713645670159726,-0.0016623368088559717,-0.0007517755678256126,8.927473122314147e-05,0.000790077793217062,0.0013580303608831694,0.0018153372662019131,0.002146603035041184,0.002292589865029669,0.0021864620280451943,0.001799554654321941,0.001163318174735406,0.00035700430778417094,-0.00052416337171867,-0.0013957889705874464,-0.0021900039992051048,-0.002841343239684769,-0.0032682951988104716,-0.0033699862004106795,-0.003050113825860781,-0.002264484268661313,-0.0010704610888712933,0.0003534340167346497,0.0017410062252091168,0.0028205599876601956,0.003410249539972295,0.0034787185896095942,0.0031397900470571042,0.002585438441888969,0.0019934615050173662,0.0014568228728899203,0.0009663566158980727,0.0004481036586449662,-0.000170914499026897,-0.0009049691706927269,-0.0016869703556984343,-0.0023870490119492025,-0.002858513885729943,-0.002987304830190808,-0.0027240507981671196,-0.0020906845116867054,-0.001168531633471177,-8.26520040108508e-05,0.0010075879695873031,0.0019159529302975888,0.0024507527879747285,0.0024630289542305808,0.0019143040063031953,0.0009320328489729992,-0.0001896321834706181,-0.0010698981117887713,-0.001388077788505581,-0.0010377971965015336,-0.00020719339941113388,0.0006744231779337602,0.0011185636301806006,0.00080864373735076,-0.0002368533808478696,-0.0016573106753339046,-0.0029060806114743257,-0.0034915431737459197,-0.0031840900834611235,-0.0020935473236500354,-0.0005924558199993117,0.0008625555749543236,0.0019176995611721083,0.0024348664866858123,0.002496679299948322,0.0023232642261326146,0.0021511879452453383,0.002127581226353985,0.002256672760698952,0.002413634730705088,0.0024166851281999455,0.0021248939510800104,0.0015142175314704549,0.0006907987862535591,-0.00016753422031706415,-0.0009086431486014291,-0.0014841066487706318,-0.001959426577706522,-0.0024487042925735642,-0.003013648897463695,-0.0035913714467226267,-0.00399994400332482,-0.004023069266300128,-0.003525607655246718,-0.0025331138696053374,-0.0012324331018697748,0.00010201302517030126,0.001213385534298045,0.0019480208647780091,0.002289066905583664,0.002333995015910835,0.002234590519484365,0.0021285533280276,0.0020896581381517174,0.002111964938595296,0.002128465846512829,0.002051345933188605,0.0018137324268798784,0.0013940309377361612,0.0008144076762577697,0.00012080129706995503,-0.0006365984290340341,-0.0014059463481285554,-0.0021194853057150418,-0.002680400647055743,-0.0029723006648110003,-0.002897416481980472,-0.0024264794192966617,-0.0016303105966277702,-0.0006702571072383002,0.0002533231162518818,0.0009723656509998155,0.001408823522658959,0.0015911691820496517,0.0016219207145150107,0.0016134034650244302,0.0016262188606419193,0.0016434687929013161,0.0015924867638865867,0.0013969912490652192,0.0010251066813299057,0.0005042469071446239,-0.00010201137843798646,-0.0007340873373589935,-0.0013620113467915534,-0.001975959488535655,-0.0025470542441022254,-0.0029887054852033353,-0.003155525200969785,-0.0028969530551847637,-0.0021451157100495777,-0.0009855946356603577,0.0003402146534659642,0.0015169080553087276,0.0022860354904227238,0.0025576068561239404,0.0024396861495344212,0.002167355013981226,0.001967992579398799,0.0019347752481003095,0.0019754173174327924,0.0018633318874754804,0.0013665145380147813,0.0003908483826116703,-0.0009348880496749263,-0.0022810227838857056,-0.0032444609139025407,-0.003524280210832928,-0.0030571421667022116,-0.00204076489229052,-0.0008330416346150041,0.0002173383824526096,0.000917210518719404,0.0012784214570940764,0.001454991512603616,0.0016149443624234347,0.0018250924714216848,0.0020125528888338927,0.0020179537347354186,0.0017015913873143227,0.0010358671116196547,0.0001298279094893437,-0.0008246731316143335,-0.0016478123713385676,-0.002247291885934111,-0.0026302117634263186,-0.0028512643209863764,-0.002939408589085109,-0.0028565222646193544,-0.0025158104882278005,-0.0018454788526369394,-0.0008545972224358643,0.00033997697872919304,0.001540604367191562,0.002534482459044339,0.0031654484804050044,0.0033812789079423885,0.0032412622001834306,0.0028873858629902553,0.0024940702901337553,0.002211964848636653,0.002115418035430683,0.0021606307457580987,0.002168489521509548,0.0018565043784602372,0.0009397806444295239,-0.0007132044879033524,-0.0029369561278001686,-0.0052348159263053895,-0.006918447724762028,-0.007388660691568296,-0.006422931535631652,-0.004305148921226706,-0.0017111497072638214,0.0005951212500325139,0.0020903832924764037,0.002674634040784448,0.002629771269752276,0.0024036321312095868,0.002353502301901946,0.0025847362626973533,0.0029500168894497384,0.0031809672489024566,0.0030593203833214214,0.002529074567182301,0.001698680379326937,0.000751153928783748,-0.00016950702575707914,-0.0010212061338479754,-0.0018399288850988872,-0.002651597378248625,-0.0033855557360353396,-0.003857579616595872,-0.0038467420967680474,-0.003226192221774923,-0.002065451068288408,-0.0006335062336917084,0.0007072853970875526,0.0016585256800246205,0.00210719330206893,0.0021488754188185464,0.0020080897616454145,0.00190493769948369,0.0019406403737212694,0.002059406819076659,0.002100788560295473,0.0019077005589492586,0.0014261596090832792,0.0007394344456284475,1.8402814593975543e-05,-0.0005802345022674865,-0.0010042116200931124,-0.001326485640417068,-0.0016811249474250718,-0.0021538741395603364,-0.0026988492802199823,-0.003138013524164817,-0.0032467636386250428,-0.002873900873456823,-0.0020250402672778974,-0.0008648378555748343,0.00035648068694676017,0.0014059929155504035,0.0021447255152080708,0.0025458920792067307,0.0026610637125897224,0.0025685208266129737,0.0023383424798126065,0.0020253795497089293,0.0016753823333017252,0.0013223428978741203,0.0009708311429512249,0.0005803435002918072,7.700669929177088e-05,-0.000599072232338988,-0.0014329824425343939,-0.0023013529789397105,-0.002996024547742293,-0.0033015561605052165,-0.0030890849032313788,-0.0023770076867502747,-0.001326354542372785,-0.00017492579834595817,0.0008528769604072735,0.0016143452870985618,0.0020676801106852874,0.0022470689665032052,0.0022206359667912997,0.002057577704235233,0.0018136603791322134,0.0015274233996688097,0.0012153554567453262,0.0008635486271641741,0.0004262642759460648,-0.00015426259483638908,-0.0009041277727319697,-0.0017687651303688828,-0.002592022440889338,-0.0031499495500739495,-0.003236311658032759,-0.002761195274754892,-0.0018080801761890231,-0.0006130447619330341,0.0005274863200482988,0.0013742465086685304,0.001828916867927994,0.0019452394684616424,0.0018686183154962253,0.0017431761096270177,0.0016391866312772069,0.001535487196078586,0.0013538528323241185,0.001012822131842132,0.000467386380988386,-0.0002759401967065429,-0.0011559464782663774,-0.0020510283704018232,-0.002776193531514236,-0.003107061392641967,-0.0028494128268587555,-0.0019390595820735347,-0.0005193149481669893,0.0010642348383875218,0.0023750027056470037,0.0030628647625202763,0.0030187993863268533,0.002418045136294937,0.001619344423047571,0.0009701934579314095,0.0006263994356172089,0.0004892480387575626,0.00029462253217215414,-0.0002023667636531669,-0.0010586798732242773,-0.002087904247197363,-0.0029447842864082593,-0.0032960903357331715,-0.00298177349541862,-0.002085024048247821,-0.0008855404938615844,0.00026880315695649963,0.0011028667684546572,0.001504086117024662,0.0015317425100819372,0.0013562926265912713,0.001165775640767522,0.0010816222301385466,0.001114459888204613,0.0011707657990655538,0.0011023127345414164,0.0007779224185351158,0.0001520921145389631,-0.0006941564443331836,-0.0015588508032742966,-0.002176841923090758,-0.0023159051849618428,-0.0018766804070518325,-0.0009513980950081958,0.00019379647442872546,0.0012163370798324619,0.0018367896791064496,0.0019547741615910654,0.0016805966876499183,0.00126225187666557,0.0009432916700720523,0.00082697014659276,0.0008219082371571555,0.0007020098363406532,0.0002501137856260483,-0.0005942237236999351,-0.0016678894297814618,-0.0026395689265944523,-0.0031596430420524108,-0.003023718498770575,-0.0022629215859310287,-0.0011177289556647456,8.227442861477889e-05,0.0010620351629622568,0.0016929997884852193,0.0019964281262735578,0.0020750643410440443,0.00202652930756398,0.0018910314693658427,0.001653614732790252,0.0012824742633872645,0.0007668213081153626,0.0001294742752845899,-0.0005836170636564699,-0.0013165869437260654,-0.0020032597445757356,-0.002555815655928033,-0.002860777992697675,-0.0027994023530007544,-0.0022929223523658155,-0.0013536224370278866,-0.00011334746905101447,0.0011927714280438842,0.0022906069145783355,0.002958559568793187,0.0031072562083269764,0.0028071168771528457,0.0022449146488042475,0.001627081146032581,0.0010789136482335017,0.0005940832095583182,6.250167773294167e-05,-0.0006384956938927533,-0.0015401161886329164,-0.0025244697824202845,-0.003349566784151479,-0.003748595980493999,-0.003552143064074424,-0.0027672559238769473,-0.0015727003565041723,-0.000239610246310576,0.0009733749075835174,0.0018968933680849503,0.0024734488730138618,0.0027338926545035615,0.0027538162223435833,0.002613261903027876,0.0023712473011700394,0.0020572245701971524,0.0016770474499081883,0.001227058603219299,0.0007057636905376215,0.00011432375790803749,-0.0005511550961807926,-0.0012991262659313037,-0.0021187297701748074,-0.002939284859579636,-0.003606229174048646,-0.003910078281120378,-0.0036736145098485076,-0.0028552526154400175,-0.0016013772491255528,-0.0002031290339566498,0.001026924181918887,0.0018874696708627275,0.0023510136442127234,0.002523625523030975,0.0025386368917667793,0.00246279806380052,0.0022776969334245643,0.0019394299259134183,0.0014606004458158767,0.0009433045447284151,0.0005299438702803678,0.0003023574745412039,0.00020305585065815438,4.373979814290192e-05,-0.0003897286450870014,-0.0011929660761277458,-0.0022483446637500564,-0.0032445022695774617,-0.003808269344455817,-0.003680129268324202,-0.0028382552009909136,-0.0015064932344648195,-4.8259411945369025e-05,0.0011904030909492896,0.0020051323621272116,0.0023703297593156746,0.0023899596110702427,0.002208780640949445,0.0019407966920592934,0.0016462480162991633,0.001349972419198345,0.0010692434541378086,0.0008217995210134926,0.0006086701006180778,0.0003919356224833798,9.535499225801823e-05,-0.00035975078644570466,-0.000998114517014323,-0.0017473589507928954,-0.00243922931500742,-0.0028635976000981403,-0.0028539613208427963,-0.002363630293646214,-0.0014938893950392574,-0.0004588173505373045,0.0004967196935199812,0.0011871649950400175,0.0015445920336066511,0.0016233694641143485,0.0015547903803797502,0.001476017100761735,0.0014661154927075105,0.0015159549775394473,0.0015414785505500387,0.0014294195147222977,0.0010912293208422286,0.000501506104824932,-0.0002902321486962158,-0.0011707030948406895,-0.0019863277961011355,-0.0025719700675809875,-0.002784642774686291,-0.0025420737941572627,-0.001857845595955759,-0.0008564426406549395,0.0002472804279110422,0.001206452978876521,0.0018210663084766779,0.002004839082221066,0.0018078075049824073,0.0013823912860247145,0.0009103463931912233,0.0005275368951771512,0.00028018213689260144,0.00012573434173042625,-2.984845424336153e-05,-0.0002778856049951632,-0.0006568188223765479,-0.0011241709862082829,-0.001562530967589002,-0.001819992284933813,-0.0017701284721202562,-0.0013656217634173344,-0.0006615274991241262,0.00020128170491705635,0.0010437095505123678,0.0017062158656456332,0.002094084784997331,0.0021945290745094452,0.0020623606055701427,0.001783888051083139,0.001436652336636768,0.0010618902626030918,0.0006581832447953004,0.00019420092259578444,-0.0003677191040222734,-0.001045282527509474,-0.0018131350078915177,-0.002589242012769173,-0.0032389427267992014,-0.003602577388566202,-0.003543238668453407,-0.0029989172559315267,-0.0020164719578855653,-0.0007497435281761367,0.0005803629703504888,0.0017487013168404242,0.0025875608131902803,0.003026070094756393,0.0030964021307330536,0.002907034579128787,0.002592952891408285,0.0022603406869947593,0.0019465411255595068,0.0016115129188658225,0.0011650167515387265,0.0005194663239784122,-0.00035228224396522843,-0.0013784281604794868,-0.0023882519078786877,-0.0031565212575881043,-0.003479304498132012,-0.003251540719486518,-0.002512001351216294,-0.0014337951323675142,-0.00026358882568321487,0.0007629148100703817,0.0014916105453215208,0.0018788828749292715,0.001974401155494512,0.0018761171149458888,0.00168379434155967,0.0014679258634059354,0.0012549151057816108,0.0010223300587995409,0.0007044237136278484,0.00021646401271768122,-0.0004981998059643949,-0.001413038304459098,-0.0023869508472585147,-0.003185887756694586,-0.003561003576944695,-0.0033519724117889653,-0.0025631605366361263,-0.0013696263662897647,-4.6774696426759546e-05,0.0011396858209673935,0.0020251658759496975,0.002574411736897654,0.002842297795751324,0.0029034961987793174,0.002801107486047282,0.002542952788623123,0.002134762800244929,0.0016123649892341176,0.0010402899687939433,0.00047611497695721513,-6.834499063073252e-05,-0.0006323298696254388,-0.001266784485807078,-0.0019754565169010376,-0.0026792486550647294,-0.003231854451355519,-0.0034793434393569495,-0.003327194336898682,-0.002775697361162979,-0.0019087166752960792,-0.0008525070565841518,0.00026329634496195364,0.001321463407799116,0.0022141192478644348,0.002841818105218374,0.003130273803803367,0.0030598577090433987,0.002685952383321232,0.002128691479049995,0.001528764384316263,0.0009890161190319654,0.0005330341285515396,0.00010384196881176261,-0.0003955710434832368,-0.0010388725304378763,-0.0018190341199648629,-0.0026235572188182846,-0.003257386684027779,-0.003510443070036111,-0.003245157719338683,-0.0024638218519774917,-0.0013191406216623875,-5.868834794348031e-05,0.0010691484123406434,0.0018989421414751808,0.00238251215798094,0.0025667106230592225,0.0025389033857906645,0.0023755044135977997,0.002117883756555599,0.0017784167279443616,0.0013616282046738377,0.0008801833148403416,0.00035428558983961083,-0.00020062268952862546,-0.0007815167117021653,-0.0013878175997223143,-0.001996764260046858,-0.002542206807469628,-0.002916443360293419,-0.0030012292692691124,-0.0027153243014103384,-0.002054863511152264,-0.001106369825426772,-2.6710559375515194e-05,0.0010007261617582107,0.0018168110062302917,0.002327566519858235,0.0025221490545299123,0.0024613973417682753,0.002240672265481926,0.001942655610688779,0.0016025675281463978,0.001203495567906371,0.0007039308776617959,8.187048531033852e-05,-0.0006294796506008373,-0.0013349599559047745,-0.0019045912464862329,-0.0022211647982789875,-0.002224275244138519,-0.001930319691884622,-0.0014226572079605367,-0.000821056979803322,-0.00024523065570138743,0.00021649653692262707,0.0005279698753411929,0.000711432679426193,0.0008339473354354431,0.0009720710151441183,0.0011645539414041253,0.0013763736383810318,0.001499339018920313,0.0013974619533826172,0.0009778592895764064,0.0002496176548699605,-0.0006618794225589483,-0.0015524050511691997,-0.002207743126277653,-0.0024711727043676885,-0.002284214085545099,-0.0016933650611461785,-0.0008306339675025313,0.00012061254376085804,0.0009683433111038831,0.0015607768783761535,0.001832861708344813,0.0018296304011827746,0.0016839484666469938,0.0015457824033251418,0.0014926651652375695,0.0014723870992894763,0.0013192304268548525,0.0008459281734233875,-3.239167556000149e-05,-0.0012107100197564038,-0.002398754969353061,-0.003227367518508935,-0.003409599500025019,-0.0028742672553557433,-0.0017997322951520999,-0.0005295637207796108,0.0005820672481158273,0.001311342788612811,0.0016242010571710552,0.0016395329884988877,0.0015339136006614486,0.00144590012284524,0.0014221707088008678,0.0014158320350632458,0.0013225810715008562,0.0010328058362169324,0.0004818352739839695,-0.00031348428555755085,-0.0012411033161796707,-0.002111279057589768,-0.002708379156917314,-0.002866028046737313,-0.0025361627972484454,-0.0018146506094333342,-0.0009026756811712462,-1.9665350049496858e-05,0.0006850879347715616,0.001174204894059228,0.0015010089863691154,0.0017482718972884994,0.001968541779918093,0.0021569411090175813,0.002261332278972265,0.0022140231972014074,0.0019637505953419418,0.0014937380651754485,0.0008233353714529787,3.224321799750497e-07,-0.0009059802070074159,-0.0018054381247971823,-0.0025857394274433655,-0.003119883504507204,-0.0032910417703044233,-0.003031293098754678,-0.0023572203602463776,-0.0013813489882560795,-0.0002884639637893385,0.0007163146492377961,0.001466894982845187,0.0018799024039601586,0.001968153591541141,0.0018225223811168736,0.0015719629295572772,0.001336991907027309,0.0011914283962047966,0.0011422441519144538,0.0011304717597859432,0.001050339900536413,0.0007818320556285256,0.0002328755391204009,-0.0006140649266283518,-0.0016643061537026187,-0.0027051830879105954,-0.003453049156294797,-0.003650915560044027,-0.003179857022526846,-0.0021262865746338993,-0.000761756935122959,0.0005617319173282823,0.0015500254770236849,0.00207070299405582,0.0021770389327032858,0.0020503744701060324,0.0018972325698618595,0.001852505055820173,0.00193044268018573,0.0020391194048125717,0.0020431604853582263,0.0018370339503486811,0.0013890508022749968,0.0007373920330065408,-4.814161952178633e-05,-0.000903536278245606,-0.0017776383060138874,-0.0026079604134970633,-0.0032931460270507118,-0.003695822914382077,-0.0036869992011046133,-0.003209397377271744,-0.002318932868574322,-0.0011759804900579706,8.627093801336257e-06,0.0010406051957526483,0.001788839268242073,0.0021994546586440104,0.002287107004344961,0.0021189526857520284,0.0017979771123518152,0.0014427164171439198,0.0011593509766362608,0.0010086434882711898,0.0009783248681088182,0.0009764018720478296,0.0008585763716761488,0.0004902286568744818,-0.00017780829681269031,-0.0010582177455592924,-0.0019369951106650322,-0.0025511124797834633,-0.0027002460922788667,-0.0023344308257867126,-0.001571122498490769,-0.0006359843719666491,0.00023646257684175953,0.0008900913809944606,0.001284897585929759,0.0014779223337135253,0.0015663007527933787,0.0016239558353738945,0.0016616779670080755,0.0016267506520849708,0.001438201117375482,0.0010365354374081157,0.0004218305354714505,-0.0003367000886328566,-0.001120327939278602,-0.0017972172779603121,-0.002258773119442486,-0.002442569928021527,-0.002336511845504695,-0.0019678568156389553,-0.0013871473601082345,-0.0006577381090505095,0.00014451229110914071,0.0009266011089721801,0.0015806855103554338,0.002002669182837628,0.0021246857411630566,0.0019456542983143869,0.0015390119604324743,0.0010259057346546072,0.0005224800792918989,8.919980052714174e-05,-0.0002864331101685711,-0.0006608276853791167,-0.0010759232439137667,-0.0015090197839219524,-0.0018639270845980883,-0.0020098066232796126,-0.0018442067058973212,-0.0013444882683396058,-0.0005832499582609095,0.00029373785587713183,0.0011122957120602934,0.0017200958845525758,0.0020297105898794097,0.002043757386901627,0.001850827223044035,0.0015854744989151329,0.0013609311880762873,0.001203901898084528,0.0010308230055210224,0.0006897069199806277,5.3862617500730244e-05,-0.0008826615080391373,-0.0019651801829087454,-0.00292148595733588,-0.00346841656633677,-0.003428378626767575,-0.00280004426612042,-0.0017541372616954236,-0.0005627724574051416,0.0005014943394602784,0.0012541111368909485,0.0016434844401376006,0.0017416074819481052,0.0016898675222805962,0.0016257637745997794,0.0016233798185272493,0.0016727083237671584,0.0017011971217524994,0.0016174353003738028,0.0013484317086607145,0.0008550847439890003,0.00013354627286478525,-0.0007784408174445945,-0.0017833662805809994,-0.0027118111308766096,-0.0033457670839486565,-0.003488633766583072,-0.00305502460436641,-0.002126347473466046,-0.0009288001607667973,0.0002624884299097811,0.001238808379303642,0.0019240185231934048,0.002357604165489458,0.002618105928449175,0.0027467572800825074,0.0027222028222166034,0.0024944919563026262,0.0020441922242143773,0.0014191918170912057,0.0007222016986800137,5.792916197541048e-05,-0.0005243674171614005,-0.0010543439781645618,-0.0016113305724045968,-0.0022544626267779555,-0.0029506665284077514,-0.003546968271828165,-0.0038152032929469675,-0.0035572283856324842,-0.002717855122373004,-0.0014387663770140118,-1.483394352979955e-05,0.0012288475191332313,0.0020720999062919486,0.002473033410334004,0.002545282535606688,0.002462860449811019,0.002355045755704584,0.002251348161506371,0.0020992712653361153,0.0018313043019999517,0.0014306534174263461,0.0009518931122139993,0.00048596594638236905,9.606198223162968e-05,-0.00023136465189333937,-0.0005866369260929155,-0.0010835296629667962,-0.0017785099195039907,-0.002605266302967501,-0.0033641800398748435,-0.0037838512988228896,-0.00363626212191226,-0.00285335003613783,-0.001581421399222941,-0.00013508030732560614,0.0011337779026218914,0.001985124158024698,0.002377523351486283,0.0024475166242883214,0.002400436468299357,0.0023823431279552027,0.002408744667021475,0.002384759234379114,0.0021919063316136207,0.0017780053523271033,0.001192241480236733,0.0005498176388082235,-4.206400165229405e-05,-0.000544673349507212,-0.0009979091532407035,-0.001478310299234078,-0.0020327789208743354,-0.002626040227285488,-0.003130974812401967,-0.003370623450047584,-0.0031967887596653327,-0.00257032534797127,-0.0016011827497630865,-0.0005197388945329317,0.0004156932780965082,0.0010320747878556028,0.0013138784455418596,0.0013908373044247964,0.0014459795047621674,0.001597579281155696,0.001825599406973003,0.0019865510428841316,0.0019076066584536246,0.0015042557060041507,0.0008523268635507492,0.00017022183458429482,-0.00028429756823227133,-0.00035106544224018513,-6.357006081340627e-05,0.0003549139612314372,0.0006027031051283417,0.0004631912717940079,-7.157253978471237e-05,-0.0007911725436696319,-0.0013778435122369162,-0.0015714288816244659,-0.0012920356627844761,-0.0006577156496821705,9.676292428777728e-05,0.0007394016162567526,0.0011290511192791324,0.001234939164911688,0.0010968410361849564,0.0007663606556824831,0.0002715479166346818,-0.000376314782692778,-0.0011456827084252426,-0.001948472696744158,-0.002633896326199442,-0.0030232105167298483,-0.002972361346601866,-0.0024330856651896254,-0.0014822513089718904,-0.00030373593737804613,0.0008714264802614697,0.0018428451416140968,0.002504275938191395,0.0028641904203632797,0.0030117357306425267,0.0030438479410968685,0.0029941937091167237,0.002807902637635362,0.002379421578306755,0.0016296603132168732,0.0005728883416930594,-0.0006672178494349357,-0.0018975885692985208,-0.0029227164537789013,-0.003599600051416092,-0.0038586941501383785,-0.003695398632311904,-0.003151888881803704,-0.0023051869505210393,-0.0012627809618874564,-0.00015636336062694383,0.0008748595322083186,0.0017103668380294209,0.002273794628601648,0.0025455310355855013,0.002557143279798927,0.002372660368375779,0.002067076240821735,0.0017086748496875333,0.0013441884140699312,0.0009843921178581464,0.0005956540528250042,0.00011098601560904204,-0.0005307968516463568,-0.0013292565040694299,-0.0021820690753917857,-0.0028938581558062113,-0.0032424321250382722,-0.0030740719889465785,-0.002377968982553724,-0.001299463773841703,-8.547130253014053e-05,0.001008862653871919,0.0018059826025639098,0.002246284784093171,0.002372107355313031,0.0022743441016733475,0.0020369594101121327,0.0017089819290540087,0.0013108511077229773,0.0008579377487217513,0.0003750383288591058,-0.00011232479324656806,-0.0005999757212619794,-0.001113819053654238,-0.0016846734454766348,-0.0022968505472887733,-0.0028473410816126856,-0.003156265870200404,-0.003039106321937339,-0.0024067231149026095,-0.0013336391939143923,-4.889705090456648e-05,0.001151309362570207,0.0020238119088483338,0.002467668334476812,0.0025382005495427945,0.002386164663233025,0.002164201892150297,0.0019562420912448294,0.0017634530153453943,0.0015398245116253933,0.0012408483744088426,0.0008492927638831855,0.0003686874814419145,-0.00019501273934601163,-0.0008344203946020336,-0.0015150804389899534,-0.0021454755154183425,-0.0025790984250767934,-0.002665820514130408,-0.0023304025875351265,-0.0016287399525031143,-0.0007408257554941367,0.00010155154220001803,0.0007129345734760665,0.001023586927234323,0.0010855915780897942,0.0010206614888917207,0.0009463077920873781,0.0009216399825381621,0.0009337427756468812,0.0009188661363889821,0.0007980583936976299,0.0005093652520692633,2.98186252190743e-05,-0.0006116139539159781,-0.0013294562681687631,-0.001990091833487959,-0.0024389254244473703,-0.0025439332570888215,-0.0022398463325019897,-0.001551339802561206,-0.0005836039799422184,0.0005116764673523202,0.0015739387439458613,0.0024583896227294982,0.003047761085803913,0.0032639954708792583,0.0030890725441345035,0.002586512516297804,0.001899592522956775,0.001206830866789044,0.0006431255046407978,0.00022787220922070852,-0.00014883657905514277,-0.0006588676377484951,-0.0014160840509225793,-0.0023726669001616517,-0.0032998813854684802,-0.003876054182979132,-0.003840465956424784,-0.0031290255819742276,-0.0019146105088806125,-0.0005292559696856342,0.0006866852588676346,0.0015240436760708667,0.0019607209609084067,0.0021148784492087836,0.0021365166434248453,0.002109575134799282,0.002021369332851411,0.0018064634675758226,0.0014222130928694227,0.0008969021561694808,0.0003176434260198902,-0.00022762822050000162,-0.0007064896720211718,-0.0011521696098931618,-0.0016182763010823302,-0.0021106699563361252,-0.0025475408739864588,-0.0027803114880160466,-0.0026653971055222996,-0.002141316648778866,-0.0012633966666144656,-0.00017964607177162716,0.0009296161235141419,0.00190878365840906,0.002654331940673252,0.003112963160405135,0.0032681988699318635,0.003131853524641773,0.0027443607996881503,0.002176363976866106,0.0015206490682225812,0.0008692515980267621,0.000281771737362918,-0.00023881340329658617,-0.0007444072689724577,-0.0013060783764605225,-0.001956690102114588,-0.0026431704626186502,-0.003222190675797729,-0.003511830574909154,-0.0033770841572027567,-0.002802087581246332,-0.0019060467733161635,-0.0008924391140350983,3.895603358695319e-05,0.000766879693278581,0.0012715558331058507,0.0016019179898346912,0.0018170990803634383,0.0019432440319870218,0.0019699841328261734,0.00188018909942052,0.0016835879468731644,0.0014242853547307083,0.0011532990238796994,0.0008854071789881957,0.000575497146071899,0.00014068633224260837,-0.00047593096346880095,-0.0012365522071886713,-0.001982756092492625,-0.0024797406105550586,-0.002516958937648964,-0.002015010151198355,-0.0010799982988246033,2.7894876352366964e-05,0.0009992347981415495,0.0016015972957207328,0.0017647076561308588,0.001586077081161841,0.0012624195741705402,0.0009884418093258841,0.0008735344023556172,0.0009084117231150906,0.0009847152655514937,0.000949424126082389,0.0006696229132533258,8.68744417943032e-05,-0.0007535168069615554,-0.0017069548244369424,-0.0025677697921971518,-0.0031300299438907775,-0.0032506534166630405,-0.0028927813464042986,-0.002134042217705928,-0.001136917720379789,-9.299093233524551e-05,0.0008362217898534501,0.0015580888877781182,0.002054043195869515,0.0023542072305626546,0.002498154581430656,0.002503547457941239,0.0023589322707901757,0.0020423464508852176,0.001550563395303787,0.0009166617751880115,0.00020333734986098344,-0.0005208561243706152,-0.0012018387911478818,-0.0018006581325504872,-0.0022760260313439908,-0.0025668923491730944,-0.0025954213268323213,-0.002296785838419426,-0.0016621765495635505,-0.0007692753684232621,0.00022193581671904313,0.0011131578942984212,0.0017358508467626313,0.002013549159271765,0.001987881712582673,0.0017918904105673336,0.0015785559332651329,0.0014366198468123014,0.001336910627760754,0.0011418139636568568,0.0006805774529441643,-0.0001424883086827706,-0.0012625060587822061,-0.002442060464645706,-0.003349287982609462,-0.0036935487666537245,-0.003350490008669902,-0.002410882947471239,-0.0011305071952597049,0.00018484804121163875,0.0012921808721228399,0.0020667672744856002,0.0024905212671015443,0.0026063526800924183,0.0024813577086552716,0.002196410744807653,0.001845943194933917,0.0015199778345331403,0.0012605393559895184,0.001018543229858682,0.000654289993245735,5.302660550849964e-06,-0.00100158798602032,-0.0022581054061532636,-0.0034685923438318358,-0.004252041732833612,-0.004308674006092859,-0.003564208809034336,-0.002212819976298188,-0.0006347442334774514,0.0007674146466306988,0.001728437277522019,0.0021980893318811197,0.0023069284722291392,0.002252274970603076,0.0021765104762665015,0.002106557742003922,0.0019796743093528813,0.0017243894274589103,0.0013326413332122463,0.0008709574165874571,0.0004262504159188913,3.200420637530224e-05,-0.00036299199019392014,-0.0008518492330772541,-0.0014776729967300826,-0.002158132281449521,-0.0026859703889102323,-0.0028158372940946036,-0.0023910408817161737,-0.0014381758583455724,-0.00017695141605845793,0.0010600870999789855,0.0019579813911712656,0.0023384818319966095,0.0022141598296709893,0.001754966783632793,0.0011871588940053101,0.000679676215242632,0.00027989396049909717,-6.975845870136992e-05,-0.0004542912948503437,-0.000905691097971029,-0.001374369764048762,-0.0017655908791141314,-0.002005150638666921,-0.002080108137643172,-0.0020253617747838185,-0.0018731802551067364,-0.0016115668844089628,-0.0011868393527187573,-0.0005487181137811808,0.0002955115866314032,0.0012555476361638005,0.002178037477771271,0.002900044014525304,0.00330631641534416,0.003362510215897475,0.0031138057245370205,0.0026575911147957154,0.0021071738925855445,0.0015587897480205007,0.0010655942975972255,0.0006202088017533943,0.00015289249867349568,-0.0004434987872443761,-0.0012579431629959573,-0.0022904693530885166,-0.0034011701973341636,-0.0043178618818425,-0.004719915415167838,-0.004375235923519783,-0.0032688375920464354,-0.0016508486629518279,3.7230256613091705e-05,0.0013373444855519464,0.0019702675891260647,0.0019504052516579715,0.0015555038841165406,0.001164819692979728,0.0010544361932374397,0.0012633254171410316,0.001600237818914285,0.001775978570226805,0.0015735553669719493,0.0009563172969192728,6.52835314800418e-05,-0.0008691793157248504,-0.0016319594694260988,-0.0020847570897967625,-0.0021710812415614263,-0.001892002544983809,-0.0012879191402628883,-0.0004398901888276118,0.000522753155454151,0.0014316236294591987,0.0021167437742121925,0.0024618549164251618,0.002450660526670244,0.0021759652043829496,0.0017992469492663708,0.0014735464496684508,0.0012650510028192545,0.0011154107854797863,0.0008710674992252422,0.00037221946326650656,-0.0004418222545837583,-0.0014710389076930256,-0.0024797899314893436,-0.003203846468597904,-0.0034826464600118236,-0.0033381751583278513,-0.0029487336484180977,-0.0025287813237290977,-0.0021872903862254762,-0.0018567544124179838,-0.0013457329340181038,-0.0004882944906766867,0.0007065159102393751,0.002010744551494808,0.0030771079190094865,0.003619779615880312,0.0035560192464015724,0.00301822786240228,0.002240587455512567,0.001410397843996054,0.0005891502667906992,-0.0002521561090976839,-0.0011246628618976214,-0.0019305729148722242,-0.0024624400480110125,-0.002499530353798208,-0.0019400342082999955,-0.0008837010311955327,0.00038793475566754974,0.0015230470506556442,0.002240881921325677,0.002431416701963971,0.0021720030533411575,0.0016655672309767678,0.0011392180002298099,0.0007507987744294037,0.0005372180129362379,0.00041597602311346,0.0002328801781051593,-0.0001620683448553704,-0.0008361717999820648,-0.0017238407200757771,-0.0026319338876584983,-0.003307424664128044,-0.0035413736182333217,-0.003257473139200305,-0.002536532496820704,-0.0015644448834121285,-0.0005384945756767526,0.00040885108002305514,0.001226863168790783,0.00190760837323779,0.002432596174810155,0.002750013452623482,0.00279782683144389,0.0025506658998344783,0.002051331263755067,0.0014010465222388116,0.0007137751581738272,6.562402690534234e-05,-0.0005266041885379389,-0.0010837580473372055,-0.0016148033023189925,-0.002074272437581152,-0.0023591529757764616,-0.0023534787760998476,-0.0019968095484927924,-0.0013335023104066577,-0.000507916758288442,0.00029612856858730863,0.0009362360840350621,0.0013629787720499818,0.001613171045733163,0.0017568485763776874,0.001839569567885891,0.0018582443644501664,0.0017784624827839718,0.001570694749162143,0.0012344757270792556,0.0007954820843747531,0.0002840620485318151,-0.00028302690549760276,-0.0009003763582531417,-0.0015506573042050257,-0.002177074103694255,-0.002674699253955248,-0.0029142213571231,-0.002791152734380508,-0.0022759056929111156,-0.0014378611836929126,-0.00043065163061963295,0.0005543732597026537,0.0013465280385241691,0.0018442458765438546,0.0020378204971630964,0.0019998649893587794,0.001847256457007348,0.001688114431433595,0.001573415413909722,0.0014724086487722255,0.001283943043177659,0.0008839339564327411,0.00019469204567686268,-0.0007517337125779488,-0.0017898318333969265,-0.0026598442454425215,-0.0031045338855690474,-0.0029825052055691683,-0.0023378531426455312,-0.001382389838952979,-0.0003953966051943583,0.0004031493362774071,0.0009333687169665934,0.0012494549012789253,0.0014631257419223474,0.0016538648143979101,0.0018216539761162706,0.0019011524316376411,0.0018150506224501907,0.0015259638322379062,0.0010567518157458004,0.0004749101240529675,-0.00014131182708315682,-0.0007307113409798171,-0.001255586732951976,-0.0016886298650661206,-0.0019955333856140783,-0.0021295991118632437,-0.002043566919662387,-0.001710817240744917,-0.0011434357535276534,-0.0003992400615511246,0.0004236853141179449,0.0012038037462179336,0.0018224821024679073,0.0021946068349812083,0.0022923688134981277,0.002149381650228804,0.0018398341681823273,0.001441506721428043,0.0010023107448544697,0.0005283134196947492,-2.7170716228942012e-06,-0.0006133506539211131,-0.00129991306306197,-0.002016954547703278,-0.0026754171041919513,-0.0031556779380688604,-0.003336006848182837,-0.003130580268143774,-0.0025226643850332323,-0.0015778654601245052,-0.0004317941188926224,0.0007421960003113692,0.0017740993008985083,0.0025358954225852227,0.002967612618365728,0.0030830713358144385,0.0029530945827131363,0.0026717031883695644,0.002317172538781537,0.0019222371161983702,0.0014656148149604677,0.0008904904090488947,0.0001453558225721878,-0.0007686008022782355,-0.001766314390402328,-0.002683710257488014,-0.0033236651876389087,-0.0035266101729941744,-0.0032331390328786827,-0.0025072805710761726,-0.0015098991784630112,-0.0004391474309371824,0.0005302850600112138,0.0012843175402282108,0.0017778306282214505,0.002023997935808472,0.0020758979960116557,0.0020051632328321224,0.0018781613126820995,0.0017325162939247872,0.0015617805744674396,0.0013171471385109408,0.0009291586869631006,0.00034259342239109734,-0.0004492203216073956,-0.001384374773903188,-0.0023347519896664637,-0.00313145019808241,-0.0036067375254515864,-0.003640094762144731,-0.0031934398656735404,-0.0023238902957000143,-0.0011704678836489408,8.03513252006895e-05,0.0012398146064090038,0.0021598052569300067,0.0027605394992787757,0.0030347527840013087,0.003030146795081583,0.002822109127948736,0.0024905373517414,0.0021054738773060443,0.001715123779650426,0.0013296187896892693,0.0009070051007244928,0.00036102782399810823,-0.00039409853806289476,-0.0013722807161029352,-0.002457297248608828,-0.0034045346611513276,-0.003921313228344257,-0.0037954038325254463,-0.003004799319014342,-0.001745257110475936,-0.00035626579801529656,0.0008168615793028935,0.001553541772011589,0.0018188710414221239,0.0017346546392797398,0.0014879709135544761,0.0012325545565634532,0.0010337168461585504,0.0008752962915191812,0.0007076414088626039,0.0004947162036063401,0.0002295964978685914,-7.994402594767061e-05,-0.00042835583141578426,-0.0008071980605776504,-0.0011807827258140011,-0.0014702052785261625,-0.0015708984309730472,-0.0014005163022181185,-0.0009462826496129998,-0.00027934363000223174,0.000471821756010831,0.0011694194803402893,0.0017076907147810824,0.0020311190074177574,0.002130125720483331,0.0020245271983493065,0.0017454266323448085,0.0013221783010684913,0.0007768984895390725,0.00012672659714593176,-0.0006064958649772684,-0.0013808563599997106,-0.002119611333929046,-0.0027085991081667077,-0.0030166290098464954,-0.0029387629024082663,-0.00244587464388517,-0.001613383197989813,-0.0006080062018448895,0.00036672027938693813,0.0011411337781008612,0.0016317721409877504,0.0018524154028968652,0.0018846306658797751,0.0018281559247806324,0.0017562592951619457,0.0016920580441070507,0.0016078958086251675,0.001441172853805484,0.00111963593720432,0.0005918995840312567,-0.00014202177552045147,-0.0010105502174735242,-0.0018735188834715939,-0.002554218182432778,-0.00289232409390355,-0.0027974766114952625,-0.002281508665088062,-0.0014563553177169043,-0.0004986566342355249,0.00040564642099916984,0.001116549268716968,0.0015746455153667432,0.0018021172647790602,0.0018714420804395316,0.001859175622082145,0.001809054115422694,0.0017199531646551938,0.0015562459931568401,0.0012662368090980841,0.0007982310375345084,0.00011684725478774963,-0.0007721644452312131,-0.001791146291612299,-0.002774494054092187,-0.003493362736021058,-0.0037277120993284697,-0.003358350280501787,-0.0024296039193945924,-0.001143418804042527,0.00021628553469657085,0.0013901827815187102,0.0022267255254724335,0.002704895782690327,0.0028960689101192177,0.002896707923992925,0.0027729876784509575,0.0025426569634664064,0.0021917963722936475,0.0017037767962872555,0.0010768828566616849,0.0003234086287620758,-0.0005378714176622742,-0.001477817777428991,-0.002435829270672993,-0.003297055393976109,-0.003895523166981656,-0.004059706239269437,-0.003686627676260536,-0.002803357398468748,-0.0015749170403818423,-0.0002485875274428578,0.0009358159312010689,0.0018212457491725022,0.0023597296809717556,0.0025888386185913665,0.0025855482679489764,0.0024290447311245407,0.0021859785021650334,0.0019090798779229402,0.0016319514827800013,0.001354304134653795,0.0010306983232965263,0.0005832105055704579,-5.489867781670668e-05,-0.0008825148107576258,-0.0017956185704050527,-0.0026022314083940594,-0.0030890301965892787,-0.0031102116755046304,-0.0026528380555717814,-0.0018429771650300929,-0.0008895409599165296,2.282777885438019e-06,0.0007019221648054612,0.0011769899863015134,0.0014681034037233086,0.0016387556851511155,0.0017314260404579212,0.0017508885694595246,0.0016766838608681196,0.001490002115947072,0.0011942890776388709,0.0008162002835214564,0.000389016034134036,-6.606178540095447e-05,-0.0005436016544483223,-0.0010370909491589661,-0.0015127712950182444,-0.0018948993928211521,-0.0020783229408345713,-0.0019683378810442936,-0.0015307838322589813,-0.0008264716270089128,-7.742227135971443e-06,0.000729171409172723,0.0012196032148573544,0.001398656097161595,0.0013249613297454394,0.0011426164821175808,0.000997222061117466,0.0009501484746810448,0.0009406001692556757,0.0008213743691350912,0.00045186596392328264,-0.0002045297252059407,-0.0010369253953077613,-0.0018241588048822483,-0.0023313424231292683,-0.002411443541490787,-0.0020592859996074815,-0.0013967395456790281,-0.00060675361213896,0.00014315313629606285,0.0007511633223189836,0.0011915929776568591,0.0014952867079338133,0.0017182047835848017,0.001910303267259204,0.002088621636967835,0.0022183482862797683,0.0022111952891137954,0.0019510187962852262,0.0013457735129617453,0.0003875031242970194,-0.0008096427410579188,-0.002019531336675727,-0.0029681429835672134,-0.003429440770092246,-0.003310080798227161,-0.002680831669016373,-0.0017385970480733664,-0.0007206692507771506,0.00018229297689440166,0.0008729710298908286,0.001341437510057172,0.0016253104320402688,0.0017675939293968891,0.0017944747343195807,0.0017148518435109988,0.0015277158758098986,0.0012238181242844154,0.0007828006353933015,0.0001808895292361246,-0.0005794028432697773,-0.001428391124327201,-0.002209741041960547,-0.002712746899588913,-0.0027550552957003004,-0.002274684012787155,-0.0013744867408750896,-0.0002866020048575052,0.0007264989920388486,0.0014788365799666581,0.0019178592117878152,0.0021073025173707466,0.00215651164466585,0.0021439116321021546,0.0020778147334450515,0.0019085879312512556,0.0015734497305209983,0.0010399293672057645,0.00032387348963812857,-0.0005181243908811952,-0.0014044733518437757,-0.002236927473611464,-0.00290173187004971,-0.003276686697091414,-0.003255377956824445,-0.002785745069659176,-0.0019058225405777613,-0.0007552128293804603,0.00045065452754848535,0.0014794468960643548,0.002153123266940869,0.0024026515185165236,0.002283115057737563,0.0019424681924456338,0.0015566586821382756,0.0012577582280999334,0.001084196599843146,0.0009723810171150219,0.0007917370831613668,0.00040852116332420704,-0.00024576069173642935,-0.001126194830401709,-0.002065960578084924,-0.002817136718912623,-0.003134682750852715,-0.0028759301125829417,-0.0020711266335274236,-0.000925246538815508,0.00025714374855260216,0.0011906299634099195,0.0017142154767333013,0.0018351230190401969,0.0016967551326194485,0.0014928568578137585,0.001371074237933388,0.001368895085283263,0.0014072707200750746,0.0013406126822330456,0.0010366640713751402,0.00044674728875086973,-0.0003664534631533172,-0.001252339933450265,-0.00202836889772806,-0.002536662855332261,-0.002678130551895524,-0.002422214268011303,-0.001805269994436958,-0.0009274980697640636,5.6236593853778525e-05,0.0009641806875337591,0.0016363510136024346,0.001985970253204211,0.0020245589312378066,0.0018425053927938642,0.0015539399712167932,0.0012380593299640872,0.0009107621186366787,0.0005391222214790135,8.34187214205951e-05,-0.00046239605562643077,-0.001053621716636605,-0.0016044221942473126,-0.0020131004745697774,-0.002189540208502351,-0.002077105492683306,-0.0016672485427480731,-0.0010067695015798638,-0.00019632283068108367,0.0006224760824538043,0.0012933840284797065,0.001684207564246033,0.0017303783932260722,0.0014675854245095135,0.0010329316969359713,0.0006212201814280525,0.00040426551961009926,0.00044660146083226235,0.0006624962844112994,0.0008445102148738343,0.0007580474452070382,0.0002598700008221652,-0.0006171316227250806,-0.0016565152375870446,-0.002535265696718074,-0.00295160520511326,-0.002745686119035852,-0.0019594258946268373,-0.0008118890961800342,0.0003935965438328357,0.0013850301307069407,0.0020084299412847072,0.0022522806504193813,0.0022090813068686445,0.002003876730651403,0.001731727169075875,0.0014331812113231178,0.0011082364741784945,0.0007451192647465554,0.0003370199919632067,-0.00012208992573997332,-0.0006483579389032617,-0.001262767279662077,-0.001960102992759989,-0.0026680982475719324,-0.0032302003939003615,-0.0034391635576300683,-0.00311943567114094,-0.002221842087131511,-0.0008776311605090351,0.000626043717891377,0.0019464420660388108,0.0028152403025509766,0.00313322871834231,0.002983715436559817,0.002564506033041667,0.0020816091383935166,0.0016616263671899,0.0013195234766650407,0.0009831061558507818,0.000549650979323463,-5.5106012522271384e-05,-0.0008360087555035279,-0.0017140950310999097,-0.002539895836248183,-0.0031311709378157564,-0.0033264362206076826,-0.003038832262533741,-0.00229119526230198,-0.0012173129607255782,-2.6128942768360603e-05,0.0010599102575684638,0.0018701847777788823,0.0023297920014273507,0.002464715503472952,0.002368411295606805,0.0021487401180274052,0.001882133695947717,0.001593414626013302,0.001262318925435851,0.0008453060665856181,0.0003007761012111613,-0.00038743142985216844,-0.0011895506924154819,-0.0020175902911601187,-0.0027322013954833523,-0.0031766463393155665,-0.0032305111400560624,-0.0028586888659882783,-0.0021282101959673046,-0.001182445607369111,-0.0001876177140815703,0.0007185396456643675,0.001451953418962047,0.0019776136080887686,0.0022905068843614824,0.0024015347041695606,0.002336437230508228,0.0021399195176245263,0.001870419989110405,0.0015783295393974593,0.0012760621986043926,0.0009208570720391066,0.0004306836697501443,-0.00026326094317480266,-0.0011502482212796482,-0.0021011427233215752,-0.0028911956085613884,-0.003284381876975971,-0.0031382640295023936,-0.0024712466913014946,-0.0014554251026130478,-0.0003431619789816475,0.000628658521924778,0.001309161452321325,0.0016559576663853848,0.001716556416261175,0.0015904925715048202,0.00139048770995135,0.0012096637040289974,0.0010949359598347985,0.0010292476589190518,0.0009323953157556028,0.0006911130151936215,0.00021674705088712122,-0.000491703892693832,-0.001314527712558614,-0.0020352661649869837,-0.002419692943857968,-0.0023151554210420226,-0.0017213922733090006,-0.0007978507030444123,0.00019531971189113166,0.0009952180142907632,0.0014315706352420973,0.0014816891020189593,0.0012641699653824557,0.0009754791554287076,0.000798073524496357,0.0008208895593515759,0.001005502003306754,0.0012084761828676433,0.001245534259578613,0.0009682525184976936,0.000323743452679543,-0.0006210605700165756,-0.0016939449465256382,-0.0026625365852342067,-0.003296101887671467,-0.003428469477203393,-0.003006001278687151,-0.002105491386617262,-0.0009131738779705472,0.00033046341411285655,0.0014001692148795622,0.0021433076139070325,0.0025063743822039786,0.0025282670669750013,0.002311140799750311,0.0019823773956413344,0.0016563505451081643,0.0014008977381738405,0.001215250277232027,0.0010296693664401905,0.0007344034062793992,0.00023349505768630887,-0.0004971527001431072,-0.0013769236769300796,-0.0022348211537912403,-0.0028697380367058035,-0.0031287360437754195,-0.0029627298548296445,-0.002431102750051166,-0.00165802809346655,-0.0007726631205387067,0.00012864633781399634,0.000981707949046434,0.0017304433878177353,0.002310323004191592,0.0026585304851331217,0.0027428984682482376,0.002583118829993074,0.002243261633018458,0.0017978992073847562,0.0012941888697228236,0.0007335661704736771,8.219026705168957e-05,-0.0006962622371703393,-0.001599296150711572,-0.0025520747982394378,-0.0033998403431235776,-0.003940725720840066,-0.003996288394829265,-0.0034915493750532415,-0.002501709390394421,-0.0012352179970864829,4.207681183069853e-05,0.0011029341129176868,0.001826483376557429,0.002209280738669515,0.002325718161006254,0.0022705871367531493,0.002120444500527587,0.0019308448754986633,0.0017569046153998943,0.0016653507092895857,0.0017121383151459653,0.0018891153111682522,0.0020764347247485106,0.0020489911467805088,0.0015612917128582696,0.0004850355026715456,-0.0010729286538797012,-0.0027531629573436757,-0.0040621042204414745,-0.00458210571413481,-0.004165321783906931,-0.003003813113666894,-0.0015365499740628338,-0.0002457144388397244,0.0005492380765515783,0.0008004713563445325,0.000704039993725363,0.0005661106287794457,0.0006379814340479251,0.000997975330001484,0.0015268182355115986,0.0019761596794985545,0.0020894884790537576,0.001717200566449338,0.0008779779746131627,-0.0002508967264695653,-0.0013984202451336734,-0.0022858587663857513,-0.0027029886846129734,-0.0025585650599592724,-0.0018997297625299877,-0.0008967721362729887,0.00020805122481312797,0.0011763844583312845,0.0018459182215718882,0.0021660636973035207,0.0021827046266724914,0.0019877716204704556,0.0016684088156329003,0.001283718920222797,0.0008711784797820034,0.0004619106994530534,8.263209267737092e-05,-0.0002585413662772469,-0.0005841264998260778,-0.000935976704565774,-0.0013383358606692127,-0.0017578822545658262,-0.0020930991443031273,-0.002209695552516165,-0.002007413458302406,-0.001479269203003364,-0.0007261611483963338,8.261927607128988e-05,0.0007794308830788302,0.0012602247116990908,0.001509888245747435,0.0015861507797345943,0.0015767551380665287,0.0015512512686106125,0.0015254493416296377,0.001450366966551537,0.0012314927113453748,0.0007759096523968414,5.189564597093727e-05,-0.0008671414303011634,-0.0018032896295846952,-0.002529015741483954,-0.0028546271621551506,-0.0027044577979823603,-0.0021424632667751044,-0.0013367995669584685,-0.00048580054299080005,0.00025622315366819723,0.0008213843236521226,0.0012263893993843488,0.0015341529428894497,0.0018002761165111024,0.0020310882178882204,0.0021750488837412535,0.0021532500604522975,0.0019123564996914976,0.0014670710156914181,0.000902176224647364,0.00032850486906419097,-0.00018093110839855083,-0.0006310136968792866,-0.0010891481417508546,-0.001619548922346105,-0.0022097591326551832,-0.0027422554582471597,-0.003036766427769141,-0.0029417412468968,-0.0024197161503580165,-0.0015748708688575423,-0.0006079737770451663,0.000272664351367004,0.0009338709966764389,0.0013536548338222486,0.001601047068929603,0.0017802320840210335,0.001972352039002164,0.002201130506136174,0.0024303371681800444,0.0025847914292807784,0.002579686197584058,0.0023457508898069228,0.0018455680263308252,0.0010829565981177246,0.00010823936043370024,-0.0009817407720984364,-0.0020531404458974437,-0.0029565671000550057,-0.003557560793397257,-0.003768562090196916,-0.0035723288692809576,-0.0030267789055851944,-0.002246046144435547,-0.0013631215899886548,-0.0004903440357690676,0.00030378356926633824,0.0009927407483501073,0.0015715844404407355,0.0020344541525151778,0.002364968899251015,0.002543391130389399,0.002561708767916688,0.0024323886575024324,0.002182075443756194,0.0018334457421596076,0.001388117572356939,0.0008246988610599543,0.00011794939800103903,-0.0007282178249333617,-0.001652133198749093,-0.0025296906582903548,-0.0032021856130485978,-0.003527214328440595,-0.0034286922639861737,-0.0029209559654364064,-0.002096050963598737,-0.0010842792520048485,-1.2471295640861862e-05,0.0010173126812764938,0.0019231211357922024,0.0026278930753475408,0.0030577199726818734,0.0031653465154438793,0.002965456114056213,0.00255084261973006,0.0020656059878502303,0.0016404122311498928,0.0013244749401236586,0.0010564021930481312,0.0006950771896210667,9.676801729748778e-05,-0.0008011130301878818,-0.0019309972554170617,-0.0031023358633182584,-0.00405906345423501,-0.004561731015065485,-0.00446352664377699,-0.003756441036751817,-0.0025761063000115294,-0.0011656002670676771,0.0001919382712121608,0.001253880171944928,0.0018873853937332124,0.002101761256243553,0.0020277153378733476,0.0018484887693278962,0.0017124039785569368,0.0016688815208273917,0.001659314874549416,0.0015643119513678988,0.0012781866688326158,0.0007700484148112298,0.00010436265848625848,-0.0005798926013244876,-0.0011132908703547378,-0.001343917010365555,-0.0011803751941701468,-0.0006275823922108322,0.00019276881873887624,0.0010553321277769873,0.0016926063979097014,0.0018941397194685025,0.0015998045551143755,0.0009322765573368781,0.00014197489219094277,-0.0005094173752929747,-0.0008619085019363628,-0.0009069640883949588,-0.0007586213607909557,-0.0005785286186678769,-0.0005051312901865888,-0.000618081250539043,-0.000935287704775286,-0.0014203761574267371,-0.001984196125958487,-0.002484830759002227,-0.0027456604482468225,-0.0026055446389807346,-0.00199024702809702,-0.0009678888241011315,0.0002528498295591745,0.0013950175886385014,0.002225098759930389,0.0026443804228100144,0.0027098351639338906,0.0025769081990036913,0.002402665400764941,0.002266657139186689,0.0021485643361643498,0.001962247143979202,0.0016140454071924563,0.0010490657517742425,0.0002696084956153093,-0.000666607942574223,-0.0016538464775308125,-0.0025474774000726116,-0.0031835226984102843,-0.0034164955169987796,-0.003168654862826325,-0.0024683475455687066,-0.0014532974115901804,-0.0003303161895702022,0.0006931291546927831,0.0014733277050619786,0.0019606240908175013,0.0021856198956106423,0.0022164138809335635,0.002115786940813668,0.001920943925042918,0.001647428534294926,0.0013001590947135846,0.0008743927124135496,0.0003479279743877819,-0.00031573581275234626,-0.0011364396317591614,-0.002067880395374173,-0.0029660802956152123,-0.003612892291062661,-0.0037983203787738235,-0.0034208021535179433,-0.002544361743222213,-0.0013747385134477029,-0.00016824125244448021,0.0008710495165246046,0.0016485977283231762,0.0021708822498430003,0.0024941815572034256,0.0026720965002616725,0.0027301065675874618,0.002669621537199073,0.002486708056684286,0.0021887194120675437,0.001799376150258459,0.0013513640002039656,0.0008714684407239342,0.0003664783217887296,-0.00018106604575725488,-0.0008006798079186622,-0.001505975956302778,-0.0022624753758681863,-0.0029708617541135403,-0.0034825237780714445,-0.00364792927800534,-0.0033772769088801762,-0.002682375380090282,-0.0016780924993556319,-0.0005445694476124527,0.0005293192937013764,0.0013967380635725411,0.0019818591995095273,0.0022822646072589874,0.0023489274738535057,0.002254604993313753,0.002064790330518592,0.0018223761052297725,0.0015485677390339625,0.0012537161614561447,0.0009475198285086018,0.0006397716957219065,0.00032977244273443314,-7.383429240350749e-06,-0.00042182251182151884,-0.0009643782906184214,-0.0016405543416441852,-0.0023687263737812757,-0.002977022464844736,-0.003256398492471201,-0.003051897068041829,-0.00234462365944839,-0.0012766109485143028,-0.0001012579890179255,0.0009169832845955293,0.001604028009964138,0.001930986658607249,0.00200029210681901,0.0019752175428097993,0.0019907668324868726,0.002089904299422149,0.0022135943704190307,0.002244564991726644,0.00207699847458695,0.0016714316358560106,0.0010644653736721125,0.0003328724677840161,-0.0004567487060489227,-0.0012717828370396173,-0.002091728411453299,-0.0028602035057757897,-0.0034555055243777138,-0.0037145530734297282,-0.003506034729593915,-0.0028095050265210353,-0.0017480408652840909,-0.0005505783683475836,0.0005351722201466416,0.0013305091584725048,0.0017719217845622408,0.0019034701390333575,0.0018324866245068982,0.0016775266073817598,0.0015306628965426473,0.0014401860757245668,0.001406902803253509,0.0013858214798831256,0.0012935530480234023,0.001029725483093087,0.0005177382918360917,-0.0002444835761336272,-0.0011490467091496144,-0.00198626092846567,-0.002507576989892588,-0.0025241590594457944,-0.001996619997908981,-0.0010682944171220635,-1.825492397490873e-05,0.0008499696809407967,0.0013333043224518586,0.001406942145413731,0.0012162567168029984,0.0009875936283687955,0.0009044919094295148,0.0010126340475471068,0.0011999012535477396,0.0012579632195047151,0.0009913272945713796,0.00031942104299858144,-0.0006749303311062793,-0.0017686203649468547,-0.002677919570337523,-0.0031579785561810557,-0.0030825933092541117,-0.0024777477136801993,-0.0015027855235441596,-0.0003916718790575342,0.0006222185270598421,0.0013728030067962276,0.0018002300934623454,0.0019519902305420078,0.0019466424877570027,0.0019122845421328596,0.0019228727001044299,0.0019598443617216393,0.0019181854731367932,0.001656187375308419,0.0010667481636103889,0.0001377529629552656,-0.0010243774837552404,-0.002215421116315403,-0.0031871929157669013,-0.0037141068297117073,-0.003653348858341097,-0.002985471574851454,-0.001827142555447026,-0.00041078936728741424,0.0009698529810896897,0.002039972982705189,0.0026272565577744674,0.002715422083007516,0.0024388242399375386,0.002013890480352145,0.0016363762676307953,0.0013936689668501015,0.0012343536200704953,0.0010072838639787834,0.000548094075936472,-0.00022878688952708987,-0.0012726647273320643,-0.002395651321355266,-0.003327518122411908,-0.0038066994898350707,-0.0036756936661349955,-0.0029448162895833567,-0.00179538132697771,-0.0005151841122096485,0.000609647693344486,0.0013981615585136286,0.001825119224502813,0.00199732169396134,0.0020732307211475853,0.0021709970455219135,0.0023119103089672224,0.002423874672461971,0.00239665566996951,0.002154433542753831,0.0017035722035838824,0.0011275001353578174,0.0005304412792787803,-3.598664698364098e-05,-0.0006129282100171016,-0.0013051350099013265,-0.002189401413877598,-0.003214576372592879,-0.004164219457483454,-0.004721993958906461,-0.004616104885521926,-0.0037638138834172243,-0.0023295655971820248,-0.0006589312144653346,0.0008749494059278327,0.002024395943133774,0.0027366693805186016,0.0031128083689016244,0.0032965175391760624,0.0033695436689667128,0.0033148593999534075,0.0030588869629106876,0.0025542378167243336,0.0018443631599770066,0.001067889883853845,0.0003984042565415408,-4.771760219538651e-05,-0.0002840990192531309,-0.00046265258890806573,-0.0008019644633914799,-0.0014632015832709024,-0.0024363318803170835,-0.003504048108541348,-0.004314966793561104,-0.004537264492148809,-0.004014647895876966,-0.0028414079019825904,-0.0013181318694879126,0.0001833349977960017,0.0013705160611295454,0.002122007821904281,0.0024869877747252696,0.002610553858553788,0.0026350072488997935,0.0026290036672249363,0.0025742475769035913,0.002406842687788916,0.0020821567399764204,0.0016207978117749426,0.0011055879187580287,0.0006302145052203066,0.00023262893421088782,-0.0001401609215537173,-0.00060544363775859,-0.001264277488791879,-0.002112367334134727,-0.0029991081435696556,-0.003667764746810351,-0.0038633054507132046,-0.0034529433488121428,-0.002494064796521056,-0.0012126045463659056,9.476282468564318e-05,0.0011799113264226533,0.0019217078650850521,0.002330196634297118,0.0024887081096404617,0.002479654645312978,0.0023418506481937837,0.0020787174896612637,0.001698073372993304,0.0012425772933861207,0.0007808831579954429,0.0003646213701385334,-1.2250184620483397e-05,-0.00041309105087907394,-0.0009085892407202261,-0.0015077369427236916,-0.0021184942085489913,-0.0025698268059936007,-0.002686810329593572,-0.00237591089261419,-0.001671987180460993,-0.0007242455329897887,0.00026458674649947587,0.0011091623085390137,0.0016897224501237294,0.0019661196277249017,0.001966083259821849,0.0017626834873962682,0.0014503546284385465,0.0011206603030287587,0.0008367714031161581,0.0006109475936578462,0.0003965012072384052,0.00010637446426673254,-0.00034025918830777425,-0.0009604847359024485,-0.0016706665312799219,-0.0022981489176037715,-0.0026454048122753968,-0.002577793770801568,-0.0020876610745190387,-0.0012983364308399464,-0.00040634163195218823,0.0004042228465484729,0.0010280891784547738,0.001455162433191844,0.0017378471186988253,0.0019369729866021584,0.002081070738122655,0.0021600617381140365,0.0021489393711580243,0.0020355047680288628,0.0018245444217007492,0.0015130132746897277,0.0010611204829839005,0.0003962810818736481,-0.0005340681932293279,-0.001686322718065275,-0.0028766642444956374,-0.003816032488937262,-0.00422426075954129,-0.003967222963215325,-0.0031344023245482118,-0.0020014489982763776,-0.0008914706035945879,-1.568819692947211e-05,0.0006092908786499275,0.0011189793468163653,0.0016668537122294445,0.002291338893918384,0.0028727244892778167,0.003205729129928837,0.0031358214213784534,0.0026674201275058837,0.0019734398921319625,0.0013003804557973782,0.0008278358823576296,0.0005670156267616914,0.0003577322985875754,-3.430318934143233e-05,-0.0007736485829562415,-0.0018424501731638546,-0.003019017586666035,-0.003960536711852534,-0.004350430701504386,-0.004038427228860012,-0.003104654129547733,-0.0018174447995630773,-0.0005090491513448508,0.0005652006050001591,0.0013136133204573442,0.001803223208129793,0.0021765425226819325,0.0025426291641386964,0.0029033568224395077,0.003152153346385331,0.003141710184124642,0.0027800411681736803,0.002098633446425496,0.001250645950714772,0.00043597859876432963,-0.0002056426400436945,-0.0006690546185897789,-0.0010765311844206892,-0.0015886280263203599,-0.002284395660761571,-0.003083772718130053,-0.003761124008626596,-0.004044633067009575,-0.0037463353110004215,-0.0028529613389398356,-0.0015345418969554617,-7.481149735767212e-05,0.0012354996233076918,0.002192065497127948,0.0027223940638333196,0.002875237212013575,0.002769760422997857,0.002533135602126835,0.0022540564226166894,0.0019667108338136943,0.0016627045184776385,0.0013165813592108128,0.0009087750546744014,0.00043625826417913,-8.95560016841478e-05,-0.0006507645715100565,-0.001227255993675381,-0.0017912048044598202,-0.0022943476568937186,-0.002659944138766107,-0.0027934865202893355,-0.0026160915045103923,-0.002106637297791105,-0.0013269104489188536,-0.00041036712025285273,0.0004825022219241019,0.001217397300294427,0.0017192963917414161,0.0019733993753303118,0.0020049064549224702,0.0018590002798979724,0.0015930322325841246,0.0012742818319619112,0.0009676099768449363,0.0007079128268688249,0.00047343964207189086,0.00018682606403318648,-0.00024238604350868692,-0.0008499371024232826,-0.0015644408059191216,-0.0022097964091387437,-0.00257175588980515,-0.0024968480757529454,-0.0019680498208803944,-0.0011139994707329139,-0.000149717311984013,0.0007133267561030114,0.0013388654655446008,0.0016903524121039918,0.0018105386821366406,0.0017785769675601028,0.0016691288635438497,0.0015276828753662305,0.001363861973700315,0.0011569585728213798,0.0008672593852661332,0.0004507358205187894,-0.00012138302611514366,-0.0008378864050482952,-0.00162527238070401,-0.0023437242012352014,-0.0028153481431787463,-0.0028822646786374356,-0.0024711364979453955,-0.001631976500734177,-0.0005304457468121293,0.0006037348873948519,0.0015493723628092876,0.0021575106219400815,0.002383608039878724,0.0022811159591634997,0.001964596312402551,0.0015588737535972808,0.0011520156531755503,0.0007676789254131851,0.00036748904431927994,-0.00011557226122115808,-0.0007255765373603996,-0.0014378090640170822,-0.002143173646150333,-0.0026747616079794475,-0.002867899119365633,-0.0026266468788587057,-0.001964550705843492,-0.0010004489586683254,8.519353666820142e-05,0.0011077709963097488,0.0019223411599210139,0.0024419629927674475,0.0026371624844669355,0.0025293838718694105,0.002184054292651443,0.0016990365683227668,0.0011823789187830791,0.0007204596093377342,0.0003472497760109263,3.0430249939532522e-05,-0.00031317667637254876,-0.0007724257563253553,-0.0013836430377436892,-0.002089015757312481,-0.002738488341498404,-0.003140759808316205,-0.0031406903561561946,-0.002684323337263795,-0.0018401134482750542,-0.0007701531804894018,0.0003292642698814593,0.0012877951740996709,0.001998962876837726,0.002428617912153907,0.002600022476113649,0.0025673686948102276,0.00238927408791094,0.002111017508964399,0.0017601947772282727,0.0013544842049692876,0.0009132758602889162,0.00046138984443026615,1.809340013935655e-05,-0.0004220641870713616,-0.0008974799929223809,-0.0014586411220628,-0.0021194324327297818,-0.0028083072964338917,-0.0033584821465283965,-0.003558424443374377,-0.003245486544663067,-0.0023939486343123604,-0.0011472349796884187,0.00022647224560200046,0.001434944201825403,0.0022698234761164412,0.0026705915195576876,0.002717960938778937,0.0025670474584484995,0.002359649814802471,0.002161221752190726,0.0019506422551456713,0.001660590992484134,0.0012389302105879636,0.0006910984498937717,7.705074173905359e-05,-0.0005321978909931175,-0.0011033584564845741,-0.0016540032605893548,-0.0022149740236430005,-0.0027677493918401262,-0.003206896594177917,-0.003364828343939404,-0.0030931268638909925,-0.0023530166223279247,-0.0012580339488119361,-4.06646459311767e-05,0.0010398513855516844,0.0017993107198362311,0.0021889441568465886,0.0022886547651876964,0.0022432479081071787,0.0021796679476537057,0.0021494379311510006,0.0021222733276863464,0.0020251412573947455,0.001795415580561841,0.0014130912912252538,0.0008964570535564306,0.0002737809835005791,-0.00043955830659656784,-0.0012352549737804411,-0.002078936974029791,-0.0028760041589701193,-0.0034692506989627793,-0.0036833213459837723,-0.0034001649297846857,-0.002625728952912176,-0.0015072960962157762,-0.0002856583483361406,0.0007965865862327147,0.0015828225422746273,0.0020408526040756004,0.002237471259482098,0.0022733768468502415,0.0022226144517592094,0.002109748026432362,0.0019266931895469874,0.001663900207095515,0.0013263216865187517,0.0009234292206938485,0.0004476049433570061,-0.00013299671282425375,-0.0008508257840381568,-0.001692558727334942,-0.0025598342481121094,-0.0032701712352931566,-0.003610849656415678,-0.0034259422715951955,-0.0026927023740519157,-0.0015447749634905905,-0.00022698443377641838,0.0009962627105629032,0.0019324296283979472,0.002508676833354832,0.00276003091941933,0.0027754112064713485,0.0026384824473691983,0.0023961449266719295,0.0020645862520588206,0.0016561476047093583,0.0011970924576173792,0.0007168375305469254,0.00021733912390885267,-0.0003448178348387234,-0.0010341214627383006,-0.0018725974388845933,-0.0027780631203595516,-0.003555823550729766,-0.0039648181883641205,-0.0038273263084559034,-0.0031178839512734013,-0.0019786530912343473,-0.0006561027323964191,0.0005987634660500583,0.0016100472313966192,0.0023031788371505953,0.0026830112886965653,0.0027945100015285954,0.0026952015899405,0.00244726699963275,0.002116445909074342,0.0017616091288237346,0.0014130760189951306,0.0010544676193125814,0.0006269023903743218,6.26184810500769e-05,-0.0006642390760440823,-0.0014971910608661276,-0.0022957560628006305,-0.002882629209117126,-0.003119213100748909,-0.0029659760751114417,-0.002489192996403832,-0.0018107844805451282,-0.001039090914975102,-0.00023176703775423064,0.0005859777665958831,0.0013717759926561413,0.0020352687929465598,0.0024590595979690206,0.0025597830478431764,0.0023432740521019827,0.0019104309796524337,0.0014057082862813353,0.0009405575571086711,0.0005410099285149508,0.000151820929817321,-0.00030766321461921526,-0.0008726770248908041,-0.0014905722011678566,-0.0020301139575625,-0.0023351925829248887,-0.0022931476879372893,-0.001883896036597478,-0.0011888135922909016,-0.0003588868557908322,0.00044030044403017637,0.001081208931992795,0.0015035145926209615,0.0017119826406281867,0.0017499951571743133,0.001664996405255712,0.0014827869469438502,0.0012009862200687716,0.0008021384209481776,0.0002779093216726934,-0.0003493545842618251,-0.0010201471443948079,-0.001650089372828882,-0.0021525370066289044,-0.0024566211939201906,-0.0025116837290421316,-0.0022834330279983533,-0.0017570960984977138,-0.0009571424907500251,2.632368314564544e-05,0.0010313303140946691,0.0018607303958411477,0.002356566054331906,0.0024736010331620362,0.0023023962198441914,0.00201691431654628,0.0017692695619795683,0.0015932837393809168,0.0013803748724392,0.0009509233793617397,0.00018476365370004733,-0.0008669646339674535,-0.0019617472155581315,-0.002759399822680729,-0.002983123109162265,-0.0025583280334851243,-0.0016504540584415402,-0.0005821213448035326,0.000320541270635731,0.0008668185306585805,0.001056870196301666,0.0010371596884354247,0.000991352020829857,0.0010279985263523615,0.001120357935146749,0.001124832789964125,0.0008666842761929287,0.0002496926225497749,-0.0006665571222890321,-0.0016645530096065756,-0.0024480383094113707,-0.002765628109493606,-0.002516673813711091,-0.0017861229722642342,-0.000794317534050797,0.00020646184998379972,0.0010319693678962159,0.0016148323401378975,0.0019884003762840182,0.0022269792162787723,0.002380817669595591,0.002438817447274682,0.0023329920994348877,0.001977997797757051,0.0013248585876861022,0.0004038995549211845,-0.000662668823362826,-0.001686169057531167,-0.00246765414378722,-0.002863783137793718,-0.0028340913651850866,-0.00244663302187614,-0.001837543010073954,-0.0011443212287924366,-0.0004487199463236848,0.00023874935964993702,0.0009448083395089474,0.0016727399440163006,0.002355345123773713,0.0028537688318755108,0.0030058524691164985,0.00269788094296026,0.001921746608921928,0.0007903958181348264,-0.0004927690899085575,-0.001694801125071197,-0.002619256836752918,-0.0031534294046135364,-0.0032818278642912416,-0.003064604902036118,-0.00259381050294093,-0.0019497112979239913,-0.0011789988108094275,-0.0003047675780791549,0.0006408878657846907,0.0015860306808881384,0.002414289619222074,0.0029943568209302605,0.003229383884483529,0.0030998119224813275,0.002676553569680237,0.0020951612061652237,0.0014981810816934093,0.0009685353286711639,0.00048712221542872357,-5.608943509181517e-05,-0.000792373941735891,-0.001776250030358723,-0.002912973628255567,-0.003957756469025151,-0.004596006230582183,-0.0045696910374023805,-0.0037897640762643405,-0.0023818825361062316,-0.0006463522221237974,0.0010466444390453652,0.0023796250841717,0.0031793606954104107,0.0034467219052339145,0.00332120154600209,0.0030014180643425288,0.0026575812518679397,0.0023716188619395855,0.002125708984384434,0.0018370090874185417,0.001416024709786942,0.0008176049197409609,6.070845105746917e-05,-0.0007878385803768039,-0.0016495947090063975,-0.0024642900812517883,-0.003193144093935136,-0.003795644566533041,-0.004200658140957065,-0.00430014302500387,-0.003980651383487882,-0.0031815682417287786,-0.0019478662762570961,-0.00044444219808168546,0.0010809930695839848,0.0023726511498172575,0.0032468407368342203,0.0036433390522720484,0.003627447726785091,0.0033451549561129947,0.002955109284129596,0.002569646385247029,0.00222855850682649,0.001909655917792837,0.0015613841232087373,0.0011349658663133359,0.0006002170155718678,-5.471386658654207e-05,-0.0008261693459886987,-0.0016877073818562954,-0.002574419544448267,-0.003374894804598269,-0.003947048038404667,-0.004158433981345732,-0.003932936385631509,-0.0032795823166223677,-0.002290548389325563,-0.001113992060130301,8.221805324463874e-05,0.0011433734117425533,0.001954308880786675,0.0024594291314382786,0.0026714919009333364,0.0026606631373076086,0.0025221836697104155,0.00233503198704585,0.0021326030210891645,0.0019006881823903738,0.0016012985617111588,0.0012053058556711791,0.0007131704217250387,0.0001530636431657335,-0.0004375475452659801,-0.0010286488141466113,-0.0015964495662627678,-0.0021043044637247222,-0.0024849170158523217,-0.0026470979407192414,-0.0025127787398574178,-0.002063697501763761,-0.0013649313940286316,-0.0005459414703358977,0.00025095520521827876,0.0009223495558555293,0.0014243248232954256,0.0017534739277797582,0.0019084665741711342,0.0018659221700276958,0.0015926697753023127,0.001087279320563621,0.00041857384876449856,-0.00027332357136390824,-0.0008246527217663344,-0.001121933589779529,-0.0011576082014911543,-0.001029141673232066,-0.0008776464654869241,-0.0008030168516573542,-0.0008095596554629012,-0.0008144072481730408,-0.0007069566022305034,-0.0004161288379333492,5.4061105996673674e-05,0.0006301726897771012,0.0011986685027577295,0.001637697054784006,0.0018449056562039154,0.0017662282398043902,0.0014238393592234814,0.000924384016453934,0.000424649640990853,5.608337415072707e-05,-0.00015176175521959925,-0.00029169624636362864,-0.0005155081379978854,-0.0009194114464698056,-0.0014551201612898834,-0.0019323101088706475,-0.002116886563642756,-0.0018633611586676433,-0.0011978496498044437,-0.00030437241939786433,0.0005689243037629316,0.0012220741098747144,0.0015728338813996445,0.0016579513556747392,0.0015814397685049613,0.0014464447206736408,0.001304797382924518,0.0011423249221147109,0.0008996717027294889,0.0005137403271216294,-4.233220721264674e-05,-0.0007388945438066574,-0.0014939838899046655,-0.002193510521993905,-0.0027160082421754475,-0.0029570377889656363,-0.002853115005735613,-0.0024012393441857475,-0.0016641698619712703,-0.0007544380254518861,0.00019781715702868116,0.0010780061455172218,0.0018075838161955055,0.0023486256028845843,0.002697703764928586,0.0028748460088150376,0.0029100159607314277,0.0028288133740994284,0.0026411410266622155,0.002336826293120811,0.0018891535967866617,0.0012646493044186028,0.00043816003816174324,-0.0005862411790565101,-0.0017507687072672268,-0.002926029570848601,-0.003916473341585434,-0.004501797195496776,-0.004508906448449642,-0.0038860941972073,-0.0027402532325185745,-0.0013113390370875124,0.00010881732430087402,0.0012748784498094407,0.002056740703493065,0.0024512968085919924,0.0025425257754495686,0.002440048783038729,0.0022305929412448624,0.001961351624855711,0.0016504438989994878,0.0013034938607847809,0.0009178931788152468,0.0004746718848056546,-6.421418311601881e-05,-0.0007346634818958583,-0.0015261165031971626,-0.002340221206812508,-0.0029883825450555557,-0.0032467715337008065,-0.002951600334334516,-0.0020875637940962807,-0.0008197988548587247,0.0005529331647844116,0.0017057227861877848,