-7.482001337239975e-05,0.01088827460655192,0.019546454190985038,0.02438634656051495,0.025137251057333894,0.02269699931831662,0.018609447108215407,0.01437748256624859,0.010942005336556586,0.008524396824291472,0.006815187845399041,0.005328984402863165,0.003712913906878252,0.0018791207124319734,-4.2817071814116835e-05,-0.0018465106772838904,-0.003375621269800998,-0.004572422509488937,-0.005449193042794036,-0.006030497986596426,-0.006319149605221587,-0.00630677140534681,-0.006009600240009686,-0.005491757921928587,-0.004852941930471831,-0.004190566203709406,-0.003569481870994329,-0.003025878076699769,-0.0026003011474349975,-0.0023637591104876867,-0.002398400039199479,-0.002727637706790464,-0.003238104929493396,-0.003660061367353655,-0.0036485446876609326,-0.0029433339351876996,-0.0015232014207925224,0.00034352639410124754,0.002197064544520936,0.0035890528175464716,0.004281097880718474,0.00433215405870575,0.004034277995229355,0.0037416110541339796,0.0036898249892097362,0.003897330968815854,0.004186757164956858,0.004300313351234205,0.004040149123684701,0.0033615522862128337,0.002378770268327159,0.001291673535324952,0.0002819241932225569,-0.0005607125249757882,-0.001243975638346169,-0.001816811539162045,-0.0022960179344318136,-0.002629213360116853,-0.0027202408517279474,-0.0024989555514536976,-0.0019871847725671347,-0.0013161029410130257,-0.0006817976516539535,-0.00026227856729532043,-0.0001392952068012118,-0.0002647382503556091,-0.0004889714692188022,-0.0006378657306145346,-0.0006000793872513641,-0.00037956348065472075,-8.601381027213782e-05,0.00013028742750477267,0.0001620651158635326,1.415167025604555e-07,-0.0002695517606228926,-0.000521625608529073,-0.0006624140212417202,-0.0006718187811691912,-0.000593224026496279,-0.00048562609269404023,-0.00037632046480588245,-0.0002470535829512577,-5.8153311294690787e-05,0.00021259585365157152,0.0005464543086735418,0.0008899261577661568,0.0011816220626772646,0.00137807914949554,0.0014620587700281337,0.001432738949275663,0.0012906256511177848,0.0010325229495897368,0.0006632793324462805,0.00021674683939276154,-0.0002327669145666799,-0.0005860076510143717,-0.0007615947975078993,-0.0007427005057807469,-0.0005929269082275875,-0.0004225444771366871,-0.0003221475353941424,-0.0003087850637850664,-0.00032360820630002065,-0.0002818913203458933,-0.00013716073231445202,8.64630890754412e-05,0.00031180800622326394,0.00045668682947187984,0.00047565905405818005,0.00037066354651102895,0.00017252922864695617,-8.495773972161575e-05,-0.0003767665435882978,-0.0006785418042484304,-0.0009510264050396701,-0.0011351711759997815,-0.0011666914984506307,-0.001003103357470979,-0.0006472707651175112,-0.0001546524292016262,0.0003787864584305783,0.0008432375335865696,0.0011482533681609422,0.0012524984613682386,0.0011781730049012294,0.0010006427981748896,0.0008141058713127072,0.0006880607676426165,0.0006367059143697942,0.000617272123128699,0.0005564993390122337,0.00038808995800828,7.971897777783081e-05,-0.00036083162629866423,-0.0008939764013495089,-0.0014565513304836029,-0.0019628149515302255,-0.0023060088948555066,-0.0023753089812489697,-0.0020932739036510937,-0.001458868169419151,-0.0005683244173350492,0.00040578130492838297,0.00127124713220537,0.0018790581859395483,0.002160026200735401,0.0021233431917440566,0.0018309339881873716,0.001371597960220681,0.0008473452580050699,0.00036489828407154537,1.7928850548016304e-05,-0.0001429535726119723,-0.0001370311823086238,-5.442128589772948e-05,-2.0217014646423776e-05,-0.00013403470142663016,-0.00041537897074522915,-0.0007856700660000528,-0.0010996099823930533,-0.0012126837637167266,-0.0010524088846214196,-0.0006578565420674224,-0.00016623592194149275,0.0002490820153803697,0.0004593842281055523,0.00043895644462333414,0.0002701422934624034,9.303667823842051e-05,2.8263387529574345e-05,0.00011491290091178593,0.0002947477107127375,0.0004466659388064737,0.00044955484482457793,0.00024097378879062484,-0.00015379264771152984,-0.0006305062117309664,-0.0010442706029211032,-0.0012603349376361088,-0.0011996798262068882,-0.000865276788435237,-0.000340423265175971,0.0002414766440395279,0.0007456632118025029,0.0010838095673979988,0.0012396629270694961,0.0012607897300789441,0.0012212350995041959,0.0011745744790383,0.001121662535108026,0.001009956010758409,0.0007653595350371046,0.00034075279792629496,-0.00024418402000214994,-0.0008941340550771064,-0.0014670809270459434,-0.001827485422532669,-0.0018971700697560342,-0.0016799907880457067,-0.001252024438122542,-0.0007265940701155435,-0.00021275868123715562,0.00021567499664533127,0.0005317557110454724,0.00074776519642094,0.0008951218718558111,0.0010018747601883617,0.0010772082091821127,0.001107569296093259,0.0010627951051464584,0.0009076695074884577,0.0006160187769248619,0.00018639346834521664,-0.0003440887903410351,-0.0008961739396426155,-0.0013638164985575925,-0.0016480973030668037,-0.0016957277707399148,-0.0015203983134229816,-0.0011914187122019323,-0.0007929117482684265,-0.00037705088650922234,5.808192920476137e-05,0.0005490766080065108,0.001116768412870462,0.0017181345805440812,0.0022350234193882564,0.002512286905813869,0.0024276283826145644,0.001955867078739601,0.0011917860590279668,0.00031662954236862074,-0.00047686310413886236,-0.001062427551530785,-0.0014195470811537974,-0.0016138879819320934,-0.0017340179757824193,-0.0018259589252947455,-0.0018659658688331587,-0.0017839410822033507,-0.0015162616772791651,-0.0010516661663954648,-0.00044469488073751843,0.00020452978878998592,0.0007868549520330889,0.0012169778728969593,0.0014517330310499666,0.0014927907799279023,0.0013771736078295295,0.0011597328608895922,0.0008929697355238167,0.0006114215954692967,0.0003270419423920634,3.713433259885696e-05,-0.0002599222294819327,-0.0005497434843774079,-0.0007961083429513765,-0.0009489302570418927,-0.0009646177067093539,-0.0008297588692957278,-0.0005739084425772416,-0.00026057906246004456,4.16042544742843e-05,0.0002913351076858791,0.0004901035889176199,0.0006701675508147239,0.0008618334649030217,0.001059640809392639,0.0012076718613493373,0.0012140440138670486,0.000990624052098209,0.0005022331584733552,-0.0001969742090709766,-0.0009612662887016708,-0.0015949254206190935,-0.00192602232512862,-0.0018792758237383767,-0.0015087155442378155,-0.0009690237217492527,-0.000439044632864496,-3.9726138904689365e-05,0.00020859836965345547,0.0003701503435311089,0.000535241050976335,0.0007582196170950361,0.0010268541955840587,0.0012737425197703782,0.0014139554507773913,0.0013822340429222037,0.001151745821486884,0.000734266683850727,0.0001735297489090582,-0.000458586823654121,-0.0010646641291058331,-0.0015329316414240642,-0.0017632011087696056,-0.0017009562987566028,-0.0013623494972867427,-0.0008340585387363749,-0.0002450755744728562,0.00027706071266650814,0.0006461154239813821,0.0008379945923979221,0.0008874034941313373,0.0008639303017535174,0.0008371704236974516,0.0008447276708278663,0.0008774791477885418,0.0008895784757947103,0.0008271102413775877,0.0006575278417899522,0.00038218331460569856,2.809384140304056e-05,-0.0003683740149942245,-0.0007691423658355732,-0.0011291966701311939,-0.001390966118449948,-0.001494199437383431,-0.0014030717665078469,-0.0011332727427629805,-0.0007555385439595036,-0.00036582149486123923,-3.723751741783928e-05,0.00021417364997351724,0.0004244792710733135,0.0006402025428617643,0.000870904887342349,0.0010724506767535828,0.0011742901602833375,0.001129888835596632,0.0009512359090549176,0.0007008877505422894,0.00044828290706192583,0.00022443990478852134,9.375734633752513e-06,-0.0002392759066046174,-0.0005391328682839709,-0.0008533990714563334,-0.0011011464416703347,-0.0012004649345167936,-0.0011141099869888997,-0.0008673772737483643,-0.0005297673704598705,-0.0001771821655948563,0.00013877935699579136,0.00039773101401475275,0.000596231285206189,0.0007291361419027788,0.0007834105007404947,0.0007483766516676638,0.0006312365666773588,0.0004617959273247997,0.0002796927355326129,0.00011290523398976263,-3.538181201339654e-05,-0.00018037802052228106,-0.0003340056848738237,-0.000484699635215469,-0.0005948285781012145,-0.0006185479145117574,-0.0005277973919216767,-0.0003292527988402053,-6.29575730688994e-05,0.00021382225222975164,0.0004464419931660844,0.0005969106991425025,0.0006493201310971721,0.0006090142756438321,0.0004979324854562259,0.0003460387957647386,0.00017889515908054994,5.8401388758484414e-06,-0.00018296486132656008,-0.0004052655471665982,-0.0006653128715108805,-0.0009352303666011863,-0.001152780934061773,-0.0012405774184334104,-0.0011390906234714287,-0.0008366539493749935,-0.0003800412048309154,0.0001401748501521839,0.0006210726782064374,0.0009795797154623011,0.0011726613282313602,0.001201777949186141,0.0011046718235078535,0.0009396238470215999,0.0007672234418061327,0.0006342204083627074,0.0005625520620673811,0.0005441579814305982,0.0005409267080203069,0.0004907141926058969,0.00032266406334884783,-1.655196733852673e-05,-0.000531227932958042,-0.0011541071835318832,-0.0017492895378199676,-0.002148145885388528,-0.0022091962299103096,-0.0018779983610704605,-0.00121902872860591,-0.00040149450570973414,0.00035878092365046205,0.0008779294725029488,0.0010685831591235096,0.0009627143661365562,0.0006864087633300616,0.0004026792329619221,0.00024913658717272977,0.00029364475632780336,0.0005196863231448064,0.0008413667925579007,0.0011386799617927297,0.0012979975902790732,0.0012432901127699264,0.0009512339543584452,0.000452957731404654,-0.0001714130588588765,-0.0008041970515547398,-0.0013122467657780523,-0.0015818054018945228,-0.0015570135777768746,-0.0012634904341597638,-0.0008015595737591144,-0.0003092618716056745,8.804331301715603e-05,0.0003187063432988605,0.0003806756522227847,0.0003296155057308056,0.000247650604011301,0.00020646756395154714,0.00023874662653355553,0.0003282340390057054,0.00042151819349153016,0.00045519516910013,0.00038504027014718995,0.00020399472301303083,-5.6653904233080056e-05,-0.0003395023200728769,-0.0005790085305685304,-0.0007186930006247341,-0.0007239678523074789,-0.0005889831395003305,-0.0003369951475618957,-1.4766641219237308e-05,0.00031777625714686454,0.0006012191657831763,0.0007916778743602634,0.0008731587246174801,0.0008610709528538455,0.0007919322207257056,0.000701125955844782,0.0005998547204895208,0.00046656708588096275,0.0002612459205488723,-4.419425309608148e-05,-0.00043834551573052744,-0.0008635253295684693,-0.0012340410237326026,-0.0014682782452491864,-0.0015171784043273332,-0.0013769541357598557,-0.0010843738982847665,-0.000700885030588272,-0.0002937574676232439,8.021871802971073e-05,0.0003862681727462372,0.000617201316055943,0.0007909110732565673,0.000938094982392142,0.0010827774071573675,0.0012244810780155694,0.0013332737400380487,0.001362774833656848,0.0012740668098377332,0.0010548097231954658,0.0007211261368467643,0.00030348197377442533,-0.00016947569323605524,-0.0006744267399209814,-0.0011815551037880588,-0.0016393330096769558,-0.0019728143562331864,-0.002103354673872783,-0.00198145772717105,-0.0016132915090320398,-0.0010639167303406636,-0.00043479115450354095,0.00017112855019808007,0.0006777828528152544,0.0010464990328712964,0.00127044707488676,0.0013633698571885314,0.0013514176524843239,0.0012692175660142062,0.001155421524362921,0.0010438098387866527,0.000951692154508839,0.0008719142025015816,0.0007739913315158535,0.0006146834830107874,0.0003535419146777477,-3.162829073400809e-05,-0.0005320504350383097,-0.0010997210637617243,-0.0016476028458607187,-0.002063958815084446,-0.002242468570641642,-0.0021199275002838237,-0.0017045764906163142,-0.0010787931178837984,-0.00037206916725403467,0.00028323889459065183,0.0007914652817661342,0.0011112095267369361,0.0012489037400761382,0.0012405697257499523,0.001136438125559118,0.0009931740134496774,0.0008664483243437811,0.0007947646943537092,0.0007765035913095445,0.0007561553515038535,0.0006385740857157563,0.00033573045267226926,-0.00017325503350450557,-0.0008039268398099342,-0.0013795061816247634,-0.0016977336591378076,-0.0016225032504808621,-0.0011544796053631423,-0.000443116212617058,0.00026949402828897056,0.0007499296946254222,0.0008749676520604195,0.0006858395093527487,0.0003661890871135845,0.00014882947005731225,0.00019302347738363128,0.0004944054841637485,0.0008786927621058821,0.001088441052673605,0.0009199951544822802,0.000336624244269394,-0.0005050016991738823,-0.0013288253578308362,-0.00187025782652459,-0.0019900906904444225,-0.0017132752046133762,-0.0011838130593975144,-0.0005760983681376651,-1.980211323459512e-05,0.00042687648629498667,0.0007599265565291897,0.0009974287357892623,0.0011583671170157126,0.0012576995151425707,0.0013074418673563605,0.0013135060280802862,0.0012679522178734829,0.0011444411780844566,0.0009046518977164815,0.000516878902298698,-1.984400041981076e-05,-0.0006575975089360684,-0.0012986021141090454,-0.0018166963121839796,-0.0020964353720029807,-0.0020746824567465876,-0.001765112461568667,-0.00125212098772704,-0.0006559648933357292,-8.691014316148911e-05,0.0003881734574464658,0.000752275080696194,0.0010203128340502507,0.0012124393440780998,0.001335635262352914,0.0013820024759040707,0.0013406537861471858,0.0012121244285580406,0.0010131434796056776,0.0007664420548885638,0.0004825110427841013,0.00014965571294892554,-0.0002542752029025036,-0.0007313371695596143,-0.0012345548612060346,-0.0016647906366017767,-0.0019027956835426718,-0.0018624083231795728,-0.0015352582233312236,-0.0010003401380981466,-0.0003916747644487485,0.0001586333041517689,0.000571262616304884,0.000838816095640782,0.0010069443190257328,0.001132426813421488,0.0012439403800693035,0.0013265330329023362,0.001335078000346622,0.001225121551940508,0.0009809156641195599,0.0006242267815205691,0.00020103772811148202,-0.00024182359844872854,-0.000671733065417555,-0.001066137665254027,-0.0013952176028499603,-0.001610181370083736,-0.0016531530993923983,-0.0014870755519110605,-0.001126091267599216,-0.0006433555888615003,-0.0001469875802871203,0.0002643954622364397,0.000541693725425292,0.0006984147364828613,0.000790469349820785,0.0008753949530214975,0.000974143780328652,0.0010556566567003108,0.0010518181072710837,0.000895244185561149,0.0005611872026245581,9.219458518482993e-05,-0.0004084304499753894,-0.0008137144585037623,-0.001024638758047881,-0.0010113163841853749,-0.0008214641518037059,-0.0005496066591149088,-0.00028314096574734297,-5.7723396698717146e-05,0.00014889492238902627,0.000380126953541995,0.0006473887478538813,0.0009010829508732728,0.001050401233238983,0.001020628555429484,0.0008076413005204836,0.0004897446787495206,0.00018618075971324455,-1.2400679150195043e-05,-9.807582113911494e-05,-0.00015068600364135938,-0.0002895569569986886,-0.0005984966447569071,-0.0010657050488715619,-0.0015722979008236098,-0.0019374997795175953,-0.0019989735523141174,-0.0016883423758620674,-0.0010642081695296929,-0.00028701223867094706,0.0004497124182354558,0.000995612181361699,0.0012904971252670572,0.001364693639684166,0.0013019065348347483,0.0011906840335907957,0.001089482661434159,0.001015725151321638,0.000953813686165335,0.000871030210520644,0.0007338276147383962,0.0005221906575671768,0.00023977716375484128,-8.554887414720792e-05,-0.00041458471523588003,-0.0007174889619001718,-0.0009871237367957684,-0.0012313938956997413,-0.0014463817628853851,-0.001590414122827375,-0.0015841988726136378,-0.0013467877966085433,-0.0008506269735910491,-0.0001606020776555011,0.0005732399340276613,0.0011723728566601747,0.0015064375806535689,0.0015455001503203193,0.0013583030229841451,0.0010619661034243866,0.0007589054087566388,0.0005004796619974621,0.00029268315648978875,0.0001267829684798963,2.1277641378495554e-06,-7.934373306735958e-05,-0.00013789387900824688,-0.0002293251768740027,-0.000421935971682844,-0.0007433207013359455,-0.0011349551482082425,-0.0014564776648757622,-0.001550149549407086,-0.0013308227070292793,-0.0008432302747321388,-0.00024679631760327406,0.00026426900031750484,0.0005565285062557668,0.0006131512561038511,0.0005238340742150234,0.00042360336177331166,0.0004207730377899666,0.0005518236585119918,0.0007777684963284099,0.001011620751082385,0.0011556682825955267,0.0011324328323153296,0.0009044961904133401,0.00048499913080386086,-6.0333417500982225e-05,-0.0006226526358690859,-0.001074460887287003,-0.0013069824524793755,-0.0012689195658590557,-0.0009886521003043785,-0.0005654686516940507,-0.00012996712154556716,0.00020876327471269708,0.00040323899804986974,0.0004758678806473832,0.000493665709554898,0.0005245821635909127,0.0005980688357488161,0.0006881112108336202,0.0007249598727043027,0.0006291977113977479,0.0003533573732132474,-8.671662794005361e-05,-0.0006059750933509809,-0.0010759269545355774,-0.001373786124925232,-0.0014327471440331331,-0.0012668845451194218,-0.0009557350330569578,-0.0005970517148487513,-0.0002568720487941918,5.205975399053735e-05,0.0003526022361917946,0.0006630295681816439,0.0009653894891155862,0.0012045850768796227,0.001317205391531288,0.0012697676877400494,0.0010821400537223017,0.000822038797222145,0.0005721076159985563,0.00038521830072086455,0.0002520975942240638,0.00010323326911456645,-0.00014955825460359943,-0.0005518683582622155,-0.0010628249221080013,-0.001558986359370508,-0.0018874482235087659,-0.0019381468216612078,-0.0016933991836519378,-0.001227970269228319,-0.0006643466097815422,-0.00011431116760020257,0.0003577760113137523,0.0007342976010289001,0.0010189319064298188,0.0012139746896596385,0.0013187139158577774,0.0013437570620617725,0.0013201442218813482,0.0012869867287293019,0.001262153116437883,0.0012188116598283233,0.001090299456791896,0.0008060405762946241,0.0003375956094024366,-0.0002743764516624,-0.0009279878222329585,-0.0014952891999803655,-0.0018631362403345167,-0.0019619366016832593,-0.0017782533270406548,-0.0013566775582482338,-0.0007946758752358819,-0.0002268678163147139,0.00020667917943841354,0.00040495358291768547,0.0003469331155147948,0.00010656873513016976,-0.00017193159538527472,-0.00033228626229481325,-0.00027231351936592846,1.3351246019038462e-05,0.00043392398237588107,0.0008442708457890269,0.0011055642884833581,0.001135589001510728,0.0009289591889397244,0.0005468129431922513,9.089833122967168e-05,-0.00032267461141235424,-0.000586606533072855,-0.0006280570369642834,-0.0004368235268332509,-8.175795827482148e-05,0.0003041999189369574,0.0005751254991706726,0.0006378671982361893,0.0004955627294551093,0.00024212123222188027,9.954763377496801e-06,-9.957245278775935e-05,-6.531344115789364e-05,4.906858281185844e-05,0.00013399783666333742,9.30591382506572e-05,-0.00010854621307686274,-0.0004277137223206275,-0.0007629765202764038,-0.0009978049449635928,-0.0010479324425524375,-0.0008934897649007363,-0.0005835894340766635,-0.0002122723936940728,0.00012294093858316078,0.0003604448365023413,0.0004930401069036935,0.0005571354259034485,0.0006001434226726385,0.0006459424131755791,0.0006788986228902427,0.0006549045904603397,0.0005314051876654273,0.0002982210118113119,-8.079166732853139e-06,-0.00031424497083669357,-0.0005407074100837068,-0.0006377455159360978,-0.0006087928123747632,-0.0005076768797513387,-0.00041024002250901405,-0.0003749536900757045,-0.0004129548404068124,-0.00048219588275811816,-0.0005074187583661452,-0.0004154240045806587,-0.00016966591325851124,0.0002097089937886215,0.000648055994101084,0.0010409791861076783,0.001293752762771241,0.0013594350654584286,0.0012566495859518707,0.001055630051352112,0.000838180659248165,0.0006533830830670207,0.0004941544816687376,0.00030697304870565853,2.7255856264669096e-05,-0.00038035449273114187,-0.0008968089322411612,-0.0014473298900575594,-0.0019205205107563704,-0.0021986515508511787,-0.002190408810670757,-0.0018594196993080888,-0.001241937132706879,-0.00044645294493045524,0.00036928811189508993,0.0010405675518499647,0.0014442192267265198,0.0015351750985398752,0.0013564651622032953,0.0010188427235191416,0.0006579294103076683,0.00038441130862809864,0.0002451896679079575,0.00021090107324904124,0.00019695763923191457,0.00011115737026016212,-9.365327613286047e-05,-0.0003888237393361452,-0.0006784422447195489,-0.000843985147515545,-0.0008020984095376219,-0.0005453579565107059,-0.00014558774603433888,0.00028000395874007477,0.0006204827126815933,0.0008143496715110089,0.0008652485401886439,0.0008264534657497226,0.0007646684454506729,0.0007212924097536319,0.0006886374554496943,0.0006110592167756651,0.00041026292801399225,2.488027592704848e-05,-0.0005503092403942979,-0.0012407620329733479,-0.0018969966661891873,-0.002333710923400691,-0.0023953035611286528,-0.0020230750723423292,-0.0012907675748284704,-0.00038528280848040467,0.00046345890534311003,0.00107137437629176,0.0013648065829971595,0.001391439366638745,0.001277398566876121,0.0011575072028464435,0.0011152614289311118,0.001157632631171757,0.001227001393325045,0.001234082092555371,0.0010920866780071573,0.0007418799739576471,0.00016922939665215417,-0.0005819789682187327,-0.0014031287868476162,-0.0021305963072526667,-0.002580447070657329,-0.0026054965931307825,-0.0021565887442613874,-0.0013196723117224717,-0.00030348853575649145,0.0006280682433438185,0.0012560743767915578,0.001493249776301771,0.0014108808502147228,0.0011884483319342996,0.0010126487403726305,0.0009834120776501718,0.0010786639856217406,0.0011897246311610224,0.0011946282801369116,0.0010194546257536368,0.0006569312663277638,0.00014762140368968537,-0.0004476544604151984,-0.0010601809829686797,-0.0016097586685241234,-0.0020031063957040886,-0.0021505924690025944,-0.0019994666951490218,-0.0015641564520200242,-0.0009318114549691227,-0.00023553050969275834,0.00039227458942898345,0.0008620339605484679,0.0011440403941083382,0.001255877284481403,0.001233523983226066,0.001106903791895651,0.0008933241500774158,0.0006067074369433998,0.00026961088324385234,-8.332809746992289e-05,-0.00041168116593315166,-0.0006783195288584786,-0.0008546532838282807,-0.0009211465060259843,-0.0008667607536247564,-0.0006909567084987648,-0.00040876841750222843,-5.584381853682998e-05,0.00031210459689326144,0.0006303031573012879,0.0008455454737863978,0.0009370692318297571,0.0009241645992951102,0.0008532084183338648,0.0007703681421288397,0.0006963418645127228,0.0006176189366228767,0.0004967856053398388,0.00029288037437803175,-1.9385212966264976e-05,-0.00043660690707022495,-0.0009192945381018065,-0.0013906835280624564,-0.0017471094349420404,-0.0018849310902706907,-0.0017393653862345692,-0.0013179652665821142,-0.0007077098897962588,-4.6471635295379315e-05,0.0005290407501725871,0.0009314930660885552,0.0011430977639027748,0.0012027483233802666,0.0011746490487594143,0.0011181738047942734,0.0010690034224615805,0.001029739637898364,0.0009664668161113926,0.0008152396499083656,0.0005065949795098803,7.0704033072390305e-06,-0.0006407408513405958,-0.001307660265985673,-0.001814232678536815,-0.0020034618223981546,-0.0018132511651449148,-0.0013071774606070996,-0.0006450054081575937,-9.766373095852527e-06,0.0004679179212228777,0.0007497510420845783,0.0008791024164839134,0.000933542079141102,0.0009717044952959559,0.001004077639745699,0.0009995061003687617,0.0009164937897176574,0.0007350943533643395,0.0004691025584928827,0.0001548521262580854,-0.000170591523867489,-0.0004835072022271302,-0.0007693190295217147,-0.0010049381971387063,-0.001144981795730628,-0.0011292975577541441,-0.0009148689483438508,-0.0005151151834184324,-1.841140189685149e-05,0.00043450850199251804,0.0007100477372199013,0.0007476161799027641,0.0005920603890646615,0.00036953455334814045,0.00021726720722107758,0.00020648067352541094,0.0003031098564149783,0.00038966023545702796,0.00033630869400747877,8.058061975080473e-05,-0.00033052291402422196,-0.0007603359911546518,-0.001052137270948262,-0.0011073392914711664,-0.0009274991391150107,-0.0005992718714102629,-0.00023700646499734022,7.812391748932739e-05,0.00032584622023171294,0.0005302813948709017,0.0007180840270092433,0.0008841878772015822,0.0009886464998096066,0.0009838223202240895,0.0008498668986876803,0.0006121800691500443,0.00032888862217805934,5.8170072896222445e-05,-0.00017113153216490832,-0.0003658245582308375,-0.0005493262633172736,-0.0007328809722593225,-0.0008979977957424267,-0.0010011743615147345,-0.000995878337022058,-0.0008566626740581673,-0.0005917668378649797,-0.00023989793008390072,0.00014382689569463836,0.0005039723477708942,0.0007960763132329439,0.0009911437452738052,0.001075567387134367,0.0010499065366964006,0.0009279404474336894,0.0007344620779104688,0.0004995032442373982,0.0002491494964737838,-3.2802154104226086e-06,-0.0002603690423491978,-0.0005347248193601547,-0.0008351464322489018,-0.0011503517984852675,-0.0014385242376751665,-0.0016307335750907048,-0.001651810621144435,-0.001453258473927812,-0.0010428381307373339,-0.0004918252630504254,9.040886506539881e-05,0.000605393550189205,0.0010099730743467243,0.00132488402677717,0.0015971137033462394,0.001840094719580838,0.0019976402451435194,0.001964944627169518,0.0016577879512971682,0.0010817150236033216,0.00034984165871817857,-0.000365161881442973,-0.0009123319077638329,-0.0012238936132127035,-0.001322795807112057,-0.0012818319354249525,-0.0011694940910235698,-0.001018590373073587,-0.0008304259076687614,-0.000600265178380801,-0.000338143669366164,-6.849148225699124e-05,0.00018728187301585869,0.00042587114166247166,0.0006573992779944104,0.0008810353584800899,0.0010598593129012147,0.0011181469810647845,0.0009693196640870724,0.0005606504005107678,-9.052225677276462e-05,-0.0008872498577972842,-0.001671670222488631,-0.0022622014075528545,-0.0024990061616245326,-0.002290563345491514,-0.0016515511149780109,-0.0007150777223758069,0.0002977008821548394,0.0011509306445822345,0.0016834638563809241,0.0018696167666086825,0.0018157725500813474,0.0016915228054561458,0.0016318236361197221,0.0016636664286875662,0.0016969438844774483,0.0015833198382035419,0.0012092050905908544,0.0005698918624431593,-0.00021725323097469698,-0.0009667255638746864,-0.0015123704349401012,-0.001777017017158477,-0.0017881925819274542,-0.0016396701324517659,-0.001429330324999833,-0.0012115119197416955,-0.0009867183140140946,-0.0007262131890976506,-0.00040924108613572645,-4.690604582537582e-05,0.00032017981763486116,0.0006436951857192782,0.0008901952237382214,0.0010491113082604494,0.0011243061440372381,0.001119342631559357,0.0010287612939706191,0.0008405684339273484,0.000546296412072044,0.00015148848044626434,-0.00031781830849042904,-0.0008127197549009661,-0.001262124206402646,-0.001578113775414136,-0.0016706793903676707,-0.001474943578380335,-0.0009853303074472352,-0.000279691332669849,0.00048738382168681373,0.001130629774395459,0.0015037711097611183,0.0015571413378055762,0.0013490891274791537,0.0010026657418891463,0.0006335696203116653,0.0002947696601538011,-2.775774290596667e-05,-0.000369272403459812,-0.0007268035212788999,-0.0010315134877868634,-0.001175111888290004,-0.0010738583276650193,-0.0007269634661897927,-0.00022919655108155287,0.0002725655501390955,0.0006524583359030895,0.0008628167971361886,0.0009408389647114581,0.0009640437996701957,0.0009872853350423592,0.0010038524363767923,0.0009535922016149741,0.0007678570232304274,0.000418495437850283,-6.000943110663821e-05,-0.0005847125275853283,-0.0010606981513561692,-0.0014162069299841927,-0.0016197221750609112,-0.0016766633380708856,-0.0016135282998567507,-0.0014593741294581753,-0.0012321432939056123,-0.0009348490074382182,-0.0005636169043561444,-0.00012362907757837893,0.00035771499872101894,0.0008315327991186077,0.0012435526083648962,0.0015538162330096144,0.0017438346473248548,0.0018052669676248433,0.001721420475749964,0.0014622204696534335,0.0010054047698606074,0.00037544435483899126,-0.0003278430569529842,-0.0009403293837915551,-0.0012913378782936076,-0.001282225682566544,-0.0009402572735320581,-0.0004125844171194563,9.977400510080689e-05,0.0004318614030536577,0.0005193192299673675,0.0004057911087585436,0.00019711153858520817,-3.886200581405038e-06,-0.00014266439098403348,-0.0002190074650043953,-0.00026279479894857066,-0.00030447990349462067,-0.0003600745998017722,-0.0004327582807553067,-0.000519439163461907,-0.0006108264335253607,-0.0006849357782591414,-0.0007045706725344698,-0.0006286428424095354,-0.0004350601906014974,-0.00014024631699854125,0.00020046414770666745,0.0005143784064342771,0.000741904492429474,0.0008575456421022,0.0008718687228939543,0.0008188142398947978,0.0007395459473521065,0.0006700494738120066,0.000631858846480984,0.0006228676796120276,0.0006102712295011183,0.0005339233835040732,0.00032759808029710427,-4.4619188850549945e-05,-0.0005534606818344052,-0.0010945197166864907,-0.0015178206890504166,-0.0016888021036312794,-0.001549814689989559,-0.0011463963665997174,-0.000602394818133623,-5.957387294470496e-05,0.00038220391016080394,0.0006922997145963699,0.0008953831226298694,0.0010322350435374168,0.0011224688608659403,0.0011502736003928822,0.0010775201807789558,0.0008724527734833797,0.0005356157820959256,0.0001092923595118588,-0.000332857251722183,-0.0007101882986420048,-0.0009630888455851731,-0.0010729879901575957,-0.0010644632236952148,-0.0009864307245529723,-0.0008814656486118604,-0.0007624876011121631,-0.0006138444753366955,-0.00041659850898447654,-0.00017750356300040403,6.399711559233427e-05,0.0002594354317255737,0.00038814286607524793,0.00047671822616012036,0.0005825693599334899,0.000750755266857817,0.0009749413687161076,0.001191622528366783,0.0013129398647680922,0.00127553835705387,0.001072131139105007,0.0007465202871924325,0.00036037304718319397,-4.020961426507916e-05,-0.0004331457980171374,-0.0008013161710674287,-0.0011075054993525254,-0.0012904026455085405,-0.001290990019111854,-0.0010924417993042998,-0.0007435660384650828,-0.00034589369907865337,-9.340673605711183e-06,0.00019724356093723389,0.00027070476893059875,0.0002596912490982579,0.00022389838121393319,0.00019523655141525775,0.00016603650321480494,0.00010763346399462808,2.500278959210664e-07,-0.0001500784928822644,-0.0003171580913609035,-0.0004722965715749729,-0.000595118384189784,-0.0006681862590634951,-0.0006639145960096785,-0.0005422056135136065,-0.00026972991558707785,0.00014789677758331591,0.0006451210920497095,0.0011075321981967009,0.0014148863410493764,0.0014929971787258638,0.0013444912591061343,0.0010423946062278159,0.0006937232857511023,0.00039544151057504823,0.0002036642722576306,0.0001237817094345699,0.00011653446920846092,0.00011191395964887778,2.8090886794517034e-05,-0.00020265144901570676,-0.0006027471951843797,-0.0011250565465033187,-0.0016532041591336226,-0.0020355500719978752,-0.0021418011457525745,-0.0019149318526922362,-0.0013919782680285983,-0.0006853936717380286,6.144865082564031e-05,0.0007204566582644424,0.0012080153865550278,0.001492391556248942,0.0015856381400203533,0.001528799448742409,0.0013756761550231555,0.0011769717502566697,0.0009667116763452279,0.0007546289204594379,0.0005278146002572418,0.00026124706128654034,-6.704351839667522e-05,-0.00046115672640315367,-0.0008961792169228384,-0.00131335488899898,-0.0016255461122015897,-0.001737236866493428,-0.001578500471859805,-0.0011424953572180662,-0.0005074324647730895,0.0001748049946123664,0.0007268830837905346,0.0010137426653902633,0.000998059290870647,0.0007543613899793732,0.000433298382256,0.0001943551976361286,0.00014099741189149153,0.0002869763137700647,0.0005622779065292494,0.0008477050390160324,0.001019480857893315,0.0009885019076070704,0.0007252905136147872,0.0002666554865047283,-0.0002958567887776705,-0.0008413268791089812,-0.0012510252202533442,-0.0014381729526296446,-0.001369683365747859,-0.001075213320921095,-0.0006396060724394512,-0.0001775776978282276,0.0002033816329910748,0.0004376799163402225,0.0005177731190771475,0.0004842958849035553,0.00039725148661176574,0.00030562908616913164,0.0002310975633889706,0.00016942528876151048,0.0001015639218529648,4.7775602303788776e-06,-0.00013827874468445774,-0.0003288882447665942,-0.0005403767740163669,-0.0007144028693006606,-0.000776416762395538,-0.0006694244081497737,-0.0003884090464466966,8.30583492074476e-06,0.0004219886623870728,0.0007589128365332921,0.0009703993030757725,0.0010633412298035347,0.0010779850140898322,0.0010519558780888087,0.0009963170667020773,0.0008968493260923295,0.0007333268724830455,0.0004980385328634256,0.00019987900133197904,-0.0001444991677573334,-0.00051966437474481,-0.0009094412299542922,-0.0012849457682575073,-0.0015946184414987034,-0.001768920722620227,-0.0017424306218597283,-0.0014834330098890784,-0.0010148135741819843,-0.0004140197494257121,0.00020894406236323976,0.0007451855424531833,0.0011169326053138335,0.0012918287000135472,0.001278340138908591,0.0011088333422965197,0.0008229108646477165,0.0004624334222134608,8.029041252231254e-05,-0.0002485980788993383,-0.00043356326948673207,-0.00040332458921665966,-0.0001577322444634361,0.0001992256107564761,0.0004803383198047563,0.0004948504819407757,0.00015010056789233452,-0.0004833938541330327,-0.001185631366101995,-0.0016772397235264012,-0.001740350655574078,-0.0013096559459471954,-0.0004928235541185021,0.00048161519242359324,0.0013566266179317866,0.001934524100743992,0.0021267871860455936,0.001956342672392762,0.0015245975509837475,0.0009654821866706582,0.0004059943645675616,-5.769246240582503e-05,-0.00037044974946263075,-0.0005218820278764095,-0.0005476418183050216,-0.0005245557136487212,-0.0005507035565939736,-0.000706925457678775,-0.0010115617659103768,-0.0013942625306464273,-0.0017126470528442779,-0.001813228600506069,-0.0016085261202985208,-0.0011273036947221221,-0.0005070760793596225,6.934883661841365e-05,0.000459524061586049,0.0006239178838834116,0.0006343798825730928,0.0006271360578789495,0.0007265884192225848,0.0009787298774110642,0.001326234407672388,0.0016355825601235027,0.0017605931982128894,0.001609706716571165,0.0011853770258083195,0.0005813779303996394,-5.4140106544365175e-05,-0.0005687765452280853,-0.0008489132829340914,-0.0008451309970610686,-0.0005790275519951906,-0.00013436588304908872,0.0003646134689475767,0.0007836568792843612,0.0010092687928721724,0.0009689667268326802,0.0006365001151693802,2.9919449724481392e-05,-0.0007840738156602233,-0.001677430856065892,-0.002458731818572734,-0.002909636915589802,-0.002867227911322018,-0.00231836567119781,-0.001442979865458191,-0.0005582559346351782,2.5124385510705673e-05,0.00015984043743835427,-6.125926410973054e-05,-0.00035678682320542244,-0.0004079476557715696,-2.3351704653327537e-05,0.0007706215999229561,0.0017545800057154855,0.0026322728667526564,0.00316961085371903,0.003284315364426749,0.0030493308220188057,0.0026238451021140946,0.0021605511487762068,0.0017388534826008645,0.0013481901562830867,0.0009162075992907135,0.0003607446372031562,-0.00035680644959701217,-0.0011957155232166974,-0.002033614273731267,-0.0027062283491780894,-0.003079745132695039,-0.0031226889895741034,-0.0029321413530074233,-0.0026855838199488936,-0.00253329600618995,-0.002492045320359073,-0.0024135464737205506,-0.0020624159947507624,-0.001266901734099666,-5.045512794632631e-05,0.0013431410146673452,0.002552406621510327,0.00326811366797796,0.003370298983135697,0.002958996085225514,0.00227474208857946,0.0015675059142465386,0.0009916712676411124,0.0005762085442762732,0.0002676349205789824,2.642102365463619e-06,-0.00023995646888132362,-0.00043306586869323177,-0.0005306073018541041,-0.0005025471879698439,-0.0003525352388590679,-0.00011539302944964933,0.00015455805287165297,0.00039506795507334444,0.0005473094592111387,0.0005705088800059481,0.0004576631207890172,0.00024240884147566275,-1.3101442698185573e-05,-0.00024910321262272073,-0.00044278432944440827,-0.0006232060779866592,-0.0008507030216835483,-0.0011668569618858548,-0.0015446668817349853,-0.0018757762748866388,-0.0020128140898983855,-0.0018484052272783784,-0.0013828689646419629,-0.0007345025732839317,-8.251979540959764e-05,0.0004218466780668386,0.0007200915410369568,0.0008505393633793201,0.0008986358572566182,0.0009343371040023274,0.000978917468000223,0.0010154770163590555,0.0010245376741961363,0.001012743264131533,0.0010142658938474302,0.0010670421026856465,0.0011811645528055283,0.0013176185342770926,0.0013883673395931372,0.0012819304918818392,0.0009117156930257128,0.0002718236675167988,-0.0005298381522699232,-0.0012917757420350426,-0.0017966081599285395,-0.0019099755714203663,-0.001643271132777294,-0.0011421387739722665,-0.0006090582079365837,-0.00020696680950266786,3.2019125669683745e-06,6.358261093264645e-05,6.811278650790205e-05,9.388893499789208e-05,0.00015402036676983327,0.0001948028213454872,0.00013489765689091583,-7.736740199620201e-05,-0.0004214347392688378,-0.0008020863827865221,-0.001090705377596046,-0.001187581548234579,-0.001068147211284078,-0.0007851164045146594,-0.00042715793881376463,-6.357039465314132e-05,0.00028717141843593295,0.0006451672280471518,0.0010248551123928735,0.0013934762167654312,0.001665625890473443,0.0017425987552747604,0.0015736664729558082,0.001199258252337773,0.0007453590362864679,0.0003685367227106793,0.00018149328078517117,0.00019968946145416065,0.0003355993941134901,0.0004408382934140548,0.0003744533292367282,6.66835633598116e-05,-0.00044848095947215235,-0.0010447052450568745,-0.001552696731010167,-0.0018256955383250941,-0.0017932155511778075,-0.0014812394495739383,-0.0009922468160980969,-0.0004569227490472294,1.6969941484308842e-05,0.0003727698375369103,0.0005999053996199009,0.0007078518826061299,0.000704100152419433,0.0005939309934168995,0.0003978930283567584,0.00016475726446488984,-4.033668773937367e-05,-0.00017097764181251882,-0.00023229456750236853,-0.0002813666292996132,-0.00038669995746090755,-0.0005707958120674443,-0.0007773205746635064,-0.0008911096788772647,-0.0008031856550540982,-0.00048006361764807816,8.901527826217048e-06,0.0005256738112847289,0.0009377773301303667,0.0011842644346577707,0.0012913330822058094,0.0013311642469817115,0.0013572488300820514,0.0013640387184766362,0.0012976111693616494,0.0011043662535744074,0.0007777508887306145,0.00036816258227961017,-4.824698754546733e-05,-0.0004154763475512826,-0.0007237086083073238,-0.0009986546183625234,-0.0012653193152739565,-0.0015144983386554656,-0.0016963492047773305,-0.0017455982977110855,-0.0016217407830489954,-0.0013379332462984865,-0.0009591198066036153,-0.0005689517491798976,-0.00022513586498865682,6.850284841152974e-05,0.0003543552225059297,0.0006817388813043449,0.0010616469113076579,0.0014460530347199562,0.0017458034783574402,0.0018748254917776994,0.0017915295620732996,0.0015124302970305754,0.0010934788693520417,0.0005958351649964394,6.081848701417446e-05,-0.0004903395923706085,-0.0010355099036663683,-0.0015289922906374857,-0.0018981117880485653,-0.002065732497173892,-0.001985905125703866,-0.0016696978097543332,-0.0011844435911758037,-0.000627060078349311,-8.784342353576028e-05,0.000375667088939879,0.0007450998572631727,0.0010316899263083114,0.0012605966827538622,0.001455715584875224,0.0016260859912620759,0.0017543942748681617,0.0017921503890008905,0.0016687269380245794,0.0013176161295136053,0.0007138733635863772,-9.25937427785177e-05,-0.0009665272360407191,-0.001712551026844828,-0.0021349393153489555,-0.0021124907418602727,-0.0016555399605667877,-0.0009136947984856815,-0.00012347415190415472,0.00048416535765352,0.0007733344627708697,0.0007464383094331569,0.0005220623572037249,0.00026343960099501186,9.80286240590154e-05,6.812496214186133e-05,0.00012914677480154878,0.00018472462400540598,0.00013480259393874807,-8.209763974876519e-05,-0.00046071364484887093,-0.0009193557731322676,-0.0013151869656019902,-0.0014885041933251327,-0.0013268600206522763,-0.0008229009826487506,-9.384620519200131e-05,0.0006551306190817617,0.0012121410517452274,0.0014465157609498576,0.0013592320190541208,0.0010705088559236895,0.000752788290777433,0.000546167361457739,0.0005003748305887736,0.000568538639971457,0.000646393885569299,0.0006280379801382491,0.0004491382164959173,0.00010503541957571267,-0.00035251449775223516,-0.0008313276537074978,-0.0012225536913602307,-0.0014299917255338052,-0.0013998509870492225,-0.0011408456742739857,-0.0007240129585827757,-0.0002587788810976,0.00014654226542227828,0.00042256966566058457,0.0005574542911261013,0.0005883118407608767,0.0005721297177309936,0.0005537104957142692,0.000548414581324385,0.0005467077779948671,0.0005330094175720962,0.0005026916662423854,0.0004638576898742727,0.0004227951508610747,0.00036544820601804495,0.00025223436842709265,3.562410026215112e-05,-0.0003064865661745405,-0.0007424269744025352,-0.0011848744800360264,-0.001521794721846115,-0.0016648205723581938,-0.001586838019648233,-0.001326653185066726,-0.0009598510330490516,-0.0005563372008072229,-0.0001518789066519339,0.0002507093841557157,0.0006562855854844597,0.0010493016613059964,0.0013843296090714093,0.0016022947793024765,0.0016612885027918996,0.0015606048138460445,0.0013409308829008667,0.0010600052420321987,0.0007606385796437702,0.0004536261921349583,0.00012667700385342946,-0.00022929090346346826,-0.0005971650985957643,-0.0009298047710104122,-0.0011657866410169418,-0.0012534492670987956,-0.0011711831764103045,-0.000937336880695802,-0.0006073381354899382,-0.0002578989416195327,3.806873329424004e-05,0.00023683835840590376,0.0003378215969111161,0.000377759165036297,0.0004059952126146628,0.0004525857539106478,0.0005070721099235772,0.0005211383960691911,0.0004340367082938563,0.00020571564559559487,-0.0001599053537788431,-0.0006097013531196254,-0.0010516858798195724,-0.0013757283416688194,-0.0014824051845277722,-0.0013171613395578058,-0.0008991429570893825,-0.0003269267207276381,0.0002512477565755918,0.0006953139738078886,0.0009308855516876895,0.000974031057942027,0.0009097973383708065,0.0008398402486233805,0.0008320966121529044,0.0008995025705708608,0.0010115452893598282,0.0011207545615453851,0.0011819783731179846,0.0011559011574417007,0.0010056909463592222,0.0007013205237862302,0.00023622715030612636,-0.0003541521924525998,-0.0009884755478930841,-0.00155825211585249,-0.0019619027562599606,-0.00213710323507853,-0.002076673119796975,-0.0018235987639118266,-0.0014507151156272406,-0.0010347230331774484,-0.0006330900905356814,-0.0002697300909571885,6.647556786777546e-05,0.0004083943464203174,0.0007853840116518805,0.0011955982764841797,0.0015898846590825478,0.0018787920639831129,0.0019641957291271156,0.0017843333621460047,0.0013521726594734268,0.0007664539387421781,0.00018395353990188009,-0.00024113725903744752,-0.00042571703380794206,-0.0003991948156878509,-0.00029136134800350315,-0.00026664213596448304,-0.0004357826729582537,-0.0007926398423517963,-0.0012130056733351538,-0.0015179778675456644,-0.0015664807931256917,-0.0013243703351429853,-0.0008726491508254952,-0.00035493886688862583,9.98530276421002e-05,0.00043220656785764283,0.0006555059716769178,0.0008158002733828197,0.0009432098978435768,0.0010310687253346229,0.0010529363353303182,0.0009961729891635614,0.0008790599019982289,0.0007351862412475728,0.0005790645690321606,0.0003849035413929008,0.00010137770211624073,-0.00030314064652501714,-0.0007955596944766762,-0.001266986454044358,-0.0015685607968590875,-0.0015776311956017443,-0.0012590016112873463,-0.0006886020311867376,-2.715739916265246e-05,0.000543299073899267,0.0008897652785215108,0.0009731986712001267,0.0008496020027332853,0.0006311067700879867,0.0004294624758446635,0.0003093155206256739,0.00026935745192679337,0.00025401060555126586,0.0001861378074546974,6.1219821971265125e-06,-0.0002969999219226631,-0.0006733864285987198,-0.0010245665032228813,-0.0012368052096297336,-0.0012233649080463014,-0.0009585712889854834,-0.0004898284387182569,7.67511494988481e-05,0.0006111178899144776,0.0010016812029468396,0.0011904077756915033,0.0011879317006211784,0.0010625652371046637,0.0009071580261218754,0.0007976470493677069,0.0007612966152515091,0.0007678426183019797,0.000745567348319449,0.0006133177699448523,0.00031428754690539744,-0.00016066290155430452,-0.0007661286287753669,-0.0014114746551282678,-0.001982263049904208,-0.002367695921444513,-0.002486700454494005,-0.0023056834353099164,-0.0018445148864376557,-0.001172356478471705,-0.000396947348824268,0.00035240385041831687,0.0009519972272250863,0.001321580184845658,0.0014606164040677186,0.001459104030585203,0.001463171966973792,0.0015993936050271828,0.0018918860975265224,0.0022214954418361653,0.002362293188487274,0.002090101820472585,0.0013119144375734796,0.00014325147349468666,-0.0011181086374411012,-0.00211644666480114,-0.002596040099850071,-0.0025068706140636355,-0.0020036525791396957,-0.001347162507389513,-0.0007706348884706176,-0.0003858080924660014,-0.000170621331304708,-2.8558687255428707e-05,0.0001286680394910493,0.0003273876663826493,0.0005314532245709763,0.0006809010387449615,0.0007335056335146665,0.0006799836432344116,0.0005310153333644523,0.00029838529202741784,-5.991304971331721e-06,-0.00035010666794412404,-0.0006617412309447248,-0.0008350488422849861,-0.0007732226553462513,-0.0004479717184870608,6.255622911381783e-05,0.0005899899736915132,0.0009481622499114498,0.001026112191346477,0.0008467359483247452,0.0005517918819126933,0.0003180721202939626,0.0002540276366832453,0.0003397345261859656,0.0004451059978362896,0.00041113511837024793,0.00014200325057424346,-0.0003441765337960094,-0.0009264465118113194,-0.0014371953868704073,-0.0017284643131148592,-0.001719125078897548,-0.0014113323927269585,-0.0008796033947380039,-0.00024237651699294638,0.00037326833102364866,0.0008637037476593584,0.001169158211617744,0.001278216748393853,0.0012192868399666023,0.0010473084911688493,0.0008322297351414733,0.0006476457891111175,0.0005525914437769426,0.0005652356859622482,0.0006410330378786373,0.00067588722828565,0.0005456582338267404,0.00016995464521134295,-0.00043265140429901813,-0.0011319026231253987,-0.0017279213734705257,-0.002030301898803829,-0.0019374177823805678,-0.001480431227623208,-0.000813503608680644,-0.00015398388899249562,0.0003041078170227193,0.0004680940773879466,0.00038128977315215757,0.00019545500204972538,9.115463725872371e-05,0.0001851469291859842,0.00047441190806105646,0.0008471770346615711,0.0011510077235109479,0.0012733080045144044,0.001185424778140119,0.0009302732883347728,0.0005726782219651172,0.00015356744205653145,-0.0003188577904127579,-0.0008375236458537834,-0.0013517017703139013,-0.001748100994061284,-0.001881671970664689,-0.001646543116250689,-0.0010472194387591322,-0.00022360672223616248,0.0005934857143858495,0.0011799934948357705,0.0014202081655841508,0.0013567646698330463,0.0011584258619025038,0.0010196324491358094,0.001046125285754104,0.001192572709750891,0.0012905273741714864,0.001151671647432882,0.0006848287532192991,-4.332291590012933e-05,-0.0008380660628930212,-0.0014752668129261327,-0.0018081838977082828,-0.0018230677710318536,-0.0016201191090910966,-0.0013408485643013291,-0.00108875068751494,-0.0008861406697869424,-0.0006840001401188268,-0.00041189818655204395,-3.673334558987372e-05,0.0004022581048897713,0.0008013600978985003,0.0010402748763986458,0.0010456534113707453,0.0008352891300685574,0.0005159584509902143,0.0002323344101673499,9.26874278743032e-05,0.0001126543182670978,0.00021064147230988534,0.0002598224841010668,0.00016784327661462962,-6.278069856079527e-05,-0.00033027421267611346,-0.0004885881119741811,-0.00042964495267330745,-0.00014519954308162182,0.00026615350147272303,0.0006487511816749209,0.0008667803085718616,0.0008663141163645959,0.0006923964741995368,0.0004576424687398187,0.0002829049823150925,0.00023967024457133875,0.00031740895276491095,0.00042589821634910223,0.0004308377693668427,0.000211951293428575,-0.000276246166766437,-0.0009671670444845785,-0.0016902862987495427,-0.00222820613785322,-0.0024012750558673698,-0.002141650163471408,-0.0015209624460517184,-0.0007173226900027217,6.209482703773404e-05,0.0006637341050931011,0.001034940280502703,0.001216483688869653,0.001291909020551181,0.0013272591224353365,0.0013359648221954498,0.0012851883208161465,0.001133490326346057,0.0008713934318235818,0.0005371661719669517,0.00019847416241092772,-8.634606971893381e-05,-0.0003006321772935321,-0.0004733246054859728,-0.0006515054841005203,-0.0008596154598016231,-0.0010722577022867568,-0.001218260603154151,-0.0012137217464984846,-0.0010051897919029452,-0.0006002390563940802,-7.102905745041163e-05,0.0004695580748404404,0.0009072992332720834,0.0011640814250062663,0.0012187370472225454,0.001105378527130571,0.0008931772995509121,0.0006575121935758711,0.00045295107795074833,0.00029583576617279745,0.00016133515507660883,-2.7758356977811583e-06,-0.00024765511068673175,-0.0005893879296688274,-0.0009853795836194182,-0.001337169354568326,-0.001524878479720199,-0.001460547066893191,-0.0011336140435066174,-0.0006226035936883866,-6.444372704541201e-05,0.00040328150374712563,0.0006968254494455864,0.0008106085412151816,0.000803118073262649,0.0007569582958631192,0.0007360272548884513,0.0007591338477916294,0.0007974566424193171,0.0007918221821931477,0.0006800851157583243,0.0004248085878171832,3.3568152040288225e-05,-0.0004342889060087471,-0.0008789075709050983,-0.0011887477842412951,-0.0012782320924297408,-0.0011191486246554577,-0.000752082294887597,-0.0002731087820898656,0.0001982372134020729,0.0005571301262999602,0.0007447796192431228,0.0007638119183221449,0.000673424049001717,0.0005640983639190018,0.0005166721425512843,0.0005588192244508081,0.0006402527997199357,0.0006465151834366177,0.0004536671070195673,2.8789372444207404e-08,-0.0006647805998912404,-0.0013844243479011677,-0.0019550203498279062,-0.0022086495486176813,-0.002078744475272798,-0.0016175272452761652,-0.0009625851709240663,-0.00027396510306305986,0.0003269453349292373,0.0007914144191538133,0.001140100455552974,0.0014286818807902899,0.0017006702345398162,0.0019508737696402778,0.0021189459327608136,0.0021185292304582858,0.0018880324697540926,0.0014342172858678027,0.0008405214878310207,0.00023151895586953332,-0.00028721054703379303,-0.0006770592608427207,-0.0009717857074238433,-0.001236919119077411,-0.0015098220929850845,-0.0017602345571058322,-0.0018985243343283302,-0.0018284305491617604,-0.0015124791925107094,-0.0010098383164031624,-0.00046301775682879584,-3.99820303629856e-05,0.0001377540326318301,4.6642360393131846e-05,-0.0002273409772184928,-0.0005173217414263536,-0.0006332585391953544,-0.0004339396149510116,0.00010673325727070194,0.000867282404010524,0.0016068827487602114,0.002057643053488204,0.002045108897608137,0.0015743329848024847,0.0008306768096018379,9.256817904884353e-05,-0.00039495554985184597,-0.0005178859880353271,-0.00031737312478750344,5.869017429655074e-05,0.0004387948281201902,0.0006989504796774452,0.0007927085731705008,0.0007389900225320591,0.0005873413663147157,0.00038435260669673573,0.00015529947494770683,-9.7684647078189e-05,-0.00038628333910954824,-0.0007209451657080594,-0.001094784149261074,-0.0014730375635040136,-0.00179586499934182,-0.0019972986471774945,-0.002032430716114017,-0.0018962122614146811,-0.001619437755513803,-0.0012422523856648754,-0.0007836849154219967,-0.0002326496076304257,0.0004267879804646232,0.001168978011344982,0.0018934779655628495,0.002439127049193415,0.002652997950189389,0.0024821492558408046,0.0020290928511205956,0.0015212706435017887,0.0011931192429173816,0.0011402766569046526,0.001237902963916029,0.0011900727583599273,0.0007011435195398443,-0.0003232781324123429,-0.001671574732932499,-0.002895960326101969,-0.0035301538631123466,-0.0033327381493915877,-0.002413978079271652,-0.001173610100771613,-9.001970097845377e-05,0.0005151254236698833,0.0006070109337365077,0.00040246222402353716,0.00020750410501124288,0.00023316355068626497,0.0004949156609096236,0.0008399129878398819,0.001066055163272457,0.001048325574237512,0.0007968398517990493,0.00042481103789768996,6.320636628580779e-05,-0.00021507263843541062,-0.0004158176153858666,-0.0005858252238868504,-0.0007518338130343368,-0.0008822605032898637,-0.0008985603678003798,-0.0007276308782680826,-0.0003586666261339499,0.00013455576926470116,0.0006208425061755849,0.0009702286050191954,0.0011083931823186594,0.0010392482475742083,0.000831692249163714,0.0005852867051454364,0.00039250635155285143,0.0003079240167900338,0.0003295012274290674,0.00039804109160620246,0.0004204504658623183,0.00031311891022016224,4.704941654379341e-05,-0.00033055912915468707,-0.00071341624732722,-0.0009845954410848752,-0.0010701594910849494,-0.0009700185095884591,-0.0007530599042205838,-0.0005228768694781954,-0.0003717608957013493,-0.0003413147503590476,-0.0004032279931102706,-0.0004682702061077071,-0.0004248545793483771,-0.00019723977819719645,0.00020111125579614394,0.0006510797290107623,0.0009685911096430821,0.000991226763063499,0.0006669769752694652,9.312778497023153e-05,-0.0005206933510701261,-0.0009467503836821339,-0.0010389684833463165,-0.0007860379243262327,-0.00029617216937790855,0.0002683846862772043,0.000765296287901483,0.0011168892817456115,0.001312492752616988,0.0013807358517780174,0.0013554572496358244,0.0012535151866600823,0.0010699098189606302,0.0007860901663416622,0.00038527978464433614,-0.00012933231102777495,-0.0007175442843219146,-0.0012941560563530762,-0.001741153655873946,-0.0019452251624632027,-0.0018487320544907022,-0.001485691694057131,-0.0009754040926451936,-0.0004699799302319749,-8.294414992812433e-05,0.00015912110167088994,0.00031320129674628806,0.0004686543558298753,0.0006817009735244951,0.0009358859209404834,0.001149544390205621,0.0012213255607166455,0.0010850544765478845,0.0007453644606834046,0.00027964941615343873,-0.00019143841248479333,-0.0005502048835164235,-0.0007240229106060198,-0.000704918562042744,-0.000539923176286262,-0.00030157556394827317,-5.8024550072748173e-05,0.00014181565280813198,0.0002674982858570697,0.00030253415327617075,0.00024680667727055455,0.00012411244220629633,-1.7282163896111392e-05,-0.00012050706546616532,-0.00014817666930675875,-0.00010595076576570914,-4.417159772786798e-05,-3.253894260188533e-05,-0.00011994768821400913,-0.0003024440464531354,-0.000519313920930118,-0.0006811697291292703,-0.0007141436385000776,-0.0005945726942284031,-0.0003560294657170568,-6.866264515330506e-05,0.00019504547184337365,0.00039209751631178943,0.0005277973241768728,0.0006547246926329556,0.0008467769355241682,0.0011507149287318282,0.0015337523522529007,0.0018598675300181737,0.0019233057084047669,0.001539338805995943,0.0006536738046949361,-0.0005907979328857024,-0.0018780525582678133,-0.002835183391420441,-0.0031878490644102636,-0.002874566104740039,-0.002059511301982939,-0.0010408367453429808,-0.00011020879164063812,0.0005582788786088406,0.0009382818653885672,0.0011037996345875378,0.00115187596521283,0.0011486922895115135,0.0011214853151927072,0.0010801357390297914,0.0010360414487865378,0.0009992832399954557,0.0009604121701669432,0.0008773365447496186,0.0006827923779118931,0.00031305370325785965,-0.0002535853080989363,-0.0009652712294999222,-0.0016889946632189254,-0.002238895723833006,-0.0024387046131362725,-0.0021961545174268753,-0.0015526581037613413,-0.000677428897665075,0.00019697411242394726,0.0008673812063679187,0.0012342469695964995,0.0013220932169896596,0.0012422825309093759,0.0011247797274754672,0.001056826257137509,0.0010549607900877229,0.0010742191001060937,0.0010403420548538117,0.0008855868774336702,0.000574294067302429,0.00011377328962799548,-0.0004468604954084775,-0.001025476811553218,-0.0015214442096099785,-0.0018365100821936793,-0.0019007520049009975,-0.0016960478143551682,-0.0012651490970676414,-0.0006986410949481679,-0.00010396664511222909,0.00042868632818160684,0.0008477670783757428,0.0011414777460606858,0.0013222359149469925,0.0014058346751862384,0.0013978536984442006,0.0012940422116699093,0.00109142632146753,0.0007994076456458235,0.00044132753483195003,4.6431010975560294e-05,-0.00035837677234963334,-0.0007474174872019181,-0.001086667736671434,-0.001328482282534146,-0.0014238798312813114,-0.0013507934546485433,-0.0011377023127064104,-0.0008578120001537016,-0.0005881892715236653,-0.00035849849805485307,-0.00012948678787075632,0.0001750121955512167,0.0005984384247125407,0.001092581820292525,0.0015152726240408258,0.001693037913044345,0.0015126994609286314,0.0009869003770407573,0.00025584139705348875,-0.0004736857954249396,-0.0010163269151869023,-0.0012764170767744273,-0.0012651299488982328,-0.0010660846826956601,-0.0007767389916653441,-0.00046194926968373966,-0.00014264564208172226,0.00018280642638773977,0.0005069542932660462,0.0007966244400382592,0.0010032255391928372,0.001092030808349257,0.0010679731679385399,0.0009754375532722884,0.0008661454745195875,0.0007537932458830085,0.0005894266539921614,0.00028357962578446196,-0.0002286764087419379,-0.0009170331798552667,-0.0016294506883916839,-0.0021384479516735155,-0.002243867765082193,-0.0018766962137558045,-0.0011430755010292115,-0.00028076008373787006,0.0004495945128864744,0.0008800636020357504,0.0009981802919636572,0.0009281016984297658,0.0008462102273550966,0.0008803403100402974,0.0010462869219975525,0.0012503480996600663,0.001348467750007961,0.0012239242991283431,0.0008416190272316888,0.0002565726504209937,-0.000417653488983531,-0.0010556947106770177,-0.0015563415627001395,-0.001855947745987132,-0.0019251079446605266,-0.0017629599286189302,-0.0013981080777379323,-0.0008924288862218543,-0.00033644009239610826,0.00017037754695902358,0.000548747550487474,0.0007643176182617657,0.0008357552122569545,0.0008226787933612996,0.0007983163229748026,0.0008168286521548376,0.0008878353922903236,0.0009703988950899144,0.0009922083501249658,0.0008865435087304573,0.0006274054373569037,0.00024294996402875852,-0.00019817226335324,-0.0006145079754200515,-0.0009336768458573176,-0.0010991791106735242,-0.0010703917847330914,-0.0008308564714215121,-0.00040817174870782526,0.0001110161568024287,0.0005943919796228678,0.0009120217722360865,0.0009957936184861384,0.0008714869657094997,0.0006399105009629018,0.00041869640194912294,0.00028238244247045987,0.00023495993312195283,0.00022211484937537606,0.00016454194212564842,-1.1334959983053984e-05,-0.00035446496819471936,-0.0008752478042012403,-0.001528383239958805,-0.0021981980299657722,-0.0027062737064077053,-0.0028580386619676537,-0.0025208250170938172,-0.0016969006855082928,-0.0005459299855398818,0.000665587897436975,0.0016677175232959886,0.0022900920235907007,0.0025112142468747896,0.0024335133577593846,0.002206478450649684,0.0019454735240007214,0.0016884110004771592,0.0014043424068765392,0.0010376543158625462,0.0005567112615523001,-1.8724937287376638e-05,-0.0006195242916812125,-0.0011509229580379489,-0.001523965336734154,-0.0016826349803959926,-0.0016186410764372932,-0.0013692277782914293,-0.0009986578925019391,-0.0005721345422398046,-0.00013668584506075802,0.0002799135257065264,0.0006539854673897833,0.0009497179048658336,0.0011193145169341543,0.0011243968964580102,0.0009649098168903935,0.0006921948688664637,0.00039092631385715965,0.00013532795765803162,-5.5495674334314106e-05,-0.00023324583144790248,-0.0004911856119668243,-0.0009005385853426888,-0.001447257980287379,-0.0020094505293759713,-0.002395907969459773,-0.002430708228527829,-0.0020396079282278185,-0.001290396521189364,-0.00036472399234073255,0.0005221918083573403,0.0012090989837030945,0.0016379846370579302,0.0018461709627157034,0.0019173140918663642,0.0019271527863539144,0.0019135887680918314,0.0018774715035730933,0.0017998072570347464,0.0016566664742623549,0.0014238140358333005,0.0010770494995124104,0.0005992806284017111,-1.9187026262712428e-06,-0.0006754546869926863,-0.001323274290656141,-0.0018235481191107884,-0.002075009013729147,-0.00204052262045922,-0.0017647622902709902,-0.0013547139898785394,-0.0009334773551943592,-0.0005926166258929245,-0.0003667767909551311,-0.0002385748217654123,-0.00016372430530471127,-9.86792336918207e-05,-1.8917769941718043e-05,7.34082303785183e-05,0.00014922336951170203,0.00015985748979964237,5.5836491768231035e-05,-0.0001829309538832552,-0.0005168505607612209,-0.0008363013493700849,-0.0009865730896283058,-0.00082393124385209,-0.00027761895689234995,0.0006127074940572854,0.0016994829586104712,0.0027629114838457654,0.003562282078272001,0.003890643426535414,0.003629015520800601,0.0027931454600555036,0.0015523932838474096,0.00019528509816779639,-0.0009637894141972651,-0.0017040386837846005,-0.001984127603905047,-0.0019450270321585944,-0.001825568559246276,-0.0018358893734033942,-0.00205520035403167,-0.0024027229009544473,-0.002689016566363909,-0.002714920156662833,-0.002366487833905593,-0.0016622939155062025,-0.0007373296046303416,0.00021976922637685593,0.0010393493377323629,0.0016188049837062345,0.001932443285611585,0.0020128583796547627,0.0019239155306723138,0.0017395496678225208,0.001530045153125158,0.0013503897239162755,0.0012275968260853406,0.0011504080370934693,0.0010684378610909314,0.0009059483555327211,0.0005899659640110791,8.594282005836798e-05,-0.0005721821611468279,-0.0012744580721847844,-0.0018624697856597823,-0.002188017459127506,-0.002176933504133954,-0.0018613496128489955,-0.0013580155157853927,-0.0008042269732571356,-0.0002922868913312959,0.00015589145386138144,0.0005625306984992747,0.0009423727506419021,0.001268349132379378,0.0014803920302575583,0.0015272223860586514,0.001404382502935229,0.001156245028963345,0.0008415117242034304,0.0004933029194739867,0.00010880105818953821,-0.00032291707668928495,-0.0007788976306249619,-0.0011820953922264841,-0.0014226143544625509,-0.0014105834542313587,-0.0011293792298096056,-0.000656545825892734,-0.00013729851677750588,0.00027814123914808646,0.0005007335555577786,0.0005358267035318671,0.0004648653451427868,0.00038760446417269003,0.00036068227796517385,0.0003692971459568256,0.00034583891582882305,0.00021901289468874029,-3.926999707296237e-05,-0.0003948728489548732,-0.0007649431749893772,-0.0010510806982745268,-0.0011742723298083968,-0.0010981678725405933,-0.0008346782640006269,-0.0004331354051776869,3.972854962508912e-05,0.0005189990456913663,0.0009523103827749187,0.0013006130937950502,0.001533909104774926,0.001629475778253206,0.0015768814034621444,0.001386905055838529,0.00109569231581933,0.0007563582920962717,0.00041834681046242926,0.00010492963500465587,-0.00019635211007562383,-0.000521415952435094,-0.0009003877203672551,-0.00132834703454685,-0.0017539380359721706,-0.0020923347421675995,-0.0022542704800790014,-0.0021754342463801424,-0.0018343461186941402,-0.0012568664621833035,-0.0005126820990083483,0.0002923756605439673,0.0010314784592574512,0.0015852949900041872,0.0018805030258888184,0.0019198825325896067,0.0017807593553970575,0.0015742618425308428,0.0013849033678310638,0.0012261856913900237,0.0010389161324103778,0.0007319943147783636,0.00024141468201356603,-0.0004229965841770508,-0.001163444494806524,-0.001817433236990943,-0.00221046352074265,-0.0022209587677155013,-0.0018334679096250186,-0.001155252307070821,-0.0003823435014075943,0.00027572635617063206,0.000679268078952704,0.0008083376126699765,0.0007538336064504803,0.0006567752310524264,0.0006309959577135009,0.0007108980236420942,0.0008477857593006476,0.0009488557350584154,0.0009309456713464314,0.0007582568728304341,0.0004480639420597727,4.975096219448022e-05,-0.00038262491426392566,-0.0008035352481707218,-0.0011676735991304266,-0.0014119382247880737,-0.0014514110191223303,-0.0012071509477865434,-0.0006600981208014884,0.00010100424045145695,0.0008778114321610543,0.0014254597402574157,0.0015585517171201537,0.001244495847962519,0.0006274395543671655,-3.756883600100776e-05,-0.0005076559834148436,-0.0006653155291061646,-0.0005615401602133112,-0.000370950791594935,-0.0002890704241588618,-0.0004275103558834119,-0.0007573700112880615,-0.0011243089528645374,-0.0013255332177111957,-0.0012112754698732514,-0.0007607410353255482,-9.279238254338332e-05,0.0005951848414885187,0.001125907376397722,0.0014210986279712227,0.0015164858885426498,0.0015108882314786303,0.001489496512057893,0.001473559611252148,0.0014236713940739807,0.001282700232226748,0.0010191441355595033,0.0006398478210680627,0.0001724126204348691,-0.0003560782692220543,-0.0009186787865117932,-0.0014675924368894922,-0.0019196788704514505,-0.002175396533952158,-0.0021694373882010917,-0.0019185144139221442,-0.0015249458328444718,-0.0011231776771906308,-0.0007999017030974253,-0.0005427849639031148,-0.00025714861876287927,0.0001565918876271353,0.0007162760547817994,0.001322962203043252,0.0018039820254078748,0.0020062212013957506,0.0018772203160010064,0.0014825244013733612,0.0009545799445499344,0.000414989090355705,-7.559780760061702e-05,-0.0005127295820053987,-0.0009039847800494359,-0.0012266366094215609,-0.001421001061632844,-0.0014224027299804814,-0.0012056251409727045,-0.0008088135580565357,-0.00032044386519544817,0.0001616831894799115,0.0005736055397282749,0.0009047321752482151,0.0011830326476368115,0.0014367028560778598,0.001658821201458121,0.001800294899406982,0.0017968958242566531,0.0016112381381916782,0.0012591860369351685,0.0008016052632063904,0.00030755335340710015,-0.0001853002492025748,-0.0006862924077578975,-0.0012328334081237247,-0.00184720896469656,-0.0024928100472246272,-0.0030545266144759694,-0.0033585046677250463,-0.0032305181413173293,-0.0025743313747787927,-0.0014373024883767385,-2.7559940941340602e-05,0.001337944906717169,0.0023430469619670725,0.0027930825581965095,0.0026855562746082844,0.0021908427161179125,0.001551873202857781,0.0009590715141107006,0.00047183197193508214,2.9346688884905256e-05,-0.00046190322460281145,-0.0010246258116033194,-0.001561311681344277,-0.001893153384548362,-0.0018628187218612219,-0.0014340598267175396,-0.000723666290805777,5.339020240293055e-05,0.0006889303648012668,0.0010717150504756987,0.0012134034019016875,0.0012058530051828901,0.0011477852896974534,0.0010923131953577167,0.0010451992697320025,0.0010033483633001368,0.000992094631372561,0.0010605627115659834,0.00122806826345104,0.0014189696675594083,0.0014458194171915874,0.0010795410910941733,0.0001876906383839127,-0.0011366266341892959,-0.0025480414047970943,-0.003568581198520237,-0.0038078317111293236,-0.0031646111179668038,-0.0018897574329349376,-0.00046759674852586437,0.0006184690491018471,0.0011042607439841223,0.0010310531617493685,0.0006673706952303067,0.00032873988004933656,0.0002061913825014668,0.00029341559393265414,0.00043387790102445084,0.0004400551297818597,0.00020738054612634457,-0.00023525298463447468,-0.0007502962867045537,-0.0011628535582122507,-0.0013350983255234904,-0.0012112198880540924,-0.0008223733250142048,-0.0002598906678319688,0.0003659293396568121,0.000963337849963226,0.0014787343715516525,0.0018918884122671937,0.0021922569086383807,0.0023538439020516977,0.0023291656854141796,0.0020713471773717964,0.0015724254338774647,0.0008903941844440577,0.00014101005368757945,-0.0005464249664404119,-0.0010827775760191176,-0.001446233931777235,-0.0016650611989274043,-0.001771355823051648,-0.0017630070027223608,-0.001604262489112599,-0.0012654831254136157,-0.0007724596522284209,-0.00022645199379079666,0.00022588018549515415,0.00045991997719187314,0.0004379092105647989,0.0002288466170291309,-3.275396631134708e-05,-0.0002263356767528875,-0.000313397359679877,-0.0003496829460717815,-0.00043263048186477083,-0.0006186874637580535,-0.0008664854701768873,-0.001045780408022556,-0.0010086604221560779,-0.0006777305918861259,-9.432187249358679e-05,0.000603104574933977,0.0012529777657212678,0.0017462746740666848,0.0020567691275021212,0.0022142956490724753,0.0022485918907277445,0.0021471857389279915,0.001856532245803949,0.0013244279806604348,0.0005543902126724331,-0.00036506639174167907,-0.0012774693945793226,-0.0020132713299742216,-0.002450263113920311,-0.002546158341609891,-0.0023316100074884513,-0.001878256726196493,-0.0012676998201350718,-0.0005783628063563665,0.00011163131458685792,0.0007209061376929077,0.0011747143819008533,0.0014281223028078283,0.0014868231124227469,0.0014066424636645872,0.0012659349148946746,0.001124958500633432,0.0009971636460239077,0.0008502041379055566,0.0006343742244842938,0.0003179737897465284,-9.375803619170631e-05,-0.0005651485553169011,-0.0010509660066431185,-0.0015110631613022704,-0.0019069509723478534,-0.002187689076180503,-0.002285043043608905,-0.00213206349936925,-0.0016992375371965565,-0.0010249533276930297,-0.0002172689729905106,0.0005778391771743697,0.0012248447949663628,0.001637758506734156,0.0017928414283298602,0.001715958950740083,0.0014591812753627295,0.0010818685282736641,0.0006415987899322318,0.00019039304050489465,-0.00022926583700797598,-0.0005872836467477522,-0.0008616909319533704,-0.0010265098537828492,-0.0010420355575098735,-0.0008619772563772665,-0.0004611764159563386,0.00013139471413936479,0.0008199654779779877,0.0014652658296778194,0.001935271532949099,0.0021557199377323956,0.0021331584292558175,0.0019410723959952044,0.001680226242565776,0.0014345551539759471,0.0012405825480209702,0.001077323125357489,0.0008740204456346261,0.0005306666626077958,-5.0539487205293956e-05,-0.0009237157936752159,-0.002056547294323575,-0.003307557277126202,-0.004447416782082577,-0.005229509091527181,-0.005481489085876718,-0.005167031469212583,-0.004379152436213861,-0.003270850685892013,-0.001973160777979781,-0.0005588247867467507,0.0009265683985783706,0.0023974553672293747,0.003686301817431224,0.004571337152018148,0.004867756709878131,0.004528059633183977,0.0036864786724077813,0.002615358927266404,0.0016138151163105166,0.0008874264266099778,0.00048120191956747274,0.00029706999329929965,0.00018004371265547658,2.0134651848671768e-05,-0.0001891190697952004,-0.0003660604254122717,-0.00041410575874008975,-0.00030079474358043253,-8.952563349040469e-05,9.489629257579141e-05,0.00014003940319303474,7.202137225193438e-06,-0.00025905706975249006,-0.0005738279706829544,-0.0008712803869345117,-0.0011359149194049047,-0.0013848163416327124,-0.0016185152824231483,-0.001782882512235438,-0.0017774406002550314,-0.0015113431649707186,-0.0009717632375681154,-0.0002573821525972068,0.00044903828432832707,0.000956076902474263,0.0011451442244378388,0.0010151242435497104,0.0006708845213465021,0.0002663033907476392,-6.820091844398453e-05,-0.000280200884712351,-0.00040763705447820014,-0.0005428478581428976,-0.000765014324701086,-0.0010767532101735515,-0.001382626956248112,-0.0015264418463751244,-0.0013704165376088682,-0.0008737149687982274,-0.000126762044357575,0.0006792135308322667,0.0013354506811638445,0.0017139414375731876,0.0018329811943351303,0.0018521376425719757,0.0019889558616696464,0.0023910040088927402,0.003027591705125542,0.003663621964238642,0.0039397424398852285,0.003528117329293833,0.0022924724350946776,0.0003767156486378556,-0.0018203698871027802,-0.003774840232946136,-0.005017539100647387,-0.005291636753024883,-0.004627555312756124,-0.003311221492842652,-0.0017659244702496828,-0.0004009327700847543,0.0005131174600932337,0.0009012448148722111,0.0008646064229113198,0.0006042809196825399,0.00032474469947775335,0.00015538322482134973,0.00011688183645125472,0.0001389116685374353,0.00011459807097449932,-3.521550363505023e-05,-0.00031500024981396895,-0.0006426540729958464,-0.0008775125054238937,-0.0008796314030064243,-0.000578362321712897,-1.8525287986619066e-05,0.0006446930091911298,0.001209063558446989,0.0015199412029026859,0.001544870216908191,0.0013825425496018955,0.0011976968781012025,0.0011198028920586162,0.0011671305217301868,0.0012418420852328695,0.0011963612410174414,0.0009269254947425381,0.00043600828524652485,-0.00017088494143542446,-0.000744705787412814,-0.001165996134168292,-0.0013872699672550794,-0.001427247108174399,-0.0013329691016175428,-0.001142287194421513,-0.0008711000269499238,-0.0005274536328141307,-0.00013553750371851506,0.0002517738305049176,0.0005626529710863316,0.0007325156594690089,0.000729714446406576,0.0005651978915924508,0.00028250459580277023,-6.276248299431127e-05,-0.00042023743375026916,-0.000750409613741523,-0.001020054073272014,-0.0011963687591130844,-0.001248511309328851,-0.0011574776305243975,-0.0009263690573263629,-0.0005816552907620934,-0.00016408576820694523,0.00028275165637015563,0.0007177315600343653,0.001101496963067133,0.0013973625237186196,0.0015787729341391267,0.0016385510229365162,0.0015896820336191437,0.001453043708992037,0.0012395571832353306,0.0009412359796811403,0.0005403774545848379,3.247889631507523e-05,-0.0005523190953305408,-0.0011438826471652252,-0.0016469606874106749,-0.001968675577527955,-0.0020456075927321052,-0.0018599131242045246,-0.0014409295710452498,-0.0008555477283925708,-0.0001935427666628548,0.00044775925612271,0.0009787072489289702,0.001332949854171913,0.0014816178022848095,0.00144055935671175,0.0012638804061440069,0.0010212303080274808,0.0007657576417880996,0.0005088949796703315,0.00021871898531109673,-0.00015300745565983206,-0.000627664585710295,-0.0011647418085569254,-0.0016567134758397367,-0.0019602915159355203,-0.0019514473975692397,-0.0015791123729170878,-0.0008928065275090524,-3.201731812127375e-05,0.0008170590988524195,0.001478297080726197,0.001833968197804535,0.0018499647231644866,0.0015746256803822966,0.0011165724995289583,0.0006103747355793612,0.00017872324141438804,-0.00010086981629069298,-0.00021666249360647585,-0.00022282831610144407,-0.00021543504356194305,-0.0002895838754404759,-0.0004940377341506687,-0.0008051636006560361,-0.0011352060448783252,-0.0013717415470734134,-0.0014265996203639154,-0.0012675427400310186,-0.0009194044321442472,-0.00044284663326790404,8.920900448481056e-05,0.0006038507181607719,0.0010318339273262954,0.0013145476794542423,0.0014197059180617898,0.0013564938669799202,0.0011739111875374397,0.0009356389094575424,0.0006841633224000617,0.00041929192925819624,0.00010950459773577116,-0.0002679278441166424,-0.0006845469595801929,-0.001048454255297383,-0.0012381549369201974,-0.0011680741779720137,-0.0008462426799642946,-0.000383880035462173,5.530151706000137e-05,0.00033835674287415797,0.0004281496874940418,0.0003907487686292694,0.0003431996640234161,0.00037654093745922166,0.0005013073087640598,0.0006451464345937008,0.0006981454312927252,0.0005737675837470857,0.0002493246627196901,-0.00023023872631339876,-0.0007752140810938957,-0.0012786855547957054,-0.0016356109612488204,-0.0017571855217941002,-0.0015906166690798618,-0.0011437746367602244,-0.0004983824878721124,0.00020699664808428007,0.0008253623220599638,0.001257698226961821,0.0014839636945435282,0.0015502801016598136,0.0015238436528957878,0.0014483946852921026,0.0013287616657981739,0.0011474092732557447,0.0008913261892827528,0.0005644215878180596,0.00017927285171313645,-0.0002563154508229016,-0.0007379083417223818,-0.0012440161754362453,-0.001713878581547985,-0.0020482440765564247,-0.0021438628659096494,-0.0019465084547193152,-0.0014894154550308962,-0.0008888705257001936,-0.00029451473562455265,0.0001788814880959058,0.0004989823066343497,0.0007159008620654871,0.0009162342207001212,0.001159614355873837,0.0014358991138406722,0.00166787601205291,0.0017561731981343431,0.001637581388842984,0.001321235102077829,0.0008823792198071883,0.00041972761788394816,3.2316330156586864e-06,-0.0003566597143700704,-0.0007003488895103854,-0.0010761376316512211,-0.0014887404653242098,-0.0018717362566116533,-0.0021041119103797656,-0.0020656823440500125,-0.0017024007355504033,-0.0010648902219017012,-0.0002971327923433839,0.0004204224177058436,0.0009440533257436946,0.001218909637866258,0.0012857698589086254,0.0012436727992229417,0.0011923546776418082,0.0011852700927787322,0.0012128599623267749,0.0012162674303239425,0.0011175292268363302,0.0008505710168243871,0.00038475184320678555,-0.0002597015940572867,-0.0010036772092345758,-0.0017123892254533768,-0.0022178088110915753,-0.0023646788689694717,-0.0020707554379718208,-0.0013755710306884673,-0.00044701899111687876,0.0004693782022263598,0.0011429498536304383,0.001449397974458316,0.0014143092809920934,0.001185289048561783,0.0009475409392848713,0.0008274325717557811,0.0008330113331616719,0.0008589947526360582,0.000750419193901756,0.00039191198278020097,-0.00022022599694095394,-0.0009572121151690759,-0.0016004531555838053,-0.0019321981856609712,-0.0018343357598863278,-0.001346398117076277,-0.000649593852206348,1.851291196926252e-05,0.0004741669292040659,0.0006623844507007046,0.0006579898791002028,0.0005990049724610869,0.0005976087312204844,0.0006824397030327257,0.0008012808908569845,0.0008730215279915622,0.0008478965936028965,0.0007336867559153237,0.0005731796255308606,0.00039550575305441265,0.00018350361724089924,-0.00011414358574003258,-0.0005330505338589856,-0.0010425482441945488,-0.0015332973034036914,-0.001856564707266774,-0.001895035433002027,-0.0016244957739038122,-0.0011293990980582845,-0.0005613376332561157,-6.371342103936718e-05,0.0002929861214937537,0.000528414463229797,0.0007168821540056059,0.0009270046644525405,0.0011761118435229334,0.0014243405311944735,0.0016053063163596671,0.0016684128858789802,0.0016048038840145481,0.0014438473825113293,0.0012277215128339387,0.000983746499305926,0.0007112076403925449,0.0003869382291126313,-1.6969747782671267e-05,-0.0005127284264189128,-0.001080404915136019,-0.001660379965509227,-0.002159934794410719,-0.0024767721627278003,-0.002534223179750529,-0.0023137214495237593,-0.0018677628040866538,-0.0013043799854681628,-0.0007480298688637032,-0.00029362012232112054,2.612703790518564e-05,0.00024565750179963346,0.0004413970402762147,0.0006869977731677576,0.0010096621446841906,0.0013703359544760582,0.0016811026735363498,0.0018535913546999826,0.001851941150546096,0.0017164420704405573,0.0015380451371916095,0.0013944662031365241,0.0012870906472143226,0.0011236843627041248,0.0007672803077161119,0.00012940435263461694,-0.0007469760701128187,-0.0016696129507570404,-0.0023641269643317683,-0.0025962965609168977,-0.002285431003462871,-0.0015472260747672103,-0.0006425518983934163,0.00014032976428270935,0.0006084414475791617,0.000731074504588927,0.0006234486654186479,0.0004635307166425723,0.0003900471741608586,0.0004345638456384627,0.0005186709076260505,0.0005112590991563448,0.00030996521943173075,-9.817377968521961e-05,-0.000625553505797718,-0.0011219799182277616,-0.0014381880447397286,-0.001484393799387718,-0.0012607005402431601,-0.0008497687829304662,-0.00037655451146159977,4.7160739602806464e-05,0.0003680943749037385,0.0006046869878720323,0.0008219589451243525,0.0010819862270952908,0.0013969593059646292,0.0017105751646708189,0.001919398828159189,0.0019252457183378427,0.0016913753140262214,0.0012692760884354733,0.0007758487803568141,0.0003293555256816497,-1.944294698797322e-05,-0.0003167041810919931,-0.000671982924764448,-0.0011767935531730514,-0.001822942632075586,-0.0024736894214426354,-0.002912636052311544,-0.002948105637850285,-0.002514098629628779,-0.0017085782801159644,-0.0007476174038072562,0.0001357419364604387,0.0007895912086890722,0.0011875061010529022,0.0014037439031814255,0.0015429578481954173,0.0016692300374823743,0.0017736228201690753,0.001793333733547712,0.0016650976072187804,0.0013773284838250973,0.000988142820884425,0.0005973168114919413,0.0002880340042407416,7.377210525261619e-05,-0.0001149691581201032,-0.00039114484405917846,-0.000836877454641412,-0.0014349321574150702,-0.00204745495264828,-0.0024610643228284786,-0.002481830040844229,-0.0020337384200241437,-0.001208074187188649,-0.00023439874324231,0.000615563456721792,0.0011444043231341404,0.0013080802457289189,0.001218378657430132,0.0010686044087952872,0.001022631455175524,0.001127997306916621,0.001300522944622493,0.0013855140780524799,0.0012543400695275613,0.0008761543710700932,0.0003255567988276859,-0.00026821093732906014,-0.0007892284229451168,-0.0011757802155264632,-0.0014170473768804377,-0.001521567586850021,-0.001488588481162571,-0.0013044971706346405,-0.0009643971717918187,-0.0004997047876364909,1.2229735038546082e-05,0.00046845890850060525,0.0007816194145974942,0.0009174279013494844,0.0009056937016280273,0.0008194098532265141,0.0007359351021087822,0.0007017942722647581,0.0007151844481948644,0.0007272689422234903,0.0006569152747317517,0.0004166048582795436,-4.935843283096876e-05,-0.0007203890460295167,-0.0014708944904073568,-0.002086926572857856,-0.0023406486121653677,-0.0020969038434760557,-0.0013939934140954787,-0.0004437311201067875,0.000460814949839094,0.001083893087276206,0.0013534066897929558,0.0013727869794681784,0.0013328090590374467,0.001379367237111347,0.0015200499500275147,0.0016260849063457713,0.0015235715411028449,0.0011109438076286659,0.0004266259078338164,-0.000371223765914533,-0.001090930016438225,-0.0015978029938571703,-0.001853224432113211,-0.001889701871653875,-0.0017550297268624088,-0.0014736216355585308,-0.001050085436478028,-0.0005021951394911354,0.00011082001220725634,0.0006900556658187328,0.0011283846826042596,0.0013512332860449207,0.0013442428898328184,0.0011562462288476523,0.000878371736967438,0.0006082361098800203,0.00041299471818361595,0.0003065789499297582,0.00025133830590826317,0.0001820919760631215,3.874450034942168e-05,-0.00020854574573467863,-0.0005493512415882951,-0.0009359059331657325,-0.001293799237450108,-0.0015385695310856408,-0.0015983183058981927,-0.001438192355487328,-0.001075920437482169,-0.000577407031390188,-3.164215138909204e-05,0.00048174783891123457,0.000913170613948977,0.0012414351774067782,0.0014563366105566629,0.0015438263698132847,0.0014887010575356295,0.001293259779700804,0.0009944936599046953,0.0006610158607730703,0.00036585734194684793,0.00015029591326018237,2.0646074443437666e-06,-0.0001369948079979024,-0.0003370055462982072,-0.0006386654946091334,-0.0010263242737698242,-0.0014274948295179175,-0.001736366994248853,-0.0018497129088655734,-0.001702090676237489,-0.0012897408544457556,-0.0006761109430583059,2.3126531008406132e-05,0.0006714626779065268,0.0011500588807093475,0.0013917969567196547,0.0013998238636003745,0.0012428569616077605,0.0010263187473588992,0.0008478229663968146,0.0007541270719189266,0.0007196180578343881,0.0006598318638931733,0.0004774881391218865,0.00012003308317295796,-0.00038153369809823816,-0.0009148885403325586,-0.0013304929604367945,-0.0015060099400914966,-0.0013988927005901706,-0.0010612955722199265,-0.0006108467386814798,-0.00017380019898013944,0.0001682013353691027,0.00039940022314936477,0.0005513164662293464,0.0006618863502912582,0.0007428207925623716,0.0007762245023804792,0.0007370790060101872,0.0006182186821407725,0.00043512672534219373,0.00020818994740696322,-5.807855566230006e-05,-0.0003753990106805491,-0.0007459783869088795,-0.0011295296533214033,-0.001432806235005844,-0.0015389531539280418,-0.001366028704365909,-0.0009200166989401939,-0.00030561333033925176,0.0003177337640545372,0.000811139896382485,0.0011172075083490049,0.0012697781027306157,0.0013506854083889697,0.0014265849521835135,0.0015078820380874554,0.0015505018471840021,0.0014892989338357314,0.0012744241163659454,0.0008889740953503154,0.0003471356606641997,-0.00031291816203276603,-0.0010295494203932149,-0.0017141618902692603,-0.002256553375977382,-0.002547730358871814,-0.0025146994302944516,-0.00215090253347506,-0.0015263963980147416,-0.0007713405466383438,-3.782241757727394e-05,0.000546612316412134,0.0009170711785463977,0.0010866618466752163,0.001132118137781468,0.0011538296597776157,0.0012259351696959093,0.0013589866626666034,0.0014941026121273425,0.0015321987713371342,0.0013824751011212101,0.0010040143743045913,0.00042095181580290275,-0.00029002378943439506,-0.0010254562077533988,-0.0016779042965257057,-0.0021496570433181764,-0.0023622728116779127,-0.002268808266559853,-0.0018688370678686238,-0.0012186089022785643,-0.00042688899711673835,0.00036764154631240784,0.0010324262574770253,0.0014776289872220371,0.0016783505341805569,0.001673289133929954,0.0015413963215722226,0.0013673416496605942,0.0012093649205457127,0.00107967879934179,0.000942214088738162,0.0007283247015390372,0.00036753805836076234,-0.00017418874850336528,-0.0008613324898375693,-0.0015760937447561137,-0.0021387147856181616,-0.0023631170386603853,-0.0021326894197712517,-0.001463640545939976,-0.0005192972268335223,0.00044240445054551667,0.001170089587485248,0.0015192782148323097,0.001498692446295809,0.0012391440479843085,0.0009064567530108677,0.0006103123163679699,0.0003589212631763017,7.965696126452121e-05,-0.0003117880618759698,-0.0008361380021706622,-0.0014128354455803858,-0.0018819924671997076,-0.002075116008549489,-0.0018967512830012731,-0.0013729871561737566,-0.0006410743137950235,0.00011294991530037064,0.0007335488756387795,0.0011497579590510328,0.0013798053047394368,0.0014923511620489184,0.0015531503553743678,0.0015887408642741368,0.0015839480437906562,0.0015087047244061668,0.0013529321958919926,0.0011436921006440766,0.000929924430268822,0.0007424172005624273,0.0005567981717924581,0.0002904921597980505,-0.00015398244843492764,-0.0008175191281283032,-0.0016267534284334488,-0.0023925580946606746,-0.0028788279985761823,-0.00291237549984302,-0.002473901955986852,-0.0017152639046069985,-0.0008895459120597743,-0.0002314154694995946,0.00014719734227876838,0.00029225862734947455,0.0003596022856498138,0.0005137368542241488,0.0008294541834481962,0.0012488780683271652,0.0016160658610969948,0.001768249845556482,0.001630328702034999,0.0012571853842772902,0.0007995129253641066,0.00041476367169509783,0.00017782143162572376,4.617953030940547e-05,-9.890407479045413e-05,-0.0003614797012624426,-0.0007490266504929483,-0.0011535379643612793,-0.001408217350408378,-0.0013821712630404553,-0.0010518152329143955,-0.0005072767267486334,0.00010122279398567754,0.000634229394156824,0.0010062361939783917,0.0011864061812764438,0.0011763187589587177,0.0009949409964392342,0.0006835442760966381,0.00031693246084425845,-3.2969126605081388e-06,-0.00018379886170800795,-0.00018735013943966584,-6.217299585069345e-05,7.17560474531604e-05,7.873699232656227e-05,-0.00012174358048218419,-0.0005082196077473354,-0.0009624105734873425,-0.0013258467853442485,-0.0014775558433099958,-0.0013890015581927682,-0.0011254948076060518,-0.000796256872362347,-0.0004871597757836201,-0.00021933241137660556,4.281148818046656e-05,0.0003449634744767799,0.0006936588182229188,0.001039112283068654,0.0012994996269033153,0.0014058207473269253,0.0013339468770721783,0.001104197549231647,0.0007566588557151651,0.00032917614098035205,-0.0001407547234500614,-0.0005939172447052508,-0.0009338158156472758,-0.001045090631886395,-0.0008485721202878458,-0.00036232173162899293,0.0002775500794118716,0.0008639783484605272,0.0012171514928179,0.0012767392056727781,0.001126670822208487,0.0009308484477059371,0.0008176780380176548,0.0007887408579441105,0.0007141301682387204,0.0004209956342742338,-0.00017986700151004795,-0.0010111552228242678,-0.0018464017086384141,-0.0024225360030548496,-0.0025819508878764954,-0.0023558263097697356,-0.0019337623603640874,-0.0015376159852377826,-0.0012829466729209638,-0.00112114623937099,-0.0008983203689834174,-0.00048391573001496093,0.00012521829741668727,0.0007974051816194503,0.0013548025566422932,0.0016892713421205793,0.001821241491999165,0.0018635032759092458,0.001923103263786812,0.002017533130679801,0.002066175306324552,0.001959248179801774,0.0016497024482782954,0.0011990909983720733,0.0007436966396025203,0.00040458025877838076,0.00020414168100008545,4.707080208114756e-05,-0.00021918892228836985,-0.0007005535935292693,-0.001372795193978417,-0.002071229149308878,-0.002563990215525253,-0.0026697039894358855,-0.0023526782018166896,-0.001740882260928049,-0.0010577162693662459,-0.0005091563614714016,-0.00019108272729366493,-6.443956646282311e-05,-2.628992374698329e-06,0.00012440148325794202,0.00037841353222937426,0.000726543871492443,0.001063413872422688,0.0012612681175092385,0.0012224547457778253,0.0009177977432761452,0.0004051028670121605,-0.00017528795287697686,-0.0006333985077549256,-0.0007924315773430771,-0.000565983536065625,-1.3686358785284635e-05,0.0006641613686396207,0.0012060877758270957,0.001410893527323016,0.0012354858956967493,0.0008101314826972069,0.0003599358184305279,7.987104026703799e-05,3.889537648641599e-05,0.0001665517197592236,0.00031953829308875733,0.0003761029243962873,0.00029553197836107805,0.00011160742316611012,-0.0001227870609096974,-0.0003913934087890072,-0.0007266815424708717,-0.0011687055636523946,-0.0017007130367080203,-0.0022103820023417968,-0.0025118711230505283,-0.002426145577015933,-0.0018784164396082824,-0.0009558947780610161,0.0001129226358337025,0.0010533597950595432,0.0016661190669869693,0.001908858387898428,0.0018919630894586891,0.001792837378970443,0.001742437708673896,0.0017537590555656896,0.0017329663342981483,0.0015590317530672975,0.0011740035330033121,0.000622286476348927,1.531648297965803e-05,-0.0005484479728505898,-0.0010464810125476343,-0.0015293505147048678,-0.0020525054768829663,-0.0025930702545738263,-0.003016579917602502,-0.003126874590777505,-0.0027754958998357226,-0.0019631093990702614,-0.0008651443770053993,0.00024100351716144826,0.001108493438966256,0.0016374728602978209,0.001909457428229731,0.0021213444291758544,0.0024558629099867843,0.0029583362252509284,0.0034866535712970172,0.003765379109487569,0.0035217490101718376,0.0026350823321642357,0.0012176027512719057,-0.0004221445088694087,-0.0019148880296589856,-0.0029862524046620877,-0.0035432557334777997,-0.003652649699967935,-0.0034454168889803197,-0.003023795754609059,-0.0024309958486882486,-0.0016882577287147726,-0.0008536693803342442,-4.647112232137343e-05,0.0005882479797454998,0.0009524335284263561,0.0010539126495279648,0.0010069395801299023,0.0009685984028022982,0.0010482007830456897,0.0012451323897091676,0.0014522292962521174,0.0015199310374317348,0.0013400068325951026,0.0009003727761560805,0.00028630906936572887,-0.0003618270390254883,-0.0009035953002662226,-0.0012390511015644037,-0.0013258850669282036,-0.0011788011646680218,-0.0008590005229870234,-0.00045609883840293453,-6.209570399140182e-05,0.00025778576960747905,0.00048449376998587954,0.0006414236581984285,0.0007667868091352042,0.0008793378080068357,0.0009622319299004801,0.0009774731569300787,0.0008993871921616579,0.0007392539632732894,0.0005388685360780556,0.00033547096158068187,0.0001256452040582714,-0.0001392681221722774,-0.000515278659546871,-0.001007828218645006,-0.0015360089679394531,-0.0019502535698880425,-0.002099270710495096,-0.001907032237668045,-0.00141232156263562,-0.0007480655745652012,-7.675779312917963e-05,0.00047686071602132997,0.0008599288357392026,0.0010838141786512622,0.001192634192767098,0.0012333711340306915,0.00124098112069754,0.0012349546587428438,0.0012172072109363876,0.0011681111698328929,0.00104778741030334,0.0008108003854684698,0.0004316622621014592,-7.363850807920013e-05,-0.0006455255736188285,-0.0012002421438407236,-0.0016569147424285165,-0.0019545282681730273,-0.0020527401326428823,-0.0019262233200884953,-0.001567036084499593,-0.0009991644260317258,-0.00029371946562204874,0.0004332250302418075,0.001048858092279662,0.0014481748895136736,0.00159191990925045,0.001517153287810246,0.0013148974935121359,0.0010866259308201618,0.000900954056481574,0.0007707575858075637,0.0006604968411617509,0.0005173587259041195,0.0003058132871084781,2.4123203304298407e-05,-0.0003033416276543295,-0.0006441449311715476,-0.0009659104310164874,-0.0012279590537648678,-0.0013708981113655558,-0.0013260489383031314,-0.0010510581031386854,-0.000571542367354076,4.8660695615931025e-06,0.000521846005888291,0.0008424626340645415,0.0009129893790561288,0.0007829751897603495,0.0005679613201695154,0.00037619035185687826,0.0002426350400372636,0.00011002388911296478,-0.00012999361883962116,-0.000556883877286328,-0.0011478029513263084,-0.0017562639461240447,-0.00216256747990217,-0.00217493724415468,-0.0017273114112992935,-0.0009171779416797283,3.971087581273997e-05,0.0009115310687509137,0.0015509050365121774,0.001939985354844645,0.0021616943027311874,0.002320407514885699,0.0024608402231634137,0.0025325061889816254,0.0024204172808198806,0.0020233572303940406,0.0013308055706419757,0.0004488305002158117,-0.0004428253360548523,-0.001176001323654259,-0.0016689619931411857,-0.0019469464654186127,-0.0021007498441628194,-0.002214032023292965,-0.002306365750603008,-0.002325015866889105,-0.0021854780990449114,-0.0018312457226447854,-0.001275057384938325,-0.0005994713434882579,7.864756833341076e-05,0.0006552310846187816,0.001071409826007975,0.001319191838120805,0.0014263868427359914,0.0014359294654066159,0.001391317958806986,0.0013298443893554387,0.001277978171661884,0.001243669959621314,0.0012067551712815184,0.0011155022963613337,0.0008989433301428229,0.0004977087617570077,-9.725977063986153e-05,-0.0008197527903874096,-0.0015365426681523179,-0.00209031902751674,-0.0023565746992047507,-0.0022847242008032943,-0.001905108747577641,-0.0013053374126375755,-0.0005947469332181104,0.00012420839651258037,0.0007699148356400073,0.0012848023796832148,0.0016359516544750732,0.001817225960126782,0.0018497520491383196,0.0017740928200913988,0.001631701853217102,0.0014426444788266887,0.0011937583167247422,0.0008495385845177199,0.0003854214035673442,-0.00017427958667755582,-0.0007416892706751585,-0.0011937083674068852,-0.0014366272441707492,-0.0014703677735531365,-0.001404964903878675,-0.0014043941722085035,-0.0015800518058478714,-0.0018976392438415995,-0.002164344212497711,-0.0021191947582081903,-0.0015832542855633723,-0.0005818547579585006,0.0006386173075343044,0.0017146051237901395,0.0023313379721321905,0.002357381062967057,0.0018803835395686682,0.0011404836749683413,0.00041239032192954205,-9.959263279695298e-05,-0.00031386312964066273,-0.0002666852817036448,-6.84401931500744e-05,0.0001549766936936119,0.00031397177671843666,0.0003832353353698144,0.00039717034948279196,0.00041743310119326095,0.0004901062845125364,0.0006143256510085847,0.0007375429723455017,0.0007793549286776436,0.0006724815984078232,0.00040130709999895947,1.8212596204789403e-05,-0.0003739451557587649,-0.0006697831691647687,-0.0008181435516668392,-0.0008540638777663721,-0.0008795633615448692,-0.0009969151130859338,-0.0012338944141691145,-0.0015125321844202183,-0.0016863725717249421,-0.001623667104266209,-0.0012819105913363501,-0.0007267553845896424,-8.828449216473355e-05,0.0005106711845333199,0.0010052172221740065,0.0013897941011327165,0.001680107179273027,0.0018722814545218728,0.0019327991057783468,0.0018243844312718163,0.0015432162116402384,0.0011350405346400557,0.0006762235236189803,0.00023385434382217378,-0.00016574866756220588,-0.0005385707984119207,-0.0009155786327428,-0.001307129891355101,-0.0016826219002142144,-0.001975712092161318,-0.002108252759861667,-0.002017740206964603,-0.001677069238313291,-0.0011045847468084866,-0.0003671330336586147,0.00042403839780741587,0.0011295751035249703,0.0016144777438465304,0.00179129292276873,0.00165699658668644,0.0013027987717532518,0.0008858274274347855,0.0005706884555732481,0.00046536517882161564,0.0005788830596207451,0.0008167041752104131,0.0010135990804270396,0.0009930285228373277,0.0006374728555414309,-5.102635381776775e-05,-0.0009274171610599254,-0.0017408958983504172,-0.0022311626140075307,-0.0022437517419742134,-0.0018024988938515564,-0.0010949453036613354,-0.00037681438650928514,0.00014978225103880823,0.00041644625919358283,0.000488137907468862,0.0004938546357172822,0.0005380165084802183,0.0006458290367294436,0.0007666176169113166,0.000820030871476593,0.0007480385026878019,0.0005421676624974047,0.00023960629073643477,-9.801573935286213e-05,-0.00040645687611828873,-0.0006342265715818963,-0.0007523025074325528,-0.0007581217872447083,-0.0006703640389315443,-0.0005143867394592195,-0.0003072026669884379,-5.4705487576402374e-05,0.00023504589870935533,0.0005342362819229373,0.0007923558097167356,0.0009564143179476895,0.0010014507906556077,0.0009450102137896411,0.0008283792975335069,0.0006748816735422493,0.0004591646893109213,0.00011897365296050758,-0.00038955482644650625,-0.0010286029375147193,-0.001656409203328167,-0.0020723985704426615,-0.002111111422067504,-0.001730346010764255,-0.0010382004681936778,-0.0002404314960638772,0.00046053106999438315,0.0009543033317314445,0.0012489611461704547,0.001426924136258896,0.0015661488298447908,0.001680427957026763,0.0017152176727720514,0.0015964191233636318,0.0012947455221354325,0.0008592889256706627,0.0003956004580618332,1.5967641216652236e-06,-0.0002959740957830706,-0.000560217608726747,-0.0009011824665589978,-0.0013940842288164771,-0.002008149465815305,-0.0025924284968314214,-0.0029328832637891275,-0.002853107692403116,-0.002304482458707505,-0.0013963558730197532,-0.00035006955944415295,0.000597437189965535,0.0012885556696980685,0.001690540099840847,0.001874135781834779,0.0019461279551230676,0.0019802953164927495,0.0019864477459000103,0.001927933875605186,0.0017647479302835651,0.0014858135062722408,0.001109163411577944,0.0006588571534057155,0.00014671358559591874,-0.00042061334853576223,-0.0010148797558148042,-0.0015659884198839322,-0.0019711833528072084,-0.0021335449147373703,-0.002006980210381022,-0.001620488164564002,-0.0010689528647818726,-0.00047735740098086047,4.3289473415587506e-05,0.000429694174071431,0.0006773016639390825,0.0008255346883601789,0.0009252477145395249,0.0010053083123641618,0.0010556706651125057,0.0010343342490576283,0.0008916056740807549,0.0005970576888263272,0.00015712424960115297,-0.0003800599276002559,-0.0009298361675847361,-0.001384246874045513,-0.0016349357415663681,-0.0016058018166975347,-0.0012864033948159468,-0.0007481342487430198,-0.00012744422926270636,0.00042315039529342447,0.0007946309953024132,0.0009603304074749211,0.000973289907419283,0.0009261140691339256,0.0008991509191892625,0.0009262392502875829,0.000991123367596521,0.0010459443486192312,0.0010329198341898758,0.0008971907477791246,0.0005939569362500799,0.00010151978460659714,-0.0005549735066573919,-0.0012814768171200742,-0.0019185593103702167,-0.0022857782021886725,-0.0022552538743700647,-0.0018168065541381516,-0.0010938340899942346,-0.00029466246176799396,0.00037724781954504927,0.0008053579022507206,0.0009910130287330205,0.0010225418743691655,0.0010084179158731193,0.0010169633641503534,0.0010536166498913853,0.0010789222698248937,0.0010459628589367977,0.0009290307914006949,0.0007272623940279806,0.0004477438002868106,8.799317774829099e-05,-0.0003622227952636658,-0.000895083420726076,-0.0014510535898936794,-0.001905617815429461,-0.0020981416229573914,-0.0019005774398996166,-0.0012951893742977362,-0.00041554913756015893,0.0004836288144720098,0.0011263760366956087,0.001340908044663791,0.0011430730130233525,0.0007259871175134648,0.00035576830155810467,0.00023083850647671324,0.0003859809000437675,0.0006936116336154082,0.0009527701933179768,0.0010042848045348413,0.0008026104868304497,0.0004118983452988367,-5.4230361842743866e-05,-0.0004996402196470847,-0.0008777364008765078,-0.0011798782752420578,-0.0014016238702146658,-0.0015169247342907617,-0.0014783384238213145,-0.0012418486549926708,-0.0008002899674515705,-0.00020500318901554718,0.00043862601422675683,0.0010025716134429198,0.0013805940450328554,0.0015240480254294282,0.001451846930810813,0.001231369804746542,0.0009418656734765669,0.0006390974351263964,0.0003375057923474449,1.7409833087927117e-05,-0.0003464765164066247,-0.0007498106036603694,-0.0011372749412547434,-0.001411284917043764,-0.0014714328958045986,-0.0012665795015849616,-0.0008309310108426781,-0.0002807013576837475,0.00023179375085815535,0.0005847256931310052,0.0007378617679732578,0.0007394642836031679,0.000686281028380223,0.0006620761554624358,0.0006921238007547913,0.0007394405839885307,0.0007409885708749731,0.0006562434345785339,0.0004933133614002669,0.000294683079348804,9.472998256125577e-05,-0.0001167480701778595,-0.0003932277455082704,-0.0007871395632871171,-0.001289976275635641,-0.0017999127971255898,-0.0021460917512099867,-0.0021628505653733805,-0.001773192557369815,-0.0010326724087890138,-0.00010877209940659692,0.0007900546171919574,0.0014942077917229455,0.0019211778961243328,0.002076202551642899,0.002018037736930039,0.0018174886070261946,0.0015319498680050005,0.0012025186640309338,0.0008636119565863197,0.0005481643024680366,0.00027778792169696445,4.3063689448545e-05,-0.00020630999481645508,-0.0005419308928543019,-0.0010080134925822604,-0.0015712200944329932,-0.0021076985759799893,-0.002446804973426905,-0.0024520455471403915,-0.002090470078086653,-0.0014465922573841305,-0.0006742489023235979,7.833060624227225e-05,0.0007205860489579315,0.0012219820900628065,0.0015777420521548378,0.0017756780142869674,0.0017935277773230766,0.0016252337572649506,0.0013084218580514478,0.0009247166266948034,0.0005674126347145708,0.00029689949474186764,0.00011303726936525887,-3.8574484694900766e-05,-0.00023091366465367695,-0.0005104203958702389,-0.0008650703851878399,-0.0012204374427075958,-0.0014660639744982402,-0.0015017772858895002,-0.0012841069126437274,-0.0008507339717030318,-0.0003090788444021068,0.00020799943615949545,0.0005985945274183805,0.0008308922605312085,0.0009433470875592235,0.0010060654065672284,0.0010673394758393808,0.0011187905200446989,0.0011002852365812905,0.0009398562914916757,0.0006024320978612197,0.00011837130633003581,-0.00042186249844614694,-0.0009003575986358624,-0.001213966367885207,-0.0013092074196380359,-0.0011994063703924685,-0.0009589859685784298,-0.0006945246939112899,-0.0005000638440299583,-0.0004141309272238336,-0.00040032509780034767,-0.0003650852037546523,-0.00020744115868840665,0.00012308371475791622,0.0005910812097455966,0.0010831943782173316,0.00145768664548498,0.0016097757718756653,0.0015153084531966449,0.0012267811103127424,0.0008266626036486106,0.0003733043985418029,-0.00011943828564562253,-0.0006535471979859841,-0.0011933452055566081,-0.001634487286067946,-0.0018302938014990418,-0.0016690473776828398,-0.001154749033188465,-0.0004335457158765381,0.0002613477290295625,0.0007209023624734471,0.0008633830086406044,0.000766777008634045,0.0006107561186596007,0.0005645852209353636,0.0006900214940017209,0.00091596022178135,0.0010937296729357595,0.0010916896017247426,0.0008677907067792289,0.0004787792441996391,2.8343574706050554e-05,-0.0004048179061622967,-0.0008072791818765533,-0.0012111333536609535,-0.001629329321917867,-0.0019968116723544658,-0.0021694550964095802,-0.0019946323788762425,-0.0014139648507821437,-0.0005292687875087451,0.00041914968182371376,0.0011574882346452513,0.001507762956316823,0.0014657905659854786,0.001184419620783771,0.0008774298524733974,0.0007052980717093343,0.0007079478016619892,0.00081350279034725,0.0009041622567459871,0.0008917051804764923,0.0007586416791204049,0.0005480941680959055,0.0003172569054774384,8.881393845524242e-05,-0.00016655477204499097,-0.0005037909993222718,-0.0009488763746730376,-0.0014521748337515145,-0.0018845562051901096,-0.002086122597070697,-0.0019429609577007018,-0.0014473703477996091,-0.000706756243680252,0.0001011971056974982,0.0007986747842362275,0.001266459883071196,0.0014693254374544317,0.0014477532383857135,0.001288102423631151,0.0010843553745910246,0.0009020426497257949,0.0007547519639541242,0.0006032882741772843,0.00038129242275620014,3.8362745221797584e-05,-0.0004203856244458454,-0.0009211457005513322,-0.0013447911503876777,-0.0015761625881630828,-0.0015530894817717713,-0.001289509782091626,-0.0008633069134362906,-0.0003797339118230212,6.817154501008839e-05,0.0004245244859774276,0.0006747959686377093,0.0008335901384127669,0.0009255204576246569,0.000968991942238205,0.0009691058325087353,0.0009202112711830621,0.0008137723136351302,0.0006455379622823213,0.00041788613231442484,0.00013756895374756472,-0.0001865074282567025,-0.0005400115728058093,-0.0008938264708880806,-0.0011956418227412457,-0.001373190183853068,-0.0013549259505130687,-0.001102784582303807,-0.0006414508351132045,-6.590278741320756e-05,0.00048344801070595905,0.0008726637249662106,0.0010303039933681473,0.0009770426389253085,0.0008098280878752734,0.0006483406096296186,0.0005753520700692526,0.0006044087150615255,0.0006865414498258572,0.0007416637584728024,0.000691501667775453,0.00048190425537949187,9.658455729460986e-05,-0.00043354196013304996,-0.0010291204546886835,-0.0015772747813419692,-0.0019638488856422495,-0.002111456472255115,-0.002004599149792013,-0.001687727850686922,-0.0012364614027978761,-0.000718337963829955,-0.00016747186720516378,0.00041015427457600606,0.001005263773794799,0.0015726516772724846,0.0020249560729187002,0.0022619192016261917,0.0022187052417428875,0.0019033880236997655,0.0014005290090795693,0.0008382868246644525,0.0003368135566680466,-3.5742688785841904e-05,-0.0002795957415499366,-0.00044750855300191086,-0.0006076104540875277,-0.0008038221394075984,-0.001031837067941618,-0.001240196978108584,-0.001354341094088047,-0.0013116673898227978,-0.0010915833498055716,-0.0007274873273206838,-0.00029608088200722675,0.00011035831454780313,0.00041612857666058927,0.0005858841367087026,0.0006326560393493134,0.0006087379896749768,0.0005816189374173318,0.0006003791219455993,0.0006639404124515094,0.0007086451252938544,0.000630417299854288,0.00034042008193541166,-0.00017124092328710185,-0.0008038377820059641,-0.0013748824267770746,-0.0017016780839868566,-0.0016899232212556747,-0.001374358810835326,-0.000886371922438834,-0.00037241063188071235,8.151251036295844e-05,0.00047269173403983013,0.0008453145327486284,0.0012281689160144724,0.0015929255493852131,0.0018603344779062453,0.00194674728980847,0.0018166073273363813,0.001504208478928098,0.0010902808776361071,0.0006508300303715894,0.00021556165510431798,-0.00023369499139020257,-0.0007241711279781789,-0.0012434179296777845,-0.0017186075912221585,-0.0020404039035205102,-0.0021153521113921286,-0.0019123149917879539,-0.0014760960566960889,-0.0009059006973514804,-0.0003174719542758848,0.00018867705512740668,0.0005430132832286161,0.0007119079838533217,0.0007016078550522167,0.0005630274103573365,0.0003876064459259614,0.0002825181662390729,0.0003264356634230339,0.0005261990211331072,0.0008028037934244912,0.001021323830105671,0.001051382684070794,0.0008245434653587312,0.0003592655189007851,-0.0002517395335012916,-0.0008745729444918822,-0.0013676470620007162,-0.0016093907423882703,-0.0015254250790288663,-0.001115887762888064,-0.00046914222068369764,0.0002567491687880925,0.0008874676526983079,0.001297317098268298,0.0014492352537216423,0.0013880611190303259,0.001197084528923962,0.0009514960361685415,0.0006981692586059866,0.00046374820698905333,0.0002677491720173851,0.00011784807849413831,-1.03397534543775e-05,-0.000182282601974722,-0.0004776263666730399,-0.000932099144659729,-0.0014851773738299358,-0.0019768511995878623,-0.0022091213415791977,-0.002044388835485283,-0.0014844786051311418,-0.0006814899503933881,0.00012882865441579032,0.0007344248414849596,0.0010352842947400488,0.0010672712598416554,0.0009567748595162909,0.0008410327208228475,0.0008020818394290575,0.0008440873023001932,0.0009119493783573259,0.0009280693765109839,0.0008253319112386931,0.0005689118466464149,0.00016990353942708498,-0.00030841612348508397,-0.0007585680508538428,-0.0010583040421558694,-0.0011169789781106322,-0.0009187018314649719,-0.0005363617980336181,-0.00010256347105667079,0.00025211759539983273,0.000461539004215184,0.0005509468885954717,0.0006103142631894846,0.0007269581734960873,0.0009165774014062328,0.0010962075626877983,0.0011198646831606332,0.0008598766609184988,0.00028760705283835506,-0.0004938793727069422,-0.001284497910241864,-0.001869726731323621,-0.002106988232392734,-0.0019740614261782932,-0.001561667685850164,-0.0010215598222334395,-0.000500532045661894,-9.200639264815829e-05,0.00017817298893836467,0.0003361360508393088,0.0004324088415168575,0.0005189481784096408,0.0006364124956287766,0.0008079192724479997,0.0010343031401670085,0.0012901383477191886,0.0015232113258635664,0.0016601871046155125,0.0016200185837434318,0.0013359238612681548,0.0007844646087416846,1.376507795747793e-05,-0.0008450287108184773,-0.0015996613328469753,-0.0020553748250605433,-0.002090596353199756,-0.0017130855015467304,-0.0010639239798078777,-0.00036255052804479474,0.00018217450801956783,0.0004525536904336511,0.0004584662190040504,0.00031737756683781245,0.0001914241755729255,0.00021104094167655407,0.00041699164693416907,0.0007433771202588214,0.0010473647633872153,0.0011723764228829885,0.0010172917591353837,0.0005816576642391101,-3.194381066831621e-05,-0.0006575358933714069,-0.0011282028690668845,-0.0013338653070582372,-0.0012519738511242438,-0.000943602055726014,-0.0005230259736694533,-0.00011652491892893903,0.00017563249207958964,0.00030544474956775236,0.00028672846941953594,0.0001853406521133776,9.151916154552108e-05,8.16602009121746e-05,0.00018190993753976241,0.00034833233665909906,0.00047669468818491677,0.0004461192053026395,0.00018383918140344856,-0.00027968821304785946,-0.000800349722776055,-0.0011704915362975598,-0.0012105005341635708,-0.0008549039326881401,-0.00018574432157504356,0.0006051868526299529,0.0013036956931598265,0.0017615890361779032,0.0019393683247739422,0.001885909810478348,0.0016770697830022175,0.0013588073820418808,0.0009325067186580736,0.00038671581880123877,-0.0002549999106660065,-0.0009109582435995678,-0.0014635218652566092,-0.0018120967997254105,-0.0019201754009319349,-0.0018258456406273704,-0.0016122396178964353,-0.0013596832276283532,-0.0011082835048938505,-0.000849043711047605,-0.0005445624305477875,-0.00016636845417921883,0.00027148186568231214,0.0007023113382063409,0.0010297334648517544,0.0011746604187781496,0.0011197633737085317,0.0009213479368390013,0.0006770557131030959,0.00046866578949545344,0.00031934962676708335,0.0001958374632788861,5.263463387348622e-05,-0.00011676072023149005,-0.00026208691353076186,-0.0003066442773483283,-0.000203567154728584,2.371356624789316e-05,0.0002869524732806553,0.0004817017379684388,0.0005465689596899859,0.0004945306565475133,0.000397555136209166,0.0003363328912409314,0.00034726232938289887,0.00039735872622515987,0.0003990802964417173,0.00025568243803025933,-8.50976631901983e-05,-0.0005934708537037173,-0.0011546087977579158,-0.0016054273378196824,-0.0017977875823247187,-0.0016593127907420764,-0.0012219626522817339,-0.0006052340161280279,3.465871697516469e-05,0.0005621395560998179,0.0009001531863304222,0.0010378643907878557,0.0010144531908551592,0.0008932585083868308,0.0007373214750345675,0.0005896714127817642,0.00045872251279369504,0.0003137990089477436,0.00010045107325152447,-0.00022142367707463648,-0.0006326246733456462,-0.0010348668117604765,-0.0012815263205761369,-0.0012517066629529987,-0.0009239876251156892,-0.00039770362589838077,0.00015812686488932007,0.0005965506960591248,0.0008633472755222582,0.0010011266910698344,0.001090832240798514,0.0011781184772512753,0.0012380322682133378,0.0011991597457319469,0.001004470968386448,0.0006620397968855024,0.0002492270929264805,-0.00013134884707439532,-0.0004122631058579032,-0.0005966135079009569,-0.0007452677108444695,-0.0009256725487400395,-0.0011566754195073948,-0.0013857443297172999,-0.0015138613309265921,-0.001452915153396828,-0.001179735896584128,-0.0007530219419023022,-0.00028315876392656886,0.00012487184241315955,0.00041887751746025217,0.0006093683765015441,0.000741572761019534,0.0008541330256824219,0.0009535002888795315,0.0010162032531653461,0.001009147363804677,0.0009088564562091124,0.0007086844371170275,0.00041754638986285096,5.9960078433031515e-05,-0.0003193099547787624,-0.000653405706777552,-0.000864794524227137,-0.0008919708060341985,-0.0007200375383979573,-0.00039628510199408084,-1.730900066205035e-05,0.0003095068660104762,0.0005105704200939673,0.0005722034013836232,0.000535167601232774,0.0004638642991005389,0.0004093145208846525,0.000384038100035394,0.000357415006150108,0.00027107689766521547,6.826674002710837e-05,-0.000273153226263355,-0.000717288222251873,-0.0011679936263706418,-0.001492141022151237,-0.0015631167764186703,-0.0013112688270599656,-0.0007624474828332739,-4.449258497660788e-05,0.0006501941996467494,0.001137597158428225,0.0013189204380614395,0.0012207454566777907,0.0009740557934231525,0.0007414101225148736,0.0006315261201886591,0.0006472656913017997,0.000692593749024761,0.0006302768922996329,0.00035633853465730995,-0.00014623695165885534,-0.0007954465187669625,-0.0014382618054455203,-0.0019024079268981176,-0.0020525820868696467,-0.001835137682875809,-0.0012989422185057586,-0.0005834842124294473,0.00012720580967034035,0.0006720701084403282,0.0009741937596928268,0.0010642533050844137,0.0010507974617004019,0.0010516294033537526,0.0011254625876709638,0.0012442451339762265,0.0013205077022891394,0.0012677685290723886,0.001051337333599894,0.0006967129962149112,0.00025571093455733915,-0.0002376238354685467,-0.0007818512167897457,-0.0013776355286074483,-0.0019739169512830355,-0.0024374560388271942,-0.002583399116348508,-0.0022644667016502875,-0.0014710016116035731,-0.00037586687986948834,0.0007161090209516891,0.0014975291681657834,0.001798310544342491,0.0016567352244565995,0.0012813550062087543,0.0009279407451419065,0.0007643570852287826,0.00079894556152632,0.0009051467570664604,0.0009159910046003631,0.0007245310344195886,0.00033192763868584345,-0.0001739451655312352,-0.0006804779912974637,-0.001104650911286895,-0.0014086667197280602,-0.0015815467933742967,-0.0016153403271821393,-0.0014998703678572643,-0.001235980773214261,-0.0008490883995379921,-0.00038803381577842276,8.900391437240357e-05,0.0005291333123466641,0.0008920501515155181,0.0011524536581214895,0.0013026761196581907,0.0013544679783971164,0.0013338156836258349,0.0012659131724326279,0.001156038094437707,0.000978299403841255,0.0006833225671570953,0.00022790377189130066,-0.0003830540968695335,-0.001064353065535106,-0.0016535187665146912,-0.0019614812068763816,-0.0018561314251025192,-0.0013378184925365868,-0.000560711569219615,0.00022136112318320755,0.000763498225598407,0.0009379917128184553,0.0007851479673646538,0.00048047928884596295,0.00023732710477172674,0.00019702138870866806,0.0003620931100470364,0.0006024708916395902,0.0007263103523116385,0.0005771448413086883,0.00011095300686866417,-0.0005792229593194495,-0.001297421149680792,-0.0018190725941767023,-0.0019730604402939224,-0.0016999200765206595,-0.0010671155045556087,-0.00023983185215618104,0.0005785695510651367,0.0012130683955099456,0.0015668551160110114,0.0016392052246438139,0.0015087903437712683,0.0012917391946853877,0.0010913230690247182,0.0009582564556421747,0.0008766141584522325,0.0007803154772241664,0.0005918511236685339,0.00026429878169116134,-0.00019410687515126568,-0.000723975093256644,-0.001241811213469112,-0.0016713903391833186,-0.0019606206892964434,-0.0020783568066044303,-0.0020019074422363277,-0.0017126608750694327,-0.0012095288403797878,-0.0005334659045392754,0.00021720672146408607,0.0009008018312317383,0.00137893722203638,0.0015750559655158744,0.001510181376591954,0.001290901767184621,0.0010533293597306565,0.0008945028164005636,0.0008293657288930393,0.0007935031537802755,0.0006840897846879205,0.00041375798781991403,-4.6973467862530685e-05,-0.0006505546431177329,-0.0012778157720474141,-0.0017666405221003238,-0.0019618068852348823,-0.001775694729035108,-0.001235517749300097,-0.00048721292826529476,0.00025759162061971273,0.0008112907002926603,0.001088503736138077,0.0011269935140208215,0.0010411293769999914,0.0009418205412964738,0.0008763042496759803,0.0008220533859252821,0.0007278187561342494,0.0005635696000965392,0.0003415336178876428,9.868246122444265e-05,-0.00013738147587385161,-0.0003669459659531246,-0.0006061802409787087,-0.0008575501865137853,-0.0010897773820238356,-0.001244717972731368,-0.0012660398610632056,-0.0011290289172201057,-0.0008527120919302155,-0.0004898735899697087,-0.00010464583917097338,0.0002484017866627847,0.0005354802838301322,0.0007449846988471175,0.0008821073025454694,0.0009582390233937252,0.0009769398067016764,0.0009228463351403333,0.0007632915905217924,0.0004675429601641544,3.641810260364073e-05,-0.00047515821787041555,-0.0009596001310634544,-0.0012870176574146046,-0.001352994979516262,-0.0011216315554266716,-0.0006433082766899539,-3.9265414859632024e-05,0.0005393935119761672,0.0009609153739210002,0.0011522531639669444,0.0011162385745135523,0.0009225553768910197,0.0006771887207443268,0.0004822835392557448,0.0004010240387032557,0.000438266122605301,0.0005399857298939682,0.000609011047212959,0.00053381318480292,0.0002278397579516891,-0.00032709032481714815,-0.0010494030038628412,-0.001761177589062759,-0.00224059819838147,-0.0023112671519696314,-0.0019270942705126495,-0.001203622903248517,-0.00037166673364583895,0.00032640777494351487,0.0007429811245781798,0.0008777091524409103,0.000851434255710127,0.0008211049722497376,0.0008868116943218222,0.0010433012166502812,0.0011990421088828652,0.0012435705781366148,0.0011154947419045023,0.0008284326004720306,0.00044597587382381077,3.324209504224369e-05,-0.00037547252331633494,-0.0007721131514191454,-0.0011439863884373158,-0.0014464830026834747,-0.0016041985475584524,-0.0015428052675303325,-0.0012319690824182045,-0.0007124681333521299,-9.09926192958026e-05,0.000495099802224659,0.0009260319624588857,0.0011399763002655008,0.0011501636693416997,0.0010327644343785581,0.0008893930829571434,0.0007974298238960368,0.0007686866629926774,0.0007381418260982095,0.000594973715170925,0.0002478687198936751,-0.00030616794744390256,-0.0009505795060207289,-0.0014825033819380535,-0.0017017426500610614,-0.0015106051727367222,-0.000968714203600742,-0.00027045250583003337,0.0003439018489615213,0.0006964299954125839,0.0007441278940103505,0.0005819578681877109,0.0003793672480066047,0.00028579857577032804,0.00035351389008946694,0.0005144803154749246,0.0006198691754443684,0.0005208045661327901,0.00015086104986964776,-0.0004289939872496748,-0.0010449375276541787,-0.0014791469375057833,-0.0015624535037534483,-0.0012480592473874254,-0.000631265735505832,9.411040204360601e-05,0.000720057444016298,0.0011064323246001329,0.0012217018059885556,0.0011291886918894161,0.0009361059909651346,0.0007381884270165559,0.0005863574815381579,0.00048242194329460586,0.0003939072136576382,0.00027388368058928105,7.8567811899545e-05,-0.00021660062403347627,-0.0006013858903434267,-0.0010209759840738362,-0.0013814602025055257,-0.001575423027582308,-0.00152119933463118,-0.001199203242680521,-0.0006667048174302798,-4.09143543750898e-05,0.0005438110388061997,0.0009840844236584695,0.001237061619285452,0.0013191077031550296,0.0012798225072233476,0.0011703271774802571,0.0010234351732249596,0.0008511259175903722,0.0006520960282196049,0.00041834308999422014,0.00013606544824989108,-0.00021406252883063347,-0.0006480401059880911,-0.0011579937534510602,-0.0016894655251645872,-0.002135138445594171,-0.002359498744843017,-0.0022511306012356304,-0.0017788702059042777,-0.0010200355918046776,-0.00014079535168257822,0.0006658208317956681,0.0012551226085543764,0.0015820666678646104,0.0017035044862967362,0.0017315085695116807,0.0017634787697121258,0.001826860163050854,0.0018676577688422084,0.001786813655649593,0.0015014732033387422,0.0009952592154652319,0.0003304324008670648,-0.0003805835916595883,-0.0010226282867189084,-0.0015148829449974062,-0.0018210902604455746,-0.0019376142740809388,-0.0018766371194019172,-0.0016586560275711026,-0.0013162812611588002,-0.0009012778473548752,-0.0004843087128186417,-0.00014094197639867676,7.448567846135066e-05,0.0001562680342163874,0.000159079074321683,0.00018011998433771392,0.00031162757940211285,0.0005828657392421183,0.000923731371460502,0.0011784997125861355,0.0011751705684220465,0.0008223269005894469,0.00018104710958354985,-0.0005358712507265657,-0.001047843903765389,-0.0011350470897245402,-0.0007445994157481391,-1.8665850731876287e-05,0.0007684944601692063,0.0013308476040260352,0.0014897707169116209,0.0012394616941615384,0.0007343566429303947,0.00020976749987717896,-0.00012548329399157676,-0.00017637247351370855,7.009665014574428e-06,0.0002630598642673818,0.0003976383101580111,0.00027160225881818186,-0.0001404343624318799,-0.0007428333260800423,-0.001362445302272493,-0.0018196046988082652,-0.0019926091324185503,-0.0018491946827542134,-0.0014392141656030424,-0.0008623539029042598,-0.000231410998869116,0.00035482189759878,0.0008257528128057631,0.0011435531779315088,0.0013019477689979416,0.001320875788506954,0.0012372799009862769,0.0010927628828440038,0.0009201019490766608,0.0007317586506197976,0.0005150022938598892,0.00023954883190042422,-0.00011902935885362551,-0.0005468363956509924,-0.0009698216657260873,-0.0012655834344444065,-0.0013155255145635646,-0.0010743013206147099,-0.000612304271510718,-9.557726448209818e-05,0.00029422499045840436,0.00045488023468672595,0.00041465620358776916,0.0003069918073105142,0.0002853873286690642,0.0004319174756826994,0.0007132598603120666,0.001004875584418168,0.0011616996431187564,0.001089949788101843,0.0007816095345907239,0.0003019351685184904,-0.00025050378601098504,-0.0007810400195804056,-0.001214916146944139,-0.0014954102741760007,-0.001580729395938338,-0.0014516856770850595,-0.001126517342144244,-0.0006682564844767355,-0.00017306954281211262,0.0002590501805035863,0.0005578868475423363,0.0007044198562705596,0.0007300372848962763,0.0006947427144115082,0.0006550652749019417,0.0006362857821505421,0.0006213959017762048,0.0005618563624415276,0.0004051083274619655,0.00012597438004947718,-0.00025189154534203517,-0.0006533254058354216,-0.0009701077802827796,-0.00109692095498923,-0.0009740099038140866,-0.0006184388370427821,-0.00012528686133496825,0.0003675798582610983,0.0007367137371999308,0.0009227972019309118,0.0009462476714923557,