-9.690607221720515e-05,-0.007657144064392225,-0.013976175905535657,-0.018144145960553505,-0.01978108477922836,-0.01904809644555444,-0.016505852712688094,-0.01291569736053067,-0.009063414206770044,-0.005625938754904885,-0.0030638077872538376,-0.0015385215318211073,-0.0008906402637460275,-0.0007169586164820431,-0.0005391924701158711,1.4983292547089515e-06,0.001012934726179911,0.0023422727567987945,0.003683869835986833,0.004741307349645025,0.00535835575337196,0.005558884856175872,0.005490721095360028,0.005319651947321086,0.005138887193448556,0.004940091383900787,0.004650707757257566,0.004204315087047906,0.0035963978446382407,0.0028922131861515103,0.0021852216763918885,0.0015345114292732436,0.0009219742649925146,0.00025931132742527756,-0.0005532442959005604,-0.0015465075990052004,-0.0026283848336025465,-0.003595786850826662,-0.004216654927688145,-0.004342612746686662,-0.003988125312993675,-0.003326321102228172,-0.0026000844447782467,-0.0019996117709679883,-0.0015786572222843062,-0.0012561207115333825,-0.0008948271794069888,-0.00040271340052106626,0.00020648729538275774,0.0008236307179557455,0.0013091787278364585,0.001566971130071005,0.0015841486578064977,0.0014218276470101723,0.0011710318925834424,0.0009035620638579862,0.00064335252333906,0.0003679285812898715,3.3785393787084256e-05,-0.0003884898635552161,-0.0008838571576283453,-0.0013787020286380443,-0.0017507683366005384,-0.0018654061656272725,-0.0016303981268187872,-0.0010486269211201196,-0.00023995163203732262,0.0005890828144660618,0.001224536128486864,0.0015396652345376174,0.0015542607408761682,0.0014203028408327776,0.0013350018902666136,0.0014270840759779656,0.001682189063848727,0.0019523904688205516,0.002044452126318947,0.0018331620236403845,0.0013308840338563514,0.0006725999191391796,2.972280333636264e-05,-0.0004891448683458639,-0.0008865236085963189,-0.001246426139484237,-0.0016530295979957968,-0.0021158107818671757,-0.002549575383155719,-0.0028173492022917344,-0.002803617321222346,-0.0024713095198480323,-0.001873390606039361,-0.0011224337326380869,-0.0003447642216785608,0.00035432071996511214,0.0009052769861834395,0.0012766966782385713,0.0014755319803164213,0.001545770427237187,0.0015575642348417225,0.0015815849525107192,0.0016560577541440762,0.001764783071233748,0.0018418327112569586,0.001802023692121891,0.0015784168149171945,0.0011444465964485576,0.0005127886858052226,-0.0002767503473987984,-0.0011609135680235082,-0.0020425888654396532,-0.002783036638034083,-0.0032215216945249226,-0.0032291844093994253,-0.00277302220328355,-0.0019488617770425905,-0.0009554835551184702,-1.7236696938944444e-05,0.0007051428889402686,0.0011677759131449768,0.00143424393345222,0.001613587576836104,0.0017854738153199072,0.0019566894324272764,0.002070009704957112,0.0020520820159875366,0.0018645783207758703,0.0015259173480149963,0.0010939637330849264,0.0006256322631499003,0.00014173513359814403,-0.0003797269296589543,-0.0009758780038030814,-0.0016509836822380646,-0.0023362184862119684,-0.0028860288792656834,-0.0031241426531628384,-0.002924113224327989,-0.002283322724172669,-0.0013447279973558238,-0.00034621997536583675,0.0004796741936829095,0.0010016739101562533,0.0012298946440698483,0.0012836302740385072,0.0013120679568689854,0.001415286754943531,0.0016048063043627421,0.0018150729597218576,0.0019494455246126428,0.0019314279725623816,0.0017366209327953053,0.001395356906762309,0.0009702620477763171,0.0005217657218055491,7.785372819998037e-05,-0.00037684014891656623,-0.0008841406150955473,-0.0014721477785068276,-0.002111739672594406,-0.002697882126046463,-0.003075233682304575,-0.0031027484646463047,-0.0027252254642339655,-0.002010228429507408,-0.0011258194757851967,-0.000268816122838961,0.0004175143769837992,0.000892349271695763,0.001209961444943625,0.0014656503842854387,0.0017283523864735717,0.001997130773247075,0.0022031434511629515,0.002253247097748591,0.0020890188452285527,0.0017266365618954095,0.001253340490662895,0.0007807263729341335,0.00038145484266972885,4.8707982139538255e-05,-0.0002930063519029539,-0.0007278192875989162,-0.001274338888703067,-0.0018455597768796948,-0.002273147344555073,-0.0023870431966002336,-0.0021057801023311616,-0.001485093601077867,-0.0006975896840719199,4.330273926048535e-05,0.0005728233467074038,0.0008335041488320633,0.0008795369114138747,0.0008318016147895332,0.0008098853628771601,0.0008747016201067464,0.0010071814672998377,0.0011287144077406193,0.0011472243767608784,0.001001496408328207,0.0006821605439575805,0.00022498555673699052,-0.00031201272116870024,-0.0008706558389063796,-0.0014017209952668281,-0.0018589831285994538,-0.002186340855464495,-0.0023124112457115066,-0.0021648555678947462,-0.0017046516656179153,-0.0009639907228937447,-6.203133442190063e-05,0.0008199751062951541,0.00150018083158561,0.0018664840500343112,0.0019195446847028958,0.001765508532644887,0.0015616815237766244,0.001441936774242039,0.0014577863004228582,0.0015626481809083376,0.0016450154839605861,0.0015907514385022838,0.0013390805961267824,0.0009017491361933107,0.0003390521201154468,-0.00028544145579669514,-0.0009370076897453534,-0.0016059118714683099,-0.002272407646014212,-0.0028699657041172414,-0.0032804036400292365,-0.003374425299732143,-0.0030785840506034677,-0.0024270509131546552,-0.0015615460329451638,-0.0006741938786547798,7.562470162309105e-05,0.0006237511033863562,0.001010792994562387,0.0013382874677277262,0.0016987798352193335,0.0021169675648710154,0.0025302619602639337,0.0028168583655681636,0.002856734068656365,0.002594570772094012,0.0020710471877050485,0.0014039952434731278,0.0007283916995217189,0.00012911434724772672,-0.000393501571864132,-0.0009035835165889398,-0.0014662275959947308,-0.0020797071738930892,-0.0026479746536345974,-0.0030152587780798118,-0.0030453437346337213,-0.002697470538301742,-0.002050981817415162,-0.0012637321961949854,-0.0004927294981667685,0.00017129644984574093,0.0007170041073527376,0.0011741262780833974,0.001560259058757507,0.0018551142922682898,0.002018278970197712,0.0020306920276247815,0.00192301286906629,0.001766796265500685,0.0016337405024179274,0.0015505148548431965,0.0014774169515133525,0.001322244012107944,0.0009812240900593252,0.0003884018038331371,-0.00044549709877082154,-0.0014192252020611485,-0.002360109800447054,-0.003073827907978661,-0.0034091259534458126,-0.0033111884467892892,-0.002838341407891438,-0.002132520815909206,-0.001357524960622814,-0.0006364862544368737,-1.9685144348720665e-05,0.0005045617977995343,0.0009683850755063402,0.0013814014744417268,0.0017138904010043472,0.0019148604922965015,0.0019498502918322913,0.0018304012459183791,0.0016138835358403773,0.0013731332332730076,0.0011549767091442082,0.0009527255411309034,0.0007088986723129668,0.0003484629823905534,-0.00017188543988300495,-0.0008218270550768531,-0.0014865201847706704,-0.001998929776310758,-0.00220609848667135,-0.002038419158816722,-0.0015440182243064869,-0.0008664700482316931,-0.00017620022134177526,0.00040586617743830456,0.0008491260438134992,0.0011982219454761613,0.0015168170609809633,0.001828597262862456,0.002091953847359008,0.0022213829692682143,0.0021396271493019205,0.0018261456048272594,0.0013291772056562966,0.0007308549556573986,8.698146583585901e-05,-0.0006144562207296267,-0.0014375359388072932,-0.002423163387245763,-0.0034989973795615864,-0.004443242780490957,-0.004947914475179728,-0.0047637181313345146,-0.0038453314015407256,-0.002401657988919546,-0.0008093842626115677,0.0005631304692667476,0.0015154275445468887,0.002066335093022796,0.0023805908026460305,0.0026323999734270504,0.0028962981268056513,0.0031240946525583216,0.0032053131106742523,0.003059805391920741,0.0027004759002475028,0.0022301764957067018,0.00178010042686106,0.0014321340285821274,0.0011752633722406924,0.0009222127156039763,0.0005721187336291968,7.5085905338466e-05,-0.0005440241493731759,-0.001213173596936365,-0.0018641867108875928,-0.002464146380943536,-0.0030037919113872534,-0.003457303339087313,-0.003752167958278234,-0.00377976039976454,-0.003445603544600568,-0.002729254016645504,-0.0017171547486657637,-0.0005875790333681376,0.0004483075162940384,0.001224185990893788,0.0016800892104343042,0.0018773931127505166,0.001956869277499245,0.002058004343018289,0.0022410377146748167,0.002455493206527516,0.0025747485864067417,0.0024769262904508482,0.0021224308564617754,0.0015792277040295628,0.0009801330936803738,0.00044038023852518017,-1.1061955038271158e-05,-0.0004421680312727252,-0.0009621921597714483,-0.0016314354597575533,-0.0023904183897079526,-0.003054781102112023,-0.003387204777348915,-0.003212756514997943,-0.002515345678368607,-0.0014597952171694487,-0.00032454136346846726,0.000619574828366837,0.0012191803758042428,0.0014803676147155031,0.0015274445334732738,0.0015108423433661997,0.0015218316601586575,0.0015605870389777572,0.001566307605202664,0.0014793743078075259,0.0012903953008347258,0.0010463160081376401,0.0008152504539634239,0.0006364815158689274,0.000486892552638222,0.0002831655970541538,-7.863796093561916e-05,-0.0006609431402559405,-0.0014276113574506557,-0.002224409253813493,-0.0028188084429097656,-0.0029928686041584733,-0.0026489265719559186,-0.001869987582797689,-0.0008932196761092803,-2.6514885500284477e-06,0.0006024028107539325,0.0008891882760438215,0.0009794023089157128,0.0010560228643229693,0.0012478193734217682,0.0015571533717577838,0.001865284464825641,0.002003561274795931,0.00184628079535616,0.0013765863522638253,0.000697267217710867,-1.2213377629365996e-05,-0.0005692040592576949,-0.0008609806738811476,-0.0008898392374481428,-0.000771383537671499,-0.0006816432520289864,-0.0007701548783818521,-0.00107806888077155,-0.0015064227884766833,-0.0018578194101919996,-0.001933129960839764,-0.0016307701055785784,-0.0009943900206318208,-0.00018659284570730103,0.0005911445614673804,0.0011859322469176855,0.0015444762003149143,0.0017088398042201698,0.0017686023522189797,0.0018005770747420236,0.001828219759777575,0.0018181133869065317,0.00170993919211904,0.0014595166163729333,0.0010690186031013218,0.0005866672869555085,7.655165494086847e-05,-0.00042177550713992304,-0.0009161917698994411,-0.0014488191208258657,-0.002050279934614928,-0.002687199952384221,-0.0032376690550576194,-0.003518099116680086,-0.0033575445753983284,-0.00268624643129242,-0.0015914116514720111,-0.0003051717929505398,0.0008772163862924772,0.001713628949817841,0.0021094727613709514,0.0021420739560542514,0.00200229410577443,0.001885332250576966,0.0018911269888797267,0.0019885541213195608,0.002058569468130934,0.0019830585045355017,0.0017196771677777585,0.0013160479131184473,0.0008600739701051649,0.0004068061163431262,-6.31792951927311e-05,-0.000622185393307369,-0.0013233022190699251,-0.0021265728303713947,-0.002876446451184531,-0.0033531070557032633,-0.0033741431849625414,-0.002890166559685567,-0.0020189717763487366,-0.0009971578458610928,-7.499426070223811e-05,0.0005883522263109541,0.0009745818530536843,0.0011801502946276496,0.0013370605554778533,0.001530272608930485,0.0017570105585271575,0.00194345826865899,0.0020003130720470472,0.0018809136681214363,0.001610421390432752,0.001273142457790553,0.0009650283845803281,0.0007334072389371456,0.0005348805758605024,0.00024119411542840503,-0.0002953686662971976,-0.0011401884209436667,-0.0021941641977309507,-0.0031910229407680173,-0.0037951997256461647,-0.003758716434881293,-0.00305078332147405,-0.0018820849320035841,-0.0006061228097217612,0.00044623645566003897,0.0011050421358738856,0.0014002887332087745,0.0014934864636730316,0.001555753515858786,0.001669107445974126,0.0018023263923499936,0.0018613614395653483,0.0017709871618244184,0.0015327956911553062,0.0012259699572674328,0.0009544866168671503,0.0007754989661657234,0.0006536342424823521,0.00047170512724672254,9.73541554467423e-05,-0.000527886658405369,-0.001328127746564587,-0.0021015682965701264,-0.002601486612559302,-0.0026505065936588295,-0.002226684307105451,-0.001474082202855815,-0.0006330928005774136,6.978580752838384e-05,0.0005136896136212446,0.0007128365967289248,0.0007773839219023179,0.0008355807946090035,0.0009624785328471335,0.001149777490251453,0.001324239266904077,0.0013956019853565917,0.0013032474389880562,0.0010376004795315222,0.000630571610417473,0.00012806730950065605,-0.00043299659747189173,-0.001025684277101005,-0.0016118696654775838,-0.0021181423689251447,-0.002435026266450727,-0.002452230749514942,-0.0021155330051075816,-0.0014695821244416311,-0.0006534173082349189,0.0001565063616041481,0.0008254970515758834,0.001314243197129932,0.0016734605683190865,0.001983729371020627,0.0022805695906558676,0.0025151461621987616,0.0025783855163468592,0.0023744695882888123,0.0018955329808716926,0.0012460769827522286,0.0005965983822203186,9.153287990345074e-05,-0.00023290352896075033,-0.000469386177113312,-0.0007824976711583268,-0.0013034156511060385,-0.0020354611638539665,-0.002826924922097251,-0.0034317682535539716,-0.0036280614197254633,-0.0033280091635047955,-0.002616300699465562,-0.0016961512807964374,-0.0007784742144827778,1.7393744278780196e-05,0.0006939183837820239,0.0013251747043692644,0.0019657226814121334,0.002581898750608971,0.0030516334855021175,0.003232345919379063,0.0030512334980859574,0.0025579891873898203,0.0019050586076090324,0.0012671537882991656,0.000749316209504645,0.00033884110449225414,-7.085325450007365e-05,-0.0005990891959428898,-0.0012873365502182326,-0.0020522268616464047,-0.00271045872583176,-0.0030632208199093164,-0.0029939505082181407,-0.002525600267438477,-0.0018069068188382425,-0.0010378486389375358,-0.0003779041614937645,0.00011321721950106022,0.00047597269368247015,0.000801523182510906,0.0011659641541074568,0.0015835021146339597,0.001997519404316082,0.0023075613749240177,0.002415329376118584,0.0022674942074711506,0.0018770274973933096,0.0013153131536550729,0.0006803310113151596,5.663058085522558e-05,-0.0005133295199190298,-0.0010315823608218265,-0.001518766323994078,-0.001974550914523129,-0.0023500136890105563,-0.002553570075763405,-0.002492088920266638,-0.0021245565517426174,-0.0014943646029912758,-0.0007179334030538186,6.432782622288957e-05,0.0007434498083109133,0.001269319454035472,0.0016379113638901454,0.0018570026456010498,0.001923855501312749,0.001834378257459154,0.0016115361067997585,0.0013189247578932503,0.0010347030573849374,0.0007964432890892776,0.0005597021018348641,0.00021275567237767623,-0.0003475091608853661,-0.0011220778653242144,-0.0019642669338555746,-0.002623321349352281,-0.0028612496282586523,-0.002576255842963231,-0.0018578371942226525,-0.0009397182921173848,-7.990046828155236e-05,0.0005597080667312884,0.0009655492442477368,0.0012342752825505857,0.0014786426376241617,0.001742205559480792,0.0019742323627916438,0.0020721659816155063,0.0019560270564010634,0.001624279529310407,0.0011583527834766554,0.0006770261991693052,0.000270330665887879,-4.829836013113667e-05,-0.00034470575527446813,-0.0007195599844659172,-0.0012402013753216763,-0.0018853835569783567,-0.0025332077213318514,-0.003000198827545055,-0.0031137140239471885,-0.002784391866912169,-0.0020464405197284452,-0.0010485581792965032,2.487857100352299e-07,0.0009061014858546524,0.0015534063233569972,0.0019280280831326302,0.0020930496709058548,0.0021345422904967696,0.002109919989440769,0.0020273263993046877,0.001863195084108385,0.0016000127485433571,0.0012540457155763329,0.0008720041341259113,0.0004998965782556878,0.0001488821171351201,-0.0002142459363868532,-0.0006420574978585115,-0.0011619319227965511,-0.0017408552873401557,-0.0022823954187160145,-0.0026582538891860782,-0.002756918426027031,-0.002525002162185487,-0.0019843221002091645,-0.0012216168741142938,-0.0003591335427160603,0.00048030122346157236,0.0012000789926049893,0.0017399782963642275,0.0020712027343719112,0.0021875117881150915,0.0021041194260625847,0.0018643676720077544,0.0015408768788394238,0.001217878744601001,0.0009569908156144277,0.0007655573523771082,0.0005891494102107616,0.00033610670835878783,-7.635646840344881e-05,-0.0006757074150096095,-0.0014080402647165115,-0.002144703580018544,-0.002721229225618871,-0.002994076092592484,-0.0028907414942059145,-0.0024305088695773685,-0.0017083239178804772,-0.0008541796635832746,8.727390695683596e-06,0.0007885747160893686,0.0014283860298914843,0.0018973093469323756,0.0021819113698791346,0.0022842877789806633,0.0022254701790762345,0.0020473165767153495,0.0018066498963270252,0.0015605041419565623,0.0013468069827791476,0.001167297096626989,0.0009791212220145598,0.0007008574242447752,0.00023788331678880633,-0.00047307629999485687,-0.0014129134104350234,-0.0024494111363917064,-0.0033550582573938534,-0.0038807522201703085,-0.003857882597629118,-0.0032766733183549565,-0.0022954571182014897,-0.0011727473688986285,-0.00015766848979312638,0.0006037818643226513,0.0011013962412752029,0.0014237227953382873,0.0016807031543959019,0.001933260253905764,0.0021668653051054184,0.002316341675548312,0.0023187723924088756,0.002157943592982351,0.0018736925965072895,0.0015346691473870082,0.0011959248168256133,0.0008689899784925473,0.000520446305991481,9.639005536094984e-05,-0.00044252615009557177,-0.0010921345016215835,-0.001792181023030366,-0.0024335570246207007,-0.0028845576140796828,-0.0030311719303297417,-0.0028193310044255133,-0.002280851128727996,-0.0015277350837199352,-0.0007141564179800054,1.6791517265444828e-05,0.0005765563701066664,0.0009468572813721772,0.0011658335975634363,0.0012970229740524133,0.0013983013558273184,0.001502472512440107,0.0016117050617162165,0.0017022668171266559,0.00173612263534713,0.001676823154468472,0.0015040865047117897,0.0012181283255154125,0.0008291633766649454,0.00034037905721435524,-0.0002569152848653137,-0.000962423293885012,-0.001728391639570883,-0.0024340469809211052,-0.002905095062796642,-0.0029832299584869435,-0.0026112042762659092,-0.0018787484791773041,-0.0009931531525744284,-0.00018509364709089085,0.0003976468710150579,0.0007474649607689056,0.0009738378624467199,0.0012163549399418017,0.0015474757171289079,0.0019235493217539593,0.0022124507421988652,0.002278378295380932,0.0020685478171524954,0.0016463164854745866,0.0011508411674948445,0.0007104336977968157,0.00036472532819386216,4.400904158614492e-05,-0.00038066208991621985,-0.0010047634962484678,-0.0018087156624950287,-0.0026364433444052565,-0.003250055037018717,-0.003433741614194845,-0.00309232357995898,-0.002293757439057005,-0.001237386269235385,-0.00017012863239052365,0.0007036528702042767,0.0012782361580423738,0.0015542114935606273,0.0016095350185119344,0.0015564347384187823,0.0015015262408906182,0.0015163663338233816,0.0016202005338452855,0.001776910057066025,0.0019086429577298536,0.0019244309587814505,0.0017542187681232643,0.0013733540465632875,0.0008057699332679638,0.00010624698645489688,-0.000663936509519617,-0.0014490749707581018,-0.002190720678799667,-0.0028102419161580446,-0.0032050854580740256,-0.0032737496468977583,-0.0029620011357600774,-0.002303157567999917,-0.0014236605373600625,-0.0005037095399135995,0.0002901987969077815,0.0008658592246790655,0.001227322333560502,0.0014493588953338535,0.0016225368921518597,0.0018005105642366166,0.0019750738940975364,0.0020867620525084883,0.0020614098286635615,0.0018531846086707695,0.001473297314625146,0.0009899219401664067,0.000497685374976773,7.100543684544053e-05,-0.000273070736440576,-0.0005789155161222334,-0.0009176131793298936,-0.0013324163260503416,-0.0017975652858091447,-0.002216407216075593,-0.00246049305168777,-0.002426961046744742,-0.0020827833748513487,-0.0014752494072063902,-0.0007094830995654967,8.900480683783624e-05,0.0008064332820363219,0.001358574915296295,0.0016982776635846718,0.0018196011361541094,0.0017582246595562669,0.0015811502401900167,0.0013624979084294808,0.0011541721510225397,0.00096802929836424,0.000780394302660729,0.0005540776462340578,0.000261286251615942,-0.00010624087886780228,-0.0005389473670303051,-0.0010108131498378515,-0.0014727642054537173,-0.0018468419474246636,-0.0020387454318634797,-0.001974383839190853,-0.0016420381266582771,-0.0011093106013446256,-0.0004975003616166549,7.426006672263551e-05,0.0005408600359606393,0.0009072391277478291,0.0012203401981607542,0.0015164395798355885,0.0017783221350995094,0.0019313488626262652,0.0018843439769157255,0.0015921161847306186,0.0010984601110104399,0.0005259140635628597,1.1446524227971198e-05,-0.0003736239455279946,-0.0006643251188002987,-0.0009699274975711591,-0.001384540059640484,-0.001898670466487293,-0.002374907975743624,-0.002611215552239113,-0.002456033587630732,-0.001901498287437001,-0.001092853610256622,-0.00024742129271996524,0.0004626677596795229,0.0009864935467995743,0.0013826392214804947,0.00173613813704503,0.0020697754322317177,0.0023161504197514245,0.002369500888237757,0.0021759023866581256,0.0017911774582929213,0.001358804455139984,0.001018319388031496,0.0008060044667618331,0.0006178406381103139,0.00026507109389094013,-0.00040664855070126016,-0.001403835051097833,-0.0025447261302627795,-0.0035182861692900835,-0.004014361356495436,-0.003858216411363351,-0.0030814148228839643,-0.0018972149059458825,-0.0006009663792181332,0.0005465680277941385,0.0013939257733289706,0.0019061513036215873,0.0021229475203104766,0.0021101497395042287,0.0019363327165095442,0.0016746179239924028,0.001405874510629093,0.001202412692648547,0.001094891289698793,0.0010467985761447429,0.0009615853235190798,0.0007266327050153271,0.00027240855016778326,-0.00038579539959043596,-0.0011453182705549341,-0.0018517257443810566,-0.002352879689799624,-0.0025470653826305334,-0.0024084486590218355,-0.0019853552936730467,-0.001376753195719874,-0.0006977502833451865,-4.6560434352694614e-05,0.0005164591997141329,0.0009724283396078681,0.0013321753827013562,0.00161694396177526,0.0018412284199846461,0.0020044027591338727,0.0020917911522497557,0.0020802569439243,0.0019420160412047683,0.0016448791112718387,0.0011547425005386256,0.00044991289339909994,-0.0004497553264900568,-0.0014517794899171202,-0.0023841664446598502,-0.0030343911746063016,-0.0032295796961579236,-0.0029202500354613896,-0.002216134623553901,-0.0013439152776443845,-0.0005436677965338135,3.7989970535647744e-05,0.00039558512831883706,0.0006287333384636797,0.0008521116059396173,0.0011137275864739735,0.0013724190574380163,0.0015404478145287605,0.0015520708309308164,0.0014060239100719897,0.0011552515708205607,0.0008585470482540953,0.0005346855400295958,0.0001543665557664901,-0.00032315578372604255,-0.0008926758247127005,-0.001464021503209137,-0.0018727490276409986,-0.0019444946529690518,-0.0015834954109733034,-0.0008359585264708712,0.00011210780184835845,0.0010071470219642944,0.0016334000808576592,0.0018944747398121644,0.0018297268653217349,0.0015643708718658012,0.0012303525342643165,0.0009068159974719989,0.0006094571303709041,0.0003225801270654209,4.036996561757972e-05,-0.00021771655063226446,-0.0004282423710664406,-0.000600404941698396,-0.0007913737908965183,-0.0010783298882957521,-0.0014993558858716828,-0.0020028922134181937,-0.0024447435622157385,-0.002642300019301866,-0.0024587683797514196,-0.0018715330778883985,-0.000989149187793056,-1.0703149662890353e-05,0.0008507026007804805,0.0014455671729474763,0.0017352952836296768,0.0017918202556213337,0.001751240502943008,0.001742567963601814,0.0018253877694459422,0.001967241949228059,0.0020702581507064852,0.0020282721966851614,0.0017798217837423874,0.0013295607911832461,0.0007333780170406348,6.357541056496585e-05,-0.0006219656575557116,-0.0012892365878485925,-0.0019134744850285114,-0.0024533587496278868,-0.002835898560932969,-0.0029695886199017215,-0.0027853430196474478,-0.002282874309591524,-0.0015507060483454563,-0.0007405275324952102,-4.8394816648572765e-06,0.000567840930695741,0.0009812336759778238,0.0013046828604795203,0.0016078331375008032,0.0018992784984322277,0.0021115487418878046,0.0021450906978445704,0.0019426905220926989,0.0015413593177506148,0.0010606950659020988,0.0006302517201288741,0.0003041681455757145,2.5012313028796715e-05,-0.0003323347830342286,-0.0008616602765891934,-0.0015370669423427183,-0.002197293927128605,-0.0026176337348633796,-0.0026261394144451635,-0.00219213742629556,-0.001435719293725189,-0.0005603690772695135,0.00024272256087775305,0.0008618165884765371,0.0012752275031459868,0.001516517287908754,0.0016280101208857069,0.001633446618643264,0.0015405283051765307,0.0013618290503429888,0.0011309747846428998,0.0008961108755012603,0.0006909223314657371,0.0005029418563416755,0.00026585237420912903,-0.00010969518223247724,-0.0006774331808026089,-0.0014013855941314725,-0.002141222818762962,-0.0026924419420111985,-0.0028670860657576194,-0.0025778141761577484,-0.0018834256307980854,-0.000969860948947436,-7.153320908156449e-05,0.0006298254913713452,0.001076152034034634,0.0013356934450174482,0.0015385175924322353,0.0017860271921916623,0.0020887449655231745,0.00236471392883848,0.00249135700678967,0.002374495658986298,0.0019954434376639033,0.0014158391193031272,0.0007438896796255923,8.218393549840877e-05,-0.0005169557036065669,-0.0010659918716710043,-0.0016164019448469044,-0.0022031201732171596,-0.0027904258547174344,-0.0032564966192441163,-0.0034352846581831038,-0.003198659254812309,-0.002532353687295607,-0.0015587705420803076,-0.0004906894989641921,0.0004583972416228456,0.0011570488223175792,0.0015885576372564544,0.0018225429754739105,0.0019507134508758258,0.0020300839191899514,0.002066145173950056,0.002037336289166977,0.001933350167648894,0.0017739110872501602,0.0015941659664562827,0.0014106002749369163,0.0011958583609229941,0.0008834641402816749,0.000402596836017885,-0.00027575528491719675,-0.0011060713868095717,-0.0019664270979230193,-0.0026905402118434143,-0.0031227181123137313,-0.003174512711853852,-0.002857877997421881,-0.0022761777101218956,-0.001573990125024979,-0.0008715045531380013,-0.00022190875001352095,0.00038271076673174176,0.0009643367755402204,0.0015079355455497078,0.0019464444885652719,0.0021945057102171657,0.0022060881265765666,0.002012429277782081,0.0017106823394656616,0.0014087005829850402,0.0011615190144654525,0.0009403987983318326,0.0006544426250541088,0.00021257259333995094,-0.00041022984065438965,-0.0011407052397126361,-0.001827430797405596,-0.0023020881105787153,-0.0024494935742719903,-0.0022521194166254246,-0.0017904838520940885,-0.0012032987682080774,-0.0006289323039597902,-0.00015524121001294643,0.00020236507172999188,0.0004890626280124516,0.0007734825049835683,0.0011030359844410424,0.0014718885655230632,0.0018167836766954867,0.002043915123570851,0.002074503263615408,0.001884971546627122,0.0015180918222086847,0.0010570842436455551,0.0005774504620321894,0.00010611735315081672,-0.00038609766596176345,-0.00095194247259445,-0.001611590905964072,-0.0023051195496946566,-0.00288630344425229,-0.0031719736024845837,-0.0030286937369276927,-0.0024497894398724175,-0.0015732389682560494,-0.0006227776794299009,0.0001970351561742767,0.0007898614725786841,0.0011884871671112283,0.0014996514522896834,0.0018127860934910433,0.002132549635485189,0.00237618735415231,0.0024332350841638093,0.002245079072840218,0.001850516966126339,0.001367206266265913,0.0009211068450819487,0.0005689897971002768,0.00026326783768649696,-0.00011671744122923816,-0.0006817315263695495,-0.001444038375357125,-0.0022758070143812717,-0.002944657361142952,-0.003215183617868637,-0.0029662506217410646,-0.0022594084471059474,-0.0013161042446122142,-0.0004121464028259276,0.0002523012102196482,0.0006335470627578548,0.0008333954947250522,0.001010461824540536,0.0012725718281448135,0.001614654183357433,0.001933184792332975,0.0020997468660360237,0.002043025113623579,0.0017884711978735613,0.0014342440190678748,0.0010811787370997607,0.0007614871927587251,0.00041218484011787545,-8.562504334204048e-05,-0.000819179711827937,-0.0017575774504603723,-0.0027212356164896794,-0.00343494639121668,-0.0036453973800553816,-0.003244261010136023,-0.0023298246738266363,-0.0011705121681633512,-8.637205193966804e-05,0.000690446205324172,0.0011040693368684171,0.0012690950201043544,0.0013801238907052637,0.0015915917858804552,0.001934891935726631,0.0023129565897150083,0.00256571524680812,0.0025624916719012084,0.0022688777362178166,0.0017556262386326156,0.001151003555516987,0.0005677850117279881,4.7612813954131056e-05,-0.00044655735083504194,-0.0009877771663414016,-0.0016185896671718938,-0.0022996960586652323,-0.002904104692205151,-0.0032629406469769084,-0.003241695131633089,-0.0028081619077529154,-0.0020552975145994743,-0.001164615318664993,-0.0003276582003882758,0.00033343998513267215,0.0008046283850651088,0.0011592389433175585,0.0014926172057284392,0.001850981585963645,0.00219516440672516,0.002419264835332667,0.0024133474060988418,0.002134555982203026,0.0016447860170420417,0.00108914930473603,0.0006216394908377704,0.0003171120070532056,0.00012245923185637156,-0.00011730600421553115,-0.0005644103685263947,-0.00127484189966697,-0.0021330253283413734,-0.0028795551969902655,-0.003225783640344428,-0.002997717808048043,-0.0022308897152495885,-0.0011619102099888227,-0.00011902444338886937,0.000629839582618598,0.000990579680814497,0.0010605117223036504,0.0010468099924609644,0.0011363594827224859,0.0013917206750490658,0.001729491364716657,0.0019867583023542045,0.0020284106824349822,0.0018256537002857922,0.0014584000012655173,0.001046251605089476,0.000659656906967739,0.0002737589081950527,-0.0002035280886522557,-0.0008486301951461364,-0.001640765853940678,-0.0024369203929719705,-0.0030220496436524783,-0.003206398273404451,-0.0029146885766606918,-0.002219390978251472,-0.0013043965540792523,-0.00038348536127562674,0.0003818228679900035,0.0009267627020071624,0.0012770962902538985,0.0015061498750888695,0.0016832480954709862,0.001838934708888311,0.0019588898710987237,0.0020031828475227144,0.0019361456071326807,0.0017477534890836168,0.001452818228286048,0.0010693778315202277,0.0005943207528978187,-2.789273992567136e-07,-0.0007388353954497414,-0.0015939332753237858,-0.002449465601417837,-0.0031085762773019766,-0.003358858700663667,-0.0030714214613218843,-0.0022808116213111577,-0.0011930840137249345,-0.00010629840972213113,0.0007193694217981497,0.0011716883369153825,0.0013167076786553748,0.0013363958926450679,0.0014133743119220288,0.001629024806393774,0.0019283182435291585,0.0021635332590610864,0.0021852466870374773,0.001926341598309145,0.00143303959170968,0.0008293768031459723,0.00024006527700054484,-0.00027954435383342714,-0.0007625542214052015,-0.0012867191772105505,-0.0018962010241371206,-0.002540605170808054,-0.0030731515356862958,-0.003312250176163045,-0.003130188030872877,-0.0025166550083899346,-0.0015837543638865543,-0.0005174835846679678,0.0004906664878426721,0.0012975139495843447,0.0018328071216155574,0.002098989436920221,0.002155229158362416,0.002090816872616335,0.0019921748226177784,0.001912819560292203,0.001858755001236324,0.0017956517511999216,0.00167148234993556,0.001439427453641914,0.0010687151230055572,0.0005434142047065299,-0.00013941236197496698,-0.0009603386048682828,-0.0018569106260725807,-0.0027070286154181346,-0.003338256989255138,-0.003574719255120167,-0.0033094383083160425,-0.002567002019040792,-0.0015167051493584275,-0.00041770004638042794,0.0004843595746855218,0.0010578991197126462,0.0013280542198235274,0.00143627613254109,0.0015402556065476753,0.0017143280971606092,0.0019105485943162253,0.002001931726410063,0.0018763821153335923,0.0015174522321592461,0.001018023021520996,0.0005190643946421358,0.00011700813099098568,-0.00019516040096339584,-0.0005113145918494936,-0.0009305120957398723,-0.0014657663464003284,-0.0020064704889121688,-0.0023632530535411074,-0.0023703029475832076,-0.001982052182565314,-0.0013037661584278642,-0.0005379311817090622,0.00011815434635671065,0.000560372464688237,0.0008035566747602634,0.0009408682090072385,0.001071456676948347,0.0012418807312939181,0.0014301082930689379,0.0015728706613261307,0.0016137420456763044,0.0015399785838148149,0.0013843534942507671,0.0011907024040713646,0.0009669959426559464,0.0006615229126939707,0.00018617185309947144,-0.000519397671287596,-0.0014191374932148175,-0.002353727108282317,-0.0030822558978013527,-0.0033800382906151133,-0.0031432895119707007,-0.0024409321608629864,-0.0014804796789624796,-0.0005056994975222762,0.0003135951210956782,0.0009347072782124509,0.0014117025151775381,0.0018110685056013731,0.00213775022801191,0.0023250158962903962,0.0022926045873315954,0.0020258596228842213,0.0016121426853662416,0.0012021008200013637,0.0009188606174613699,0.0007766315018353663,0.0006645373625039278,0.00040847175796961447,-0.00012480984403408452,-0.0009404276219049407,-0.0018921112409608057,-0.0027347858048882567,-0.003226790339309957,-0.00323211761668244,-0.002773708824191444,-0.00201337815394979,-0.0011714459561040032,-0.0004300526763288241,0.00013003900873454592,0.0005325908897010262,0.0008591081079052571,0.0011875888684472966,0.00155139781609734,0.001931440584808703,0.002272033953050649,0.002502823235829099,0.002557030773971101,0.0023877942729886538,0.0019858596576658887,0.0013924022439038065,0.0006931117786666548,-1.3065737164331568e-05,-0.0006569910650560633,-0.0012249915067311387,-0.0017439868557601887,-0.0022313152929133682,-0.002645390312028857,-0.002880124100876444,-0.00281772364260279,-0.0024090587707635562,-0.001724287144652565,-0.0009325805895711051,-0.00021853188209298042,0.0003120260902173121,0.0006755374979135669,0.0009761604192670377,0.0013179575418289756,0.0017233035350708447,0.0021106363440866124,0.0023430941293877475,0.002313076756362511,0.0020079235020000284,0.0015183148093003591,0.0009879355304656038,0.0005355508083374262,0.0001930055922167664,-0.00010707739347949629,-0.0004850682314561204,-0.0010306559220339215,-0.0017253981317456298,-0.002417881643193737,-0.0028747392849379173,-0.002889750230112213,-0.002395982456227897,-0.001516525942494915,-0.0005183901417256841,0.0003114603088551713,0.0008012470156251042,0.0009646329906703248,0.0009677165814376137,0.0010163463619139552,0.0012333387953939244,0.0015959683353319336,0.001962244934535093,0.0021604583442529244,0.0020843293928851855,0.0017407985322582952,0.001230199641941042,0.0006778071592772483,0.0001609235425309437,-0.00032469065505607035,-0.0008402481836147127,-0.001438491862481335,-0.0021004534979181433,-0.002716175046684898,-0.003122885682391373,-0.003177756401460405,-0.0028224831047414167,-0.0021058428219458665,-0.0011589918444912847,-0.0001445330947070977,0.0007922035606330315,0.0015518152418645909,0.002087209483979944,0.0023949468521736305,0.0025001060760332485,0.002440968261861286,0.0022577074013002147,0.001987163791337618,0.0016623332862820885,0.0013117678694519568,0.0009541831436535286,0.0005887494171824446,0.00018868174951627566,-0.00029120308997450535,-0.0008878006841606877,-0.0015917854779563152,-0.0023194821319666007,-0.0029183923847091245,-0.0032161196750267696,-0.0030960506230372853,-0.00256077972819062,-0.0017436834955569848,-0.0008550588240600229,-8.763069778004186e-05,0.0004674680587281418,0.0008467893663165488,0.0011679617866649614,0.0015383493501846764,0.001974298994503984,0.0023809883831508115,0.0026062859295748475,0.0025353540699341896,0.0021657860139160023,0.0016146490017278122,0.0010521500169028287,0.0006031325002106109,0.0002771743127055907,-3.0186940616499754e-05,-0.00046519290196849145,-0.0011135854357145554,-0.0019264594871172482,-0.0027178396681791024,-0.0032393466482713486,-0.0032952061117620937,-0.002837631021285112,-0.001992142489311707,-0.0010002501503052707,-0.00011127563638935775,0.000519992138305886,0.0008807159327654977,0.0010759225419135865,0.001253047174866803,0.001517226534826875,0.0018788385165888018,0.0022547235124455575,0.00251567346133733,0.002549837845671107,0.002307151109701526,0.0018056822586932698,0.0011059146430765306,0.0002770646908317588,-0.0006197950640970272,-0.0015227979747556126,-0.0023469134304208387,-0.0029732801619745124,-0.0032700632555736505,-0.0031434260794033267,-0.002593460076512708,-0.0017397970316113682,-0.000793310506317891,2.130052311201359e-05,0.0005576090353156213,0.0008064670004593952,0.0008874266690797401,0.0009737941724177368,0.0011913709742703107,0.0015481467464107284,0.0019344111077470604,0.0021897592860142274,0.002193342998487542,0.0019227673238685053,0.0014508103228793724,0.0008899036685898768,0.0003250590650337439,-0.00022139915917944913,-0.0007742469145517523,-0.0013537221500980437,-0.0019248851070071539,-0.002383834448168573,-0.002594201812358289,-0.0024564143264909685,-0.0019697690343647373,-0.0012475031530990207,-0.00047070584673455186,0.00019533684697524423,0.0006733764369233905,0.0009918359613327126,0.0012393090776275481,0.0014875583812920278,0.0017333026158048064,0.0018949427873537709,0.0018644646690104602,0.0015808978187689098,0.0010797409358281715,0.0004873050496516584,-3.9768611883352284e-05,-0.00039778139746416774,-0.0005938362711729532,-0.0007402361949364446,-0.000982464221875245,-0.0013998019508089533,-0.0019390419057196719,-0.0024247380197415414,-0.0026425358871406783,-0.0024467592677298046,-0.0018306486162679744,-0.000924384679492314,6.894495191412535e-05,0.0009573532893389443,0.0016206132257966914,0.0020272543884687815,0.002214307998837736,0.00225038728500472,0.0022017795836862895,0.0021120928250661316,0.0019963243019877463,0.0018444840986448223,0.0016293397514145738,0.0013158291374447183,0.0008726435074151729,0.000286357113378146,-0.00042476447789914035,-0.0012034349436623342,-0.0019583762195115977,-0.0025827754231213767,-0.0029807075532771,-0.0030921182077425307,-0.0029077059176054318,-0.0024691968525038816,-0.0018555818301917051,-0.0011602758964567744,-0.00046689209552863145,0.000168487097296384,0.0007229706100912635,0.0011986090826299359,0.0016030653097427842,0.0019278210344385917,0.002137083134193544,0.0021783337062769004,0.002013506869897334,0.0016536071510863952,0.0011712699820667948,0.0006747490810553427,0.00025133439202590195,-8.630173487333319e-05,-0.0004104599075038561,-0.0008272011657044342,-0.001386373436106888,-0.002008679453448621,-0.002484691596402358,-0.002561294652883107,-0.0020755776271059647,-0.0010610369251359646,0.00023851737251910838,0.0014606017625186213,0.002274923224950264,0.00251593762906547,0.002232684176096087,0.001638061672866752,0.0009927892068641235,0.0004902588392081818,0.00020024025299729474,8.73979627973203e-05,7.320017076456616e-05,8.992707489949292e-05,9.455933515257662e-05,4.914357679034365e-05,-9.943379560352982e-05,-0.0004114723411718351,-0.0009162816871581309,-0.0015686531817320703,-0.0022333648884011355,-0.0027173762755463233,-0.0028421897058858205,-0.0025232968826241517,-0.001814513825905897,-0.0008898827598993621,3.1245837891821955e-05,0.0007777654411032722,0.001288867738617051,0.0016120573718599643,0.0018426900917673538,0.0020460968080191905,0.002212681676845786,0.002272503804760082,0.0021551142441913903,0.001850835184827774,0.0014300569108180714,0.0010053826316263699,0.0006590791276300644,0.0003830921977157353,7.578169941581912e-05,-0.0003926129965661282,-0.0010790230929685752,-0.001894609525042619,-0.0026144468689804435,-0.002976084176531213,-0.002814827621275409,-0.0021561041783606755,-0.001209733902472834,-0.00027079129128883993,0.0004143491546818741,0.0007442590528029857,0.0007779984989112027,0.0006754765208283649,0.00060472137163132,0.0006656343384266101,0.0008609565588484499,0.00111587764286566,0.0013252575717935646,0.0014010555149671223,0.0013005121683027105,0.001029495142788537,0.0006272185689487934,0.00014465599089888643,-0.0003708963666229521,-0.0008778897697322798,-0.0013314048639669267,-0.0016745205048235403,-0.0018441383612686272,-0.0017952165203454413,-0.001529976480353511,-0.0011086050500310682,-0.0006271756258726801,-0.00017246582650254166,0.0002173401120870817,0.0005594045597570871,0.0008965573945673077,0.0012525806673333061,0.0016029437217417834,0.0018793579401214728,0.002003462552096798,0.0019269496444076456,0.0016529886125609388,0.0012269029557449387,0.0007042792325117455,0.00012032185423952395,-0.0005148953307782303,-0.001188041096884792,-0.0018409014821656518,-0.00235272525317634,-0.002573452592297086,-0.0023985803296091355,-0.0018400666552743667,-0.0010420606848332017,-0.00022388542313110248,0.0004181525618505357,0.0007911050598927015,0.0009231716635655518,0.0009178573714669989,0.0008827018769919962,0.0008783382938939468,0.0009091904400148627,0.0009445626550606156,0.0009437742837597963,0.0008683335422489247,0.000684420054858115,0.00036995017053110315,-6.737074388010723e-05,-0.0005722497262088662,-0.0010438642155041187,-0.0013663724365114416,-0.001454991902850152,-0.0012914571866860995,-0.0009283818639296833,-0.000461675904650959,1.104980737936872e-05,0.0004225632374522133,0.0007447350270549621,0.000976855866496549,0.0011280601529729771,0.0012069994950247315,0.0012205004987013808,0.001172783251856335,0.0010577687426288002,0.000848393557665606,0.000497626125912805,-3.603839260384658e-05,-0.000742987207149789,-0.0015230049786747444,-0.002186786466413705,-0.0025164062261238095,-0.002365079188502559,-0.0017423892613826842,-0.0008288261476723334,9.856894895977965e-05,0.0007923262576668455,0.0011416563814456693,0.0012020591137044652,0.001137746311130391,0.0011178505018531815,0.0012272564903531584,0.0014342192251182182,0.0016185095402561356,0.0016331315710800855,0.0013654370055703573,0.0007763324568005457,-8.595504750461474e-05,-0.0010919876192204596,-0.0020534886130359154,-0.0027629932795979932,-0.003049184747557824,-0.002834815840825351,-0.002172508420097299,-0.0012346411440555683,-0.00025262554263618677,0.0005706028409528035,0.0011324809766939975,0.0014513545001067303,0.001629010926941882,0.001780341812574041,0.00196906437492414,0.00217865743881796,0.0023249262062260225,0.002296285149759049,0.001999360062400921,0.0013916487117639359,0.0004944232996153126,-0.0006099752084964325,-0.0017882025323995396,-0.002869441478706998,-0.0036666258813452834,-0.004012657463746769,-0.003810437688033486,-0.003078962821620856,-0.0019671082314923188,-0.0007156698765991723,0.0004242676142375957,0.001280162005265,0.0018090652166193907,0.0020850447444993,0.0022329424804551534,0.0023485506403745603,0.0024502524673667677,0.0024839508828368405,0.002368221556276817,0.0020446581627787384,0.0015032721913221974,0.0007774769070728502,-7.376618855428216e-05,-0.0009754750285259257,-0.001832781000222568,-0.002527945604959413,-0.0029368586162475153,-0.0029684146747949447,-0.0026079981526358556,-0.0019361637672764451,-0.0011054535600315222,-0.00028458747922996766,0.00039952556466641234,0.0008911927542654637,0.0011962819960017917,0.001348632433762606,0.0013803910086605687,0.0013158383483355372,0.001185908108369028,0.0010411671396437722,0.0009399843973681289,0.0009088873993414494,0.0009002754399947083,0.0007865625646652804,0.0004143692839197676,-0.0002973190963719742,-0.0012700277433470855,-0.0022529395610801344,-0.0029116996719354307,-0.002983335145257119,-0.0024127750195465135,-0.0013886997835255296,-0.0002533703000251609,0.0006635102376395715,0.0011929984673909567,0.0013781822508185022,0.0014099277499379362,0.0014940006257080957,0.0017290203087038823,0.002060221999783566,0.002325240592095716,0.0023546655619812932,0.0020627157876350827,0.0014771998763344761,0.0007021335487685255,-0.00014987098079253353,-0.0010043911874028895,-0.0018228001567982956,-0.0025625670888183147,-0.0031403610965311216,-0.003435342964831273,-0.003339678388834357,-0.002826981421803806,-0.001991838837810376,-0.0010271938536418439,-0.00014421667747674817,0.0005218112137614355,0.0009628532811964971,0.0012745771689617333,0.00157406250602291,0.0019137440852894606,0.0022478546455710056,0.0024700149385808792,0.0024911404510222935,0.002300800632633849,0.001970038876000825,0.0015968143584048438,0.0012346160852929823,0.0008537387841476969,0.000360682970615982,-0.00033598385635815294,-0.0012511454546226225,-0.0022812789936728756,-0.0032196370007035067,-0.0038255682189956702,-0.003918838346000585,-0.003456009397967975,-0.0025521447362129336,-0.001436133909502015,-0.0003602583077303716,0.0004928648750385217,0.0010631062234617845,0.001405508643718759,0.001634472526230495,0.0018527349768612425,0.002099974870854944,0.0023406754998873077,0.0024902869626809996,0.0024626875890565126,0.002215033339460451,0.001769261248312167,0.0012013262286716866,0.0006049320055415427,4.886496038910144e-05,-0.0004497563261823966,-0.000921409133156031,-0.0014096331918551823,-0.001923557329578183,-0.002405530939578315,-0.0027377369354032867,-0.002791477362523871,-0.0024962040484532754,-0.0018889706589748124,-0.0011116425543052238,-0.0003518755619318532,0.00024163691945361783,0.0006210719006050308,0.0008421178112449726,0.001007839188571503,0.0011922717934356214,0.0013946476732676885,0.001552114724206225,0.0015965756242224457,0.0015108644914382722,0.0013426525494121004,0.0011669781130323642,0.001025072547824839,0.0008830875216760236,0.0006412707312182415,0.00019270416647014358,-0.0004995541911129641,-0.001350747360420717,-0.0021610249797638535,-0.00268440950056913,-0.002731302279928057,-0.0022556279506890107,-0.0013821865764308884,-0.00035831980381977404,0.0005476169835889657,0.001151125738200399,0.0014092677042441242,0.001407560363739427,0.001291246393342244,0.0011836087313230148,0.0011346046312141257,0.0011194597572915291,0.0010763536842285197,0.0009533072335754744,0.0007352394310730437,0.0004394035444643666,8.965190924323978e-05,-0.0003061852587543766,-0.0007548619613972241,-0.0012503702074586178,-0.001741363841675509,-0.0021232556302097274,-0.002271319081972368,-0.002101810043741729,-0.0016242561886954318,-0.0009492903906745102,-0.00024379142462772703,0.0003411034509196159,0.0007279712072393024,0.0009282158566963906,0.0010141002838024342,0.0010710218185441057,0.0011578368747669741,0.001290451667070762,0.0014470485402902668,0.001583857907545762,0.0016510281275457298,0.0016040354594757651,0.0014111572482604835,0.0010589847599847026,0.0005564606807194403,-6.393971933124725e-05,-0.0007490101062107223,-0.0014303149623427402,-0.002029813777756265,-0.0024658131517870273,-0.002663709441016228,-0.0025747779309102316,-0.002197538416229511,-0.0015882127305224915,-0.0008497207836900274,-0.00010189453711389432,0.0005525743386387014,0.0010512433271705405,0.0013776561023924319,0.0015526873371615652,0.0016185657969470832,0.0016220509226660107,0.001600950156312917,0.0015754220434054536,0.0015428592355034797,0.0014747098113333072,0.0013170990630149947,0.0010017827772038025,0.00047305810844732983,-0.0002740430377080154,-0.0011629994786825607,-0.0020361695524716778,-0.0026972842222023207,-0.0029823241121607405,-0.0028251774401815166,-0.0022841049311283015,-0.001515051147723762,-0.0007056784262157007,-3.215809648640872e-06,0.000529976191156806,0.0009153299809229485,0.0012170664253979217,0.0014862487942595647,0.0017217536598303075,0.0018704046045601966,0.001865688073901757,0.0016802323643727742,0.0013567141139790915,0.0009932298855025562,0.000687045963691668,0.00046889527182384315,0.00027113163248659953,-4.192751430627658e-05,-0.0005887159661302011,-0.001374459328727545,-0.0022437289900251564,-0.0029200982320227707,-0.00312350926230263,-0.0027084559233171244,-0.001749114001758872,-0.0005224993338396297,0.0006065057191637143,0.0013427615175849463,0.0015823322392868253,0.0014372771574047167,0.00115499729836926,0.000980305538453634,0.0010366280301063258,0.0012852665842792803,0.001571184058526165,0.0017143988735905686,0.0015893165565667184,0.0011569763158475132,0.00045516270912842097,-0.0004241643339911391,-0.0013480691617121436,-0.0021508552238207433,-0.00265823191647711,-0.002737579553798543,-0.0023563453757774596,-0.001612267906554701,-0.0007088320881970402,0.00011930284377051895,0.0006963509562818468,0.0009674230683428299,0.001003857195216724,0.0009513213407509012,0.000947452074237798,0.0010505631046497025,0.001216002795888378,0.0013320845121169186,0.0012937067081657022,0.0010679107117985925,0.0007088499567055377,0.0003118143195659046,-6.157836173579742e-05,-0.0004313757106097071,-0.0008796305893247849,-0.0014687193367617837,-0.0021505359162074323,-0.0027334994131502587,-0.0029429257865635095,-0.0025526295559403756,-0.0015188075449094009,-4.0674921125096646e-05,0.0014913709509313312,0.002642518369250329,0.003110274893815327,0.0028490523994292886,0.002081117610524856,0.0011851100561885643,0.0005165315675255371,0.00025354993176284315,0.00034741549553716675,0.0005932602002950986,0.0007648514444457897,0.0007257126901855939,0.0004581573278151075,1.5600662431540773e-05,-0.0005461959320496796,-0.001199947671069937,-0.0019209106740438332,-0.002635329641811436,-0.0031965849795517047,-0.003421884872447456,-0.0031759277628121522,-0.0024502070879837386,-0.00138500121797066,-0.00021673074464743572,0.0008195050409682533,0.0015771688747127427,0.002032171251647121,0.0022560876947222757,0.0023538575199079847,0.0024024735437303837,0.0024185233196307374,0.0023646578107685877,0.002186829355564516,0.0018599980010208586,0.0014148544481177312,0.0009271690710311784,0.00047348638627366075,8.024451857773793e-05,-0.00029837734836881183,-0.0007536901635022071,-0.001357178924669643,-0.002093766687121144,-0.002836234691044552,-0.003382801757266248,-0.003543821645361228,-0.0032325961235864986,-0.0025093244153926507,-0.001552582792292576,-0.0005752227758312939,0.0002662048229806262,0.000918687265547394,0.0014169102032366135,0.0018239687674818754,0.002171108167638711,0.002432981872335666,0.00254770290354502,0.0024624354383578307,0.002172905594432015,0.001733316617078525,0.0012329949367424038,0.0007544627999735189,0.00033571589957025606,-4.401854537346161e-05,-0.0004471375483822394,-0.0009355609248587034,-0.0015226435488826524,-0.0021436260001277477,-0.002663321762413181,-0.002922840796343325,-0.002806601713218638,-0.002298106498573764,-0.0014960491775716058,-0.0005805266467997967,0.00025659355069507,0.0008846782804292487,0.0012753691109409471,0.001492351404823619,0.0016385640922619094,0.0017928404261175913,0.0019706413918563533,0.0021247798996374256,0.002177345946991627,0.002060473566286802,0.001745551916354814,0.0012507891521962278,0.0006277892827717001,-6.368282245743486e-05,-0.0007781542642640399,-0.0014902811440314465,-0.0021797492314244186,-0.0028055429879618654,-0.0032897291704701865,-0.0035272387377606462,-0.003421679463214016,-0.002929221534240905,-0.0020864236127388558,-0.0010075567909902218,0.0001458688107738213,0.001208344030154345,0.0020494579802402316,0.00259774212460053,0.002846043930926413,0.002841302702260674,0.002664273057572839,0.0024044536506595982,0.0021345956021178074,0.0018899271436346797,0.0016589345628832408,0.0013916704836361314,0.0010254135376069967,0.0005178702794365171,-0.00012843590570777667,-0.0008636496161675167,-0.0016099450885454299,-0.0022889714207163657,-0.0028398328537719477,-0.003219067034996625,-0.0033885858970507726,-0.003306927169542415,-0.002937019548760646,-0.002271103680204903,-0.001358476265877266,-0.0003150399974631239,0.0006985668447410018,0.001525121489915503,0.0020631379068445136,0.002296996206782663,0.002289928887630286,0.0021452104189458162,0.0019578224063293726,0.0017818877899688623,0.0016266809478204939,0.0014750260866040507,0.001305356182058628,0.0011003460319122915,0.0008390622242526414,0.00048614742249154585,-2.1165431047892548e-06,-0.0006464942269017433,-0.0014034418204148177,-0.0021462146495364424,-0.002694252162665731,-0.0028860979206647612,-0.002658080161921837,-0.002081575845988212,-0.0013343181336722132,-0.0006199768527248333,-7.934071047515604e-05,0.00026046443729747554,0.00047458984842561284,0.0006774248406032398,0.000946863617014465,0.0012803823660583976,0.001605317315616397,0.0018299595576059266,0.0018977492469922682,0.00181034917414535,0.00161105742244722,0.0013467454591558734,0.001036275152561621,0.0006638028350527041,0.0001974466034310019,-0.00037977881688864385,-0.0010434463432714553,-0.0017179038325674048,-0.002288004635650488,-0.0026303760135354755,-0.002656218962181334,-0.0023508658931005737,-0.001789856347481287,-0.001115329727821665,-0.0004759172536172266,4.061116011684445e-05,0.0004409524491075722,0.0008020635509573075,0.0012022624184268864,0.0016519348963581577,0.002070070351460381,0.002323325052758319,0.0023036151855612415,0.0019957753628020557,0.0014934653013566326,0.000953107152872465,0.0005119550927225838,0.0002167599327620925,3.403902369788627e-06,-0.0002605037582231271,-0.0006925835004148699,-0.0013165603819632328,-0.0020298361780770454,-0.0026370367062423204,-0.0029348594078539006,-0.002805730654190276,-0.0022714246002456242,-0.0014784322534992585,-0.0006244804624858878,0.00013163574156502603,0.0007271704044493992,0.0011920265381041887,0.001594527346849417,0.0019741580646587035,0.002302265754342606,0.0024916151099383253,0.002446963362598641,0.0021270353155335444,0.0015821335488120226,0.0009429267140362767,0.0003612363521316658,-6.747557421478239e-05,-0.00035437929387327103,-0.0006057618544253157,-0.0009510541676377427,-0.0014513842051599008,-0.0020454968270852917,-0.0025685470801770655,-0.0028333854243759236,-0.0027246117420925454,-0.002250064759251078,-0.0015253427709484985,-0.0007106756904232871,5.5622689123002765e-05,0.0006915827708717177,0.0011685393301174437,0.0014905237243722147,0.0016784885143004075,0.001765423493937943,0.0017922211131906549,0.001793748455249958,0.0017787558560969417,0.0017201627288734888,0.0015689619331241817,0.0012862410439270524,0.000870458029748159,0.0003586864276450254,-0.00019801971062884517,-0.0007620522772488249,-0.0013135834164318832,-0.0018276071450085475,-0.002247045003085106,-0.0024830592500463813,-0.0024527126464338393,-0.0021312186329776038,-0.0015796030186910907,-0.0009234856802927097,-0.00029363996732728294,0.0002332485596219626,0.000655570302977374,0.0010189547254704037,0.0013626391285359299,0.001678518370815547,0.0019093477376994977,0.0019844864470547714,0.0018682505960708339,0.0015906029624510318,0.001241194562400167,0.0009267051261114189,0.0007102508199429069,0.0005644661962205923,0.00036969005512222503,-2.987869513037213e-05,-0.0007317904772601103,-0.001691785355578043,-0.0027045159495740064,-0.003471853310455647,-0.0037313286707996236,-0.0033778556221779705,-0.002511779389151375,-0.0013876382773428725,-0.00029440323683826595,0.0005662236903947204,0.001141626438141933,0.0015070179772320525,0.0017849473356993718,0.0020578941843305536,0.002322567020518482,0.0025043040371765966,0.0025137565287238956,0.002307456023491718,0.0019176401502004434,0.0014376092023318373,0.0009727235507890626,0.0005831695590376833,0.00024860708198592085,-0.0001235175818221019,-0.0006432935956526794,-0.0013594578044792607,-0.0021981273790862552,-0.0029611121841062594,-0.0033987812601609033,-0.0033284455331597405,-0.002734989443550607,-0.0017924793291973127,-0.0007881041786470029,1.1862838516811937e-05,0.0004788765040894549,0.0006580736107450976,0.0007105429770596174,0.0008049935901737464,0.0010266860595570942,0.0013515065093843562,0.0016858032335268116,0.0019328801618389996,0.0020402474401889138,0.0020058623112337182,0.0018531207086498911,0.001600392723062961,0.0012458289764865074,0.0007725213675613956,0.00016674050798500483,-0.000561139366125941,-0.0013608673092574215,-0.0021374613372076245,-0.0027625640523090875,-0.0031042915247516964,-0.0030694716716971404,-0.002642120744336704,-0.0018984939637349866,-0.0009873096256649636,-8.066027096847832e-05,0.0006831847650708854,0.0012390152502984083,0.0015987299736488787,0.0018206186981848888,0.0019617940560371742,0.002040558368077103,0.002030497495684582,0.0018896821135611316,0.0016050250816054895,0.0012185876206085165,0.000811835008644238,0.0004533578896019915,0.0001457892897291046,-0.0001856106359677637,-0.0006455624287359121,-0.0012867750328797284,-0.0020455598999745807,-0.0027412460931203666,-0.0031481254888939565,-0.003103255469117762,-0.0025891666421081296,-0.0017435438753872767,-0.0007908835622528483,6.296446482302142e-05,0.0007127823102604208,0.00117019557139024,0.0015143987111702897,0.0018158274635260195,0.002081847536723147,0.0022539855682756895,0.002252510702801172,0.0020372754256222925,0.0016467576331258295,0.0011911114543701707,0.0008008767606342683,0.0005573224753709441,0.00044136335018502454,0.0003309036576680429,5.488423328621559e-05,-0.0005151102824385664,-0.0013773263427148304,-0.002364308578035823,-0.0031893196599384038,-0.0035649329490150083,-0.0033399574934719254,-0.0025799175727579875,-0.0015391375542464615,-0.0005333323951798986,0.0002158004178041121,0.0006725407922365241,0.0009642757770720751,0.001266122966590505,0.001671677163178219,0.002130704261211854,0.0024856883534624136,0.0025753067523143665,0.002335416389854848,0.0018367169156831553,0.0012420802002564328,0.0007149646401801627,0.0003345326581233785,6.344323952755382e-05,-0.00021791207106503288,-0.0006316900942344894,-0.00121989928525554,-0.001902470026973234,-0.002500486893218164,-0.002815724839538527,-0.002725888453238621,-0.0022439902258899517,-0.0015097584933898489,-0.0007203406284373333,-4.154070876711107e-05,0.00045204976582480884,0.0007814752753869017,0.0010199227512823835,0.0012335474330363839,0.0014415477145182005,0.0016132124168022881,0.0016959834864986678,0.0016532878135649396,0.0014902737566653338,0.0012552921165113569,0.0010169906104567936,0.0008268349663592578,0.000683993559621535,0.0005223579570346178,0.00023410565357127167,-0.00027199539761752465,-0.0010019019132134906,-0.0018371318673296704,-0.0025584088754570323,-0.0029331142905591537,-0.0028258990187891406,-0.0022695210740151725,-0.0014504273340023807,-0.0006141374361131322,5.3919358045848487e-05,0.0005018418473257502,0.0008005545340242107,0.0010653246441956477,0.0013651514659033053,0.0016758135355943466,0.0018990063694065294,0.0019287132027376946,0.0017213112794776618,0.0013278875279783807,0.0008706864445188323,0.0004768383585209784,0.00020628024154187682,1.5960966127961558e-05,-0.00021423502616132854,-0.0006009759330709158,-0.001163678211803049,-0.0017753499547354785,-0.002199944261624467,-0.002210529855584606,-0.0017277618697102183,-0.0008929223626114747,-1.85464498547493e-05,0.0005681244502048883,0.0007021817989114067,0.00047102689005417667,0.00015833561471945362,7.269166635215065e-05,0.0003640420589649228,0.0009386419254737086,0.0015211697530733757,0.0018217197836096861,0.001702859249905726,0.0012458304741888462,0.0006813253541646139,0.00023598171135793102,-4.418356043042878e-06,-0.00013096986910958648,-0.00033168946405922635,-0.0007530950933762607,-0.0013917761885048636,-0.0020798074102892933,-0.002568373390544605,-0.0026569543867174528,-0.0022929188488526723,-0.0015886100592270472,-0.0007536126452766463,1.298502422951485e-05,0.0006082713692203681,0.0010457791241669952,0.0014075341875129433,0.0017638971504054632,0.0021133250621625126,0.002378713664760976,0.0024589211294631895,0.0022977871216429187,0.001923223209799067,0.0014317838646674965,0.0009316180631539112,0.0004822987843447152,6.898028633672723e-05,-0.0003750080324770623,-0.0009123972421798223,-0.001546860853759989,-0.002200837644369175,-0.002738996925239369,-0.0030241914015618886,-0.002975618409810775,-0.0025998589816462565,-0.001982601858492134,-0.0012506029951375056,-0.0005262113534791892,0.00010568691982299025,0.0006108240787706316,0.001001786028694875,0.001322083610127103,0.0016203031785602768,0.0019188496800083056,0.0021902903690523977,0.0023590349812532903,0.0023360330945923933,0.0020714653207477844,0.0015921319722962833,0.0009943923954755587,0.0003921101887807613,-0.0001465674462761289,-0.0006270305174720129,-0.0010973209066504528,-0.001580367602997761,-0.0020227801085654336,-0.002303844092867157,-0.002302792948902078,-0.001977337716073173,-0.0013977239745629213,-0.0007135200331431106,-7.746456916432761e-05,0.0004230972282582708,0.0007868883962780248,0.0010662060962961335,0.001309884054409502,0.001521907300938373,0.0016604752063767315,0.001672428002423265,0.0015343589300526586,0.0012699424986529408,0.0009326407234886665,0.0005683277290502455,0.0001851956446366794,-0.00024832907816126515,-0.000775560779259777,-0.0014089259504325702,-0.0020962144619199228,-0.002715918373715703,-0.003109427117545188,-0.0031400755413916884,-0.0027529307896295803,-0.0020045497652247946,-0.0010449241630670976,-5.932984160118204e-05,0.0007999613812394509,0.0014582866908406213,0.0019222517873161548,0.0022493762116528233,0.002505679436216006,0.0027317376937538436,0.0029262266575155915,0.0030461102543520675,0.0030200698888262155,0.0027726838742175926,0.002254844450326764,0.0014703329438528602,0.00048550403003710734,-0.0005853523557242976,-0.001613440134687721,-0.0024905428651637047,-0.003147775275602938,-0.0035517915836794176,-0.0036882945645437216,-0.003550420667212953,-0.003143020895422189,-0.0024990847688175074,-0.0016934952872404542,-0.0008390904194904639,-5.960643183128636e-05,0.0005517155803996913,0.0009670810721496112,0.0012303261888400002,0.0014259765140321263,0.0016264883272616246,0.0018497934138940874,0.00205426682873726,0.002172374630250288,0.0021562746708669355,0.0020008085699598707,0.0017287187623928955,0.0013547143201394303,0.000863693271107438,0.00022806314406634517,-0.0005434254639862516,-0.0013624431762472038,-0.0020631767011665397,-0.0024613714844746535,-0.002442223664797763,-0.0020255731750835884,-0.0013665772248451992,-0.0006873162730574141,-0.00017531378296904373,9.701125020851649e-05,0.00019158571110952047,0.00025606224025044496,0.0004342891461556855,0.0007810132689299305,0.0012239314002435336,0.00159539847668095,0.001722139590982696,0.0015270273904243565,0.0010824454593993736,0.0005758511926882283,0.0001997948669145897,3.070187421744068e-05,-2.3991743531249707e-05,-0.000168502158039377,-0.0005799908631475642,-0.0012746554785613886,-0.0020672768884970297,-0.0026552444622512886,-0.0027781442056107274,-0.0023562405774613967,-0.0015268052064374078,-0.0005629838291126967,0.00026961625975334186,0.00083258181787193,0.0011482015624165612,0.0013418950507511087,0.0015410301194493273,0.0017944673119904518,0.0020541263323076596,0.0022172051187674493,0.0021935932542324725,0.001955195035190112,0.0015416175889165584,0.0010255444479947647,0.00046388770841937694,-0.00013300316487761387,-0.0007930596118831742,-0.0015369231838031575,-0.0023214483978461586,-0.00301204204985816,-0.003413604104257351,-0.0033556762195300297,-0.0027878325763840256,-0.0018258132208606778,-0.0007136081700331851,0.00028234245269777953,0.0009884760110119013,0.0013854890528936302,0.0015856385434236805,0.0017446315903675627,0.0019616621188816435,0.0022239021211829593,0.002423081996373285,0.0024289335890362224,0.002171745959317056,0.001683178123376464,0.0010726690233167837,0.00045821988363483625,-0.00010169636980575673,-0.0006309216513820532,-0.0011989600100017867,-0.0018488459739715501,-0.0025367315751930646,-0.0031249106477022007,-0.0034380531323998506,-0.0033521428091613193,-0.0028624154670492488,-0.0020875190069408367,-0.001206863928291461,-0.00037025873207027863,0.0003649600142455494,0.0010332549211811682,0.0017008472389501328,0.002386545769245772,0.0030150610225373525,0.003435105848372787,0.0034955132747450683,0.003136161950731837,0.002438399580339138,0.001600312064958696,0.0008449852363644542,0.00031029836707151297,-1.753630274982875e-05,-0.00028663766911137195,-0.0006845361550978713,-0.0013165360907191142,-0.002125787045325025,-0.0029025346535087753,-0.0033806538372419363,-0.0033697387098999064,-0.002850665228562979,-0.0019840030168649173,-0.001030146701220185,-0.00022741238576740985,0.00030678914898684507,0.0006037491230974474,0.0007929420654079825,0.0010073359096435261,0.0012999242455620087,0.0016176186960154633,0.001843726318323178,0.0018788543448978268,0.001707126189010404,0.0014054089993875503,0.001091276738031401,0.0008450559866187858,0.0006565416015480664,0.0004300940276264476,4.618466678698186e-05,-0.0005548371169335363,-0.0013135243568449231,-0.0020519809756372118,-0.0025403853267594,-0.002600783822478097,-0.00219584650413698,-0.0014524243897756023,-0.0006019537584142898,0.00013245369374107732,0.0006380949799423003,0.0009442393871983929,0.0011674387081886729,0.001410260979614083,0.0016820298169597048,0.0018928752308292186,0.0019216146896692292,0.0017083918883201046,0.0013068970635278893,0.0008580473474901604,0.0004996584217814235,0.00027123813144219495,7.997146191442552e-05,-0.00024323365422084355,-0.0008272814393892084,-0.0016551385603131622,-0.0025367985477087445,-0.0031831962586415397,-0.0033437985964014354,-0.002932958150468664,-0.0020753512938239006,-0.0010452354412486464,-0.0001328390241047259,0.000488967567839357,0.000826366811841814,0.0010257996203300909,0.0012637760410553695,0.0016330998080025362,0.002090390877853618,0.0024891792925102896,0.0026712504240232323,0.002557560835070966,0.002185579501405412,0.0016763500477859489,0.0011581368199965539,0.0006969175590046846,0.0002738959038319066,-0.00018331286624003362,-0.0007411132366684583,-0.0014081520803079126,-0.002116588974365409,-0.002741716820143746,-0.0031482405399091986,-0.0032418862144581763,-0.003003456815606858,-0.0024902101142424953,-0.0018054843596877139,-0.0010543678336901432,-0.0003100664264580494,0.00039276399311994833,0.0010394892639618593,0.0016089817209074522,0.002059640861381443,0.002338849276328317,0.002410974659247146,0.0022862663317912155,0.002030190187408642,0.0017418199199697886,0.0015068623414859722,0.0013473271763098371,0.0011967327571123806,0.0009217736762992448,0.0003898566233915887,-0.00044461358270755257,-0.0014799712242284835,-0.0024734403082177924,-0.003124534697896254,-0.003204513453267612,-0.002669727071706592,-0.0016971944511797719,-0.0006165852993059491,0.00023307239542122974,0.0006511493386062665,0.0006519306289869961,0.0004321582968162734,0.0002518980136410422,0.00029735690006824414,0.000598947271050209,0.001040064995071172,0.001438310655372323,0.0016450914707210299,0.0016091719150939372,0.0013779908474124286,0.0010469460618942603,0.0006923306526765675,0.00032819157771596624,-8.907721952062225e-05,-0.0006131793136775634,-0.00124772029973407,-0.0019118611474972353,-0.0024559048159666524,-0.0027215851981329878,-0.002614417237105999,-0.00214694641179625,-0.00142890189293052,-0.0006131291084752697,0.00016775535101755097,0.0008382296092041038,0.0013773748623712935,0.0017908910960451453,0.002082659841421275,0.002243306925731512,0.0022578686283193034,0.0021231702326666175,0.001861805471996297,0.0015223585932853743,0.0011629290525866792,0.0008246799610566367,0.0005093325642310841,0.00017452178677760603,-0.0002467949089800275,-0.0008079860978047072,-0.0015064859406442512,-0.0022578689711192333,-0.0029041877791602735,-0.0032621874301430476,-0.0031966523496057483,-0.002685738621162954,-0.0018423485462229963,-0.0008744803545728303,4.609701982201896e-07,0.0006454550338324523,0.0010505049715191965,0.0013105876054720573,0.0015483976321047615,0.0018292722508431699,0.002121081470608606,0.0023220708167866625,0.0023337341692771154,0.002126553545209163,0.0017545495814497631,0.001312387660552805,0.0008679375246686982,0.00041751886469410177,-0.00010567385022557736,-0.0007734317599318036,-0.0015885098457367095,-0.0024402055915839975,-0.0031225534480331493,-0.00341565980318154,-0.0031925833373212752,-0.0024925334190863927,-0.0015137389486108294,-0.0005238731653220183,0.00026357454434547585,0.0007761667253320714,0.00108459303177328,0.0013256463212712613,0.0015999509058178198,0.001908821497645857,0.002163219325632258,0.002249364531117044,0.002103683127832652,0.0017514695340159453,0.0012909411074772678,0.0008363635877699394,0.0004540209556820857,0.00012690489819543833,-0.0002307502796318905,-0.000713736984744367,-0.0013514617024717305,-0.002061473069548173,-0.002662442400776615,-0.002946721242757593,-0.002777752389280578,-0.002160800311257122,-0.0012481614766814298,-0.00027526352000960285,0.0005387409081096783,0.0010742330810775116,0.0013375080308876046,0.0014231116415953633,0.0014415009862040877,0.0014581726283207155,0.0014766445537107737,0.0014639342466162871,0.0013888398386273481,0.0012409259532161598,0.001020759681626439,0.0007188277195242278,0.0003093073622005678,-0.00022980849716302436,-0.0008824833584107134,-0.0015718196932772686,-0.0021683428760279743,-0.0025303338233417638,-0.002558286853589765,-0.002236800718877244,-0.0016424924535593528,-0.0009131545020581821,-0.00019288436197496838,0.00042013131342400996,0.0008984888769954569,0.0012731155135220049,0.001593188658092741,0.001882492055871625,0.002117490135235982,0.002239322793835661,0.0021912626954455096,0.0019566291399993915,0.0015706626110641836,0.0010965916854688677,0.0005817929576353488,2.6721909789833263e-05,-0.0006065735122303021,-0.001346276719429002,-0.0021530462898956106,-0.002894751451611799,-0.003379104189797674,-0.0034336634169574855,-0.002991283333722041,-0.0021331876808977778,-0.0010646028409415456,-3.4071610201264076e-05,0.0007638985902858365,0.0012562008399401405,0.0014980691328022992,0.0016199006780356592,0.0017445597486506056,0.0019200329107097085,0.0021021761930154134,0.002192699636619531,0.0021055401762832236,0.0018197317315829893,0.0013877328577683993,0.000897340546672821,0.00041411591117016655,-5.751533022724459e-05,-0.0005682103897690655,-0.0011739649275785916,-0.0018719408091202256,-0.0025636492729920737,-0.0030749019106767568,-0.003228979882733395,-0.0029349695742423272,-0.002240287619232403,-0.001315348964994248,-0.00037782078855542746,0.00040116424412446513,0.0009574855753983077,0.001331290090199013,0.0016093340576189949,0.001852702843152774,0.0020563799094840073,0.0021632942382801747,0.002117138461563575,0.0019119455268000406,0.0016009584238941812,0.0012589765837135167,0.0009270838802344762,0.0005809648859379672,0.00014666307839878576,-0.0004445427217549526,-0.0011946954549570078,-0.002006928420974074,-0.0027026982347610803,-0.0030846609092277854,-0.0030188208544410814,-0.0024974111751321576,-0.0016498224812407291,-0.0006934941607344631,0.00015194108907337872,0.000745202574142935,0.001062241389998375,0.0011816200202622537,0.0012306630310364754,0.0013205416800986139,0.001497838615645502,0.0017299765948361138,0.0019272320296570102,0.001988810831129072,0.0018498851707868054,0.0015064033135540446,0.001006621753991827,0.0004171465972589533,-0.0002136172289817391,-0.0008696716770551149,-0.0015482536513656486,-0.0022197058561841017,-0.002797350354995749,-0.0031470454706151313,-0.0031416261808443592,-0.0027321694354994893,-0.0019901749556643813,-0.0010880594098576298,-0.00022348073665156903,0.0004695527147909091,0.0009694951216894841,0.0013475018853813994,0.0016945314230995313,0.0020448511377341226,0.002346927102977599,0.0024998506286834266,0.002428109742087111,0.0021411396844988454,0.0017355504124080365,0.0013384913165924114,0.0010303169784954722,0.0007962690165789775,0.0005358221053321148,0.0001225538256974959,-0.0005196061864199382,-0.0013630001524742444,-0.0022701064201613398,-0.0030356735362023902,-0.0034586646335774073,-0.003416387269804436,-0.002913942130109027,-0.002089588630829756,-0.0011693892442952462,-0.0003826809729506051,0.00013009909928379966,0.00037447608729361103,0.0004905766137137716,0.0006720891309819548,0.0010541490939427903,0.0016312682744236444,0.0022534303471266033,0.002704218118863895,0.0028159704144633878,0.0025550497575738567,0.0020294873447679524,0.0014185198955758247,0.0008687315109628906,0.00041838785631924315,-7.165047696169526e-06,-0.000527870432525037,-0.0012095463048305782,-0.0019925823652873647,-0.002694511198108419,-0.0030902872423949424,-0.0030271369090718106,-0.002507589543018199,-0.0016912298890948232,-0.0008139857187352076,-7.318530558063076e-05,0.0004545094976409679,0.0008184132609081907,0.0011274516515867167,0.001459431656376635,0.0018029043504285875,0.0020631449288169663,0.0021229378241855823,0.0019184161796457003,0.0014851910530811676,0.0009487407831243642,0.00046307453313255856,0.00012901789355725818,-6.323034424394683e-05,-0.00023111779734652667,-0.0005305655409989872,-0.001053924974597721,-0.0017529631117758093,-0.0024363561390251974,-0.0028508746178163825,-0.0028058184483899713,-0.0022720537255998745,-0.001399368318212339,-0.0004426408073650663,0.00036027482236899755,0.000890416564185884,0.0011763482875213538,0.0013417082366241105,0.001510349692700563,0.0017285022699930668,0.0019474280622298848,0.002068908002500989,0.0020168229601075,0.0017861936638108918,0.001441611495527858,0.00107249170309107,0.0007375376570185781,0.00043167482022789103,9.111563715543167e-05,-0.00036867666493438535,-0.0010006062684220244,-0.0017813543495055033,-0.0025939653135407647,-0.00324965096654487,-0.0035481555199041435,-0.0033579354024784167,-0.0026808986833441704,-0.001665217014539757,-0.0005522536018439156,0.0004196719491855335,0.0011055386318490103,0.001492165024714682,0.00167065474661553,0.001766131770220023,0.001867978734632326,0.001995660151821477,0.0021087246063959376,0.002144480604946821,0.0020572389948841606,0.0018392569855478543,0.0015169931754878234,0.00112869978702876,0.0006969192796493561,0.00021150936097972723,-0.0003645436377959752,-0.0010636473410358448,-0.001868456108146717,-0.0026793554973508537,-0.0033227897847091384,-0.0036098516800644395,-0.003422123445946274,-0.0027777169523432923,-0.0018352527816039802,-0.0008277797598705008,3.908574296460711e-05,0.0006682165840933569,0.0010872599702848485,0.0013960369371804828,0.0016826231076248585,0.001962132218589352,0.0021732312165198982,0.0022275501097159013,0.0020748661516979184,0.00174228773819661,0.0013264337170566184,0.0009457523426877398,0.0006790746798750038,0.000521054692390947,0.00037807186432303687,0.00011262305070741926,-0.00037778845254379974,-0.001083735774970841,-0.0018547560209720097,-0.0024465295930318157,-0.0026309496798202023,-0.0023133673999617167,-0.0015892514499922985,-0.0007031606495610793,7.070346041021012e-05,0.000560124290414509,0.0007645046841298275,0.0008247172689578176,0.0009141699170095283,0.0011179961077793638,0.001373091937587802,0.0015045638284684922,0.0013367369278376937,0.0008129790040040791,5.276251221082587e-05,-0.0006909906559948676,-0.001155449945782437,-0.0012066302134474912,-0.0009157721953495979,-0.0005271393056560815,-0.0003301735822964458,-0.0005029819823379592,-0.0010115347510469559,-0.0016194537937543499,-0.0020037714517347825,-0.0019154955714784398,-0.0013006753156905434,-0.00032048295800920834,0.0007348978197363534,0.0015863264398190675,0.002082306004202311,0.002235253536581762,0.002171494884119817,0.0020373073957813802,0.0019202065117770273,0.0018242179446748047,0.0016988252002140694,0.0014909388162226583,0.0011834104100102727,0.0007995371779287046,0.00037707253345773827,-6.630181439307332e-05,-0.0005498671895918968,-0.001114387233869367,-0.0017802450973980737,-0.0025036290021907943,-0.0031604906302867236,-0.003575731821915836,-0.003590323489145345,-0.0031352354567156285,-0.002273021268948734,-0.001182183816830951,-8.906677637394067e-05,0.0008196100482532656,0.0014596792474333693,0.0018575241270445638,0.002103375866211847,0.002280460840834902,0.0024126711172560867,0.0024597726173024256,0.002357934509441495,0.002074447163659585,0.0016377884180096896,0.0011225125795323737,0.0006001586341021301,9.14263466840823e-05,-0.00044434902966392726,-0.0010697610196913321,-0.001800896301146257,-0.002554022923710049,-0.0031484337496142543,-0.0033759585014542185,-0.003105567393501256,-0.0023636896546797717,-0.0013383076840887845,-0.0002975678332762657,0.000533730745430555,0.0010689757448575526,0.0013721964471445404,0.0015852526677315357,0.001818848200908146,0.0020770666926306944,0.0022616735534825034,0.0022496014024953074,0.001988881606481528,0.0015467830861175154,0.0010766815590871424,0.0007245995657975391,0.0005359586193064922,0.00042310919132415375,0.00021667157807542952,-0.0002269812493625451,-0.0009238101839479473,-0.0017261661446057565,-0.002377599411436197,-0.0026329532122503743,-0.002381324681661695,-0.0017065524460879607,-0.0008526300459814516,-0.00011174364969294677,0.00030694075774651333,0.0003609594057958779,0.00017159983811493805,-5.6833541221349045e-05,-0.0001468013728579253,-2.867447747301557e-05,0.00024067480198914607,0.000518535848037062,0.0006465390164836262,0.0005166704004951338,0.00011222166036627774,-0.00048227018624570823,-0.0011007940862868611,-0.0015426586634280804,-0.0016391074187646112,-0.0013205843694701338,-0.0006539360902767311,0.00017731180117100872,0.0009502812733985971,0.0015022998187176311,0.0017976003283980422,0.001921542081112236,0.0020067981849357934,0.0021391949159674534,0.0023029661873847844,0.0023975596419025234,0.00230997810322685,0.0019908868519801512,0.0014830980361573308,0.0008861294880442305,0.00028528027877077204,-0.0003028534194545391,-0.0009295499936792948,-0.0016580793747368303,-0.00249056659414228,-0.0033266919342830547,-0.003982984636918891,-0.004264689376122483,-0.004052411718982498,-0.0033592318723224372,-0.00233127467333851,-0.0011933959854981812,-0.00016623466321140585,0.0006085208457864526,0.0011035490222850845,0.00138973643320041,0.0015804371027466923,0.001766546462458668,0.0019750704244762174,0.002168256735280721,0.002276576261851479,0.002241721636224131,0.0020445444476470537,0.0017058057359184366,0.0012655282399440743,0.0007593864236260968,0.00021101433359390276,-0.0003538586613287915,-0.0008848804544254352,-0.0013010063417804476,-0.0015169238477716622,-0.0014916047430335042,-0.0012648523516491286,-0.0009491424887980628,-0.0006737864098072034,-0.0005142528831990599,-0.00045237399614796647,-0.0003930044764654632,-0.00022586909711165906,0.00010542379608835355,0.0005664365316037324,0.0010453890141893848,0.0014071465930910808,0.0015570226813238454,0.0014798685621703715,0.0012344119828039048,0.0009082162555706663,0.0005613268159626247,0.00019369887853434845,-0.000242020049880544,-0.0007883859229536697,-0.0014241326552096993,-0.0020390248045211922,-0.002465832256135216,-0.002557348697966773,-0.002265241387514306,-0.001672419577900512,-0.0009569179081098157,-0.0003065788689997932,0.00016693836818698236,0.0004674398685882075,0.0006885406100939942,0.0009424118683057053,0.0012857715386929468,0.0016837770495345458,0.002028664637683078,0.002199153960319484,0.002125064863509495,0.0018201573962799435,0.0013660466107869946,0.0008604787199028811,0.00036542255127955105,-0.00011119700136698535,-0.0005913359348038699,-0.001081938686783794,-0.0015444926218289854,-0.0019013638355970962,-0.002073115991838604,-0.0020195393181533985,-0.0017572932431589264,-0.0013460237900986944,-0.0008564360339034317,-0.0003427675875583027,0.0001653313153234786,0.0006520610154211273,0.0010979700785465711,0.0014691204939046283,0.0017201466363786079,0.001810394522783058,0.0017252668718122006,0.0014900475498677425,0.001164330316067916,0.000814967286764348,0.0004804735222561035,0.00014921305224846584,-0.0002313876496585699,-0.0007150325004789937,-0.001305826485234526,-0.0019257900404373056,-0.0024242934273696476,-0.0026338107339137938,-0.002450245989389924,-0.0018960749430140533,-0.0011258205552116928,-0.00036169559617044134,0.00021092071614904945,0.0005305036011919227,0.0006781261071241493,0.0008166168276140559,0.001086278072601581,0.001518773022684956,0.002018160907716662,0.0024155847629456356,0.0025598739449150094,0.0023892186585792144,0.001947715729231511,0.0013479235993586703,0.000709417742721655,0.00010822092285342781,-0.00044233663659832694,-0.0009770628667673063,-0.0015404308848211419,-0.0021402089384874507,-0.002713693303221725,-0.003127801244766833,-0.003223689468277298,-0.002892608161276373,-0.0021449061160618652,-0.0011287629576566848,-7.92641535255677e-05,0.0007801387373168073,0.0013302930382424498,0.0015911526794806017,0.0016820056092039042,0.0017362310759184302,0.001825180672587962,0.0019343723035481078,0.0019964643630399383,0.0019480248999103932,0.0017671908644415779,0.0014710405251015743,0.0010849538359116743,0.0006151432825605071,4.835440657935798e-05,-0.0006209781532439884,-0.0013566133701503665,-0.0020647035507950005,-0.0026106739416184525,-0.002865003924739393,-0.002757680079447526,-0.0023135333700318745,-0.0016473918202467544,-0.0009183229144032552,-0.00026555097510197023,0.00024045312127017843,0.0006075364934550405,0.0008913138148987051,0.0011463832829614296,0.0013897584233104263,0.001596735706648889,0.0017268209668904679,0.001757242146385578,0.001697996689058978,0.0015776143700159627,0.001411211580266608,0.0011757968082113423,0.0008136252301735331,0.0002664673736169291,-0.0004762847890914107,-0.0013429750648541318,-0.002180980372018583,-0.002799430514326831,-0.003038016930697063,-0.0028315324387541787,-0.0022384724990511047,-0.0014175537331572127,-0.0005624352912385349,0.0001726274642875476,0.000719596687957236,0.0010966458387460893,0.0013688878052398683,0.0015968222864246662,0.0018010743825998769,0.0019578314562664293,0.002020859185816639,0.001954039192022551,0.0017560904260756768,0.0014637839185089453,0.0011298014714086488,0.0007857996954777481,0.00041421691749306277,-4.7498181515027304e-05,-0.0006646360661333732,-0.0014457223656846971,-0.0023022128738610413,-0.003056814999321568,-0.0035039455942032166,-0.003496102190414449,-0.0030127305908277165,-0.0021738355520099454,-0.001188520596742297,-0.0002647343779472836,0.00047138358303762395,0.0010051402160252039,0.0014022573061117447,0.0017430628306347807,0.0020646156256140706,0.0023426343492418,0.0025162297824683124,0.002532081179369317,0.0023774139824345045,0.0020843506767647215,0.0017090956821837653,0.0013023672563766532,0.0008864737470501524,0.00044597816469218207,-6.668231130438376e-05,-0.0007093618274227698,-0.0015124793987077228,-0.002435298998788627,-0.003339372429914342,-0.004005598817788888,-0.0042044429240186915,-0.003796599179553145,-0.00281382700955417,-0.001469335796520528,-8.111512977374848e-05,0.0010578314966244035,0.0017943491559408308,0.002153750952421763,0.0022852597166395875,0.002351733800627693,0.0024317281290515205,0.0024900739590994507,0.0024271128842814895,0.00216674683074262,0.001721644317775932,0.0011926447248888509,0.0007043799954787185,0.0003208103290767478,-2.628545122706973e-06,-0.0003958268302513424,-0.0009885350841453851,-0.0018101795551510973,-0.0027348140229978206,-0.003509433403766623,-0.003858673466795401,-0.00361416262936485,-0.002799131762719518,-0.0016216983169002651,-0.0003816795509530167,0.0006563710169909754,0.00135714988713611,0.0017345220614266629,0.0019011198679348,0.001986315798602987,0.00206913813395202,0.00215532945836664,0.0021993573776881207,0.0021487764167035938,0.001980518776501838,0.0017084459192279059,0.001361786081650846,0.0009525738695391426,0.0004566655203405821,-0.00017503301422562508,-0.0009757902972028986,-0.0019120223165755628,-0.002852916693403115,-0.0035882755556119923,-0.0039001412527686465,-0.0036605644508694805,-0.0029035765596362134,-0.0018249727406599307,-0.0007019129036871324,0.00022692463341577674,0.000854515446505548,0.001222581626535248,0.001460742802626675,0.0016915184489244106,0.0019593747734735364,0.0022197119603379976,0.0023836705180800104,0.002383295948052663,0.002214932223001095,0.0019362440326836827,0.001621693465177517,0.0013063532537661141,0.0009552872487700543,0.0004808317213401295,-0.00019901654905213247,-0.001093602148689791,-0.00210271982922862,-0.0030324053199028657,-0.0036586951101433745,-0.0038115994742379707,-0.0034425408729421804,-0.00264572651091768,-0.0016238104017923492,-0.0006123737717491099,0.0002048116875880317,0.0007547796407064193,0.0010851322546840004,0.0013213537924692189,0.001590547351923085,0.0019469820525759216,0.0023374584585177352,0.002627532458877434,0.002677140157327027,0.0024228181830255385,0.0019150181214275062,0.0012838705722035067,0.0006537117400238742,6.502570515131141e-05,-0.0005379634547421433,-0.0012400030721649781,-0.0020528282694633245,-0.002853353135934325,-0.0034129467030456916,-0.0035068624243183516,-0.0030378668298965544,-0.0020983382988189374,-0.0009347457566894292,0.00016217706095127468,0.0009781769924527037,0.001444767060832501,0.001630320175702488,0.0016709198725056921,0.001686626410299762,0.0017277802456555735,0.0017718806206070484,0.0017611057171858814,0.001650627474613639,0.0014369146660005588,0.0011507829990456992,0.000822709219158546,0.0004464522602962617,-2.9059105262165853e-05,-0.0006651910297542271,-0.0014708731224760936,-0.0023509317231545767,-0.0031069657700505534,-0.0035054967615533094,-0.0033855282675066527,-0.0027464060169792364,-0.0017608289339342506,-0.0006987627041523813,0.00019857559371333917,0.0008240379903110449,0.0012299482971739346,0.0015622830695447391,0.001947157470839783,0.002400409044700753,0.0028137933976803563,0.0030216482301567062,0.0029026275488672195,0.0024527814159259293,0.001787523283123329,0.0010747964619133887,0.00044196244520764664,-8.787854055118801e-05,-0.0005935116640281104,-0.00118926991518692,-0.0019331953077682395,-0.0027627651852796427,-0.0034966876528230223,-0.0039055460462360425,-0.0038164818767233853,-0.003198055869657021,-0.0021812994199021593,-0.0010062246890265919,7.864033835535925e-05,0.0009131815888574781,0.0014720606588944304,0.0018404543113331071,0.00213582839143719,0.00242096432972546,0.002658947825771461,0.002738031359132089,0.002552570727944519,0.002088523371324095,0.0014539636301452317,0.0008273073015729499,0.0003513639767268582,4.231242040888335e-05,-0.00022224501477625702,-0.0006222778804183583,-0.001269008420927181,-0.0021113930002853404,-0.0029335993863958236,-0.00344674148431451,-0.003424467812399636,-0.002810802030432622,-0.0017477257094232937,-0.0005137572011370184,0.0005921214604597798,0.0013646129917455124,0.001753991564453378,0.0018544736555643954,0.0018341261336610446,0.0018462568655375306,0.0019640642244450413,0.0021613918678682173,0.002336535283855216,0.0023584157769857015,0.002112392302826818,0.0015330321709206176,0.0006229417875219127,-0.0005388966810867129,-0.0018000115803831751,-0.002955077236523405,-0.003789881765508378,-0.004143258489280037,-0.003965442296772826,-0.003341837240197868,-0.002460593791696089,-0.0015315203418065947,-0.0006961872890555391,1.963008297752142e-05,0.0006822831221782474,0.0013708616843463863,0.0020948058129073165,0.002764225470372651,0.003233140559845966,0.003385737985598553,0.003206525224761177,0.0027873000107746645,0.0022673540539213007,0.0017471471613489116,0.001231188369795227,0.0006358820075726921,-0.00014186694851217363,-0.001134794108493586,-0.0022459033304309153,-0.003256035403534297,-0.0039007097901429593,-0.003982101633930129,-0.0034609982619081526,-0.002480269917279986,-0.001305453157853103,-0.00021282818515654372,0.0006157409935326011,0.0011383258908314296,0.0014239818486179595,0.0015785301060924582,0.0016754321058223222,0.0017294793443072766,0.0017176872317668467,0.0016221617282982015,0.0014607876059650493,0.0012840426169699907,0.001139358242550017,0.0010255757541734608,0.0008694305645396965,0.0005477792897721781,-4.566753655379263e-05,-0.0009204512685641138,-0.001943581671261585,-0.0028629089731675534,-0.003398491728508466,-0.0033617274568749564,-0.002743398881677162,-0.001724520257864168,-0.0006015852106850759,0.00033881777360504736,0.0009348868770069483,0.0011984281283464813,0.0012769216690213395,0.001353541119275184,0.0015411716442539569,0.0018268731336174703,0.0020927957649641803,0.002195449492825006,0.002052433785409835,0.0016833800615750712,0.0011822664359905748,0.0006439110220406591,9.903681403633529e-05,-0.0004930889304276151,-0.0011864531620427205,-0.0019655315576035852,-0.0027006383316178404,-0.0031814547589143136,-0.0032162674557409477,-0.0027381335577710796,-0.001851423373361041,-0.0007884979305979092,0.000198053690246018,0.0009440257250008788,0.0014224372977581098,0.0017119226261490214,0.001913630728963687,0.0020735742725848764,0.002158028075784532,0.0020914185157662056,0.0018249114335507919,0.0013857395764080242,0.0008724922448721417,0.00039873428832093883,2.1799950187618663e-05,-0.00029581474927881855,-0.0006637330716083526,-0.0011874898975576943,-0.0018805783599857224,-0.0026184117245854526,-0.003169289215282173,-0.003295991665883959,-0.00287862961829434,-0.0019902604225836146,-0.0008769719602867999,0.0001535921131246993,0.000876843798956438,0.001248815052498827,0.0014027012646329058,0.0015491024531527654,0.001840138545584466,0.002276893668936046,0.002712046427738545,0.0029419957622523153,0.002829611806238791,0.002381758651410373,0.00173537350560691,0.0010640946747299805,0.0004678209036886523,-8.198259293679397e-05,-0.0007047624051815315,-0.0015044660241526225,-0.002462687894308183,-0.0034021247436481807,-0.004049495656096571,-0.0041668214515858904,-0.0036771101892276283,-0.0027114742936608528,-0.0015500510198904762,-0.0004909738559577091,0.0002790617300196869,0.0007454050945242485,0.0010336644950357944,0.0013130090632168297,0.0016917841588679004,0.0021596190967393602,0.0026008428293673043,0.002865219475971526,0.002852855625874471,0.0025646883445518912,0.002091173416758973,0.0015488045286901869,0.0010061108261270452,0.00044794614571056835,-0.00019675510364216718,-0.000979496475636619,-0.0018575933865067362,-0.002672543999356578,-0.0032038684443808805,-0.0032742481687213503,-0.0028466127343219623,-0.0020540904540639364,-0.0011418233236527321,-0.0003520508510094364,0.000183218589609134,0.0004842521376591978,0.0006823037296312389,0.0009237428796089629,0.0012755723135835684,0.0016834914186046807,0.002002608219109678,0.0020816513638354465,0.0018537447319917262,0.0013828432725176189,0.0008365689117980184,0.00039507782369719636,0.00014427580874521768,1.79429948786904e-05,-0.00016802674762710963,-0.0005989902485407242,-0.0013269199841096859,-0.0022016816215730283,-0.0029188853808849837,-0.0031660512100954758,-0.0027868684692875932,-0.00186867641599678,-0.0007019681836853006,0.00036383149078696424,0.0010844284234001397,0.0014138224243813854,0.0014834140035483055,0.001492824180694834,0.001584903016720244,0.0017764944638511237,0.001974389451723346,0.0020527028291674057,0.0019360824864393298,0.001637987040621156,0.0012370473360004326,0.0008144169677985404,0.00039727276411941325,-5.34855342382362e-05,-0.0006036384426321821,-0.001280381032668351,-0.0020242700387581754,-0.0026912463909337814,-0.003107719162533212,-0.003149851490715317,-0.0028028778010739963,-0.0021667480702702423,-0.0014051796140070899,-0.0006680730592139861,-3.1697468169896356e-05,0.0005118891148069651,0.0010158153102592937,0.0015181440634222613,0.0019982061791311264,0.002374433644916506,0.002543396708396153,0.002437033298170933,0.0020660097137720915,0.0015248198231698627,0.0009537681061896,0.0004750200717986318,0.00013443444690771419,-0.0001193675409682193,-0.00040378690362903146,-0.0008306498256480836,-0.0014298940893788723,-0.0021108326724686133,-0.002685639655188035,-0.0029457689273844215,-0.0027522049444622192,-0.0020940139267488517,-0.001090294532323612,5.690800124225157e-05,0.0011294106210571505,0.0019506691476667258,0.002420843694890998,0.0025284490238726906,0.002341065916278612,0.001976918351302069,0.001562888545218427,0.0011921987971307423,0.0008985826648169721,0.0006575140058340627,0.0004114203132680593,0.00010345157754780684,-0.00029824255715502464,-0.0007944440930374133,-0.0013610653138146729,-0.0019536799020928824,-0.0025029506208367087,-0.00290950065757162,-0.0030564719991019278,-0.0028488969844574184,-0.0022653883897900164,-0.001389326043956727,-0.00039210508553247397,0.0005301707364870488,0.0012334868443358011,0.0016730163242612436,0.0018967243922841906,0.0019959425631031658,0.002047797714763428,0.0020834035532308116,0.0020930766653119693,0.0020537938064430408,0.0019529759432322354,0.0017916265357762165,0.0015688892359294224,0.0012641902800831217,0.0008342790350635925,0.00023293460723234206,-0.0005523290609070627,-0.001464040679912959,-0.0023623762337759316,-0.0030544964211897717,-0.00336369505611838,-0.0032092834707993317,-0.002652126229548892,-0.0018729896046794916,-0.0010894834282429342,-0.0004575207116188741,-1.462122812512939e-05,0.00030511609067035623,0.0006012337466467365,0.0009314307898006962,0.0012766105636633654,0.0015609691737246867,0.001705757178412576,0.0016784120929177976,0.0015075127714029102,0.0012583861396485182,0.000987617271905095,0.0007052573355824774,0.0003684877973228727,-8.581479310616259e-05,-0.0006825164626573174,-0.00135316553619179,-0.0019194252948170887,-0.002138862432291144,-0.0018088868924501726,-0.0008887527484913432,0.0004252480487893476,0.0017293822144048112,0.0025589069992312924,0.0025957566011981506,0.0018318605058149215,0.000589701286222473,-0.0006249654147562271,-0.0013634795947862128,-0.001434206390534475,-0.000954685461238241,-0.00024216928190333182,0.0003760097788536613,0.0007155376165378,0.0007747256533266946,0.0006631359857471488,0.0004860892358535027,0.0002651530636365076,-6.132791209543576e-05,-0.0005686013890318629,-0.0012577945234206942,-0.002008138435999233,-0.002602538540790249,-0.0028184455401254627,-0.002538051879765824,-0.0018166745639065698,-0.0008661153755373653,4.520563313987168e-05,0.0007244313992777581,0.0011440348803438906,0.0014342109226360344,0.0017792531759709,0.002279743191393734,0.0028672084605568006,0.0033272320227962686,0.0034181703392725774,0.003011218140250237,0.002165098887700636,0.00109218506847975,4.153114333841845e-05,-0.0008263496882961945,-0.00149701212204019,-0.0020615407612547634,-0.002610885418575442,-0.0031391898005291045,-0.003522414574740484,-0.0035864598383938164,-0.003218029303209622,-0.002444055506184004,-0.0014297626010858515,-0.00040127985046010473,0.0004556307139255457,0.0010633502983319405,0.001459628908700308,0.001755283302213172,0.0020728007865128246,0.0024916763148075745,0.0030116010958477404,0.0035366757895646463,0.003886734340055154,0.003844410025752323,0.003235241198077568,0.0020141499775167574,0.00031444737147253495,-0.0015741196724359482,-0.003294403140913599,-0.004535724204756663,-0.005120040945631253,-0.005030563291673583,-0.0043865310479598695,-0.003387217449054328,-0.0022481347626615617,-0.001145409454355708,-0.00018088741266678043,0.0006220347296556896,0.0012913323240589657,0.0018628116233186465,0.0023447273586187116,0.0027097235776115036,0.0029148828829164315,0.002932658327796018,0.002770536978008361,0.002467376517266648,0.0020706614083123593,0.0016102380470825184,0.00108475115910111,0.00046891576723804635,-0.0002610011154986302,-0.0010944121913127763,-0.001961480287654818,-0.0027311042872704178,-0.0032409035396373667,-0.003354705340175789,-0.003025531763950136,-0.0023311440692129377,-0.0014559736155781797,-0.0006195581134826998,1.564463057584576e-05,0.00040725766336454006,0.0006312117401178126,0.0008186174397727345,0.0010722032812293457,0.001412695734987345,0.0017812710554028308,0.002085641282042617,0.0022527397544126635,0.002255090987251475,0.0021023417986222683,0.0018130184204958536,0.0013896803186675642,0.0008139390882747247,6.548978684201652e-05,-0.0008422962203521252,-0.001827569852405835,-0.002729432273612295,-0.0033403285813464545,-0.0034798433071193337,-0.0030799703739712043,-0.0022347403696916027,-0.0011779399980469442,-0.0001905534783799037,0.0005174278144833371,0.0008873583189386722,0.0010115600607179247,0.0010574070591726882,0.0011649513543635583,0.0013781143318994673,0.0016421898563493734,0.0018558317461799952,0.0019347980968431025,0.0018461127556341824,0.0015994617159477626,0.0012147486911298464,0.0006986678490326798,5.179263974090166e-05,-0.0006989028253379662,-0.0014697557719379317,-0.0021224731537279216,-0.0025083061375091183,-0.0025342428021031607,-0.002212469522152087,-0.0016607091021680277,-0.0010493010426693376,-0.0005230066569014317,-0.0001408699519554986,0.0001335980023737186,0.00039005064804674346,0.0007055531745766842,0.0010958192804666857,0.0015093879957165496,0.0018611413383939402,0.0020779271538585034,0.002126562880601552,0.0020115225952404107,0.0017510758857337424,0.001352034887448143,0.0008011528625789943,8.096461528398868e-05,-0.0007952673431073784,-0.00174795347067675,-0.0026208197611114845,-0.0032146146067263404,-0.0033598009441344967,-0.0029949592620366118,-0.002206235433628352,-0.00120051423521675,-0.00022195648608434914,0.0005458797545737641,0.0010424821773011843,0.0013283223771828473,0.0015248598446507995,0.0017331292810859494,0.0019757997317439878,0.002191088583518696,0.0022761136475156177,0.002150208389926756,0.0018001052561886963,0.001282184954102019,0.0006838679158311012,7.141357932690572e-05,-0.000540093592848268,-0.0011733392658307223,-0.001840404320094015,-0.002493510082928017,-0.00301253528422308,-0.003244633874992912,-0.0030770591699061673,-0.0025008922917413496,-0.0016266953899931312,-0.0006412383104259795,0.00027077917786986333,0.0009964445103097788,0.001519240696315796,0.0018905189460485332,0.0021715123506143626,0.0023845037068247585,0.002501503536128963,0.002471782060316831,0.0022644430163544513,0.0018947234852765037,0.0014162031406205102,0.0008857312039144571,0.0003274701687817233,-0.0002757894976040216,-0.0009538898403723951,-0.0016997427683965293,-0.0024330134889401153,-0.0030062964412206038,-0.003257806166759778,-0.0030849705253528058,-0.0024985167986343775,-0.0016264349242926953,-0.0006653963127078331,0.00019422946349462454,0.0008320486374545656,0.001222647528234009,0.001417614044326213,0.0015012201288251259,0.0015451653488507372,0.0015828852999116324,0.0016102760702491879,0.0016048032708020628,0.0015463054449581025,0.0014248732465545382,0.001232565565840426,0.0009490158528970246,0.0005372609674385178,-3.914829537380682e-05,-0.0007808629382332695,-0.0016174984591024212,-0.002397825210069846,-0.002923727163333282,-0.0030243351243947336,-0.0026385565817746734,-0.0018582474473616637,-0.0008980414686239118,3.4438019950056714e-08,0.0006750682738135819,0.0011046065517544483,0.0013784379228563334,0.0016111562153260576,0.0018542600994598778,0.002063990656165293,0.0021393428705687068,0.001997570092851413,0.0016341599955950789,0.0011302007487903262,0.0006065390975209168,0.00015580988916787306,-0.00020671275050242335,-0.0005457243242004911,-0.0009601478410398549,-0.0015121595920844755,-0.002167701545050421,-0.0027824435539677587,-0.0031479296159859635,-0.0030826730811043027,-0.002525456628063131,-0.001580016994922116,-0.00048128875736851064,0.000504641644762036,0.001195917669321037,0.0015638619224459728,0.0017189588514810346,0.0018245177798595568,0.0019904290375555352,0.0022105411898138906,0.002379155731314212,0.0023709336759720405,0.0021275328577388414,0.0016921100881922657,0.0011711803449832767,0.0006548446094965026,0.00015486850156662608,-0.000393404292987962,-0.0010645335360913366,-0.0018572357348305066,-0.0026510307317464373,-0.003241533065505213,-0.0034390070244000996,-0.00317092125856323,-0.0025237728309852395,-0.0016974509736561948,-0.0009010894551154261,-0.00025446698132016436,0.0002486567061744802,0.0007006758937768472,0.0011953293961060297,0.0017520501565071657,0.0022927179980526784,0.002680324785519886,0.002793716403783817,0.0025945914572272294,0.0021497412563165554,0.001597338232433747,0.001076458064223474,0.0006580870393297648,0.0003141125557001862,-5.9764547129751355e-05,-0.000578625712932616,-0.0012920719702611797,-0.002133731041011353,-0.002922692555872002,-0.003421702278238568,-0.0034318241197582554,-0.002883607659025356,-0.0018807337211787147,-0.0006698800672889117,0.0004541456819349733,0.0012634308447326303,0.0016744918930328575,0.0017517386151200433,0.0016438285285931913,0.0014966262258491515,0.0013921408488983215,0.0013375122914526059,0.0012941592899432049,0.00121820586333255,0.001086266358407935,0.0008964965414974357,0.000651231901535385,0.0003377544811653645,-7.493422506175647e-05,-0.0006144628987897193,-0.0012667017850071878,-0.001944716193033796,-0.0024921313885316854,-0.0027321911917556037,-0.0025456503333380373,-0.0019372514864035748,-0.0010497463045040568,-0.00011103459463011,0.0006610693595086918,0.0011465918136031837,0.0013589475890200516,0.0014141604514895589,0.0014549002278585015,0.0015707825705724736,0.0017544520134706492,0.0019129353799018636,0.0019254233052745668,0.0017143406664393923,0.0012887648270171026,0.000734567336783302,0.00015790333790597274,-0.000380849091623747,-0.0008973324281463396,-0.0014540812209379531,-0.0020883838278106448,-0.002745549348002709,-0.003267098285826344,-0.003450531816276386,-0.0031512501695855418,-0.002368195316989888,-0.0012616425056495304,-8.97876047201547e-05,0.0009028061485892619,0.0015843675932338181,0.0019696831292224685,0.0021742214369637565,0.0023216467718210863,0.002464014900458261,0.0025618299468936926,0.0025288815933558507,0.002303673540480565,0.0018947223056162352,0.0013697290294473609,0.0008013072993722499,0.00021394865765525373,-0.000424554965718195,-0.0011576177586656812,-0.001971564020628865,-0.002754360660560058,-0.0033154490306727853,-0.003462896866239221,-0.003098644766524153,-0.002279829656030614,-0.0012105508471064188,-0.00016482311748469236,0.0006224635281323166,0.0010439417407797271,0.0011467953024113017,0.0010891932429977474,0.0010511552076586928,0.001145488659694041,0.0013718945566943892,0.0016329551156574105,0.0017972600657793019,0.001770799410249612,0.0015364573973367598,0.0011434160884183286,0.0006603250501933003,0.0001284714334486271,-0.00045082634991781096,-0.0010861451383135106,-0.0017469893354216629,-0.0023355910159029956,-0.002706715728571431,-0.0027299845708400783,-0.0023586455740308493,-0.0016616063451923408,-0.0007973837486300915,5.499604028484932e-05,0.0007671060632914782,0.0012951295025144993,0.0016644268504493413,0.0019231823061434733,0.0020979933979399443,0.002176861700464632,0.00212530872835657,0.0019217589740997128,0.0015871275739238041,0.0011855096571186002,0.0007895379369247102,0.000429080565500855,5.975507029390138e-05,-0.0004179486310091769,-0.0010891173947051066,-0.0019422734818286588,-0.0028293872620779497,-0.003503694615193452,-0.0037252456675949796,-0.003379968164843484,-0.0025441894838740577,-0.0014540591952964042,-0.0003936918836255027,0.00043548603774948595,0.0009898777900759958,0.001363223627261651,0.0016900573499604808,0.0020394061572005925,0.0023675678707761475,0.0025558836433646802,0.0025015219244307677,0.002196415403747362,0.001741987690699126,0.001292725593177759,0.0009667148017774088,0.0007775522272649583,0.000624684022279539,0.0003451337285407664,-0.00019960758098398385,-0.0010408941643575904,-0.00206125244567385,-0.00301612119513548,-0.003617813952517599,-0.003652325121976958,-0.0030777887104747733,-0.0020531582904037724,-0.0008753111112295728,0.00014849679878510522,0.0008270475786794606,0.0011437627782725844,0.0012217543908089675,0.00122611661257669,0.0012681689773962842,0.0013660388375958427,0.0014718919122282564,0.001531643112583499,0.001528388569978517,0.001481675490988358,0.0014111650521447157,0.0012980259553797438,0.0010760752547731497,0.0006624819618106314,1.1857141356397631e-05,-0.000836634417663781,-0.0017463826931595008,-0.002515737364782049,-0.00294598277494837,-0.0029177109895440574,-0.00244116892601477,-0.0016544671850366557,-0.000767237061178592,2.4073739245355358e-05,0.0006070004431069785,0.0009758530936944574,0.001200410012756359,0.001364436923733904,0.0015116075491819893,0.0016270824498302193,0.0016590896481326065,0.0015622144137091268,0.0013344371979867138,0.0010253219198944116,0.0007089112327981786,0.0004353895845623144,0.00019140219013907345,-0.000100811480753758,-0.0005357095069963061,-0.0011504202702337589,-0.0018694808520665891,-0.0025089465437365182,-0.002847843542632455,-0.0027329977526201815,-0.0021589896093620756,-0.0012758584544324727,-0.00031867397758206565,0.0005003986627260263,0.0010759339678973153,0.001425674773341584,0.001640286256740147,0.0018063608252054735,0.0019521876195046795,0.0020436612602152183,0.0020226635241364786,0.0018558078491004906,0.0015599599185622613,0.0011893639565031366,0.0007947427343146528,0.0003831081163915541,-9.151765137934792e-05,-0.0006933718366975447,-0.0014412620033938729,-0.0022551384267853886,-0.002955265250835603,-0.003329655804624687,-0.0032399974329935244,-0.0027026261600972554,-0.00188867327716931,-0.0010371490427376695,-0.00033264552340204383,0.00017710674093703884,0.0005760925666564998,0.0009969980615584565,0.0015173762304944822,0.002099937638397856,0.0026093261236750397,0.0028887231936076717,0.002845742415267623,0.0024971757415398004,0.0019517611859500598,0.0013473673218619732,0.0007815435472658859,0.00027318843472261967,-0.00022670811305689376,-0.000783793104223679,-0.0014181964686190095,-0.0020673216507492457,-0.002596594614015308,-0.002854723203491264,-0.00274435114063638,-0.00226967804407245,-0.0015357792175123364,-0.0007021023406107006,8.212381654715576e-05,0.0007254062060021016,0.0012032356229938778,0.0015327516123787139,0.0017355414928560899,0.0018134008116530128,0.0017484851994946922,0.0015216000102760874,0.0011324782347492516,0.0006085669905326693,-2.2075392445150901e-07,-0.0006330028339466255,-0.0012253980460822807,-0.0017094648095731363,-0.002013122019702129,-0.002070704816332346,-0.0018485138892780433,-0.0013730200099741762,-0.0007388979285126151,-8.178465673261863e-05,0.0004757667243462105,0.0008748741955736488,0.0011356289554254114,0.0013272130573536635,0.0015131368750353404,0.001708142122695448,0.0018732920079124306,0.0019471644878859655,0.001886225709601547,0.0016851232742073898,0.001367015274965697,0.0009570520208072128,0.00046131684171083084,-0.00013371173050828497,-0.0008403707885679488,-0.001638671579275674,-0.0024516255039455205,-0.0031435174889122364,-0.003550367292918307,-0.003537541116461974,-0.0030623307201220044,-0.0022090448289440404,-0.0011710937193080407,-0.0001801258346131599,0.0005864012922609049,0.0010714633279385504,0.0013426504147657967,0.0015333033896205793,0.0017561362243132123,0.002039605631510767,0.0023208550969349897,0.0024929241285511694,0.0024721375526931197,0.002243400803332194,0.0018586929207009767,0.0013942002785683905,0.0008963393771453697,0.0003532069551520789,-0.00028759244524263696,-0.0010630443701568572,-0.0019349615632286254,-0.002766574807546629,-0.0033567951939601644,-0.00352023922730577,-0.0031730922082961483,-0.0023788983608881474,-0.0013288350632678241,-0.0002666218918837759,0.0006024477072257477,0.0011735854369883988,0.0014514422929675587,0.0015129464028745185,0.001453197442988819,0.0013452189239225758,0.0012284937341856834,0.001120436693853758,0.0010325260486667995,0.0009749182823065787,0.0009463353348408087,0.000919464312510052,0.0008366849786013346,0.0006249912496938695,0.00022805148843261386,-0.00035638527183404515,-0.0010514273254703152,-0.0017062023556106583,-0.0021398135699464823,-0.0022128440513078922,-0.0018938754662085563,-0.0012824376076116526,-0.0005691703868932844,5.000133181035874e-05,0.0004599091787947608,0.0006652130347345063,0.0007631422461220478,0.0008698608484703624,0.0010465163102066175,0.0012678899316287857,0.00144675743610654,0.001490713746297505,0.0013500813680322277,0.0010275775827821828,0.0005528323691703936,-4.714583806801048e-05,-0.0007488508969546873,-0.001499350459785929,-0.002180458742650929,-0.0026145804713388447,-0.0026314107818132737,-0.0021652929687008197,-0.001318361928581833,-0.0003363066165398045,0.0005015502927289675,0.0010163654218606434,0.0012063614093970785,0.0012197035765018661,0.0012441499888575177,0.0013854965128580552,0.0016098020104442388,0.0017800202127873296,0.001757070400435461,0.0014965947186827513,0.00107808811814102,0.0006484325924693106,0.0003187325666489916,8.506367695602864e-05,-0.00017122326360121456,-0.0006002119891079861,-0.0012687296798035502,-0.002088116645663454,-0.002833848195946139,-0.0032500147046979613,-0.0031780865897669958,-0.002633156607287375,-0.0017838031948866446,-0.0008527689676372738,-3.972366549717427e-06,0.0007147158534160765,0.0013446995699911038,0.0019348139707923587,0.0024680951112035876,0.0028506374531486562,0.002968724379695424,0.002769946599826374,0.002307242072987847,0.0017136074705570241,0.001126357584980413,0.0006138269090120844,0.00015131748539720327,-0.00034348592166761997,-0.0009426972589868871,-0.001649010068655825,-0.002374396722603216,-0.0029635794610300115,-0.0032506737076076785,-0.003126719378619294,-0.002590575611359112,-0.0017579203535614653,-0.0008187122260418709,3.959876496687203e-05,0.0007033555135017595,0.0011593385183952636,0.0014650373896231128,0.0016874342471507472,0.0018542509769090916,0.001948336522003135,0.0019407135511105413,0.0018289693834398582,0.0016473236016381057,0.0014405978761762406,0.0012239231238688328,0.000960922703952049,0.0005795847029572731,1.8937760153673634e-05,-0.0007206656378739359,-0.0015531768445527095,-0.0023228385441121154,-0.0028536748579695457,-0.0030107374303768903,-0.0027484211840814606,-0.002127694569475082,-0.0012954305579194552,-0.0004326059147417555,0.0003085589352236651,0.0008513804860243332,0.0012042743232364807,0.001430920272397287,0.0016002411380417459,0.0017450749880552193,0.0018499764563841474,0.0018686450255316982,0.0017543139216326087,0.001482852399534354,0.001058297447237895,0.0005048798703542853,-0.00014209486680305484,-0.0008365398391515091,-0.0015130864700296002,-0.0020800905564756335,-0.0024282053380910774,-0.0024621536234705264,-0.0021475225845569105,-0.0015470028311631637,-0.0008154919589106942,-0.00014163023773832936,0.00034090163785929144,0.0006198349159621795,0.0008002049964866463,0.0010239006330464238,0.0013614690343651463,0.0017501090409426745,0.0020249081166575167,0.002026608824248781,0.001713451139604986,0.0011983983991432558,0.0006826174483154241,0.00032730299033931686,0.00014914760983519856,1.0345047764996585e-05,-0.000287626770138719,-0.0008645255160203845,-0.0016638271972997927,-0.0024591577709596776,-0.0029632163325485593,-0.002976261897506536,-0.0024886998422087706,-0.0016808109068118448,-0.000823352175160146,-0.0001386352629081601,0.0002993477521115104,0.000573854968235563,0.0008459612760879849,0.001239163901680512,0.0017572483859236787,0.0022801968732781876,0.002634052790750785,0.002688302146131091,0.002422801417109861,0.0019287149333398965,0.0013478538353514477,0.0007889614160944881,0.00027083303279187935,-0.0002735776913580949,-0.0009324743425699295,-0.0017267895116709385,-0.0025533535672021147,-0.003201892166808533,-0.003446055575340122,-0.0031606721533410913,-0.002395687621343381,-0.0013602752906259822,-0.0003255536097612966,0.0004961963218412838,0.0010275575998943847,0.0013220019999763454,0.0014953072622499353,0.0016421118954238465,0.001786991057550621,0.0018901025507625819,0.001891324292365796,0.0017567676328768213,0.001497200364613041,0.0011515119691033564,0.0007526131398815967,0.00030343921338479797,-0.0002175473736289022,-0.0008227846520146069,-0.0014759675639420264,-0.0020755784270135593,-0.002479140857299758,-0.002561245073679827,-0.002275892325230735,-0.0016876408141547946,-0.0009511673618678701,-0.0002467780099796345,0.00029622846887958094,0.0006493229998969677,0.000882192183702407,0.0011095958545396978,0.0014164949498149024,0.0018025602453276934,0.0021760560741871603,0.002397789794932094,0.002346428212846233,0.0019665842127070086,0.0012775070873151967,0.000350734349570214,-0.0007143999004922409,-0.0017954222769196533,-0.002738008347849003,-0.0033632599720268604,-0.0035132962514110013,-0.0031230540679501075,-0.0022735770543679972,-0.0011817221587931386,-0.00011808343674075494,0.0007063539710375768,0.0012199267943533226,0.0014907750147366674,0.00165304412800929,0.0018100645178948118,0.001975762253770927,0.002084433890912682,0.0020514822299089732,0.0018376302340626597,0.001474076390036372,0.0010372740491780851,0.0005954979901172842,0.00016499803364946589,-0.0002944742983943081,-0.000839972896559419,-0.001485003028476877,-0.0021576048386586014,-0.0027079133301154247,-0.002967437682017208,-0.002830166624629822,-0.002310580326697488,-0.0015450552319941884,-0.0007338753841508813,-5.331734667010521e-05,0.00041667832798384616,0.0007123951531318299,0.0009455105156586523,0.0012261783681576134,0.0015937363123751447,0.001993238867505593,0.0023087730963659856,0.002430925531468059,0.002315704568718084,0.0019985950007696384,0.001557342002288557,0.0010518151961138903,0.00048541987201803684,-0.000182040328898078,-0.0009765126866663135,-0.0018469259923614674,-0.0026448839508050447,-0.0031690523991410985,-0.003254677788808683,-0.0028577128177321004,-0.0020834922060168613,-0.0011417458844826156,-0.00025285598878368076,0.0004420881049595209,0.0009194682516746348,0.001244869471150412,0.001503856769385897,0.0017385182453560195,0.00192660888664342,0.0020084589201199484,0.0019360452909345275,0.0017078492827753468,0.0013662950061945234,0.000961403202845797,0.00050835871645523,-2.654194195738247e-05,-0.0006934986475092207,-0.0014943891434345492,-0.0023278743007072765,-0.0029902431458481305,-0.0032485013075693164,-0.002954785969009553,-0.0021370256220440914,-0.0010068225048119612,0.00012757903781820794,0.0009972300990540505,0.001481418811506442,0.0016322189049040596,0.0016101877558431176,0.001577669005671489,0.0016136753885438913,0.001692659358344029,0.0017273349400676076,0.0016397846694307808,0.00141391545106145,0.001098984347312337,0.0007665829223101723,0.00045236788739355893,0.00012256160624839424,-0.000309988178194481,-0.0009251372008575133,-0.0017230562366188586,-0.002583951056215717,-0.003290214621394924,-0.003608510567845253,-0.0033943040639516212,-0.002665009333918965,-0.001601534316603178,-0.0004748567027299561,0.0004666945507507943,0.001094153426400961,0.0014324872312205985,0.0016188892781461395,0.0018093771646569621,0.002084731633612315,0.0024067949339819776,0.0026479060408825224,0.0026740057344204577,0.0024300175796402664,0.001974642768603622,0.0014427908992728023,0.0009587442306533952,0.0005540329086671398,0.0001423039138994458,-0.0004290540599580882,-0.0012748388550850144,-0.0023713018420371055,-0.003517313788256639,-0.00438809655467146,-0.0046654478335762615,-0.004184964260523768,-0.003025212098198244,-0.001488891349235273,1.892053030091989e-05,0.001156054570671247,0.0017707039277370692,0.001932246598174313,0.001859420382581424,0.0017917765269723728,0.0018732013465974516,0.0021011165707714432,0.0023548705877043602,0.0024761120710171105,0.0023530947579353256,0.0019670231517535477,0.0013844198719738412,0.0007092945164437021,2.7389357877700624e-05,-0.000625444314738132,-0.0012551246592185223,-0.0018691670841801818,-0.002431222094064839,-0.0028427150695824284,-0.0029713650144105284,-0.0027187607293468067,-0.0020906759595626947,-0.0012240882760252455,-0.00034503548370161223,0.0003277067744264393,0.0006824957510499739,0.000761635032233672,0.0007275529365466339,0.00076737942652129,0.0009905317991914372,0.0013764801635375162,0.0017978607194719747,0.0020981391951550563,0.0021726471307672037,0.0020053753083069887,0.0016468176907385697,0.0011575790910762149,0.0005629244924119248,-0.00014750220744584206,-0.0009750411490178509,-0.0018573526564430612,-0.0026493977260877823,-0.0031640288477155377,-0.003255452020693808,-0.0028965702028844347,-0.0022002408265964493,-0.0013668157127836073,-0.0005856614320916362,5.2138860244573676e-05,0.0005778131945651172,0.001091138780429921,0.0016628108047437194,0.0022567525242782136,0.0027268228632209004,0.002896122760069156,0.0026716611920912696,0.0021197952872006225,0.0014490946859776863,0.0009044367439438275,0.0006319766360063968,0.0005938408259924684,0.0005835059787058472,0.00033626412030439445,-0.00032291852697343375,-0.001371845278099144,-0.00258068888743722,-0.0036054692769029767,-0.004137932933093649,-0.004034679797926647,-0.0033614260145122103,-0.002338104626997503,-0.001226001860931066,-0.00022345014182857496,0.0005812120678369748,0.0011932170281621034,0.0016607143172697302,0.002027560068878958,0.0023114353103305626,0.002506744744088122,0.00259882504304681,0.002576427506661813,0.0024364711357471396,0.0021810004246349108,0.001809326722299108,0.0013109737163825227,0.0006677608185147825,-0.00012827147251359998,-0.0010445713970067807,-0.0019835747594528536,-0.0027884242193878077,-0.003290168886128905,-0.0033790348081320547,-0.0030587346734019466,-0.0024460205882532895,-0.0017104016794367723,-0.0009891375296616797,-0.0003303536799985446,0.000301273858550355,0.0009634102663359224,0.001662634586695405,0.002318714518133627,0.0027914506142671883,0.0029546972610408387,0.0027716599785448173,0.002323077584607895,0.0017672292690248035,0.0012520576197814497,0.0008305455563956566,0.00043196871330795683,-8.851199344066466e-05,-0.0008454849111115388,-0.0018235208524328354,-0.0028441488230397964,-0.0036264043389844874,-0.003913293942655344,-0.0035960305185522646,-0.0027673599799581464,-0.0016756547795838176,-0.0006076932784977859,0.0002341914006777166,0.0007969760749890898,0.0011578219563269019,0.001443254997726639,0.001739613670075725,0.0020455207258653864,0.002286872601301172,0.0023765495523841223,0.0022769653093332384,0.002025472396453234,0.0017072592767571715,0.001393200992749203,0.0010830756092162258,0.0006944837100125113,0.00011315720651402681,-0.0007172618684077815,-0.0017181080260546392,-0.002666179260053514,-0.0032741360258575097,-0.003328402253984545,-0.0028079406782874363,-0.0019071912379681683,-0.000939245744980056,-0.00017156681541779422,0.0003057709089634357,0.0005972211752015007,0.0008969966892702508,0.001335797373598755,0.0018822351524290261,0.002360588685777188,0.002564564544148163,0.002383437080454777,0.0018558679814177882,0.0011248348930724362,0.00033869122968517074,-0.0004242663252439741,-0.0011572222355719247,-0.001862824786617125,-0.002486008380408786,-0.0029006393466236213,-0.0029654321372277167,-0.0026112110087042825,-0.0018977064733752822,-0.0009990979634602987,-0.00012572282763075385,0.0005700502008759289,0.0010486541979026918,0.0013712651596365056,0.0016350401560934757,0.0018992265035667837,0.002146366816940631,0.0022974679769897804,0.0022666555523765427,0.0020195635605819674,0.0016003335128775545,0.001111298856591632,0.0006558998437403976,0.0002763706469590479,-7.656002900181249e-05,-0.0005184487894064133,-0.0011560163589799445,-0.0019990948529637017,-0.002911873932383877,-0.0036413586627939446,-0.003919666315783445,-0.003590710670265399,-0.0026915616159220663,-0.0014414940306057868,-0.00014511403926048658,0.0009353350047183692,0.001670913968333449,0.0020807412034042844,0.00227713634151153,0.002381981006802859,0.0024612330014253257,0.002505572296697615,0.0024566467475109705,0.002256463888132729,0.001890370020145317,0.0014010707505024253,0.0008669765659515676,0.0003566261946191262,-0.00011458050233331663,-0.0005960442637715718,-0.0011666173435666244,-0.001865211853355784,-0.0026284263795671127,-0.0032825089765495894,-0.00360945922737618,-0.0034584188159877526,-0.0028371174913998714,-0.0019233507043932298,-0.0009832549558108066,-0.00024081579001630922,0.0002262872241803088,0.0005045951916180552,0.0007679734017887579,0.001154202206849652,0.0016714961015327607,0.002192656963042344,0.002539583654050637,0.0026036963777195388,0.002424098698013386,0.002169653569710546,0.002029342130869495,0.0020734907994425724,0.0021727080020326936,0.002035874059544342,0.0013637977390541464,4.368114604236034e-05,-0.001727816230922206,-0.003479318513714285,-0.004659192389824717,-0.004893940916080234,-0.004167469815967707,-0.0028181511916040274,-0.0013566255009459884,-0.00021181284150005933,0.00045087929091391894,0.0007468002745520258,0.000935230653309688,0.0012267446925027165,0.0016540576285488397,0.002073547245110918,0.0022782591833471364,0.0021384552992922724,0.0016793560580676084,0.0010548157334647611,0.00044432649221958105,-5.437311451178886e-05,-0.0004681221194293782,-0.0009029091392314663,-0.0014434950874303975,-0.002064792728626982,-0.002612337304608616,-0.0028652493647592942,-0.0026456743917689825,-0.001913636765687152,-0.0007974957990285442,0.0004529833965510479,0.0015646763145598975,0.002342095801265871,0.0027257808801566096,0.0027854222983987025,0.0026574433344001983,0.002463593379374625,0.0022537900451884735,0.0019985227770339987,0.001625286262056906,0.001070276090470194,0.0003150586644236644,-0.0006041577524426155,-0.0016058679772210564,-0.0025753734660287756,-0.0033746659436084767,-0.003860237982111627,-0.003919706549660741,-0.0035201371724306076,-0.002740255120738478,-0.0017571269600179355,-0.0007817700873147917,2.8204566047038875e-05,0.0006318525553742125,0.0011067916998658313,0.0015858677236518684,0.0021621107804274853,0.002814927739649838,0.003400281323529279,0.00371320050835015,0.00359122337592397,0.003003505508918345,0.0020754002620367463,0.0010316259583571235,8.688499618750403e-05,-0.000654698449966095,-0.0012321781583625197,-0.0017719385126187062,-0.002376452362920117,-0.0030267725731694195,-0.00356282253640352,-0.003759328907907579,-0.003454414058524527,-0.0026518570077835382,-0.0015328311421044997,-0.0003702079005733213,0.0006004401423023217,0.0012752358771534035,0.0016912272832043966,0.0019569849369303945,0.002158784065925254,0.00230514252644794,0.00233985106191991,0.002204435112149066,0.0018989873831135365,0.0014957287198599878,0.001096137087330334,0.0007629815179294619,0.00047559323704797734,0.00014081119386145122,-0.0003441938319666695,-0.0010138776216265005,-0.001787890494951222,-0.002485998141787593,-0.0029005916363413244,-0.0028915174430567308,-0.002454476906798957,-0.001725823101742786,-0.0009187602185065259,-0.0002232900287129656,0.00027614287334464145,0.0006202268339884368,0.000922948630026549,0.0012821534527360976,0.0017077390895386037,0.0021096200854538354,0.0023492451835446407,0.00231972051191717,0.0020040173172803737,0.0014766429081088865,0.0008510901900966951,0.000210689912647844,