0.00013940303924181923,-0.006878149770532586,-0.012547393890899195,-0.015965342066927027,-0.016927699696051478,-0.015883160495245623,-0.013643201244181866,-0.011014661652031157,-0.008535209224495991,-0.00640282711207182,-0.004570135736780275,-0.002902032298005274,-0.0013003324558044883,0.00024635411967604236,0.0016751920098002633,0.0028893638742895095,0.003798676329132232,0.00434962293743027,0.004542562463846835,0.004433584342490115,0.004118620726976311,0.0037026388022170665,0.0032645390248102445,0.002833001355108485,0.002386350043779538,0.0018799563271977302,0.0012905703057246058,0.0006549776815991315,7.862037294052108e-05,-0.0002975556380935716,-0.00036086172436635994,-8.918180040767658e-05,0.0004246333953208735,0.0010044916459157477,0.0014653903175579756,0.0016917092106061475,0.0016783198148779455,0.0015142287392082429,0.0013196866001603876,0.0011723441117178508,0.0010637484050419208,0.0009107181853306332,0.0006144441871852946,0.00013076175257352874,-0.0004935008457258123,-0.0011435962879469503,-0.001707872419032073,-0.0021533568814277463,-0.002555341094479021,-0.003053480086497816,-0.003749767817803248,-0.00460398367261303,-0.00539479224165404,-0.005785927359521322,-0.005477118677251191,-0.004362689915826174,-0.002606286615258043,-0.0005839270501085255,0.001275071344745195,0.0026604895684329433,0.0034767827055816316,0.0038249550432732276,0.0039012188859764664,0.0038809445606698854,0.0038484036167416467,0.0037934704882391316,0.003655827501509567,0.003379058057301111,0.002945241971952904,0.0023815003882537563,0.0017460941849187618,0.0011057639781673258,0.0005124172140759302,-1.5793291437990117e-05,-0.0005028951581623099,-0.0010050448828401795,-0.0015779452761570186,-0.0022305255558237682,-0.002889249206168009,-0.003401854897169613,-0.0035923747859810343,-0.003346575486585754,-0.0026804785009828845,-0.0017470546637606025,-0.0007711113509118932,5.207601303043206e-05,0.0006349093124387553,0.0010082210891960513,0.0012643970711720515,0.0014748344112572019,0.0016366105469561379,0.0016804467937525506,0.0015304919561541122,0.0011734288400605342,0.000689746250983916,0.00022466551098407437,-8.641405479854972e-05,-0.0001952422102049982,-0.00017471573610513066,-0.00018579966829395734,-0.0003901982004455673,-0.0008531550257247809,-0.0014893559816292325,-0.002084414802522524,-0.0023851568526927457,-0.0022150486409890967,-0.001556997390985836,-0.0005626560070618976,0.0005139915252571862,0.0014227378679152903,0.002009977705806766,0.002256594643322854,0.0022501438571966067,0.002114160911398778,0.0019371724960315587,0.0017398995801475047,0.0014931343476251274,0.0011661557073851755,0.0007673577979895214,0.00034731624165881716,-3.634349569697663e-05,-0.0003640572219812314,-0.0006733222220286785,-0.0010340031266619183,-0.0014935128701415168,-0.0020271381764722755,-0.002526887205966708,-0.0028391174352813656,-0.0028320481312111164,-0.0024568627207168132,-0.0017706290015427738,-0.0009121257982543309,-4.742550359877867e-05,0.0006857202639939865,0.0012120835293314841,0.0015252098267630402,0.0016716992024550096,0.0017232248541294386,0.0017452333182108892,0.001771392846598929,0.0017931774695473133,0.0017699102498643696,0.0016549423940651685,0.0014238308191822588,0.0010880907971316449,0.0006862613805809158,0.00025803607104312663,-0.0001815759414594948,-0.0006496809811773264,-0.0011761507717450014,-0.0017659161072877756,-0.0023655373224113407,-0.0028584896419406097,-0.0030994412058327854,-0.0029746895325498453,-0.0024582806277463932,-0.0016333085048364552,-0.0006662506039572686,0.0002528389453533026,0.0009755880540626668,0.0014383366470006487,0.0016686725113041713,0.0017570943763316111,0.0018075130830426727,0.0018873250019973199,0.001998577278802,0.002083593119963788,0.002061879184509141,0.0018779794419316292,0.0015333913587720254,0.0010851723528350588,0.000613663525781202,0.00017892887845105373,-0.00020995219244506348,-0.0005969811874836849,-0.0010510927459202908,-0.0016190916342704827,-0.0022801134802730915,-0.0029255210215200903,-0.003381714910219229,-0.0034744068768823794,-0.003108209378152955,-0.002320708571172765,-0.0012787058962544068,-0.00021418680652652216,0.0006687987152462764,0.0012688849866215788,0.001607260354677625,0.0017870554797424587,0.0019190371876916187,0.0020564274806117396,0.002173503362882508,0.0021954944761550265,0.0020568280196719955,0.0017492990200076836,0.001330931138497609,0.0008933139820778641,0.0005109928929647827,0.0002044250264610578,-6.399680471399974e-05,-0.0003619840460863778,-0.0007443032358867402,-0.0012160538296238173,-0.0017186983587965097,-0.0021449661860096507,-0.002376788075861934,-0.0023305646880451706,-0.001990616017592992,-0.0014167900511503954,-0.0007235777005218447,-4.0167180167217974e-05,0.0005315047662946452,0.0009433604095588796,0.0012024367408384193,0.0013489684236133162,0.0014247579959015704,0.0014494336115422185,0.001416500969308523,0.0013085241309210762,0.0011186231082794232,0.0008615878128445709,0.0005656699523580531,0.00025096092719156424,-8.844331866175687e-05,-0.000482470871288843,-0.0009605755643827719,-0.0015178490013162673,-0.0020923443410372673,-0.00256894969026973,-0.0028112097366290866,-0.002708386300347215,-0.0022182047607262724,-0.0013884761365146037,-0.0003497740639502316,0.000718808705916917,0.0016408290249181785,0.002294232465747562,0.0026438613130029785,0.0027392994847935583,0.0026775822211758003,0.0025495584122611084,0.0023990661570769023,0.002216370565219481,0.0019653207858911417,0.0016224817863881393,0.0012008686321806844,0.000743786989981236,0.0002952776256917758,-0.00013177447880563742,-0.000568709045777242,-0.0010763979536812347,-0.0017098643023606874,-0.002480274835924382,-0.003333243059638286,-0.004153332684916327,-0.004791072079806488,-0.0050989650272662565,-0.004963024124552721,-0.004324985104021216,-0.0031986292450191588,-0.0016823029606462152,4.047350930334165e-05,0.0017268396158269979,0.003131815871373819,0.004079652655132222,0.004515765676253068,0.004511305378358239,0.004217765095528099,0.003796618783732621,0.003360603980436064,0.002952385668154504,0.0025612605553979803,0.0021566723553056565,0.0017128760419991567,0.0012127554762160946,0.0006380728803676144,-3.6362060786257174e-05,-0.0008317209266847402,-0.0017385419126789447,-0.0026891211541493097,-0.003549062373809107,-0.004142466576007678,-0.004308994269659848,-0.003970717107659538,-0.0031750434770705287,-0.0020879925564691545,-0.0009376501606743252,6.53786106971938e-05,0.0007929895808799052,0.001223266721592482,0.0014189156135512256,0.0014775527302840594,0.0014808964329555176,0.001466200496102848,0.0014284242378990622,0.0013432434807681345,0.0011903476648190445,0.0009611119695762296,0.000650777646078849,0.00024940443172960416,-0.0002531525017664976,-0.0008452437992704244,-0.001467350433238662,-0.0020031774006770697,-0.0023034520632821747,-0.002240008860064653,-0.0017672776239421126,-0.000958500626785655,6.865577682978706e-06,0.0009037798965164166,0.001544318755839968,0.0018451298191062395,0.0018497571176921582,0.0016967598402898455,0.0015488251886335803,0.0015159432512671604,0.0016089207942281197,0.0017447038943541973,0.0017980608050194586,0.0016696887505337015,0.0013335983666267646,0.0008411309206529641,0.00028517843281424655,-0.00025102710423996607,-0.0007319952424559268,-0.0011771531209652866,-0.0016358300782775704,-0.00214335016864026,-0.0026805433027492775,-0.0031590739203794507,-0.0034436187899506013,-0.003403031708808135,-0.0029671212451205468,-0.0021629573861332786,-0.0011149878069119927,-9.451131719850442e-06,0.0009623348122620222,0.0016600981263307749,0.0020299668593554343,0.002107903542363812,0.0019927024800630456,0.0018011556771898108,0.0016236651289486567,0.0014970835854161495,0.001403445479168483,0.0012915982126398282,0.0011089342871900684,0.0008275446759288624,0.00045428262555825046,2.3623758648049073e-05,-0.00041977162997932813,-0.0008387302843843084,-0.001213236271910972,-0.001538467993400893,-0.0018122883625006103,-0.0020169414571412254,-0.002102796086131297,-0.001984366294514566,-0.0015583414430143275,-0.000747160141576167,0.00044111349552857236,0.0018619484324731662,0.003228168201651416,0.004175750379668394,0.004395598604593312,0.0037791657307499503,0.00249770979459205,0.0009545855843902636,-0.0003822337259037365,-0.001184147641484782,-0.0013906147073104707,-0.0011950258612289026,-0.0009075468483497015,-0.0007838049551857253,-0.0009161348239959527,-0.0012341223666323122,-0.0015924419929514628,-0.0018794349618033819,-0.0020803039889966926,-0.00226571696742257,-0.0025231737566864467,-0.002878030427163249,-0.003251064921430292,-0.003474665700910263,-0.003356489229853922,-0.002756344257854724,-0.001640573700787616,-9.630936286035043e-05,0.0016888953594733378,0.0034651580106753715,0.004964631888796896,0.005951734247768441,0.006279204094242656,0.00593606434468999,0.005060258863497809,0.0038954996003066466,0.002701809240769803,0.0016621516989997803,0.0008355190350834631,0.00017924895514220482,-0.0003818633343893453,-0.0008912869423362382,-0.0013437505136017001,-0.0017180371731177575,-0.002023373772495888,-0.0023155537210475734,-0.002665994022266043,-0.003105059968770545,-0.003580781521412992,-0.003963392244569685,-0.004095812378197831,-0.0038624126167101356,-0.0032400596145256994,-0.002308601734461485,-0.0012211544680359684,-0.00015260838618651423,0.0007506204032069227,0.0014034343213230167,0.0017922609004959768,0.001966175032334592,0.002016075276698725,0.002047334709031921,0.00214807833046676,0.002356398504046422,0.0026369012850359533,0.002882590604603841,0.00295200075553275,0.002732368898555576,0.002199367475884392,0.0014387154607343852,0.0006119518436888879,-0.00012029939796397228,-0.0006772212805847893,-0.0010926564414433578,-0.001481431713851686,-0.0019525038606991818,-0.002519470556186557,-0.0030655144974972752,-0.0033895529327976747,-0.0033101593160077525,-0.002766591863897035,-0.0018577274146519209,-0.0007987292990147097,0.0001755500267630137,0.0009046009175134628,0.001347129470048611,0.0015638261409833573,0.0016590627951021957,0.0017184588252424876,0.0017733280239366034,0.0018033690456816481,0.0017677270339618916,0.0016417334989630927,0.0014371101345916296,0.0011954297973610808,0.0009605063515280715,0.000746455717096619,0.0005201407355678555,0.00021019881489491867,-0.0002574681552628632,-0.0009120090481943969,-0.0017016218620350817,-0.002491357814819325,-0.0031018845277456537,-0.003374787484442251,-0.0032340412934009142,-0.002713340771162509,-0.0019364609372488366,-0.0010629391055611264,-0.00022858798029619896,0.0004906927545721664,0.0010800024400004324,0.0015594533861589112,0.0019505353792423313,0.0022535991449865148,0.002445816548274267,0.0024967062486887324,0.002389270675235977,0.0021334097515162344,0.0017646288944565866,0.0013303668833990615,0.0008725766946207663,0.0004156026392863689,-3.588998926983884e-05,-0.0004896372456974307,-0.0009532472474876417,-0.0014209972146314851,-0.001863852032550544,-0.002226694083350955,-0.0024369291737578688,-0.0024258170732069104,-0.002156746378934507,-0.0016473175432647994,-0.0009716619322753467,-0.00023884735259452772,0.00044289346051820184,0.0009977744125986374,0.0013945127436121331,0.0016361451501448387,0.0017389421041124772,0.0017174545497053635,0.0015857247060545574,0.0013696455660625565,0.0011138261755120119,0.000868381777888809,0.0006572988840103478,0.00044915509171922034,0.00015751224274286499,-0.0003157295937698363,-0.0010090961191279888,-0.0018427009426782092,-0.002615399445558891,-0.0030750384967949936,-0.003034021373532924,-0.0024674520709656264,-0.0015337671097878805,-0.0005017453416949866,0.0003748153618278104,0.0009627675192399183,0.0012802759632088657,0.0014468235712341378,0.0015937098318854414,0.0017905084287978624,0.0020215660367150124,0.0022108906530842925,0.0022698252912689526,0.002140299895495277,0.001818446061421077,0.0013545475553859245,0.0008306704816256613,0.00032226234287181484,-0.00014103559538900106,-0.0005925599923339566,-0.0011059192499917833,-0.0017360152617749063,-0.0024544300600295166,-0.0031222584091450253,-0.0035278480676255086,-0.0034792129739821915,-0.0029046130782722744,-0.0019047143900705317,-0.0007240379437768252,0.0003462438717594338,0.0010849097162896732,0.0014193769965295789,0.0014328255217561372,0.001304694778280553,0.0012201260324324454,0.001292327207868725,0.0015281230035257053,0.0018422500520971891,0.0021044219228377186,0.0021936693402285308,0.0020372579106411252,0.0016223097028798227,0.0009828933419845564,0.00017854599441228717,-0.0007163766685218582,-0.0016051633520702607,-0.002356750758628478,-0.0028152371342816786,-0.002845878290572661,-0.002402810533905838,-0.001577853733609011,-0.0005905960199880576,0.0002885402305226706,0.0008481961980109567,0.0010212052984383132,0.0008994625419318373,0.0006732862003461489,0.0005315593853382624,0.000576122890092885,0.0007892030948173193,0.001059145021020347,0.001239810912334255,0.0012092705532498397,0.0009050575546014927,0.0003336259908473047,-0.0004351051596599544,-0.0012783222804790529,-0.0020362433864612767,-0.0025404815681087075,-0.002657257387206415,-0.0023342734972166103,-0.0016289915297286546,-0.0006984001085907772,0.00025241434676421593,0.0010429097583845633,0.0015770374231289666,0.0018613843228238664,0.0019746718646139597,0.0020086051357685593,0.0020146910293535477,0.001985160087875289,0.0018737177522840465,0.0016383670526472437,0.0012777483906102872,0.0008388118374122726,0.0003916758648551792,-1.3238788820225554e-05,-0.00037983477436690925,-0.0007693558318307471,-0.0012640322501539167,-0.0019059079611754089,-0.002643378412006612,-0.0033200742596451185,-0.003722091851163104,-0.003667557281791937,-0.0030951839407497147,-0.002104121322031591,-0.0009210368412661148,0.00019121905434822358,0.0010384699788103047,0.0015626447927483017,0.001840840511288031,0.0020197478096828933,0.0022216966894246844,0.0024732062314955735,0.002694583069456754,0.0027540362999133273,0.0025516967594451066,0.0020826589141775056,0.0014445035539769396,0.0007906699118388164,0.0002606291461858248,-7.631300984636195e-05,-0.0002420334827788898,-0.00033439456440662876,-0.00048683817483773204,-0.0008159413665789701,-0.0013701622941109032,-0.0020960929245247314,-0.0028399318899524845,-0.0033927100773253815,-0.003567093757814731,-0.003273036900375584,-0.002555006248887089,-0.0015712677126910322,-0.0005262877535319447,0.00040828392100738424,0.0011452578277439149,0.001685865770217711,0.00208296243092694,0.002389739109894004,0.0026226748499056625,0.0027550764053939085,0.0027392210778786085,0.0025406078307420527,0.002163873745621296,0.0016574188453630956,0.001096884917521181,0.0005576524569842301,8.866643275869937e-05,-0.0003036612620382002,-0.0006568448204080615,-0.0010368786334110577,-0.001506878133641347,-0.002087141555141865,-0.002722462153297161,-0.003276828108142565,-0.0035687210554561535,-0.0034410667767872747,-0.002837347610257191,-0.001844432561545158,-0.0006740857854220096,0.00041432475842512987,0.0012150413019207168,0.0016521526268365293,0.0017948002376784555,0.001806510321070337,0.0018552308794331086,0.0020272387169020293,0.0022847506227009,0.002487005826175699,0.0024655000642294336,0.002117244212760307,0.001468611695990069,0.0006749313853313696,-4.674109700941006e-05,-0.0005190125687098072,-0.0006882447953277623,-0.0006479232568541412,-0.0005886702581594903,-0.000699694363008508,-0.0010708078869284877,-0.0016430404548020267,-0.0022310268440271673,-0.0026053278230753147,-0.0025948968901463748,-0.00216179181302087,-0.001414999028785022,-0.0005599290555808057,0.00019022211331958287,0.0006994130357978561,0.0009524922965787638,0.0010408525253100887,0.0011000620550868213,0.0012313524115877272,0.0014464126658174487,0.0016639015076190245,0.0017595537218859595,0.0016419600831038487,0.0013101960037268105,0.0008588298310288046,0.0004264781122312632,0.00011754353204184742,-5.762786709072017e-05,-0.0001899157056370201,-0.00042117568037471043,-0.0008622543839845793,-0.001520683657694145,-0.002274369890215066,-0.002905926208849519,-0.003184812203143863,-0.002962764537112945,-0.0022405053108686445,-0.0011740401667487861,-1.484330461277094e-05,0.0009899494299907738,0.0016898428478694138,0.0020715312861822473,0.002231757490805027,0.002303454473821829,0.0023789301403456375,0.002469757375820044,0.0025174344124492716,0.0024397869555292852,0.0021826285357632045,0.001749924181278646,0.0012016962020352053,0.0006253978234552023,9.565143599016805e-05,-0.0003612346178812037,-0.0007837419754844425,-0.0012620543950175522,-0.0018923046368522854,-0.002709419156456792,-0.0036280780725776365,-0.004431266459307475,-0.004832723558987837,-0.004600329191679369,-0.0036818992781753926,-0.0022577763840542285,-0.0006781764519684255,0.0006879237582503716,0.0016088517866470293,0.0020651268726273866,0.002209927022219339,0.002251418714555039,0.0023329125270401293,0.0024759763070746903,0.0026047293315231653,0.0026204507430722173,0.0024731307837982143,0.002188468273041823,0.0018421246482082645,0.0015056001120247514,0.0012019288869934046,0.0008991003827750772,0.0005427178609913175,0.0001032667247545015,-0.00039619408710949133,-0.0008921253726686921,-0.0013232952727341696,-0.0016707884064640845,-0.0019616950634149385,-0.002230213911833341,-0.0024654002092216842,-0.002589878844211923,-0.002494113140228496,-0.0021096988619216882,-0.0014735076314838103,-0.0007357605960161258,-9.837272487650447e-05,0.0002866689805862659,0.00040193516746001327,0.0003802513867776601,0.0004354465638090948,0.0007407867234479343,0.0013216075133588097,0.0020255232942764743,0.0025916206544215692,0.0027822684053178423,0.002503003550257805,0.0018423707578400818,0.0010117451342336542,0.0002252620981904917,-0.00040567526017902886,-0.0009015973163129733,-0.0013572302801327532,-0.0018418674266822202,-0.0023266222377941615,-0.002684759598626754,-0.002760416779450196,-0.0024581690661721984,-0.00179831072686306,-0.0009101495475574617,2.525274620579737e-05,0.0008464899778389168,0.001461044477698255,0.0018547139758367456,0.0020666425672866825,0.002150616782714376,0.0021451534068775147,0.0020648456814088426,0.001910696456214072,0.001686852932623642,0.0014105312823126355,0.001109273244097225,0.0008085560584337145,0.0005175204742977663,0.0002202457100045429,-0.00012271974581087473,-0.0005608314254699908,-0.001129866589476104,-0.001824791412576925,-0.0025804853498674666,-0.003272586098032714,-0.003745180287694847,-0.0038602917335789824,-0.003550989464014909,-0.0028534297950457334,-0.001899427213770703,-0.000869456424311591,7.287994014933672e-05,0.0008332596062568261,0.0014022183428210131,0.0018317878153788886,0.0021912841052199577,0.0025266136511473084,0.002839469582230201,0.003089657419160198,0.003214261087769077,0.00315398717540931,0.002877645131340775,0.0023974450552817867,0.0017695718518080045,0.0010777526602912925,0.0004041447147497178,-0.000200080529139279,-0.0007291762449682939,-0.001214109445652144,-0.0016958968579717565,-0.0021958089295174765,-0.0026965986741959757,-0.0031405682967857135,-0.00344215597086631,-0.003509905113896026,-0.0032734928709154494,-0.0027109110997611888,-0.0018673752377086376,-0.0008555022878742533,0.0001689407382386328,0.001050247648085008,0.001678589123248146,0.0020191092590805706,0.002112540868207098,0.002049203429385062,0.0019296295431669018,0.001828419267348817,0.0017736800686178659,0.0017468051329546247,0.0016996903163059886,0.0015802161288862777,0.0013538631018208342,0.0010122555897662498,0.0005677754350695482,4.1857812652831275e-05,-0.0005428237794786546,-0.0011605167289918585,-0.001772652843618934,-0.0023178624210331263,-0.0027111507450693958,-0.0028586843932837357,-0.0026873864880134373,-0.002179291778067305,-0.0013941417126824367,-0.0004652381555496659,0.000435473054706566,0.0011516690386779388,0.001593581152216722,0.0017625769146555684,0.0017378631980874925,0.001631789333726345,0.0015356688880928727,0.001482343301322363,0.00144205663257424,0.0013500163406162933,0.0011477635631935057,0.0008150004219278266,0.00037602843941628037,-0.00011938247409182823,-0.0006258720811883619,-0.0011223811728185871,-0.0016081564002632192,-0.002076938660935246,-0.0024871530230476074,-0.00275147905077463,-0.0027597821592684865,-0.002429031224317175,-0.001754468983099141,-0.0008312794413520509,0.00016954995291422947,0.0010617445659238944,0.0017107106227864913,0.0020744048984482166,0.002200811350644205,0.002187288240920411,0.002124687013354779,0.0020543737577668393,0.001957697180340648,0.0017797005881112868,0.0014713745464160549,0.0010265019698233748,0.0004931717199122047,-4.6763744773528344e-05,-0.0005201258972149686,-0.0009026364047699729,-0.0012301206625849812,-0.0015683124647880482,-0.001955692010957539,-0.0023555521378185846,-0.0026519395985246208,-0.0026973789017149313,-0.0023870813928226478,-0.0017183709115595597,-0.0008040708833737287,0.00016563856989333225,0.000993675676907491,0.0015467528846217617,0.0017958304299461971,0.0018098874048037717,0.0017079968405011776,0.0015945446142320277,0.0015102056910202635,0.0014217999185968345,0.0012526270705022291,0.0009339639551267846,0.00044941719937649835,-0.00014972609689999127,-0.0007630307529032256,-0.001280546265318585,-0.0016217947942744997,-0.0017559213666164582,-0.00169737454655998,-0.0014850108800051507,-0.0011595212845516047,-0.0007517875987677644,-0.00028595435050956993,0.00020863919999088544,0.0006878209693422469,0.0010948275310350836,0.0013763411829179192,0.0015045407470302718,0.00149164588117045,0.0013861014188557884,0.0012499059021148294,0.001128253949998517,0.0010276162479089222,0.0009131940742584948,0.0007255300739439662,0.0004070095424099637,-7.297880742550817e-05,-0.0007017105762102754,-0.0014184922248728664,-0.0021223543997894606,-0.002692011025713781,-0.0030156830721360444,-0.003023134867220825,-0.0027076153755394277,-0.0021270512555856495,-0.0013833101337744368,-0.0005897567708282502,0.0001578746130057712,0.0007971261069540066,0.0013003726282797838,0.0016682832039996577,0.0019211331824113523,0.0020895044337730737,0.0022027503120539854,0.00227570518490409,0.0022995966696760335,0.002245070251625833,0.002079089589485019,0.0017871629402527872,0.0013869618748580243,0.0009238642277413429,0.00044985016480931605,-2.840218610314848e-06,-0.00043817811721755533,-0.0008919890102147918,-0.0014061534172312012,-0.00199264603149184,-0.0026058413158927185,-0.0031395572347864,-0.00345485953035267,-0.0034304458039831733,-0.0030153751029148206,-0.0022595966265686273,-0.0013051432373193856,-0.0003386577351620631,0.00047473120987654853,0.0010467787780356382,0.0013872521302512085,0.0015839093605342662,0.0017518714436412194,0.001974112296065981,0.002257894518204685,0.002527034760963976,0.002656248321790158,0.0025336902222473593,0.002120527395635445,0.0014746584873515278,0.0007245461632792865,8.624822632537004e-06,-0.0005836431152967561,-0.001035893216853315,-0.0013852960736407314,-0.0016783664189585494,-0.0019331934756727687,-0.002128942946076025,-0.0022218299709582485,-0.002171038141122086,-0.001957759886356778,-0.0015912002208074596,-0.0011052850090262137,-0.0005516848637098679,9.112353150314242e-06,0.0005197315014242814,0.0009399740319702339,0.0012578143185643378,0.0014903055372850623,0.0016708240926056237,0.0018263234561562655,0.0019550954913020234,0.002017822068308215,0.001950280466068047,0.0016957880028739282,0.001243490640633217,0.0006511665551362281,3.4184566778407014e-05,-0.0004821365545117169,-0.0008264736243860816,-0.0010245835946240938,-0.00118867618478586,-0.001449279224807885,-0.0018643960569159341,-0.0023623229803974117,-0.002760014755266051,-0.002853375965623202,-0.0025282608423402115,-0.0018248798177466505,-0.0009168671735116796,-2.0855077697667367e-05,0.0007048537165197371,0.001212389077739048,0.001545602395611348,0.0017774262809986219,0.001953545039579367,0.002077440639426469,0.002134304306981563,0.002122041835568985,0.0020579617598207637,0.001956526890525045,0.001802557221574314,0.0015499390206990384,0.0011530393002633515,0.0006070351250601912,-3.7496218366791536e-05,-0.0007004279827105668,-0.0013189521738603978,-0.0018770413474387209,-0.002391774194262269,-0.0028653819314790867,-0.0032410013354823002,-0.0034010829347536414,-0.0032189546205296585,-0.0026361346277556427,-0.0017169744426669903,-0.0006428782992559659,0.0003558869229511157,0.001095361017499861,0.0015094687323686934,0.001662478173353753,0.0017002537148132944,0.0017691771201228765,0.0019442732685106077,0.002199090701844642,0.0024269902158225187,0.0024992264170009605,0.0023302612376255886,0.0019199843702843535,0.0013544701872422015,0.0007657809612408718,0.00026964734143268256,-8.956197416684121e-05,-0.0003594030676875172,-0.0006536644081475025,-0.0010908034588310931,-0.001724822279528466,-0.002501313554318836,-0.0032605689154656075,-0.0037892142541238677,-0.0039004724223293853,-0.0035092374974222064,-0.002668541167697009,-0.0015507123194913246,-0.0003825179246625196,0.0006352008061672316,0.0013879632804632775,0.0018652836944573151,0.002134325735737934,0.0022879380133843706,0.0023942277448188044,0.0024699051597529206,0.0024848977236239665,0.0023901187803714603,0.002151710306929946,0.001775364530380154,0.001310374998959616,0.0008316456590828133,0.0004070200655994163,6.440708922267151e-05,-0.00022491612153882986,-0.0005354872593498379,-0.0009492762856883705,-0.0015038690870067231,-0.00215208135369483,-0.0027576755255703743,-0.003137369082642109,-0.003135598737648532,-0.0026979033343317383,-0.0019045393150091854,-0.0009436532673471006,-3.514423598032553e-05,0.0006564625094324625,0.0010765612612367876,0.001278570272621341,0.0013731781101678604,0.001460362667257852,0.0015802324351003494,0.0017040350073427141,0.0017633455222190002,0.0016966315536753405,0.0014866541938304706,0.001170022653541779,0.0008158076048500717,0.00048569362811790186,0.0001974146895976776,-8.765166025481838e-05,-0.00044317867809443186,-0.0009305051880154944,-0.0015476027849184336,-0.0022017653305291774,-0.0027253065838477725,-0.0029344901346038204,-0.0027091997940869076,-0.0020558268751166404,-0.0011187502339089065,-0.00012857464881542728,0.0006919592079427753,0.0012187519933661657,0.001467217554690219,0.0015622488728850394,0.0016548666806150843,0.0018324058273368091,0.002071565621384675,0.0022577177674997576,0.0022554445781481133,0.0019880077665259074,0.0014826701381803976,0.0008614366224955925,0.0002859502893830938,-0.0001153749804849864,-0.0003059748992057791,-0.0003612385248626824,-0.00043981060294246213,-0.0007132931313390931,-0.001280055352475403,-0.002101570379408821,-0.0029962759200101103,-0.003701508622411571,-0.0039783682629124595,-0.0037092449924740266,-0.002940945809591547,-0.0018563357386795999,-0.0006942923995954639,0.0003405363634266782,0.0011389529805088305,0.0016995155458091424,0.0020951460596090373,0.0024145389976776323,0.0027067091000120558,0.002954240204419773,0.003087076866372979,0.0030279768860179113,0.0027432971275385292,0.0022698213805863255,0.0017027386737749595,0.0011527099044993955,0.0006967696696421595,0.00034898914242023843,6.332399712812199e-05,-0.00023755689598435609,-0.0006257751272674997,-0.0011413667194866374,-0.0017810458352155176,-0.002497576393205515,-0.003203099057532347,-0.003776954087795806,-0.004084859791243846,-0.00401310193822553,-0.0035099470807040106,-0.002616421828320746,-0.0014684951310725749,-0.00026355495404567367,0.0007996647279985865,0.001584633839233066,0.0020565031642982624,0.0022789966356697843,0.002370293204345621,0.0024402592693758066,0.0025401416466010723,0.002647141423248802,0.002686639401259229,0.002576868955870522,0.002273364140794983,0.0017940041448088993,0.0012152079824286756,0.0006412942342818071,0.0001595608868607936,-0.00019943394975989107,-0.00047710630871126644,-0.0007674465340314282,-0.0011682825603816034,-0.0017235741799248219,-0.002384305927219537,-0.00301021749174422,-0.003417253323040553,-0.00345268637917691,-0.003062721769072429,-0.002317562554839952,-0.001379931240968896,-0.00043449493885990394,0.00038241334001036997,0.001016281842268229,0.0014803052390492907,0.0018126852264117627,0.002037808198445065,0.0021541181352176487,0.0021490301525563076,0.002023002910295075,0.0018020391255482472,0.0015296710003275594,0.001245683112485679,0.0009674076305804423,0.0006852104706576401,0.0003721003301719435,-1.0481383595215606e-06,-0.0004522376139174697,-0.000978108926669373,-0.0015445678854019355,-0.0020803867236091783,-0.0024822173670110653,-0.0026387034565375726,-0.0024707866175515125,-0.001971903329262755,-0.0012260437029361104,-0.0003890119238420832,0.0003641937325781871,0.0009043600865805679,0.0011950809322961923,0.0012986427415196257,0.0013372883268780542,0.0014278056859224888,0.001620031557436901,0.0018688416252978061,0.0020549568593785893,0.0020469052598539768,0.0017740382665096704,0.0012711649934077434,0.000667502214939588,0.0001222953366816381,-0.00025954830238171815,-0.00048477351667843065,-0.0006677007439423611,-0.0009634825713727564,-0.001472902549770633,-0.002170755673848565,-0.0028989371426494026,-0.0034304790319843984,-0.0035712531563425126,-0.003245525138346776,-0.0025226367890055106,-0.0015767178077733012,-0.0006064667370215434,0.0002424056055170588,0.0009175470231623959,0.0014507762057020094,0.0019108958325460756,0.002346676921444111,0.0027511609683674053,0.0030652313719644777,0.0032146110740156903,0.003154197952682374,0.0028910886946321357,0.002474882779513189,0.001967494179178147,0.001416201268647169,0.0008453881154672788,0.00026408268361138105,-0.00032470305045761955,-0.0009221613890922188,-0.0015354093532698341,-0.002171166884197636,-0.0028159674697901546,-0.0034125003763945385,-0.003852538266486123,-0.004002659754296402,-0.0037593460815110082,-0.0031070773665463763,-0.0021441515520528275,-0.0010557297240414074,-4.431943183695505e-05,0.0007464476320632647,0.0012759246385769208,0.0015997653684256359,0.001821984824106107,0.0020343763765216395,0.0022734348983912073,0.002511476950103116,0.0026796682877006546,0.0027065700504330255,0.002552353017973222,0.002224824903501311,0.0017733806313038527,0.0012659157350642938,0.0007594226977781107,0.0002768808991909631,-0.0001991178693195859,-0.0007116270029374381,-0.0012978400231505362,-0.001953984404306969,-0.002614425203303164,-0.0031588486979218216,-0.0034483998975561167,-0.003376119197863109,-0.0029089808364373194,-0.0021035260756383668,-0.0010905502271231727,-3.754781776843042e-05,0.0008957452378802961,0.0015939267815975517,0.0020049115292182294,0.0021387315806460677,0.0020508207095010626,0.0018192454499735612,0.0015250351619654225,0.0012393995032526088,0.0010152178443046756,0.0008780959081380578,0.0008165248078931253,0.0007774429669138098,0.0006760278963682451,0.00042333136015340134,-3.4730801468289916e-05,-0.0006823498919044786,-0.001420664046529539,-0.002088383514715687,-0.002514008989016607,-0.002580226668018268,-0.0022705601418351144,-0.0016737979855380187,-0.0009431819068000236,-0.00023264107010995423,0.00035562578088859336,0.0007879134985833282,0.001080267181606569,0.0012651350911649251,0.0013674927389603667,0.00140105221652503,0.0013780898436576248,0.0013186989074536297,0.0012499029459427464,0.001195134092395075,0.001161401870504378,0.0011318839757322669,0.0010679310957209093,0.0009197091467907256,0.000640866902846423,0.00020168946806005408,-0.0004016504515005925,-0.0011397085585916752,-0.0019424778606024267,-0.0026972299574481353,-0.003262545821656411,-0.003504576034851374,-0.003345221401504524,-0.002797394236455325,-0.001964479476231081,-0.0010008915142642812,-5.426397876487305e-05,0.0007798117118148228,0.0014691932707433684,0.0020234831249394897,0.0024591275126991225,0.0027753171011156196,0.0029527876959215375,0.002970018819377694,0.0028209197559936512,0.0025208601920030634,0.002099794720302642,0.001591994178884885,0.0010325676997972868,0.00046109666147577523,-7.804119895535896e-05,-0.000548692867845946,-0.0009455738312570012,-0.0013076285491209262,-0.0017027805964240765,-0.0021835501145429453,-0.0027377364696806964,-0.0032683723460278803,-0.0036221384508677884,-0.0036546557590234957,-0.0032966158932364606,-0.0025842957409455145,-0.0016411798510562435,-0.000626358108697307,0.0003199638828837313,0.0011094524400652097,0.001710033249343697,0.0021297517192815515,0.002394237103407424,0.002529391138023209,0.0025538879850125714,0.002479382824919654,0.00231392346897287,0.002066275271352838,0.0017516349727946805,0.0013980031008075887,0.0010477899804190733,0.0007471849852121182,0.0005222084338948901,0.0003532520302539202,0.0001688048345549649,-0.00012682580087128043,-0.0005980178454361557,-0.0012238764864924703,-0.0018822465079734293,-0.0023901939446614147,-0.002585064344499021,-0.002401784226713464,-0.0019007135362308068,-0.0012297364793923467,-0.0005459321976426784,5.2565443891433236e-05,0.0005432679916679644,0.0009410758029271753,0.0012406091428026284,0.001386935185633805,0.0012996895672591601,0.0009349288723154806,0.00033988106850269375,-0.00034167947571081287,-0.0009238839310221183,-0.0012646629079957018,-0.0013342867232233639,-0.0012270903671475824,-0.0011081021362643302,-0.0011206436036712765,-0.001301250546739179,-0.001545933854278033,-0.001648414099035646,-0.0013965413945954358,-0.0006827949025331142,0.00042620340027217044,0.0016993052284237121,0.0028282461813873712,0.003550045619033871,0.0037433767412334493,0.003454745470454296,0.002850903726639878,0.0021322021577501924,0.001455503345244648,0.0009000908618774107,0.0004788659451979609,0.00017122340692291406,-5.112463644217158e-05,-0.00021841410951010335,-0.00036847211030402926,-0.0005452964526703004,-0.0007817021113233065,-0.001076843984232678,-0.001390880086201731,-0.0016697470537969297,-0.0018876563333142722,-0.0020738670456175714,-0.0022943770558954716,-0.0025909630364352437,-0.0029176614852845185,-0.0031268807810734787,-0.0030290250180154154,-0.0024978536584225317,-0.0015568134782987862,-0.00038855034396742083,0.0007423800537358443,0.0016085254178871333,0.0021113191747711793,0.0022985378774726555,0.0023093006454906104,0.0022890703989724816,0.002324509768143109,0.0024241893728870726,0.0025386732851308724,0.0025955840676657673,0.0025289960889564042,0.0022974294463442195,0.001894717380754911,0.0013559330680984337,0.0007529503057284359,0.00017287282760349989,-0.0003179758876750286,-0.0007083730819974013,-0.0010528134950621884,-0.0014449280491294085,-0.0019605147023981197,-0.0025980653606450218,-0.0032524826799815386,-0.003743584422972142,-0.0038899315194012444,-0.0035896437215577537,-0.0028643659432646775,-0.0018457706796186095,-0.0007189536415129604,0.00034189169250997144,0.0012155043775235576,0.001845227614927555,0.002230525480733353,0.002411493320764334,0.0024515865733580684,0.00241718812401608,0.002354442300023148,0.0022709327874135305,0.0021337330503362,0.001890049518299391,0.0015032704211733728,0.0009839753230011042,0.00039339511167740983,-0.00018796067312400457,-0.0007078826610088395,-0.0011702008423395637,-0.0016160230514980878,-0.00206669673559279,-0.0024713009331428443,-0.002704967915842732,-0.002629620068587684,-0.002181260059061067,-0.0014248678795548454,-0.000537341795076581,0.00027334654295907966,0.0008627293583346928,0.001200951223394605,0.0013543307538586018,0.0014175071971409506,0.0014453751154329998,0.0014278712494244748,0.0013167856077110412,0.0010776279085858793,0.0007257730376789976,0.0003218602543334274,-6.675364228987316e-05,-0.00040706967488544996,-0.0007117381807810768,-0.0010105872068573742,-0.001302336999218304,-0.0015237239937558843,-0.0015651090032823235,-0.0013310387538338442,-0.0008102398765771321,-0.00010692409889795541,0.0005934311344905802,0.0011078616146142793,0.0013395571512482582,0.0013120010541363227,0.0011376798559474778,0.0009467581174740098,0.0008218053164058623,0.0007736275028288444,0.0007620144555055722,0.0007370188321000577,0.0006691245914035042,0.0005515350510052521,0.00038099081034909923,0.00013816702578898729,-0.00021315363401993155,-0.0007032447520992863,-0.0013214283000194558,-0.0019897343976456377,-0.002564414698596372,-0.0028727441599891565,-0.0027752154173238857,-0.00222781436289875,-0.0013141100424545991,-0.00022729815745349828,0.0007950162695777737,0.001556384344648904,0.001967991607063092,0.0020641822454565907,0.0019612085405099028,0.0017847453636415961,0.0016091165086715132,0.0014415235368714628,0.0012526395184560375,0.001023043171745723,0.000766907106545182,0.0005158324831931605,0.0002792843139860411,1.7604186088004302e-05,-0.0003448794435553443,-0.0008681588313819532,-0.0015365595614923887,-0.0022304102975584336,-0.0027539802521960384,-0.0029128002598373492,-0.00260378289892745,-0.001870961293124987,-0.0008952692378656046,7.906881802185775e-05,0.0008450904291703601,0.0013099514993181569,0.0015112197302682658,0.0015693192005385584,0.0016068082421124574,0.0016806841277980174,0.0017631633337854436,0.0017763669375681212,0.0016547702805535629,0.0013945335585622142,0.001058981694181626,0.0007375722019975819,0.00048444640220634216,0.0002753892851984586,1.2076823400159603e-05,-0.0004240573005408724,-0.0010947628625759733,-0.0019467472514831004,-0.002807392038343886,-0.003442224075615511,-0.0036485968534569597,-0.003339763739985641,-0.002578378892537683,-0.001545678275914847,-0.00046611060864138745,0.00047277734146585035,0.0011695897159663452,0.0016144538482681823,0.0018613088467715313,0.0019886214797626644,0.0020660877285750066,0.0021345936287262145,0.002198884752727871,0.002230245677481246,0.0021779730395301354,0.0019894459852708795,0.0016360297417593573,0.001135986946101593,0.0005605007236115342,1.1792765943960978e-05,-0.00042356985630416245,-0.0007241146976055723,-0.0009538720480757742,-0.0012326383744956616,-0.0016636099246611995,-0.002255778405174585,-0.002888841203639177,-0.0033488672683057207,-0.0034226552355147693,-0.003002313309457091,-0.0021432277583187673,-0.00104434852465062,3.6995616803299524e-05,0.0008896162560792652,0.0014202316373704955,0.0016626504859562764,0.0017298253751550719,0.0017423088262606779,0.0017730930635025462,0.0018322233896256273,0.0018872739755716715,0.0018961958275339331,0.0018290115223443524,0.001670947133428501,0.0014166175183857141,0.001068833668925902,0.0006453002964429015,0.00018358100400927123,-0.000267388536857044,-0.0006693689330266122,-0.0010156039718259328,-0.0013315969448356316,-0.0016500800082836148,-0.0019748390871143387,-0.002259091016048337,-0.0024160333539731916,-0.0023579667626583015,-0.0020416966608769356,-0.0014940441001966985,-0.0008034007628313687,-8.301216484627834e-05,0.0005725935057385115,0.001113844598385603,0.001532704018908051,0.0018365268309742007,0.002020447541506709,0.0020593437724336565,0.0019257109582959096,0.0016203852615198468,0.001192264965894443,0.0007290278194453316,0.00032011224150346545,1.2802357558171348e-05,-0.00021156573410216614,-0.0004253625731018201,-0.0007109834419870393,-0.0011077750112992947,-0.0015771446812137431,-0.002005079823794833,-0.002243521892641765,-0.0021732558936244425,-0.0017599010996231937,-0.0010764273410741104,-0.0002799681993108317,0.00044847891694331065,0.0009750839695528967,0.0012623940486861907,0.001373071143507153,0.0014254182685631248,0.0015222297455739734,0.0016900618310343673,0.001862507238626718,0.001917697243811253,0.0017494521232179474,0.00133198749406107,0.0007418593229242249,0.00012500668982840326,-0.00037342908477616254,-0.0006796134046993771,-0.0008250902004739746,-0.0009259623196206816,-0.0011165042211976933,-0.0014708412643610466,-0.00195431064196497,-0.0024315962181877242,-0.002727964079090027,-0.0027103112033766323,-0.0023446625609193214,-0.0017026801744458042,-0.0009206952652649251,-0.00013992930629002,0.0005392374817255079,0.0010719571649348086,0.0014572534858305398,0.0017168528705292418,0.0018787762565420675,0.0019694413526272093,0.0020102482011477786,0.0020143733434097705,0.001983582893361245,0.001907857325691509,0.0017701357285162256,0.0015553720769565117,0.0012594076108478325,0.0008914274355633283,0.00046643805531959006,-8.43014928311832e-06,-0.0005421403228765098,-0.0011501519479137413,-0.0018258089669513403,-0.0025089801063973402,-0.0030777658344439273,-0.0033794937465327383,-0.0032920580103293594,-0.002783665914690516,-0.0019363448895918624,-0.0009191958470114978,7.364197434619872e-05,0.0008882035282293053,0.0014504295105249821,0.0017688716445571446,0.0019067715584462324,0.0019407162677848341,0.0019252008984224833,0.001876928781947924,0.0017817697852588001,0.0016156122998868857,0.0013640637992464004,0.001028990034666684,0.0006206416138914649,0.00014556569602635185,-0.0003959657474883729,-0.0009973039832942964,-0.001625637902777311,-0.0022111921823120134,-0.0026568065386888724,-0.0028659144467470185,-0.0027756258612430355,-0.002379714585828301,-0.0017327341536811508,-0.0009351397378816542,-0.00010549636014958361,0.0006510655546963643,0.0012680299848178288,0.0017275222413611706,0.002051097927352168,0.002275105291766482,0.0024225652341959693,0.002486792356616826,0.0024365251942298064,0.002239765329685372,0.0018915697621904484,0.0014281430332247686,0.0009180031020884025,0.0004350461657827468,2.868518256638245e-05,-0.0002936581608448206,-0.0005657159372057576,-0.0008477993660929524,-0.0012063874417731157,-0.0016912260087713425,-0.0023094187033150314,-0.003000793496116644,-0.0036291640145234474,-0.004006902993629003,-0.003956165715885317,-0.003385480499877573,-0.0023436424329523232,-0.0010184562579635037,0.00032536676546607795,0.0014424519597329068,0.0021914702124420544,0.00256848427341684,0.0026768828419301716,0.0026555141151529058,0.0026063437006825464,0.0025579220087771993,0.002476383788851595,0.0023083433588058466,0.0020259118727659576,0.001648622238551651,0.0012341399868098203,0.0008475220287567123,0.0005279421492277816,0.0002697235903840147,2.5110691291209513e-05,-0.0002744211913942447,-0.0006885586330649749,-0.0012416344830265115,-0.0019067210157354827,-0.002602845261867358,-0.003205612654853064,-0.003571939475117803,-0.0035782285052696544,-0.0031645435292599056,-0.002368002112306237,-0.0013256503986483874,-0.00023747737153361493,0.0006994662453299536,0.001357617629264674,0.0017156448940466912,0.0018491739559753657,0.0018814479776838539,0.0019183922079972161,0.001999064296393023,0.0020841307474038246,0.0020855452072263436,0.0019198543998742473,0.0015569097349795173,0.0010404370674298399,0.0004722502951601965,-3.160764149004214e-05,-0.00039324452163905644,-0.0006099642806785073,-0.0007559406167886796,-0.0009422169864733301,-0.0012502099056621418,-0.0016728920506436443,-0.002100096912791563,-0.0023632476405561617,-0.00232004808672883,-0.0019331336249481471,-0.0012967961099026094,-0.0005942270883019142,-7.642060580568074e-06,0.0003690114287443581,0.0005667571549516927,0.0007090353502805107,0.0009305109089123908,0.0012944474571022946,0.0017548827522601935,0.0021822153604085606,0.0024332614007063678,0.002422716113912125,0.0021568736128775253,0.0017175873502262452,0.0012144100089094697,0.0007357868797404674,0.00032146021875012227,-4.0224494847054676e-05,-0.0003983885974898511,-0.0008167167065629041,-0.0013437827705684805,-0.0019800163333516694,-0.0026540821380026808,-0.0032276399792293066,-0.0035381212892123615,-0.0034658117730644606,-0.002991225468392459,-0.002209291436590593,-0.0012902606300821801,-0.000407902221887184,0.0003266833681670044,0.0008927158073252879,0.0013395085864516868,0.0017354774057238957,0.002117593097423578,0.0024679762558687986,0.0027261505736802163,0.002825201746282239,0.002728923140572479,0.0024500749813845864,0.0020435722853339314,0.0015829107390008448,0.0011344495025151352,0.0007403914752425205,0.00041255018649472334,0.00013257059922613403,-0.0001452525742018096,-0.0004862826974150311,-0.0009559368930795504,-0.0015855110987486394,-0.0023347471096250927,-0.003075438239030879,-0.0036177591486594232,-0.003778391066152663,-0.0034604543581056336,-0.002702208925987124,-0.001666495583030426,-0.0005764750483037444,0.00036790152521702646,0.001052150492163986,0.0014645805979269688,0.001670597963188118,0.0017644863395689485,0.001823616112357942,0.001882596460791973,0.0019323231224045079,0.001937800689554352,0.0018628930629208376,0.0016901905405615795,0.0014281564782921187,0.0011036442539259146,0.0007443023516429841,0.00036054932473170034,-6.167613588416545e-05,-0.0005501252246962577,-0.001119217558078637,-0.0017393751254661614,-0.002321711648384868,-0.002733292406827798,-0.0028433500815253456,-0.002581828517631974,-0.0019801044824534508,-0.0011688841996741705,-0.0003297509442824936,0.00037697117008415106,0.0008711390209907288,0.0011694174087174421,0.001355518443414957,0.0015250945045691576,0.001735575030188357,0.0019818511943297795,0.0022013763085171113,0.002300024532576141,0.00218768630245066,0.001815113409431008,0.0012034273992915286,0.00045365949448854053,-0.00027697087324662147,-0.000833955072966786,-0.0011390628393234611,-0.0012388466094629253,-0.001290855845154637,-0.001481272289869323,-0.0019118315342270067,-0.002521191531748601,-0.003093268972392451,-0.003356024136564572,-0.0031189818249134603,-0.002372684685571929,-0.0012950038827821287,-0.0001637255362995244,0.0007725145162795082,0.0013938325164346956,0.001731467513288541,0.0019129407946891423,0.0020714052568071876,0.0022724054819605326,0.002491498699014314,0.0026423258603780935,0.00262956558672351,0.0023969651953622425,0.0019528891449914977,0.0013705249289013243,0.0007667845705616128,0.0002644896047043214,-5.4854791371627395e-05,-0.00019195470276537908,-0.00024186529817312027,-0.0003614133050240611,-0.0006978600927972307,-0.0013099887975391406,-0.002123015939081979,-0.002944232331449457,-0.0035346194017366684,-0.0037025193699657824,-0.0033759023111131856,-0.002623086635756758,-0.0016177036513938055,-0.0005678920612669797,0.000357613279345656,0.001075516905891855,0.001589314874955901,0.0019507247912997302,0.0022059837177399724,0.0023593177758814868,0.0023747567080481796,0.0022128402105073466,0.0018755608432442891,0.0014264213056164455,0.0009680378838848786,0.0005881589376257765,0.00030780066479503933,6.675100616408843e-05,-0.00023994659716394839,-0.0006923393013399963,-0.0012821348354711136,-0.0018935773356951822,-0.0023433629917336105,-0.0024620692126520313,-0.0021760578711102177,-0.0015469746462223272,-0.0007471778092378746,1.7247861632592307e-05,0.0005962667055457329,0.0009514298947218522,0.0011485292518770777,0.0012942029154136973,0.0014561193026274572,0.0016161026549031457,0.0016848353336324725,0.0015678153586453935,0.0012398838602626133,0.0007803012214114933,0.00034419438961905363,8.32232731852924e-05,5.710823180291066e-05,0.00018454147743123548,0.0002650669476618881,6.990485203288487e-05,-0.0005369161795239907,-0.0015075395843231502,-0.002601847418509075,-0.003475308051952293,-0.003825250963558926,-0.0035228157368122045,-0.0026624461139780294,-0.0015051544784182834,-0.00035067379568492395,0.0005891410649193854,0.0012508028511920447,0.0016940771040638283,0.0020229450668212646,0.002308199637850545,0.0025533586544917233,0.0027104203785593755,0.00272235093670825,0.002561325898154808,0.0022433406059460207,0.0018177917906194115,0.0013435164100877475,0.0008661144728129022,0.00040629682041143714,-3.9897616592458265e-05,-0.0004942075218362953,-0.0009866247186200718,-0.0015419683664213751,-0.0021600784240168305,-0.0027942813917771776,-0.003342250830834519,-0.0036640440677985758,-0.0036290441895326523,-0.003173902208133967,-0.0023415341957715285,-0.00127717994391415,-0.00017972714538383767,0.0007687670576489168,0.0014612958869261129,0.0018866175762777167,0.0021083670220885605,0.00221802190305125,0.0022859382136565104,0.0023318761031848,0.002325869230825288,0.002216339332028221,0.001969806255956581,0.0016007496952131675,0.0011747232912125791,0.0007814441839228676,0.0004906204607133765,0.0003128966219080911,0.00018616241011838505,-4.424542151986655e-06,-0.00037888490285634813,-0.001004489171833903,-0.001849812094093847,-0.0027720151944078406,-0.003549658684146762,-0.003955966564967844,-0.003846473885895203,-0.0032215771248508907,-0.0022303679055729964,-0.0011094817527956536,-8.628001999394123e-05,0.000703480785765992,0.0012431356919939515,0.0016019974491640072,0.0018707557731607218,0.0021064283366371314,0.00231298940311145,0.0024570699390598708,0.0024986723713907606,0.002414446764536283,0.002202956885707437,0.001876894857439375,0.0014552953201389732,0.0009645099589761527,0.00044438563813909234,-5.312822898044608e-05,-0.00048207526591957184,-0.0008305379436078363,-0.0011365473873559968,-0.001470559677943902,-0.0018843465016637577,-0.0023543502477897764,-0.002760541895557907,-0.0029258835281278546,-0.0027039386699962698,-0.002067766320509498,-0.0011464739744627293,-0.0001828259267551956,0.0005703589659600385,0.0009627304592919376,0.0010104725926428188,0.0008800293630730407,0.0008001481941880466,0.0009454729749922851,0.0013481426191471258,0.0018807228313568408,0.002319614628483943,0.002457351229291368,0.0022052568707570676,0.0016316329380223682,0.0009160339815877591,0.00024805919766350575,-0.00026968359268392207,-0.0006595410056018399,-0.0010297183298584246,-0.001485468753097,-0.002044590249353216,-0.0026057655099018043,-0.002986703928879321,-0.0030106639989905745,-0.002595131110552656,-0.0017967861879623656,-0.0007910442008507814,0.00020083906000375069,0.000997837280471863,0.0015159809293874118,0.0017740384190089828,0.0018559646089698707,0.001858059606932584,0.001848813644313063,0.0018539617980939643,0.0018620669026618156,0.0018386695506217678,0.001741053615691058,0.001532789551752808,0.0011986564494213068,0.0007555810539813668,0.00025098853528975285,-0.000256477648957061,-0.0007274424278654279,-0.0011652581173627404,-0.0016124243768726122,-0.0021137458893766836,-0.0026636532436084296,-0.0031724955378426897,-0.0034818792228900235,-0.0034307129054768543,-0.00293889406367612,-0.002059532539983403,-0.0009665225709953322,0.00011733132809286605,0.0010111214200035023,0.0016359555326323231,0.0020167191371889895,0.002234889481753578,0.0023686518241669546,0.0024562439513968167,0.002494792849424411,0.0024609161103664326,0.0023310200907067785,0.002090514070577171,0.0017367188728843208,0.0012841811458466947,0.0007718759367251936,0.00026139106846509387,-0.0001837038302183584,-0.0005326983213756243,-0.0008151938315645507,-0.0011153840903076998,-0.0015241312748534733,-0.002069777958835619,-0.00267075553593877,-0.003147707007778542,-0.0032989132664906383,-0.003001610572727662,-0.0022821199866333063,-0.0013137728115790877,-0.0003427616962668028,0.0004181200683366613,0.0008727083853829725,0.001062444867960304,0.0011210380127183205,0.0011923435924424456,0.0013560549788402536,0.0015971169373959885,0.0018290565414203611,0.0019525535713724987,0.0019134007353593346,0.0017273602880315726,0.0014608681805383084,0.0011832073679943326,0.0009218945218359196,0.000649262479598235,0.0003072369546890171,-0.00014739246022416204,-0.000706921193409942,-0.0013069614948428212,-0.0018499800237411317,-0.0022392376161550266,-0.002403565132807117,-0.0023075547230345978,-0.001955516442334986,-0.001397515664173426,-0.0007330967291171157,-9.7710046138306e-05,0.0003774753265651465,0.000620748440658926,0.000658954852798193,0.0006102128678590207,0.0006251104954551211,0.0008051985769897008,0.0011456520371000325,0.0015365257197928269,0.0018216498582671733,0.001880013935822381,0.0016835019949287123,0.001301601895471511,0.0008550490360667381,0.00044719193586185404,0.00011100891610611838,-0.00020114001527770146,-0.000581212000886438,-0.0011020318928088278,-0.001758843899452285,-0.0024462868447683262,-0.0029863239565705935,-0.003199062452802572,-0.0029847675910183637,-0.002374679961448577,-0.0015206876579703767,-0.0006264764863844823,0.0001430382622307464,0.0007241713932148263,0.0011570337562853074,0.001533701920063634,0.0019283158515128241,0.0023499477936090056,0.0027384003125181266,0.0029959139822259735,0.0030325800862806953,0.0028043171133140385,0.002331458820302857,0.0016944353911531812,0.001008535937844786,0.000384685841619099,-0.00011140984242013477,-0.00048590111747589816,-0.0008152150433481868,-0.0012112092596525978,-0.0017625015299694803,-0.002475921573486525,-0.0032478057838251965,-0.0038851187605061345,-0.004173183857067289,-0.0039622657261657954,-0.0032339492020273535,-0.002116871313609375,-0.0008446149611668661,0.000326014006358253,0.001202173776217665,0.00171284416062281,0.0019162979520255888,0.0019577252868312944,0.001997559228129093,0.0021413605532491914,0.0023993740456205387,0.0026900155833782177,0.0028825146303585033,0.0028576766876420067,0.0025593652593646392,0.0020155912462607654,0.0013233784340090885,0.0006075316798922522,-2.7588942819192883e-05,-0.0005343728378630454,-0.0009336413338993012,-0.0012973884741078973,-0.0017075952594636354,-0.0022060755815431943,-0.0027575724255998807,-0.0032468985150036394,-0.0035174734631068967,-0.003437560115716803,-0.0029632883310258397,-0.0021659378080008704,-0.0012083132569400412,-0.00028192788638731116,0.00046371526714024934,0.0009675422134971579,0.0012623009821391756,0.0014425194995924136,0.0016131768012021945,0.0018417103152707647,0.002131277110301987,0.002422855974056132,0.0026222995858570836,0.002639933880291871,0.0024272510143231603,0.0019976117387081665,0.0014236087350665203,0.0008109511591032812,0.00025689092770115305,-0.0001907196610452136,-0.0005537298931888686,-0.0009090505346493361,-0.001341128747147387,-0.0018831436799008603,-0.00247879536825651,-0.0029890573864098367,-0.0032452880084205583,-0.0031240587034703157,-0.0026053995004966897,-0.0017841472792403195,-0.0008301148793482808,7.906817418596107e-05,0.0008166142053355962,0.0013317818650492208,0.0016399891911089257,0.0017938397759633075,0.0018532441415687593,0.001864483673353659,0.0018501277329962772,0.001808906275568217,0.0017238367970962114,0.001574631609623454,0.0013479412985104434,0.0010398949300993825,0.0006506423874790836,0.0001770368959472085,-0.0003875464595635283,-0.001040748301598335,-0.0017493847678830003,-0.002431090230909947,-0.002956431010787731,-0.0031818248848441296,-0.0030063758263161105,-0.0024268822202332995,-0.0015586062882025746,-0.0006028427518943404,0.00022983581569306253,0.0008055861046108227,0.0011185636854688305,0.001278374077064788,0.001437688126999358,0.001698592449587654,0.0020513679206176447,0.0023822740412714804,0.002544949230786727,0.0024498738882127126,0.002115882697256422,0.0016541628821585437,0.0011991890641063437,0.0008322564829696827,0.0005428826679301523,0.00024557517292024826,-0.00016444851844630497,-0.0007513015643466619,-0.0015038108080755621,-0.0023360800154610855,-0.003114614150695318,-0.003696363296104796,-0.003965234232912718,-0.0038600407988705395,-0.0033888986088829163,-0.0026254215522607243,-0.0016860783964906584,-0.0006965107306215536,0.00023889723233022533,0.0010521410503120808,0.0017093993942152081,0.002199360422805308,0.0025225133653025795,0.0026870288277455624,0.0027098722388927943,0.0026179017839053015,0.002444687945778858,0.0022230776904952026,0.001977590319112688,0.0017211028635762207,0.0014565678848392416,0.001180506917004364,0.0008847428696890864,0.0005558426389808602,0.0001745900085754474,-0.00028134158575173466,-0.0008291791280593254,-0.001467398017547843,-0.002160698706756324,-0.002831324480703039,-0.003364834892715702,-0.003634267096918742,-0.0035389814068549122,-0.003046169437476584,-0.0022176267747947903,-0.0012056253764242161,-0.0002115893427835571,0.0005819999245795736,0.0010793504247540255,0.0013053694058534843,0.0013845290534871184,0.0014709035484096493,0.001664317615688266,0.0019581524603445883,0.002247600946230826,0.0023918033557791853,0.0022918054367757805,0.001939303264666399,0.0014122830601446435,0.0008271811606274756,0.0002803923579290827,-0.00018806678208072123,-0.0005945659442827843,-0.000982953241687639,-0.0013857699263719746,-0.0017943784706418672,-0.002150406449714542,-0.0023630739439688404,-0.002347740632997891,-0.0020701533345201008,-0.0015733856142489061,-0.0009686158554380772,-0.00038914330443003825,7.002493326271832e-05,0.0003930211125245653,0.0006398555809832998,0.000900460293457836,0.0012335885870452415,0.0016273977479429518,0.0020044752189826128,0.0022654864356746627,0.0023416387872377464,0.00222318624014211,0.001950465286184655,0.0015803391788227524,0.0011550155727341911,0.0006930561775680802,0.00020138701640133008,-0.0003101459926141849,-0.0008290482406477288,-0.0013538198772631237,-0.0019003029837320019,-0.0024809458004995473,-0.0030619948600678314,-0.003532270428007358,-0.003721291331394593,-0.0034739513749728755,-0.0027442290641399142,-0.0016474177814894938,-0.00043011305002390817,0.000632242581620642,0.0013544788593069863,0.0017115819258251763,0.0018242258551752584,0.0018745324562018859,0.002003500325581692,0.0022450419978442848,0.0025239956173721966,0.002707807264266676,0.002677207416127493,0.002380308576805522,0.001850648302395098,0.00118868380572639,0.0005185034559713873,-6.308080168700885e-05,-0.0005253746782029364,-0.0009116449479686223,-0.0013066144557679696,-0.001774565572829951,-0.002300412728144411,-0.002771648096665921,-0.0030192548177661975,-0.0028999114569761633,-0.002373974041689325,-0.0015342149166051966,-0.0005695493518309108,0.00031422550334056563,0.0009732429186001723,0.001366367580657446,0.0015451017437442722,0.0016058205017709468,0.001632416816791472,0.0016576178449615585,0.0016591712948111638,0.0015880937846873664,0.001408550028949749,0.0011227127727916294,0.0007647334954443323,0.00037028571184935803,-5.3385224072879586e-05,-0.0005316691792748751,-0.001094553898061082,-0.001733630684485981,-0.002373038027400896,-0.0028757232967400147,-0.003086483616227495,-0.002893743208792637,-0.0022824795937130037,-0.001353774740594626,-0.00029958555271163443,0.0006606127826702377,0.001357869622058231,0.0017340213829012702,0.0018558058153314,0.0018729932252425268,0.0019375339299841227,0.002122471017866621,0.0023823130485563677,0.0025766616747836613,0.002546019848754278,0.0022007406354559683,0.001576022297419951,0.0008221089078060973,0.00013179790699257302,-0.00035884685743891887,-0.0006433207660855311,-0.000847980211928774,-0.001158591749307867,-0.0017068299388398576,-0.002479329562814145,-0.0033017280833191453,-0.00390849081570031,-0.004061817909428408,-0.0036581227052723485,-0.0027707438173058003,-0.0016134539481060738,-0.0004490351742395204,0.0005101780853472787,0.0011663146798348324,0.0015440969733530783,0.0017496829248060477,0.0019049166091125935,0.0020870886070981677,0.0022990714433392756,0.002480866442258662,0.002553907201659231,0.0024718552094368106,0.0022475619294739626,0.001940570005505181,0.0016146873815885143,0.001293877082233836,0.000944670620008099,0.0004958675243448571,-0.00011608531509126929,-0.0009011626738756889,-0.0017927667025906362,-0.0026579832486127025,-0.0033359613666021797,-0.0036889689803241135,-0.003647047298675588,-0.003229047692672922,-0.002530658417869621,-0.0016842118171796283,-0.0008102698598056692,1.359417097905873e-05,0.000752651975437644,0.0013910683510304992,0.0019073226086188584,0.0022691097503021816,0.0024493823726265177,0.002447519893565049,0.002296660538731837,0.002050367283741177,0.0017577319900248503,0.00144355955107334,0.001105333640650845,0.0007265074265235771,0.0002954569199345847,-0.00018252284240173632,-0.0006863888303170684,-0.0011900116592489353,-0.0016718118187213208,-0.0021138118050012897,-0.002489404694511765,-0.0027500775355760888,-0.0028255620628681428,-0.0026448163652328673,-0.002171291376072294,-0.0014349387354776562,-0.0005422216212464458,0.0003460861090378931,0.0010656410490264081,0.001510039911323327,0.001676289941426008,0.001668855233801309,0.0016520610318230212,0.001766498732923151,0.002049531550434135,0.0024059019958992144,0.002651646574782402,0.0026119435298624302,0.0022179696989364115,0.0015457265529503768,0.0007750834240282406,9.616067885354144e-05,-0.00038092308724924746,-0.0006652404571052022,-0.0008607439154489413,-0.0011017403848495172,-0.0014861574487769775,-0.002035010261844447,-0.002685485973319225,-0.0033096015550333805,-0.003748127780243629,-0.0038541062951873263,-0.0035401428131637937,-0.002815825656203766,-0.0017959711213308062,-0.0006682987869482703,0.0003703204938080072,0.0011807064175553483,0.0017197835958125069,0.002034741373185012,0.0022210009033822257,0.0023688056092857008,0.0025241652557472147,0.002677807486024128,0.0027806148723878636,0.002773977004004521,0.0026205145089541297,0.0023225637183565107,0.0019208597991224015,0.0014739041665078833,0.0010282487147123332,0.0005964003138411958,0.00015618031632920514,-0.0003276193525074922,-0.0008736928339788139,-0.0014668889395233586,-0.0020636175420750236,-0.002612451231438986,-0.0030707578352252973,-0.0034036423223326702,-0.003569991385569464,-0.003515387087949278,-0.0031882970672273943,-0.0025755273103600118,-0.001732547152685809,-0.0007821000586648957,0.00012588105493624896,0.0008727184245726576,0.001413221646777007,0.0017771325809976628,0.0020321913304068807,0.002235354492812557,0.00240293866896715,0.0025133994515350233,0.002532666422307193,0.0024397397517568497,0.002236651204460746,0.001942952663283064,0.001585289931072409,0.0011901684970491416,0.0007791317074378784,0.00036189910220614605,-7.131556000156115e-05,-0.0005492775062613097,-0.0011024486132730712,-0.0017319539281609956,-0.0023822189226316744,-0.0029392656709222977,-0.0032647765012867175,-0.0032536555898686156,-0.002885120345104835,-0.0022375806071241126,-0.0014568839335763932,-0.000694162153851251,-4.701203163649797e-05,0.0004648967092808187,0.0008803151687436313,0.0012505354296654322,0.0015988117688250554,0.0019085973304667223,0.002141177860708533,0.0022639164039223057,0.002267826619678603,0.002165827382157242,0.0019783569601350046,0.0017199131227071006,0.0013962633842765696,0.0010126135354062182,0.0005846173292139751,0.000141360131028718,-0.0002858818050509812,-0.0006848357991984805,-0.0010785293499332425,-0.0015192289975277532,-0.002053308268143643,-0.002671192744607649,-0.0032741566574834005,-0.0036881671382006822,-0.0037295256857379343,-0.0032924894120224058,-0.002410519793751361,-0.0012550716274614935,-7.067404819013578e-05,0.0009208532098526975,0.0016004988877751406,0.001981033548976625,0.0021761995557268536,0.0023292986848493704,0.002536839396629522,0.0028023897817713445,0.003040034218789385,0.003123038048186756,0.0029517835776878476,0.0025061673394651414,0.0018567922815343877,0.0011319023725467501,0.00045985786715680777,-8.317873325229682e-05,-0.0004974979646691416,-0.0008494140510712294,-0.0012342726732900993,-0.0017283669047390145,-0.002346326973307634,-0.003019082132805625,-0.0036039977374938926,-0.003929839539090181,-0.003863385041500288,-0.0033689356140629355,-0.0025296869931366634,-0.0015173187781551657,-0.0005242172943590338,0.00030712588736329374,0.0009237015901526109,0.001356165741846971,0.0016778641877291524,0.0019545170960577514,0.002210434092392089,0.0024244947697878334,0.0025520535787595983,0.0025562995969841185,0.0024303182403662446,0.0021994385527999032,0.0019064526116758253,0.0015912219609668645,0.001275835943864755,0.0009592653541103057,0.0006189680893535911,0.0002166758392981189,-0.0002901918788584938,-0.0009283029011804994,-0.0016815603632282013,-0.0024695668417572467,-0.003149100672608863,-0.003550263063186573,-0.0035405362165751957,-0.0030886696161394585,-0.0022916079882506013,-0.0013423515439062866,-0.00044982084501531485,0.00024735367863611466,0.0007253015410427649,0.0010549379996304164,0.0013345267773745475,0.0016192034347089009,0.0018895469601409465,0.002072679744881829,0.002095346525529885,0.0019317176181883329,0.0016179778704188523,0.0012308529396811755,0.0008485694024479747,0.000517411140790813,0.00023713398663065716,-3.399095463450146e-05,-0.00035935878759688343,-0.0007937218042411242,-0.001347536442031362,-0.0019580552089464554,-0.0024867402569805513,-0.00275818270509364,-0.0026335687794888513,-0.002083878667104286,-0.0012183587596339396,-0.00024594356060599537,0.0006118155759668375,0.0012085193535248681,0.0015167516583276248,0.001612981083140195,0.0016209699421016804,0.0016470096556985146,0.0017364846751365872,0.0018657271687819489,0.001965443457542157,0.001959378379624095,0.0017984222267600238,0.001475870385957195,0.0010200943634664146,0.0004718024823231631,-0.00013943866803963888,-0.0008041990486879085,-0.001520767715218814,-0.0022682658913834638,-0.002983168403331175,-0.0035571728535652943,-0.003862673835283892,-0.003795999517718687,-0.0033183886543988977,-0.00247625205621289,-0.001393040522170361,-0.00023724981244642343,0.000821485156050099,0.001654512786533889,0.002202422919269267,0.0024809737964317973,0.002562458967112881,0.002539007651437573,0.002482299698066021,0.0024166423580342673,0.0023168543481246135,0.0021309989262400233,0.0018160246420565135,0.0013675705826469244,0.0008274359961532859,0.00026372529148731603,-0.00026530251881081346,-0.0007411822637453209,-0.001188177290816828,-0.0016444056190030492,-0.002117548629947378,-0.0025538197596624472,-0.0028432928727017684,-0.002863739833767028,-0.0025412596834155066,-0.0018941709382901775,-0.0010350590054422374,-0.0001297321040391671,0.0006642336367417547,0.0012477731586493998,0.0015979729271619744,0.001751969332431512,0.0017727419970859594,0.0017167744147813385,0.0016164311087670156,0.0014787050775964352,0.0012939010940742177,0.0010459295874381256,0.0007192733764630577,0.00030302875453018963,-0.00020424304733409075,-0.0007862006101287364,-0.0013989076576803067,-0.0019660623645483544,-0.002386799857313712,-0.0025594890272553445,-0.002416684905075632,-0.0019575757451400144,-0.0012605920446138513,-0.000464853499680007,0.00027626841963228257,0.0008505267306134934,0.0012249475233998776,0.0014471251668158175,0.0016080488408488156,0.0017852823556180734,0.001996670907426622,0.002189480812902956,0.002270101640916562,0.002156774519610465,0.0018258284020766244,0.0013268805724628758,0.0007600311438937651,0.00022760330009051404,-0.00021513647918607818,-0.000585641385863059,-0.0009618449430885964,-0.0014346899860264752,-0.002045745079711751,-0.0027407603181204545,-0.003366387080305213,-0.0037185548689545912,-0.003625208070705076,-0.0030266042786961656,-0.0020141251966986815,-0.0008060423386437845,0.00033178662523678843,0.001185397570829943,0.001667195160701558,0.0018320998892839618,0.0018303008734268501,0.0018223880473478182,0.0019005078877383846,0.0020542620857181286,0.002194446176583609,0.0022158095991214924,0.002060483340640361,0.0017473441550362946,0.0013552490478657764,0.0009747177320842124,0.0006580732384585888,0.0003954466513777658,0.0001268544352349654,-0.00022039950904859942,-0.0006919974045569958,-0.0012844066280297503,-0.001945488066135531,-0.0025892458993371733,-0.0031130613915358487,-0.003413593334981574,-0.0034060262030835833,-0.0030500425675420474,-0.00237462246510032,-0.0014840577947869795,-0.000532012260657484,0.00033068565369471993,0.001009645126701307,0.001493420437255514,0.0018397161185650245,0.0021309437589991736,0.0024237631943770043,0.0027167441902040362,0.0029481825872083737,0.0030219460335457297,0.0028497396007959785,0.002394023159914455,0.001695168616033871,0.0008695493186126841,7.411390026521535e-05,-0.0005526688338322797,-0.0009493218030181619,-0.0011599575839572932,-0.0013138617039038327,-0.0015603206908085926,-0.0019877848033301167,-0.002568130748705046,-0.003156615342508075,-0.003549740172654183,-0.0035722728262038935,-0.0031497713744583723,-0.002333204880428177,-0.0012702244251480781,-0.00014475658167174789,0.000882903401791686,0.0017116812857564227,0.0023045871503401937,0.0026712439310338397,0.002842917868449763,0.002853168338100259,0.0027303282218695876,0.0024999874353316097,0.002190561627253097,0.0018351426166298562,0.0014671862827422117,0.001112592363529788,0.0007826820901483177,0.0004707723102530912,0.00015239770865817543,-0.00021087800029149684,-0.0006618503752503951,-0.0012294326713903176,-0.0019038418561486844,-0.002616284505514036,-0.0032397376652291885,-0.003621340760800491,-0.003639142396784404,-0.003257049247732036,-0.0025462896565842915,-0.0016570128910460748,-0.000752913412852347,5.4162993398260964e-05,0.0007322385823665895,0.0013076758437870792,0.0018148083624752382,0.0022539190751068184,0.0025843007614844674,0.002752047237384656,0.0027292600428348033,0.0025369498031749607,0.0022377334325846005,0.0019049404297715464,0.001588461097324828,0.0012972757188691566,0.0010061664687445388,0.000678509653017897,0.0002880872425406252,-0.00017398793931282518,-0.0007078222400949861,-0.0013152351214049123,-0.0019953103550679123,-0.002720248057246461,-0.003406705744292372,-0.003909775536210351,-0.0040586052777250164,-0.003726518426624809,-0.002901335265648544,-0.0017140191942765308,-0.0004036784329226899,0.0007677952182949337,0.001610642360716664,0.0020673965681346053,0.0022137471870213084,0.0022048759697642726,0.0021955068966999507,0.0022704707605089407,0.002414858206642008,0.0025332784578722123,0.002505089754682278,0.002247309462217744,0.0017563329953689936,0.001112125161215846,0.0004456120233425587,-0.00011652064206980252,-0.0005078136655960223,-0.0007545259283959599,-0.0009651923740501658,-0.0012741423566617759,-0.0017611231383177829,-0.0023890774811530092,-0.002999439250023192,-0.003375021886425123,-0.003340939419327675,-0.0028499870679114195,-0.0020068087074151474,-0.0010198401294261197,-0.00010931422887487308,0.0005798187749175901,0.0010191838247916851,0.0012800699460200817,0.0014761867882011818,0.0016996666122395412,0.001980099829858838,0.002279692725848161,0.002519099334768132,0.0026167249932752264,0.0025225709590146624,0.002234106314409471,0.0017912552157806757,0.0012555105455048193,0.0006824423879653104,9.852884326678752e-05,-0.0005066248447083184,-0.0011649261332551944,-0.0018934099028396676,-0.0026535002669678446,-0.0033322095052737604,-0.003765382838968871,-0.003800228930614188,-0.0033680625108309385,-0.002527064218471509,-0.0014484501105352537,-0.00035044999843317865,0.0005862239596531125,0.0012780923661272117,0.0017455906570909073,0.0020684278291339024,0.0023186383798061124,0.002510649694092746,0.002596226184003011,0.0025051086920989444,0.002204332561546757,0.001737360940572517,0.001216597991352391,0.0007719013062101182,0.00048417061639928596,0.00034077653937952877,0.0002367099926377008,2.2182643100494663e-05,-0.00042400384852559327,-0.001128140919145973,-0.0019941061245550055,-0.0028307782332147803,-0.0034243817808274324,-0.0036215109500520957,-0.00338184961841339,-0.0027772160174816475,-0.0019450104769006687,-0.0010279791169530445,-0.00013323025796542595,0.0006756955136390953,0.00136305086579197,0.0019023888668836973,0.0022717630408781637,0.002464287484575391,0.0025015269595015845,0.0024331061700910055,0.0023156501933683047,0.0021816700932424877,0.0020204447770465084,0.0017872406783986693,0.0014369852208752656,0.0009593198706575256,0.00038949805828080434,-0.00021318221860285285,-0.000803023578796273,-0.0013715831169389494,-0.001935952354510474,-0.0024967311666144933,-0.002996564294018929,-0.0033154406581753833,-0.0033170956989779926,-0.0029245954870551205,-0.002177870853875972,-0.0012321862594678707,-0.00029321530716060754,0.0004734350254131087,0.0010038168783931603,0.0013349616984352887,0.001550658870439603,0.0017149336096219411,0.001836591425295084,0.001882041248146297,0.0018193135216763613,0.001656823704685418,0.0014474559973038643,0.0012554323392745194,0.001110547180968099,0.0009825985348547136,0.000793623185005731,0.00045993645878521336,-6.0713383044513425e-05,-0.0007400681416111544,-0.0014781644257385867,-0.002127273984934256,-0.0025329545382009482,-0.002582725537089538,-0.002249333305437921,-0.001610861606983695,-0.0008321372318614861,-0.00010663197477375736,0.00041988821414230864,0.0007074827175055241,0.0008295668442456704,0.0009221881351737108,0.0011000723055958582,0.0013854868893888542,0.0016909567337042566,0.0018668623014972598,0.0017869518484517786,0.0014217808938762392,0.0008567448444043258,0.0002443893449033341,-0.00027988730167176985,-0.0006680004390625487,-0.0009735386601697127,-0.0013022297301129536,-0.0017283029537647635,-0.0022268753426752464,-0.0026636755268826303,-0.002850373586704333,-0.0026358665514095224,-0.0019837091945054154,-0.0009950630093981617,0.00013172806473689272,0.001179716922447825,0.001988366345127601,0.0024915456569212643,0.002709515742229721,0.002710108723367178,0.0025654296204271755,0.002325539607437993,0.002015602985910152,0.0016477047975696113,0.0012317156004861202,0.0007747472509689492,0.0002719747578227902,-0.0002970976103948823,-0.0009534776333798004,-0.0016857822518187811,-0.002419705122845917,-0.0030175015786735593,-0.003321264198375028,-0.003224215819223926,-0.0027294175298814972,-0.0019562295492961297,-0.001085384033931958,-0.0002740511266549177,0.00040678261615335713,0.0009753766623999225,0.0014862529417032306,0.00196175158512411,0.002356382649824575,0.0025770907425421152,0.002543620460610961,0.0022465564601428347,0.00176262417091842,0.0012154433118550623,0.0007065321043894143,0.00026176821231997503,-0.0001713822390630214,-0.0006741484860935423,-0.0012864896601119692,-0.0019606603066685247,-0.0025655330387717857,-0.0029377081255736797,-0.0029501736732975917,-0.0025634830259838493,-0.00183804949612756,-0.0009081551165844888,6.505027553722572e-05,0.0009401388852000251,0.0016259620017827837,0.0020891214860572155,0.002338977824852242,0.002398846404615323,0.0022800874758775336,0.0019775159281816296,0.0014931702955496204,0.0008740588196973444,0.00023309852131329412,-0.0002730331219327201,-0.000508665884219787,-0.00043442591818603957,-0.00014758368622449158,0.00014262884724052394,0.00020006637528105923,-0.0001308331135113678,-0.0008464040977324116,-0.0017723898181999926,-0.002626504815296234,-0.003127288710649278,-0.0031015412898210636,-0.002545231688503176,-0.0016150315153150231,-0.0005581401900835454,0.00038661125324666206,0.0010731405655675388,0.0014829560179191676,0.0016988548119740645,0.0018352203748816709,0.001964104936088808,0.002076993894681091,0.0020999432825938432,0.001948069060622128,0.0015847747102921343,0.0010532575685427443,0.000467151093179033,-3.176056013208203e-05,-0.00032924789588211346,-0.00038682984858687557,-0.00026509084435289885,-0.00011056546926500627,-0.00010446637123637074,-0.00038656895288986717,-0.000983036356901498,-0.00177311491590653,-0.0025185209520229073,-0.0029518785040530317,-0.0028888093643308155,-0.00231069260667329,-0.0013753727387021699,-0.000348699683649829,0.0005091391633956705,0.0010464258883622446,0.0012646026168702537,0.0012898684493831238,0.0012928969006688433,0.0013995427412213193,0.0016343762932863738,0.0019189767786554524,0.0021196672522876795,0.0021176218989183678,0.001866822887481779,0.0014139068386610407,0.0008730973263043634,0.0003699916097252808,-1.8389918803093697e-05,-0.00029820917484168666,-0.0005504248003947867,-0.0008825328685442622,-0.001364248565040559,-0.001979999856857683,-0.0026224130095094346,-0.003129333064447243,-0.003345226270856127,-0.0031780636552001403,-0.0026286711833464335,-0.0017853659102243743,-0.0007921826617934693,0.00019369144107028242,0.0010411659073509528,0.0016722640846125862,0.002072026685168771,0.00227918322620955,0.0023599589748929213,0.002374399543184593,0.002350065381285284,0.0022761210066785573,0.002120455426956996,0.0018593675161508662,0.0015021204801672744,0.001095565008456549,0.0007046425058212743,0.000377348433046331,0.00011242618932600957,-0.00015000902301263563,-0.0005039145621676974,-0.0010261093181268062,-0.0017232388639162309,-0.0025064682953312043,-0.0032106749863325627,-0.0036517232993662973,-0.0036955516866198036,-0.003307381722800662,-0.002560483556647735,-0.001604499295848509,-0.0006116309840521574,0.00027450471393905204,0.0009695557802894233,0.0014543988958069694,0.0017624413089638098,0.0019567240509341375,0.0021029572956185833,0.002243417987880164,0.0023783612119481446,0.0024627327847897697,0.0024225373766902395,0.00218741657514667,0.0017278162579051756,0.0010807924325314693,0.0003504675716383853,-0.0003219781188043016,-0.0008102464742583206,-0.0010557468949849774,-0.0010962118623659397,-0.0010531153264231271,-0.001078503885466176,-0.0012814630455941296,-0.0016672024645362667,-0.0021205410749695645,-0.0024481063958458247,-0.0024651407760937633,-0.0020866085847943546,-0.0013744120882501606,-0.0005120035422646955,0.00028271467682428227,0.0008586342422821094,0.0011902619803387147,0.0013637479199843036,0.0015041752056600872,0.0016915141454300143,0.001914660898286194,0.002085428149719503,0.002097294200890302,0.0018903296055986436,0.0014852516817888731,0.0009706473503187593,0.00045349452765160257,1.3176719030833298e-06,-0.00039172963036779665,-0.0007939548421090424,-0.0012827849814781229,-0.001876795972733365,-0.002493839431865656,-0.002965621598968007,-0.0031080330304648876,-0.0028121310088525145,-0.0021051424387173675,-0.0011460511823005253,-0.00015796107566134652,0.0006647708113556208,0.0012257568445960547,0.0015420259593951586,0.0017078871417597575,0.0018334058534702103,0.001988782932987125,0.0021762184748372495,0.0023359288907201696,0.0023794910657636086,0.002234455505404882,0.0018807847265348157,0.0013632286563907423,0.0007736540537072972,0.00021024795227053803,-0.00026881221241648056,-0.0006755702042392072,-0.0010890077644180323,-0.0016130690752453178,-0.0023085510282029433,-0.003128842747020531,-0.003896810101189514,-0.004348381056695662,-0.0042373507494080755,-0.0034586682449107113,-0.002126186495347033,-0.0005537915047503054,0.000864238124839739,0.0018203268207344187,0.0022222359014083043,0.0022138654948660715,0.0020782203504607997,0.002078678230560055,0.0023261564092166144,0.002739032155937053,0.0031064971900913703,0.0032104853583650606,0.0029368116100031887,0.0023212234098821255,0.0015168212168557471,0.0007105166994931938,3.639029364615868e-05,-0.0004732936461923692,-0.0008832690127082301,-0.0013065577626954858,-0.0018380459455990858,-0.002499911849517158,-0.003220637547765946,-0.0038540112402835613,-0.004227832838157282,-0.004201425034851738,-0.003710907385032696,-0.00278951156679642,-0.001560631926766608,-0.000208476089209771,0.0010656198384116076,0.002091200083343691,0.0027685694499342247,0.003087379277104007,0.0031158809490054156,0.0029643132381390633,0.0027380616978768335,0.0025010057437101704,0.0022633596156692746,0.001995400405561804,0.001656781385657486,0.0012261999893579242,0.0007181006696485422,0.00017904975554644277,-0.000335244477971522,-0.0007913182191610536,-0.0011987871954198463,-0.0016028648017466834,-0.002045856372729975,-0.002517871557997536,-0.002931381027334404,-0.003145239843561937,-0.0030328288286388602,-0.002556176597286515,-0.001798264688179925,-0.0009292790484814503,-0.0001250170204446148,0.0005127014122704304,0.0009857760633891512,0.0013657054528244945,0.0017227367468934877,0.002066265701312405,0.002333564893769631,0.0024309698758204308,0.00229849593392439,0.0019554030851607436,0.001497411734156026,0.0010469644330358427,0.0006869096067326804,0.0004176490191408833,0.00016293407450988833,-0.00017976000779895584,-0.0006737162496809879,-0.001298706430059325,-0.001950407573445911,-0.002480708167292964,-0.0027549060879725733,-0.0026965809689938613,-0.0023030678430923045,-0.0016338852596559181,-0.0007870707563872056,0.00012292356563240012,0.0009822287869705056,0.0016933499545277102,0.0021917271639549383,0.002457565658594204,0.002514036778307265,0.0024090566172862817,0.002189143676678417,0.001880330831991218,0.001486449555697497,0.001002585425512494,0.00043118048230323704,-0.0002117039654983997,-0.0009026312921404528,-0.0016210907056400019,-0.002351860849903433,-0.003073660114061398,-0.003739287609303414,-0.004260854819284653,-0.004514422113726,-0.0043702514252362155,-0.0037411275553667364,-0.0026286430492795058,-0.001143646923021848,0.0005137527622930131,0.0021100615799565492,0.0034462597334832972,0.00440654024523171,0.004967796283259475,0.005172596207723185,0.005087590701207592,0.004772138553036659,0.004268893462162233,0.003611364657607012,0.002835339155610129,0.0019840323048927683,0.0011045340835865343,0.00023861798594658826,-0.0005874206483542518,-0.001369285266933219,-0.002123033580600584,-0.002872200448936621,-0.0036256721115702347,-0.004355720210221907,-0.004989515232834415,-0.005422391650760907,-0.005548847640591865,-0.0052966199296556665,-0.004648396731744316,-0.0036447112770948836,-0.0023723464223793984,-0.0009472317477314014,0.0005017991173238282,0.0018470635342352363,0.0029753114037587257,0.0038011820044698834,0.004279613631412088,0.004413623284308072,0.004252812329988357,0.003879978614775647,0.003388586057228236,0.002859389097743768,0.0023455131899274987,0.0018702911022642748,0.0014349376717605158,0.001029008322359493,0.0006373980626822335,0.00024154523998100666,-0.0001828756975707912,-0.0006657404001227406,-0.001232923714852713,-0.0018852748165999408,-0.0025738928999239504,-0.0031889465923381683,-0.00357930335166575,-0.0036057713017023704,-0.0032076388746039583,-0.0024460284310411457,-0.001493006368264407,-0.0005636945594027264,0.0001759274768282637,0.0006741061718027529,0.000993389436047214,0.0012476873526810427,0.0015184033236692919,0.0018035283567087023,0.0020284831858862723,0.002104266218385685,0.001988655928073069,0.0017093963996351624,0.0013384925569129,0.0009401621017956947,0.0005297095324018034,7.048280884948052e-05,-0.0004893784749554656,-0.00116335386898033,-0.0018893066741032503,-0.002532701443122759,-0.0029318307879819113,-0.00296360488848097,-0.0025972033070191906,-0.0019086661384600072,-0.0010492743156964792,-0.0001844844402651756,0.0005648372695094939,0.0011504103266890607,0.0015850061487254112,0.0019057133398172517,0.0021379283456851492,0.0022804040397016254,0.002315045351600777,0.0022292089407103784,0.002032359431873628,0.0017554413275248167,0.0014350819114036602,0.0010957871013351282,0.0007433020947118028,0.0003716291827781078,-2.5483834173498017e-05,-0.0004498549250362592,-0.0009032645524876832,-0.0013920489070654738,-0.0019203858347334487,-0.0024699789295036215,-0.0029782367371492856,-0.00333503603018453,-0.0034114438403085867,-0.0031139965438678036,-0.0024376738140289888,-0.0014852399740898573,-0.00043693517279462025,0.0005167054760161038,0.001244276063630144,0.0017101385867822796,0.001963382241229792,0.002091046969938656,0.0021649791694160884,0.0022107656945047384,0.002210350764578056,0.002129005425307869,0.0019455456107111812,0.0016675737725115863,0.001326149150778559,0.0009570104294216728,0.000581298916300013,0.00019651576815132952,-0.00021839017855608263,-0.0006866501107828782,-0.0012128223727088377,-0.0017657848802311313,-0.0022739337875923664,-0.0026384538071433056,-0.002763755860484834,-0.002594479107103315,-0.0021416099054902354,-0.0014829266897325184,-0.0007361379569319463,-1.8672950263998742e-05,0.0005855304533414758,0.0010390665809764626,0.0013444778494338303,0.0015280266129702362,0.0016239945223405416,0.00166378581276678,0.0016688157219761361,0.001645750608028723,0.0015858221147149313,0.0014714303842976663,0.0012892934579521432,0.0010421459613862633,0.0007477994019371598,0.00042136279063189545,5.1213337817287353e-05,-0.0004094829443609382,-0.0010182112392881628,-0.0017895360499161918,-0.0026426845969853537,-0.003391122850606238,-0.003797077879257816,-0.0036742051658623467,-0.002985523192034998,-0.00187822328524468,-0.0006291583599136522,0.00047423434393636677,0.0012548712503678504,0.0017044763342927791,0.0019508645313052837,0.002157405698882564,0.0024159742646547473,0.002696007845817915,0.002876058635670182,0.0028326232674640156,0.00252635194946761,0.00203009739884586,0.0014837114775854586,0.0010095099101349349,0.0006459309090160173,0.0003395915847539807,-7.286384796929791e-06,-0.00047284700374801284,-0.0010770116340924167,-0.0017834824534974075,-0.002525466820969414,-0.0032265744317414163,-0.003802676945892117,-0.0041547920841162765,-0.004175055302443468,-0.003777873373827582,-0.0029457116621548173,-0.0017624852554468553,-0.00040978454702181414,0.0008799326179600405,0.0018961447157905414,0.00251809572998475,0.0027480324986860548,0.002695441184485719,0.002519863356986453,0.0023588525725258516,0.002274459917680142,0.0022418564298819013,0.0021813612412092185,0.0020126852897373207,0.0017011151635439765,0.0012738701832762027,0.0008029275804725205,0.0003661698928533396,5.9188794121484015e-06,-0.0002959324151946411,-0.0006122350200978956,-0.0010320045212729697,-0.0016032133832336662,-0.0022849829906505066,-0.0029379433985360142,-0.0033653890608160994,-0.0033917054098804795,-0.0029425750519802597,-0.002086874197691844,-0.001017131617630466,2.4041639305873467e-05,0.0008366184680069891,0.0013311787089795794,0.0015430493225276837,0.0015915708083385524,0.0016091165730371408,0.0016753236870414748,0.001785605540535232,0.0018646798555637192,0.001814200104573609,0.0015679913020236974,0.0011263720898443959,0.00055383064781875,-5.542055251527673e-05,-0.000623163383547622,-0.0011186507620630076,-0.0015581570918913525,-0.001971529044100056,-0.002353832161627798,-0.0026328868839547506,-0.0026799717348987167,-0.00236821733950702,-0.0016516802909363698,-0.0006184524063583877,0.0005199202003769486,0.0015049427405994054,0.002135880706482,0.0023475295235233277,0.002222396764478804,0.0019365598543116952,0.0016723103485353254,0.0015416250267426847,0.0015516105510179005,0.0016191903004209433,0.0016215113300929785,0.0014575556511048152,0.0010950660430412607,0.0005832262322298269,2.465815412433189e-05,-0.0004816690893132895,-0.0008981658405248832,-0.0012727472799179418,-0.0017083526387717501,-0.002287005572280953,-0.0029891644078717376,-0.003660511481797932,-0.00405702846935131,-0.0039540018879624375,-0.0032629959954703826,-0.002090901150299067,-0.0007051518742405931,0.0005787603357931625,0.0015287759745630752,0.0020793486659175645,0.002327065017012589,0.0024473877274625118,0.0025815820361901913,0.0027560010798387707,0.0028764221606868935,0.0027984074265891834,0.002431859481992919,0.0018170589816068987,0.0011236840090853176,0.0005679846822479742,0.00029257423267168355,0.0002785002681803363,0.00034343052573806206,0.00023138462717705254,-0.00025225668761726935,-0.0011314613738723984,-0.0022323981627291644,-0.0032511544829596,-0.0038805030106726654,-0.003932062319477034,-0.0033973769622976458,-0.002428192200681344,-0.0012592959965448158,-0.00012065201790287212,0.0008216604789078425,0.0014831618389782538,0.00184977810985159,0.0019578857946714774,0.0018770249761237098,0.0016940720111990354,0.0014931398895164795,0.0013315587227988195,0.0012216385949318559,0.001130232328052694,0.0009990356510335041,0.0007744266524760805,0.0004290883597364285,-3.41909006913232e-05,-0.000590046461108804,-0.0011944565197159562,-0.0017784587059791288,-0.0022424446500062204,-0.002469788991343251,-0.0023663728854640964,-0.0019090933435548627,-0.0011726457494716071,-0.00031287369579620345,0.0004893852358223633,0.0010964134570347625,0.0014597399521574276,0.0016231366185403258,0.0016840638006581803,0.0017352392137294681,0.0018162487084114963,0.0018983944926079124,0.0019078312238871823,0.0017715831321074415,0.0014592625906932118,0.0009972064371496973,0.0004492681457041538,-0.00012111645218062503,-0.0006823742095331709,-0.0012398071653643363,-0.0018115094385480874,-0.002391090157666343,-0.0029218455638804867,-0.003300795586524089,-0.003413706438083821,-0.0031843538279934785,-0.00261312883403464,-0.0017854565431583687,-0.0008453571061123286,5.433156461463534e-05,0.0008033244623099234,0.0013645365305258671,0.001770714195165577,0.002089217299978294,0.0023729677088703558,0.0026238442776503287,0.002789301254681362,0.0027946948955933594,0.0025925378791047614,0.002198953637238708,0.0016945844919738979,0.0011882125337054615,0.0007632122017237697,0.0004362790068832914,0.00015018117681073954,-0.0001959442667996547,-0.0006927736400284861,-0.0013668150431571996,-0.0021496580529130277,-0.002886257024105649,-0.0033838846742047166,-0.003485166557412098,-0.003134009313372976,-0.002402640810165315,-0.0014653401533516197,-0.0005311576254532478,0.00023204812204656036,0.0007479411287895575,0.001037344307838702,0.0011826268057123963,0.0012727958128820646,0.0013582428423326303,0.0014369300650274057,0.0014753454124719141,0.0014468229791520706,0.0013591367513232496,0.0012507037094827951,0.0011568023917230012,0.0010694053730188906,0.0009209791527136598,0.0006090062476532331,5.302259877844632e-05,-0.0007447423124768861,-0.0016688286070153352,-0.0025106350733132585,-0.003035284410278217,-0.0030679114326397474,-0.0025616736921869835,-0.0016183199356938154,-0.0004542416305235229,0.0006721640817712409,0.0015428018255052092,0.002042001893758109,0.0021776446020236443,0.0020561798208534408,0.0018245042388500775,0.0016050197736622487,0.001451889145842779,0.0013450124213667497,0.0012194222729956454,0.0010114128208930906,0.000696538821381163,0.0003005463361510788,-0.00012106201328007508,-0.0005219160006591579,-0.0008971920043421537,-0.001285708209344287,-0.0017350445154752227,-0.002248579587648185,-0.0027502207008658526,-0.0030962070169661977,-0.003134836746704601,-0.0027829611420778525,-0.0020752177362580075,-0.001157178352419013,-0.0002259525745812597,0.0005498811405000995,0.001090884291969196,0.0014214859645101602,0.0016374606992336411,0.0018464929693099862,0.002110839063067029,0.0024161456171169515,0.002677542069074608,0.00277921198160108,0.0026305933262639543,0.002214609003271587,0.001604986930058562,0.0009422941006445592,0.00037703685542888124,3.804286896155263e-06,-0.00018457314860671314,-0.00030088143800784865,-0.0005188084046468997,-0.000991971015973463,-0.0017666450332037014,-0.00272822416957612,-0.0036158493966688045,-0.0041135433712894435,-0.003986234082759808,-0.0031964586357963397,-0.0019371265484713323,-0.0005555489266048119,0.0005962990396158711,0.0013080959501828404,0.0015798614196277233,0.0015844195335854743,0.0015533436308977186,0.0016520437629427389,0.0019063819890902602,0.002209099010426144,0.0023923128254420365,0.002323186809298385,0.001973225933906728,0.0014272873555763095,0.0008297304445014055,0.00029942083414821275,-0.00013551611451360327,-0.000542465764360617,-0.0010246057420021403,-0.0016336043644270644,-0.0023097548584128953,-0.002888138398230963,-0.003169635887162768,-0.0030176289297875625,-0.002427435630656936,-0.0015324373529623178,-0.0005465797808724465,0.0003241618775784791,0.0009563388859998585,0.001336747011834115,0.0015376525126541108,0.0016602724957537711,0.0017793989489621848,0.0019152250199390617,0.0020388972956102104,0.0020993985423762352,0.002052173087723596,0.0018757737352552875,0.0015741029758834194,0.0011695275505082003,0.0006928346438806281,0.00017301811206965048,-0.00037123423333978675,-0.0009342978484387642,-0.001515609443322991,-0.0021013357945105877,-0.002646140451295437,-0.0030705964448953914,-0.0032821306956671995,-0.0032106333815207612,-0.0028380033778374987,-0.0022048566267400104,-0.0013939264951507097,-0.0005040162173480944,0.0003701924769832243,0.0011470473334971498,0.0017611076062293085,0.0021691753255790184,0.0023611808235396116,0.0023679351266166883,0.00225386219986405,0.00209053948277247,0.001922110243320258,0.0017444052324981393,0.0015152044636933073,0.001193462534865419,0.0007829582652247763,0.00034769353600865515,-1.8486669625682336e-05,-0.00025432633599627456,-0.00038527397830212464,-0.000527472163633139,-0.0008282398102996723,-0.0013713718778110878,-0.0021030986128777645,-0.002828164957300827,-0.003286780655809102,-0.00327489604314492,-0.0027426584757965075,-0.0018172386661746969,-0.0007397716916157421,0.0002456433182734713,0.0009894991762565927,0.0014728623615357403,0.0017725708219085022,0.001986391787487064,0.002166928773593965,0.002300494725507617,0.0023341828912826364,0.002223807906854425,0.0019673216649667563,0.0016053713843241194,0.0011965554941091787,0.0007888303564139471,0.000403053202767802,3.02849351031002e-05,-0.0003631827916178693,-0.0008252720935012837,-0.0013979957859956526,-0.002086627369151544,-0.002829697002049731,-0.003491705754974996,-0.003894952881309462,-0.003884468517087798,-0.0033956679833474484,-0.00248748972368458,-0.0013217773323358527,-0.0001008584736449567,0.0010019785436194905,0.0018849795111198675,0.0025204394471423476,0.0029290630217382657,0.0031491761933195627,0.003217034673729885,0.0031596957789522123,0.0029930923691422625,0.0027207868094730383,0.0023369056054579986,0.0018386494640095477,0.0012453036329074909,0.0006096992692628658,7.1154227341496895e-06,-0.000499810005253394,-0.0009018980065220927,-0.0012607145503637693,-0.001681241554924938,-0.002244921307289678,-0.0029375921920798756,-0.00361900919140738,-0.004062621101098181,-0.004053573440187545,-0.003495260439860775,-0.0024661380191919034,-0.00119534204225889,2.9852966979605137e-05,0.0009773006693089765,0.0015501056807101542,0.0018003554208529471,0.0018768279302794927,0.0019370529686203008,0.002068223368172856,0.0022543477444816884,0.0024019014478698455,0.0024051006978185285,0.002211440195548815,0.0018503864619461986,0.0014120539630352361,0.0009933090776473152,0.0006462768450739027,0.0003579728598188429,6.64485583240454e-05,-0.0003027242724018926,-0.0008006733790707246,-0.001431095297819791,-0.0021383032542426177,-0.002807971688425932,-0.0032867897834778803,-0.003425502722069795,-0.0031358483551553904,-0.0024359947965145942,-0.001456816703932524,-0.0003986375993807686,0.0005445028918044959,0.0012560549275638946,0.0017273024495719125,0.002032125428462099,0.0022621193251962336,0.002460340709937231,0.0025923198494262408,0.0025701939145292576,0.002313615705854602,0.0018096145843550292,0.0011351392943753748,0.000427935539850996,-0.00017951162142868546,-0.0006270217302352648,-0.0009560097527331677,-0.0012804594579803464,-0.001710657702245002,-0.002269822433057218,-0.0028526815174720194,-0.0032555753235123195,-0.0032683300168720375,-0.0027814995809198858,-0.001851344737320475,-0.000686688162492777,0.0004362583498244468,0.0012873411258546828,0.0017677069375048563,0.0019278725235810617,0.0019159582262401318,0.0018882302255783644,0.0019299300521235228,0.0020249301899258956,0.0020844316990494306,0.002012952507849417,0.0017712479564579255,0.001400403644871432,0.0009955598094437633,0.0006467232694201386,0.000381642316166626,0.0001436153836914117,-0.00018189028818838788,-0.000703474749334176,-0.00145413534484896,-0.002351250917403113,-0.0032087347149239165,-0.0037993874362027844,-0.003941074326472974,-0.0035681714941188294,-0.002756329755781422,-0.0016906751095013767,-0.0005936079086806954,0.00035442431257444614,0.0010669079179870629,0.0015566148014759616,0.001897920605105941,0.002169340155105223,0.0024063392926598186,0.002586109662463962,0.0026481920828475085,0.0025370222725425856,0.002242263356489813,0.0018139336893009945,0.00134199873150024,0.0009098263901630193,0.000547698728157515,0.00021507167338073063,-0.00017533268724423748,-0.0007032894314172438,-0.0013860522739008918,-0.0021514598644536017,-0.0028518579571125955,-0.003311583021108972,-0.003387942747000127,-0.0030229687813791606,-0.002267933799637852,-0.0012716000643359792,-0.00023489822177124534,0.0006528323542407392,0.0012722382448026614,0.001603419812316229,0.0017141013650987878,0.0017127024932391465,0.001689846765155443,0.0016781437460174293,0.0016502389842316088,0.0015530803298018194,0.0013543060272546291,0.0010688235399399354,0.0007469626320610462,0.00043288904138049045,0.00012454490380895815,-0.0002327905906154658,-0.0007095997742648363,-0.0013321131001439146,-0.0020366435677283265,-0.0026696324436020213,-0.0030395056396083104,-0.002996727390642724,-0.002501447700463238,-0.0016442236492145833,-0.0006107984988698863,0.0003892782936482881,0.0011952017274186294,0.0017377847268840985,0.002038929072100279,0.002173879046121484,0.002217698354524395,0.0022033501343055634,0.0021124201616794782,0.0019020711761702125,0.0015511071382762489,0.0010958828841557745,0.0006314205935686738,0.0002726818781420318,9.426819922761258e-05,8.060397086436641e-05,0.00011557338136452005,2.2445058517003515e-05,-0.00035934254112129774,-0.0010929519476430656,-0.0020956913503712106,-0.003148418182523671,-0.003963612766758993,-0.0042870413464045805,-0.003992050472886095,-0.003127228543671308,-0.001897405634443364,-0.0005864311937962088,0.0005453089830010623,0.0013461750126907703,0.0018076787491191765,0.002036748067988237,0.0021815903235095128,0.002347890815134088,0.0025469761857438143,0.0027013728772318857,0.002701917714446774,0.0024814425500142337,0.0020614470889750054,0.0015458373575010492,0.001067826063670777,0.0007218415915066772,0.0005173563386687342,0.0003763044992948767,0.0001723032964767012,-0.00020841589474146526,-0.0008112720108057179,-0.0015857883967021692,-0.0023976706496933813,-0.00307586357667216,-0.003474355819785906,-0.0035209273735162076,-0.0032313166957545006,-0.0026857398730229295,-0.001984998941156421,-0.0012127346461140046,-0.0004226513882816774,0.0003493993222178542,0.0010649427107485127,0.0016732090470453712,0.002120584875111563,0.002372356301451122,0.002430812798442477,0.0023358692717619293,0.002146131367119808,0.0019121628880224134,0.0016592920682818532,0.0013893959032023737,0.0010957950165417204,0.0007758935300679261,0.00043068954693328403,5.4295225069478836e-05,-0.00037245430378239527,-0.0008719226617383938,-0.001444125349384181,-0.002041457864414366,-0.0025638117980446374,-0.0028839450463858437,-0.0028946705818324626,-0.0025554262345018775,-0.0019149599942223667,-0.0010987713713063905,-0.00026664216394453155,0.0004418249796034325,0.0009519022695527073,0.0012714848694282323,0.0014748691776092472,0.0016583473969536524,0.0018857706389390537,0.0021493128598721383,0.0023667426093744778,0.002420059466808543,0.00221835192763667,0.0017527833768644318,0.0011132748287694973,0.0004547196856794436,-7.374227710231363e-05,-0.000402638716084216,-0.0005809813677967866,-0.000756018804906565,-0.0010977844381049582,-0.0017013051243507083,-0.0025148901522663797,-0.0033351896005066667,-0.003879674089534167,-0.003907801493109075,-0.0033335903373720214,-0.0022722015870671455,-0.000994857362682679,0.00018607535818752883,0.00104418401823357,0.0015172798442721553,0.0017049380886453313,0.0017955497335288074,0.0019643049675855534,0.002290539183038729,0.002727546145948412,0.003131278670379943,0.0033290387226786863,0.0031953055976061337,0.002703416688307544,0.001935428244953393,0.0010497728086340669,0.00022047775492476193,-0.00042925858622382433,-0.0008729340295794833,-0.0011849037384862582,-0.0014974892674734087,-0.0019278600708533401,-0.002508527559524522,-0.003156144562008618,-0.0036960783172132862,-0.00393349327723557,-0.0037386503604016153,-0.0031059318078585797,-0.002157709905157036,-0.0010915409589497796,-9.85732149256088e-05,0.0007046905512050346,0.0012990645357929293,0.001735240155182323,0.0020795744951073855,0.0023680418624106047,0.0025930737533557176,0.0027238528332716398,0.002738718738015555,0.0026432845676689952,0.002462532121278712,0.0022176508157643986,0.0019103500717096242,0.0015289189518775763,0.001069143577048487,0.0005485833918279107,-1.6491795961181936e-06,-0.0005620802529719741,-0.001143290253200959,-0.0017753541151891623,-0.0024676545843635225,-0.003164080144803387,-0.003728989222740455,-0.003985168156604166,-0.0037931559356682177,-0.003131041742905489,-0.002125987061607173,-0.0010118281565451171,-2.9454861604667217e-05,0.0006778882431450605,0.0011169043662234645,0.0014157362238328005,0.0017320579453520817,0.002150280355384355,0.0026250528293556225,0.003001348877880221,0.003098993115014492,0.002814680538088683,0.002185400186316264,0.00137787117313937,0.0006081085413436416,3.3407680385961195e-05,-0.0003240059060185152,-0.0005771863455377258,-0.0008952393106009405,-0.0013876734871025227,-0.0020194417355207375,-0.0026089211588828714,-0.0029138424336515186,-0.0027584592336929135,-0.0021308881394868627,-0.0011971158039043618,-0.0002256915207135662,0.0005346071206784006,0.0009597452290925488,0.0010871980173963666,0.001072289970989155,0.0010931506977729032,0.0012558903436526215,0.0015460187615483826,0.001844621320602187,0.0019949402754547325,0.0018832234312392445,0.001494743547295088,0.0009196404235442199,0.00030647252349826597,-0.00021404507304396628,-0.000595812332674626,-0.0008962089200368684,-0.0012319016123733982,-0.0016932146310216084,-0.002267187474580249,-0.002818694185544532,-0.003145784154261608,-0.003079625182027837,-0.002571419898269032,-0.0017172978907350782,-0.0007110147586931843,0.0002433181476313817,0.001007713910290843,0.0015398743521272608,0.001873427621731942,0.0020738331180443614,0.0021996445952204157,0.0022843433453592246,0.002336316614687474,0.002346514453049583,0.0022962519312390286,0.0021646043411649336,0.0019378513618117355,0.0016194107606712618,0.001232311288893275,0.0008063549890205173,0.0003527900900261986,-0.0001563289514715263,-0.0007822774239814143,-0.0015785296317199645,-0.0025306558759037954,-0.0035139778425381523,-0.004305163920470411,-0.004657857081015876,-0.004413076926787348,-0.003586690556218278,-0.0023803224898034034,-0.001101218183871144,-2.893157262762766e-05,0.0007007915615454063,0.0011333145070943997,0.0014369840253035315,0.00178662897546988,0.0022561045281096806,0.0027778751048699994,0.0031862736579268518,0.0033137437061249615,0.003083424805640183,0.0025491643599133474,0.0018667954325676508,0.0012169734467800722,0.0007209831418817661,0.0003899052879692763,0.00012919228338967987,-0.00020499093114522869,-0.0007243152212279098,-0.0014402344404737862,-0.0022428076233206155,-0.002938217071010902,-0.0033277874050840466,-0.0032903797872249124,-0.002829269465978874,-0.0020640478517460546,-0.0011759705196815455,-0.00033622904240568146,0.0003490285571541784,0.0008556647893008238,0.001220285451053484,0.001498269309435767,0.0017248767412749956,0.0018973839254256086,0.001983570077184202,0.0019487197397276706,0.0017841845569010729,0.001519247689445637,0.0012069830193114904,0.0008911673185534398,0.0005752823076858435,0.00021559899817264437,-0.00025363777844006363,-0.0008745152040549342,-0.0016233229686639199,-0.0023950055492615854,-0.003025137829171925,-0.0033438467703451515,-0.0032410179287577813,-0.0027139956514270597,-0.001873693272477789,-0.0009038939129125674,7.384727100381893e-06,0.0007315795821592665,0.0012307037670521253,0.001547841679597984,0.0017687988662852387,0.001975800613525908,0.0022114819920642627,0.002463177553470696,0.0026698119118535053,0.0027481145901841657,0.002629732390323073,0.002295349053171502,0.0017892136651779737,0.0012027260536418786,0.0006304764187017924,0.00011971766124337091,-0.00035736671047530843,-0.0008881115051856086,-0.001563071459811308,-0.0024059380456905363,-0.00332819987898437,-0.004137980466006215,-0.004605616341644447,-0.004557358038365303,-0.003951287039982963,-0.0028978304573148233,-0.0016168280865572929,-0.0003554258244688619,0.0006932581904323189,0.0014380736210182993,0.0018929888403313537,0.002144310867145535,0.002300864384239985,0.002446043455479695,0.0026062050014500605,0.0027449628060463678,0.002786389029184451,0.0026590454368643915,0.0023400536110362424,0.0018741803568965462,0.0013547883791402127,0.0008760254320785409,0.00048300085431527697,0.00014726671594381883,-0.0002193294649803132,-0.0007178214037697341,-0.0014018331275454567,-0.002229937829513813,-0.003054699185044641,-0.00366040895910364,-0.0038410395281438577,-0.00348816310816342,-0.0026474669580623974,-0.0015122031867221516,-0.0003517852018293762,0.0005916706003548017,0.0011886003854438391,0.0014502422946994918,0.0014934471205879341,0.0014676850272885627,0.0014835023769909834,0.0015731953798844818,0.0016936252632253584,0.001761459010588193,0.0017008164431460105,0.0014824457568543756,0.0011384214257589122,0.0007450682578442041,0.0003798576354552863,7.311933216790739e-05,-0.0002161116753458507,-0.0005789395194729959,-0.0010942787520194382,-0.0017581888441940171,-0.0024497219187346302,-0.002962004179304978,-0.0030899011441907157,-0.0027295465406892523,-0.0019343870522928771,-0.0008959308982989115,0.00013932991445517233,0.0009705249793149509,0.0015093057900121192,0.0017864171333218466,0.001906035723971583,0.0019789696936653445,0.0020680575917616938,0.00216622328994653,0.0022105316471735153,0.0021214694285262036,0.001848054480784283,0.001397582014692077,0.0008352945796203411,0.0002533595950734766,-0.00027487251303058916,-0.0007292824026590306,-0.0011444474909563158,-0.001575419640420794,-0.0020476874460329682,-0.00252247755915319,-0.0029002512860938066,-0.003062324188008107,-0.0029276658997926825,-0.0024934429163274577,-0.0018382855964912894,-0.0010888837443557811,-0.0003694162658811201,0.00024084605330278506,0.0007244571651365661,0.0011146049871986548,0.0014654874679648337,0.0018187124427636505,0.0021782098225363367,0.002501655393014051,0.002712145590795318,0.0027285952104532975,0.002505121977502165,0.002061370631793021,0.0014849704631475238,0.0008992047871913841,0.0004087356610674092,5.1030349657547576e-05,-0.00021976607258766893,-0.0005063566095333612,-0.0009112312784612187,-0.001476520162277633,-0.0021498764098387964,-0.0027932202414546036,-0.0032309069885135266,-0.0033153828789420003,-0.002981315250667818,-0.0022671123690200254,-0.0012998140624216608,-0.0002544398503158447,0.0006952125003331055,0.00141940166139889,0.0018586938499608303,0.0020279816259928607,0.001997986725031374,0.0018608369255426064,0.0016925949095887756,0.0015276929530552235,0.0013556826136549146,0.0011403296809207345,0.0008494964649292669,0.00047834192520452884,5.292715788907923e-05,-0.00038551897327504937,-0.0008022848733118823,-0.0011799544947964358,-0.0015106591476109306,-0.001777496417298834,-0.0019423513918241865,-0.0019532412581353864,-0.0017693980201534249,-0.0013883218078355546,-0.0008567583077173582,-0.00025787450659590753,0.0003187182857692025,0.0008084970881975083,0.0011895503005879807,0.0014777642185830357,0.0017024239414239054,0.0018758242907528204,0.001975619360229336,0.0019533256608604975,0.0017671944088993245,0.00142052415020575,0.0009790161365573762,0.000550283393940867,0.00023134980504874603,5.189696172035931e-05,-5.264155576710324e-05,-0.0002180117404263815,-0.0005843057701798665,-0.0012159641374590818,-0.0020491517795039535,-0.0028968143370304614,-0.0035146725688731516,-0.003699925884310769,-0.0033754872597448774,-0.002618431629792979,-0.0016202755433596457,-0.0006020855092037803,0.0002715616135888127,0.0009397606195927137,0.0014374919542349146,0.0018452993458041589,0.002227135934953793,0.0025880255569791216,0.0028694257629572817,0.0029806491927323077,0.0028488113867378073,0.0024630403514104855,0.001891897730092183,0.0012639726649166048,0.0007171166718323156,0.0003372394319693719,0.00011621060177448604,-4.685697616651729e-05,-0.00029695641619943073,-0.0007488563149818539,-0.0014238902636349473,-0.0022290686089336256,-0.0029873019953394284,-0.0035025855289420164,-0.0036301223831275015,-0.0033232946995746943,-0.0026427631646883795,-0.001729427304626133,-0.0007553984530582401,0.0001277680093082355,0.0008264131933061786,0.0013177779144490464,0.0016382517100133947,0.0018546228019575587,0.002030127788395766,0.0021967242618718035,0.00234207886948917,0.002415759261115617,0.0023535939812703043,0.002111504145143075,0.001692889475436457,0.0011529448166722324,0.0005735637123336583,2.038343509781868e-05,-0.0004922233802751813,-0.0010032262552345645,-0.0015674067466953697,-0.0021975675305002202,-0.002822765681973571,-0.0032936104373462857,-0.003438972303870872,-0.00314651471722845,-0.0024234914673252135,-0.001404783267502667,-0.0003044192074872344,0.0006642195916981157,0.0013616279967270677,0.0017582256122762993,0.001922691429082622,0.0019736603266239405,0.0020193916075087848,0.002111004227913163,0.002225477728466225,0.002281575388690285,0.002180986868523402,0.0018594331305805093,0.0013271691642349828,0.0006776186412990857,5.2494224050981004e-05,-0.0004270000457141752,-0.0007299189994117485,-0.0009441165267785141,-0.0012372329615505818,-0.00175992853818276,-0.002538083744925228,-0.003415528205628589,-0.004089633042778099,-0.004235452973222499,-0.0036632205480459203,-0.0024279505461644695,-0.0008276930325734591,0.0007164735914693262,0.001840516321812559,0.0023847370007453288,0.002433868268815185,0.0022369355035274543,0.0020602705857178114,0.0020579140478848806,0.002222947205860649,0.0024292403850084262,0.002522872213759402,0.002405149878940816,0.0020678530007916434,0.0015764432195230307,0.001024240851253859,0.0004872443685236018,-1.6476275305642618e-06,-0.00045623705138740574,-0.0009246696544348003,-0.0014662173084730873,-0.0021185566464762876,-0.002860513237769399,-0.0035865640588288593,-0.004116102793952509,-0.004249080341503264,-0.0038513438209654173,-0.0029271292688687494,-0.0016353013895339741,-0.00023528281261222563,0.0010106980336003185,0.0019285497754082611,0.002473610414289827,0.002710243740896279,0.0027502474750924983,0.0026872363158406097,0.002559731480179832,0.0023559768868257223,0.0020499319751954266,0.0016421921677282007,0.0011789030967912146,0.0007355832648416513,0.0003738592926000404,9.687471969919981e-05,-0.0001662403512040949,-0.0005294941830823113,-0.0010814338219363774,-0.0018129531514086486,-0.002584722302527767,-0.003161736592399704,-0.003307633653537068,-0.002896108192875036,-0.0019824014594360738,-0.0007947497084395471,0.00035437294002958606,0.0011961006238180487,0.0016105219182127018,0.0016590171837950836,0.0015302818935387155,0.0014310733659996023,0.001480363545299188,0.0016606701704069225,0.0018458023261418682,0.0018814890094045055,0.0016702266191774798,0.0012167354881578404,0.0006177101460151535,9.228301069963136e-06,-0.0004986596147184641,-0.0008707044864202801,-0.0011587515874403667,-0.0014709712923170945,-0.001907280177900349,-0.002486973664082125,-0.0031048503553017144,-0.003546165908379825,-0.0035657856119042613,-0.0030023620477714983,-0.0018729665501724148,-0.0003951195980036969,0.0010840878886993637,0.0022235523510529577,0.0028237581884037787,0.002895902350708146,0.002632300795609257,0.002296648047963921,0.002092370832166504,0.002075763268953284,0.0021542987237429478,0.0021634569032519197,0.0019729890680581738,0.0015598564488763737,0.0010082744643463367,0.0004432924143260667,-5.5156403121395475e-05,-0.0005006479770895529,-0.0009799331511966712,-0.0015776694862856774,-0.002295430703099129,-0.0030182028612959007,-0.0035522093862179246,-0.0037138269071676565,-0.0034183958595367745,-0.00271928145059113,-0.0017792733124623445,-0.000796123690858576,7.375895551786589e-05,0.0007558142523848967,0.0012508299260707424,0.0015973883219749995,0.0018312571534995722,0.001963851356233971,0.00198656730500664,0.001893252393173146,0.0017045245716157025,0.001476496366750874,0.001283646033080405,0.0011800801280567774,0.0011587749414011684,0.0011347869819179617,0.000969943024694517,0.0005357810651170474,-0.00021156496444620223,-0.001183590433924776,-0.002170365248507814,-0.0029137561983659027,-0.0032111532909297478,-0.002997353882576981,-0.0023621780601403605,-0.0014976460556673306,-0.0006080675977068352,0.0001664610361701176,0.0007773059144692,0.001243124366008763,0.001600994976747472,0.001866899463398638,0.00202568749693718,0.0020486164600782056,0.001920791332126258,0.0016585677124438655,0.0013067000525743898,0.0009191928956488221,0.0005374092321150682,0.0001784855622474961,-0.0001619890727952014,-0.0004991245205280231,-0.0008488917075247771,-0.0012229941234158622,-0.0016244200973045274,-0.0020382990268068973,-0.002420083884499651,-0.002692024254905898,-0.0027589491894767946,-0.002542605893328536,-0.0020188703619430414,-0.0012369172926369318,-0.00030895624094905995,0.0006239686125415022,0.00143296376766836,0.0020321040953824704,0.0023908270876746907,0.0025289600864578186,0.0025002118979478307,0.0023703026413406654,0.0021951395076274106,0.0020050735110070123,0.001801666230317288,0.001569216552655138,0.001293946140027857,0.000976217568085304,0.0006244261231298408,0.00023390771805389276,-0.00023039085368736274,-0.000826203080944712,-0.001594760584429622,-0.0025071671652280277,-0.0034297614827280996,-0.004139084031375914,-0.004393748997552254,-0.004037663068305606,-0.0030850822948004517,-0.0017391911441273456,-0.000325594109658811,0.0008337486432393915,0.0015469025130252125,0.0018166390556781926,0.0018124297866208422,0.0017668705341702569,0.0018522496663540195,0.002100796163312017,0.002405523470901395,0.002593638683685399,0.0025271719596357805,0.002175654774425482,0.0016257385175841579,0.0010282421549476666,0.0005143384732119483,0.00012579936336197455,-0.00020395053766450233,-0.000606271220597725,-0.0011913511918228412,-0.001964213599468926,-0.0027899919656569658,-0.003432885903544538,-0.003654558976316271,-0.003324319929714929,-0.002484993619372715,-0.0013407832505648136,-0.00017410677367648956,0.0007660678534448055,0.0013508477491986687,0.001596639297147089,0.0016257490465536209,0.001589658235065257,0.0015958327133305306,0.001671060994888875,0.0017710635178581826,0.0018210195449301324,0.001758782477612388,0.001557928440666574,0.0012253878793907149,0.0007848937724586079,0.00026232665845021667,-0.00031803574110637303,-0.0009279163031494673,-0.0015272670126813127,-0.0020607736524217873,-0.0024619163170950136,-0.002665183866343611,-0.0026242425390957703,-0.002330091835256459,-0.0018204989848238308,-0.001173741707277857,-0.00048677871346040837,0.00015346779285551205,0.0006931007654879986,0.0011194102673513942,0.0014528652723097113,0.0017279575836954982,0.001970559797205632,0.002179955526371281,0.002323244813834081,0.0023467972370219362,0.0022022457181951303,0.0018755455215486872,0.0014027437972795585,0.0008602945533018487,0.0003308351170672471,-0.0001391384748027969,-0.000565122563950877,-0.001015539804517428,-0.0015677140549795435,-0.002248942813724489,-0.00299290632959785,-0.003636932212962664,-0.003968661958861085,-0.003808205735947097,-0.0030925458748503167,-0.0019221815910323878,-0.0005423270230687871,0.000739843619910284,0.001667811050784555,0.002126889951724412,0.002172488216734776,0.0019857009342435206,0.0017815625239136776,0.00171496833193678,0.00182573284731001,0.002041889452894105,0.0022313790847926676,0.0022710938776747177,0.0020988420543911947,0.0017280990774279064,0.0012271849289508202,0.0006806320211509603,0.00015385588374256025,-0.0003252124871438082,-0.0007649363747225474,-0.00119468024016866,-0.0016432606641553626,-0.002117540674859737,-0.0025863739816146206,-0.002976183083081288,-0.003184852069781801,-0.0031153364955521894,-0.0027191443043565627,-0.002029593291808386,-0.001164388675344386,-0.0002897505717924377,0.00044142184506662177,0.0009483830999824803,0.0012477850142812935,0.0014313914684927148,0.0016085933268516059,0.00184548975282481,0.002132421735903453,0.0023935934467610837,0.002528707739317639,0.0024618313852542246,0.002173259574304973,0.0017022099340369095,0.0011232789943813953,0.0005107482200734687,-9.125841711707822e-05,-0.0006784441998214497,-0.0012708808991749912,-0.0018789856844204321,-0.0024674841264671933,-0.002938834269103626,-0.0031531701509310266,-0.002985300643603671,-0.002395558861148352,-0.0014748832153297742,-0.0004306426371029281,0.0004898980754159152,0.0011038769179646274,0.001370082805148777,0.0013961781056124702,0.001370731719474896,0.0014563540844929586,0.0017013665980178032,0.002016848703124247,0.0022300961557042563,0.0021840490557062083,0.0018270137653952773,0.0012416895172108692,0.000595949263801976,4.321576769048246e-05,-0.00036802810571611225,-0.0007186160732337318,-0.001158080409858988,-0.0017922715386611263,-0.0025864862281844165,-0.003345413102832962,-0.0037880972781507666,-0.0036815443983039355,-0.0029624182729626166,-0.0017814472616848208,-0.0004457345014811842,0.0007126920994374461,0.0014762177161361486,0.0018198333968440597,0.0018914177237425063,0.0019084515402212321,0.0020288158109453124,0.0022654499748674724,0.002488855079216535,0.0025121610965219924,0.002208330456990783,0.00159290734857955,0.0008264617144252167,0.0001356822912982785,-0.0003038526058206318,-0.0004594542203473276,-0.00045665918622137696,-0.0005075813229463626,-0.0007896342375551492,-0.0013408918090044874,-0.002030213622800562,-0.0026182104259708213,-0.0028737697869903756,-0.002681396483993627,-0.00208421449336295,-0.0012478639302379228,-0.0003746476255248724,0.00038121420723265676,0.0009561123822929135,0.0013659371657108721,0.0016596549586877654,0.0018706135173239464,0.001993830310280728,0.001998284069431764,0.0018605707321766465,0.0015929192307889133,0.0012431349847625383,0.0008648901485948994,0.00048017187605829616,6.383972464350015e-05,-0.00043432171227811484,-0.001041622065041799,-0.0017194253971197307,-0.0023539520865776316,-0.0027890983161673513,-0.002884993388364377,-0.002573268324108149,-0.0018846004335006555,-0.0009401614589224416,8.522236849973586e-05,0.0010124191326627058,0.0017045340802552891,0.002098726314134273,0.00221405705386516,0.002130628247058246,0.0019455966321724348,0.0017248498546124566,0.001474836483901287,0.0011496806390803303,0.0006888957677647127,6.447378574465446e-05,-0.0006865918117671336,-0.0014581890661330575,-0.0020996426233381078,-0.002459900717903816,-0.0024377386028737926,-0.0020215802134815053,-0.0013021816618848658,-0.0004480328247157564,0.00035130661411428743,0.0009510527909061407,0.0012954210285155308,0.001419298630496732,0.0014098303774496448,0.0013522526283763336,0.0012900899443712484,0.0012166631297697648,0.0010934994463616778,0.0008773295681949783,0.0005392196196129187,7.205805205783705e-05,-0.0005067073943389448,-0.0011502755422139693,-0.001777469543720905,-0.0022770589001166563,-0.0025301145136666595,-0.002448988350168847,-0.00201825486618878,-0.0013154511995267576,-0.0004945526380235666,0.000267278330836054,0.0008378635007855453,0.0011794846739257357,0.0013525160624702488,0.0014692538274257308,0.0016221389464909674,0.00182713675454053,0.0020157552079189565,0.0020798218201096234,0.0019396210808459312,0.0015912103586217903,0.0011033289819082522,0.0005683668465254104,4.228810027426597e-05,-0.0004846702618488307,-0.0010652129977504648,-0.0017333851229554675,-0.0024444978116121008,-0.0030593456968373714,-0.0033903216119440882,-0.00328839763077502,-0.0027220863328217436,-0.0018016048152803843,-0.000733362286620709,0.00026902567028883083,0.0010671836250176884,0.0016311054162369068,0.0020117736704247415,0.002277548944714581,0.0024571203149760428,0.002523496439718939,0.002424501958541588,0.0021342376337494893,0.0016869721337589888,0.0011682396752486421,0.0006682805677148252,0.0002296048140436532,-0.0001748001741031933,-0.0006161997021745385,-0.0011522177583980983,-0.0017718396384239351,-0.002377529182753449,-0.002817277138018371,-0.0029513020236101705,-0.0027187301565377783,-0.0021686689015411693,-0.0014382604840040111,-0.0006887397848830982,-3.406930414511503e-05,0.000498750594370066,0.0009570231622598443,0.0014076112860521514,0.0018749596502998424,0.0023099773907229353,0.0026080403455812267,0.002663923934372948,0.002429599717418173,0.0019410352177938407,0.0013007027956664738,0.0006283782645440768,8.212354566110313e-06,-0.0005405725314411719,-0.0010546169995316952,-0.001582670752418328,-0.00212957281458049,-0.0026213470475007256,-0.0029181864237617233,-0.0028760797817491456,-0.0024259792734380196,-0.0016239005530317386,-0.0006395027937682915,0.00031309045816007815,0.0010640430754534113,0.0015478302115338003,0.0018056377688369907,0.0019359041046043222,0.002026538728849202,0.0021079432368258317,0.002148826237993437,0.0020893194200592097,0.001884984062964765,0.0015326325940144463,0.0010645674478955065,0.0005206227279307998,-7.80666118765168e-05,-0.0007326364320345952,-0.0014440785526209224,-0.0021811161990688962,-0.0028629604346850773,-0.003373193462663288,-0.0036013617784030065,-0.0034902312432057853,-0.0030609409942761933,-0.002399816487949997,-0.0016133963243349482,-0.0007789322554336472,7.76362246073772e-05,0.0009611431069709378,0.0018586716387596933,0.002699670855864713,0.00335827350638561,0.003703267037809151,0.0036669862451377384,0.0032884590512143536,0.0027005509703188282,0.002066685333664798,0.0015056984249004067,0.0010503932859635807,0.000661051770170916,0.0002769974535887032,-0.00013464815006236717,-0.0005663986841087413,-0.0009957125547877508,-0.0014194612030524647,-0.0018630392654170342,-0.0023517834157316714,-0.0028646166281909267,-0.003307459456266543,-0.0035336701198397536,-0.0034075711321480554,-0.0028766661946867545,-0.002009484068276759,-0.0009750939564860698,2.5488130556483644e-05,0.0008386021528337137,0.0014066524053923575,0.001764883821482353,0.0019949903729953007,0.0021664296480236747,0.0022988336141911707,0.0023624247370267045,0.0023092402381736025,0.0021113160580870896,0.0017821195645272513,0.0013718210128707106,0.0009436031126726181,0.0005462097189531173,0.00019539113057036864,-0.0001302946370452047,-0.00047923973211294623,-0.0009039902270236233,-0.001429558233021942,-0.002021712187196477,-0.002571519855983616,-0.0029141737400718184,-0.002887654188845793,-0.0024116517286119302,-0.001545467932633987,-0.00048526853551336533,0.0005084533290458397,0.0012201729501203802,0.0015672168858817006,0.0016186610534447957,0.001538149557194567,0.0014873119043355308,0.0015453291331123187,0.0016842035221140402,0.0018025221455286822,0.0017889816520289864,0.0015785997252616142,0.0011779873195698922,0.000656251928819684,0.00011154826050300726,-0.00037217866325287957,-0.0007624779662870266,-0.0010932660903530747,-0.0014453988223680284,-0.0018955611910683654,-0.0024558435548218257,-0.0030377429082217274,-0.003466126387333247,