-0.00017651452756914024,-0.0015050597591535547,-0.0028064035251320098,-0.003989016589000827,-0.004895210696929314,-0.005389202607977581,-0.005461217670204795,-0.0052624897590042,-0.005035547664870671,-0.004978385165186166,-0.005125850943639594,-0.005319680565769301,-0.005282919024857847,-0.004754364182247218,-0.0036112827776786432,-0.0019249136967078835,6.546172066249371e-05,0.0020374685513805326,0.0036922333540061244,0.004848112931363151,0.005494683786788739,0.005787051596874591,0.005972748622959432,0.006267532733766016,0.0067269100259932536,0.007178639769331468,0.007267936537100759,0.0066166649815938275,0.005030395232946728,0.0026423935250400586,-0.0001008198897367535,-0.002625788466156735,-0.0044972367474707215,-0.005608493220481304,-0.006179562331688796,-0.00656320050215747,-0.006983281472740171,-0.007373890540567778,-0.007420535806206454,-0.006772838974752614,-0.005290255785140589,-0.0031672396600553577,-0.0008651759482721753,0.0011025474241104505,0.0024043619766711054,0.003015112536167458,0.003175286664608875,0.003224091980701595,0.003409168951701476,0.003776113017955756,0.004184572444386493,0.0044222190787025365,0.004338229096452151,0.0039186921913692,0.003270213657691944,0.002534864475362131,0.0017969012607012202,0.001041222445503471,0.00018871595402329992,-0.0008149363740335576,-0.0019157396753016179,-0.002932547438627164,-0.0036243057273122907,-0.003808333948496865,-0.003456756428212052,-0.002708967899813484,-0.0017945703552295757,-0.0009240179480132903,-0.0002244271864314776,0.0002427559963294856,0.0004172139753728897,0.0002080894661571572,-0.0004481936961033253,-0.0014642718282981697,-0.0025130613101753212,-0.003081042704437965,-0.0026866665197203053,-0.0011628754368920168,0.0011706584815981652,0.0035782395725647174,0.0052129965701286675,0.00549855819213475,0.004379173771311227,0.0023117036667232964,2.6659812137889765e-05,-0.001794662433982613,-0.0027622493806193455,-0.002847912731718654,-0.0022955543731640487,-0.0014513878185334415,-0.0006069978054053535,8.370348133461027e-05,0.0006016331960313105,0.0010023914638973516,0.0013443726294365107,0.0016428444627225728,0.001864917260604763,0.0019564965523225317,0.0018784694255946362,0.001629902702647314,0.0012479171948385718,0.0007887734386318794,0.0003037201585823194,-0.00017758991918688256,-0.0006508785539938598,-0.0011305304961632392,-0.0016369849950351135,-0.002180437563717804,-0.0027419778627153935,-0.0032580285259880414,-0.0036204476061781404,-0.0037027217248352495,-0.003407896459777918,-0.0027156699351264958,-0.0017009144691314847,-0.0005112394703237672,0.000683487659536659,0.0017414216191721436,0.0025761818421497994,0.00315784269404112,0.003499002648523007,0.0036385449207908586,0.003627422800838083,0.003514898643592167,0.0033352461586728774,0.003098369397365264,0.0027863542598398953,0.002354132536201644,0.0017341250077873042,0.000851928887005197,-0.0003383492431328272,-0.0018035135624883585,-0.003390600786346813,-0.0048308928080460405,-0.005807810644376305,-0.006071407708161085,-0.005547268811820342,-0.00438015872317061,-0.0028826494009682457,-0.0014103553119144852,-0.00022619461405275893,0.0005795904493148848,0.001080733381360473,0.0014340069531828246,0.0017771341832357244,0.002158897977093918,0.002529306002778683,0.002784139667873213,0.0028350696749073197,0.0026699737828415385,0.0023745814657650426,0.0021015785811733597,0.001994560974609749,0.002097329969733708,0.00229428003710873,0.0023239846352751904,0.0018805238509457135,0.0007719204087110036,-0.0009382919986887749,-0.002893003669072455,-0.0045530381308007545,-0.005419835112259736,-0.005254137368651834,-0.00416823925881756,-0.002546086840096295,-0.0008516738898269461,0.0005566095443384572,0.0015143083277599952,0.0020283300743152302,0.0021961567836719003,0.0021328570846714683,0.0019377386103107993,0.0016889650774466714,0.001437595668350142,0.0011892369431917087,0.0008894052346391699,0.00043892376548696,-0.00025193615995833816,-0.0011924281939348896,-0.002263999975630066,-0.003230044458600108,-0.003808053341926642,-0.003777366375808629,-0.0030756125998660337,-0.0018376640700230645,-0.00035338763474042465,0.0010427485763542486,0.0021019349954555554,0.0027480157505254898,0.003075039113374538,0.0032536993821796127,0.003396702579042125,0.0034636238194024377,0.003272793647658971,0.0026292826031583264,0.0015010168402427994,0.00012728553683991214,-0.001033808041003661,-0.001520236989045435,-0.0011345939277623133,-0.00010455159330648449,0.0009782125244136486,0.001427469949067227,0.0008017285555595997,-0.0008683852096941995,-0.0030825886889181437,-0.00509508864635871,-0.006240347628720904,-0.0061999074754238576,-0.005092259009995162,-0.0033635257211511492,-0.0015541434492418558,-6.7411444211171e-05,0.0009517042886536212,0.001589014224677212,0.0020271508316153145,0.002397713878325073,0.0027093453522098465,0.0028893356632567783,0.0029009382975174287,0.002842316415002308,0.0029354630514115787,0.0033829291037156383,0.004168944717652491,0.004943556020700336,0.0051028930521861415,0.004068149876135098,0.0016319546858984653,-0.0018288229930588625,-0.005422547092448621,-0.008087925148864958,-0.009044124767815213,-0.008111708406218221,-0.00574820157843024,-0.0028039424813027297,-0.00014315804389169865,0.001681923540668755,0.0025713666812259383,0.002803317136765633,0.002812108085709978,0.0029382729351493378,0.0032681150966050072,0.0036290570347319185,0.003727320992554023,0.003342455716730877,0.0024658830414252685,0.0013048441114078236,0.00015265473640369356,-0.0007924579813888541,-0.001543107819567889,-0.0022934435428312743,-0.003255644542870099,-0.004461935171789044,-0.005661753149242768,-0.0063932255786736435,-0.006205465054140036,-0.0049136484797295266,-0.002739583024319917,-0.00024756564297888275,0.001900955280751732,0.0032458931460162396,0.003719286723777208,0.0036266429336873525,0.0034353619604810186,0.003495893558557878,0.0038564685719276407,0.004271046449494162,0.00438073579493247,0.0039478192364492005,0.0030007350512656276,0.0018137559531848522,0.0007475750332453357,5.154850354501298e-05,-0.00026277627915538896,-0.00041693208678651326,-0.0007405303392753382,-0.001490725214761077,-0.0026996900645184477,-0.00411940215416928,-0.005294953576002206,-0.00574567332748888,-0.005182615899587172,-0.0036638378314548256,-0.0016051631429167116,0.00037451130760889057,0.0017121984447291334,0.0021425617938213683,0.001800656102928133,0.0011315450158120846,0.0006540720300848522,0.0007030408622680479,0.0012816627713492935,0.0020916399736642375,0.0027111533073687953,0.0028166376103600653,0.00233085807761867,0.0014293212945864996,0.0004177038549583559,-0.0004405062646314976,-0.0010484110678983397,-0.001489385539540386,-0.0019327121186254676,-0.002493017566675598,-0.003127937266733364,-0.0036340539687537924,-0.00374336734599757,-0.003263603827583322,-0.0021812164731751975,-0.0006722439546824263,0.0009746445818166836,0.002468433824079985,0.0035974540318027205,0.004254827263716107,0.004423394102425275,0.004153822249863161,0.0035543099468575232,0.0027830282947926533,0.0020229140052710707,0.0014321159138319102,0.0010880963299493812,0.0009561758168439855,0.0009028228953324967,0.0007488368312348009,0.0003371549543325381,-0.0004126702003841005,-0.0014789046679673774,-0.002741817968521265,-0.0040112396830928035,-0.00507095542656501,-0.005732705431499823,-0.00588645701531626,-0.005527243922585279,-0.004743170658639614,-0.0036680462020003382,-0.0024244690465824777,-0.0010907407740502113,0.00029095636471343814,0.001676911140749868,0.0029873209454768642,0.004103987109707422,0.004904917635040865,0.005313639256382,0.005331182237454341,0.005031313242305208,0.004523637022416306,0.003906995685120267,0.003236619247454698,0.0025160943663425457,0.0017112300752415862,0.0007761215708822155,-0.00031779706532878734,-0.0015562929276094473,-0.0028660356061593613,-0.004113169257585482,-0.0051210625260978,-0.005707106364005631,-0.005731863306443024,-0.005147214670934663,-0.004025838247592955,-0.00255585515103968,-0.000995033297534157,0.00040320189123337264,0.001463836168669534,0.0021337628168326527,0.0024779161485401504,0.0026328080199722096,0.002738978025029859,0.0028796545304558543,0.00304904764065382,0.00316279087724502,0.0031063926292853213,0.0027989711513588074,0.002238434315963026,0.00150102752233776,0.000694151906029689,-0.00010730393737583169,-0.0008966520907557754,-0.0017152373895642382,-0.0025873880725810977,-0.0034558593887800307,-0.004167336587282223,-0.004526039207930555,-0.004386820514738529,-0.0037309130390179267,-0.002678688695658427,-0.0014354290674647185,-0.00020657213384846326,0.0008691120361955364,0.0017391214062113115,0.0024117674791997138,0.002910330637768347,0.0032359684333479804,0.0033583980601107964,0.003236671690586365,0.0028563078511565443,0.0022596521919769925,0.0015483416844594262,0.000850884836901539,0.0002687537807944363,-0.00017014314164494554,-0.0005216191006003385,-0.0008879842963482579,-0.0013501779498187388,-0.0019070639005469312,-0.0024589384871923628,-0.002847554254257323,-0.0029311522655232824,-0.0026522674568116625,-0.0020613977353893826,-0.0012864694263459249,-0.0004692364642692909,0.00029323061757548935,0.0009706402708883359,0.0015792002793783631,0.002139089941742276,0.0026392365075357848,0.00302847698358066,0.003233259936137551,0.003188340389848319,0.0028637191869074394,0.0022757564122319078,0.0014785744567913889,0.0005407664559869329,-0.00047987377534309346,-0.0015474544714062588,-0.002634130746376236,-0.0036862357198306434,-0.004593858718715926,-0.005193369333578911,-0.005315899866290672,-0.0048631749773062165,-0.0038674303277726548,-0.0024948424511360484,-0.0009840144863367333,0.00044744106732158784,0.0016739592017982596,0.00267230005189731,0.003474354210900153,0.004102150786143979,0.004530607347390355,0.004699101479353564,0.0045587435726995446,0.004120356636597525,0.0034692984527520485,0.0027347868423978046,0.002030155228903031,0.001398712054629244,0.0007960218449920961,0.00011723679505481804,-0.0007460685331615492,-0.0018461896805042463,-0.003138955180771637,-0.004473993643848436,-0.005618289655469821,-0.006310473367327069,-0.006336110082125205,-0.005603135627943663,-0.004188169460245194,-0.002328830530634497,-0.00035740595437544536,0.0014015490729005775,0.0027279334108578942,0.003555627072303725,0.003954567497367435,0.004058573268739873,0.003980762017956255,0.0037643921165155148,0.0033937822047580782,0.002850292907629837,0.0021678625611334626,0.0014426942273671503,0.0007839741793904656,0.0002363934458279444,-0.0002688839846226818,-0.0008894942407429844,-0.0017724914855659253,-0.0029308733115377475,-0.004171963183414968,-0.005133358034484309,-0.005424377303244304,-0.004808503654599583,-0.003333023472672858,-0.0013347212317664553,0.000686928685221139,0.002269597429125574,0.0031643678876320134,0.00340482527315407,0.003241731837502522,0.0029861140907549866,0.002849019456514077,0.002861258918895498,0.00290457805040942,0.002818891195964527,0.0025097086443640303,0.0019896551705614325,0.0013386637105933545,0.0006230983060668372,-0.0001620546738699451,-0.0010843056564587685,-0.002202360995747046,-0.003479932896476519,-0.004744385966028419,-0.005724148416276387,-0.006150809950598011,-0.00587156432785301,-0.004911135226642236,-0.003453711404716668,-0.0017628922291314326,-8.88310941695799e-05,0.001391691688621029,0.002586216699497567,0.0034635450771449893,0.004024349795058444,0.004285355472818617,0.004279809783021683,0.004063526012697001,0.003713120492939711,0.003310153430816715,0.0029155584681428972,0.002546802256011776,0.0021718436661450815,0.0017271343124796786,0.0011526932291938896,0.0004237552727717227,-0.0004415907957584973,-0.001401111296957632,-0.0024123919619377585,-0.003434816939937542,-0.004402615234585875,-0.005192849948445643,-0.00562589312426523,-0.0055179626527117245,-0.004767280527526594,-0.0034257856420669857,-0.0017100394511197256,6.203216987508368e-05,0.0015798384749490927,0.002641593030177272,0.003203161279954596,0.0033595055350642733,0.003277236973062452,0.003114648117162129,0.0029631337540478434,0.0028285251184025366,0.0026528046994854274,0.0023615714843212036,0.001912828484261483,0.0013217820168490932,0.0006479938278556686,-4.728535940311783e-05,-0.0007456699652818777,-0.0014847661772995698,-0.0023221198630341,-0.003263357745598015,-0.004198379572323409,-0.004897558319662834,-0.005091338938936039,-0.004601697060021529,-0.003449769898126672,-0.00186865485418464,-0.00020713558500727797,0.0012208072756975995,0.00225488251490612,0.0029159776522798006,0.00334142176437692,0.0036777263325048263,0.003995371262257491,0.004267630164516567,0.004412895041846121,0.004362848062785724,0.004108014740878028,0.0036926477934685234,0.003167988506114063,0.0025416508786348675,0.0017622328025302925,0.0007525978275794033,-0.0005283082810690386,-0.0020336196319541847,-0.003618577912549594,-0.005080791236173333,-0.006233860247185431,-0.006980465154825706,-0.007345958996402066,-0.007444651875651954,-0.007382272717892315,-0.007142080100633365,-0.006532244282535412,-0.005255794477620173,-0.0030936465461537765,-0.00010405247089856524,0.003294945396589773,0.006437449221630091,0.008672160020941169,0.009630830039483725,0.009353764827234108,0.008216533078267824,0.006721493633838408,0.005281837818968418,0.004103514970861964,0.003192988023551591,0.0024450458920455237,0.001736983954561906,0.0009779175705337644,0.00010902053983323631,-0.0009129297292499155,-0.0021126949444842903,-0.0034649021539074204,-0.004856655017514031,-0.006080726511363332,-0.006880955805999493,-0.007039904283347947,-0.006470185783423648,-0.005262462518423165,-0.003661542156478472,-0.001978378824621011,-0.0004790847802822631,0.0006970024720170269,0.0015546255547962996,0.0021935021245279664,0.002724321912080193,0.0031970447431982746,0.0035784076316444442,0.003785225768212333,0.0037474843315421,0.0034593582381432187,0.0029859650163196042,0.0024223787333933285,0.001831567475598406,0.0012016217902386483,0.00045240087888468003,-0.0005063904718641732,-0.0016943258703933067,-0.0030016714897674514,-0.004190532502755185,-0.004964064152844729,-0.005076549615959013,-0.004434779798306501,-0.0031442528107268157,-0.0014796911563161707,0.00020660117039545658,0.001600021904097321,0.0025177704265358044,0.0029485906098338085,0.0030272441291679386,0.002957295704895935,0.0029152207221581745,0.0029763595250372407,0.0030939981164564267,0.0031384479793748698,0.002973586304949544,0.002528899638010433,0.001827657258758021,0.0009575725787349181,6.179746278299177e-06,-0.000992756867972974,-0.0020608867646637456,-0.003218973441360678,-0.004409780578191368,-0.005458084616352121,-0.006106709698632869,-0.006119328904256089,-0.0053960346930176616,-0.004036443997396443,-0.0023137323080680873,-0.0005719083381348661,0.0009021376212035937,0.0019712718107101966,0.0026667349376437617,0.003131643379620536,0.003522810004034012,0.003921464048473023,0.004296025903077672,0.004530846340526692,0.004498795257839298,0.004133720041998197,0.003463273543300335,0.002588033489160903,0.0016225074503641523,0.00063284573332707,-0.000391578468261592,-0.0015109183483074688,-0.0027598708309351425,-0.004065544923052781,-0.005214127281491941,-0.005903520297888539,-0.0058698924023529685,-0.005024824223839856,-0.00352271711382791,-0.0017124027406664084,5.727895893187498e-06,0.001339133719956518,0.0021937377393019234,0.002656112807802398,0.0028933606062240664,0.003039216431593759,0.0031312080877994148,0.003122919336984874,0.0029472681161359557,0.0025807669544901475,0.002066892577059084,0.0014883475593614995,0.0009105242580293002,0.00033406614674729644,-0.00031113529015791455,-0.0011192807856941073,-0.002126571145136256,-0.0032365838055171342,-0.0042044792491809264,-0.0047096900540347835,-0.004497698339794041,-0.0035213477260287555,-0.00199735931995867,-0.00033296984501567854,0.0010478491592941976,0.001886580683025646,0.002180992845164051,0.002138755080142026,0.0020293273242506936,0.0020269116357733105,0.0021357273361629686,0.0022315488183166535,0.0021783489649978903,0.0019345966167567282,0.0015773676527053972,0.001231948102273236,0.0009595739195750449,0.0006858985642417222,0.00023019820043300963,-0.0005677973013917237,-0.0016951602494663957,-0.0028907184282754776,-0.0037200029599922116,-0.0037865685734552504,-0.002971512778461414,-0.0015519953160395106,-0.00010205602369133893,0.000792572535883621,0.0008477061296339525,0.00023165667949545058,-0.0005411994177014624,-0.0009068683473027316,-0.0005554204129082805,0.00043103420222869414,0.0016615149659618613,0.002661940542624056,0.0031018139271008368,0.0029106205417623533,0.0022548831486982153,0.001419457999267533,0.0006650257025698188,0.00012216201219267822,-0.00024530736700648656,-0.000601476717587452,-0.0011405755375710007,-0.001967246043236202,-0.0030052945340724264,-0.003981976526653889,-0.0045095870235306555,-0.004244190065396874,-0.00305848614915688,-0.0011442180688463286,0.0010217593772355953,0.0028529684423955386,0.003898246065377736,0.0040342756400234235,0.0034994501009221156,0.002745604165748145,0.0021892752838875338,0.002003968368355441,0.002067439718600105,0.002080820691798364,0.0017742649680185165,0.0010708623374805213,0.00011749408617297966,-0.0008221225220624838,-0.0015360144291681973,-0.0019876316848525533,-0.0023207684854576953,-0.0027454776912613035,-0.0033764184785354655,-0.004123663226942045,-0.004704894324778187,-0.004776068755583865,-0.00410879910300631,-0.002717818681161041,-0.0008728201028038174,0.0010071334129771543,0.0025205737850731037,0.003432781552855867,0.0037437472236808962,0.0036518217772234665,0.0034356003489837083,0.003311615461936607,0.0033364757534418395,0.0034008619570344207,0.003314656997258748,0.0029310483652555544,0.002234266348351435,0.001338648964953974,0.00040424894120792264,-0.00047037995329072277,-0.0013018623877330442,-0.0021823242642158573,-0.003172421742034392,-0.004203192723970713,-0.00506032434744483,-0.0054694100548819055,-0.005232489921163318,-0.004333454698230801,-0.00295315387825154,-0.0013928722581176877,4.5204818488299566e-05,0.0011593235361704638,0.0018929199111098686,0.002318401316807192,0.0025784323006782647,0.0028107648930799653,0.003083217761526597,0.0033637790266257627,0.003541645080105723,0.0034927985910452484,0.0031562868131903244,0.0025748408203849936,0.0018708451468755357,0.0011690435009761313,0.0005142449834373791,-0.0001604559055020144,-0.00098798689444785,-0.0020642491919031936,-0.0033452254828155903,-0.004607589024338639,-0.005506093570366476,-0.005709849643320336,-0.005054127447370346,-0.0036302875899627534,-0.0017641482554410254,0.00011027732474050205,0.0016199428319086924,0.002581486908272101,0.0030304254289508174,0.0031474970862297655,0.0031330363245406145,0.0031016098456071715,0.0030480239002038606,0.002889153650731396,0.0025438787791833674,0.0019984366892777097,0.0013205378846117889,0.0006194227516966469,-1.964279997993955e-05,-0.0005852756643575194,-0.001143522689784876,-0.0017901236197665012,-0.0025743510574933086,-0.0034344689893240016,-0.004183543974451129,-0.0045631277736762794,-0.004348381070189183,-0.0034574590627879575,-0.0020088180987858826,-0.00029172835657024186,0.0013408805867426731,0.002605938332329345,0.0033837648134413074,0.003727673752234737,0.0037928023636031962,0.0037307340664148965,0.0036107531388239957,0.003407078994626671,0.003048756249343692,0.002490708150029171,0.0017536267784820261,0.0009047225936784618,-3.1448910584063773e-06,-0.0009807976527931657,-0.0020900899474088313,-0.0033631206395297996,-0.004704179291518411,-0.005852175123808629,-0.006452440911495742,-0.0062158961208346585,-0.005078137016409938,-0.0032600836464710637,-0.0011877623802448991,0.0006855011803241758,0.0020554705474334074,0.0028526814739589304,0.0032093264770884783,0.003345700048194171,0.003446655979031873,0.003587199248729029,0.003728872278830557,0.003770387754288122,0.003615544568368995,0.0032237130154559065,0.0026247857471805094,0.0018983918672068995,0.0011296295967011042,0.0003619837218811996,-0.0004271520232784734,-0.0013080847507825875,-0.002337635708845125,-0.0034836757176454156,-0.004581691444146477,-0.005360639795299612,-0.005540134158096378,-0.004958433492351767,-0.0036663158229766025,-0.0019328791574097638,-0.0001530003360418136,0.0013013636471305564,0.002214470522724888,0.0025840636470670485,0.0025835209409876257,0.002455390036131546,0.0023902837334105753,0.002446671549346315,0.00254536709511144,0.0025359168810219004,0.002295607655368715,0.0018042071799723545,0.0011510154305598226,0.00047088899373981486,-0.0001490170563825254,-0.0007282119701926325,-0.0013727121667482306,-0.0021820688175399625,-0.0031410409287410323,-0.004069263951623538,-0.004670389339103546,-0.004661724575243272,-0.0039139955351059005,-0.0025213680662952266,-0.0007626417182888833,0.001018867878116763,0.0025419634051706778,0.003651745823890774,0.004304806067306354,0.004514869467266597,0.004314618245535439,0.0037588816499022097,0.0029492221756391044,0.0020403420964529404,0.0012072588787999964,0.0005869631102290644,0.00022789400903358136,7.291391324124302e-05,-2.0644202235835013e-05,-0.00023608727816541969,-0.0007404123901011096,-0.0016219151191152331,-0.00283122947415787,-0.004149237408223528,-0.00521631063076318,-0.005641912748020367,-0.005167852692236391,-0.003810394746816957,-0.0018964700600730862,4.528398787475901e-05,0.0014999160554240467,0.002185786385996309,0.0021667405219433947,0.0017976557418407652,0.0015309849335338366,0.0016850263836874803,0.002293139759597276,0.0031068019140057107,0.003740806575233359,0.0038745587784567827,0.0034010671316970784,0.002453720145951851,0.0013120183417042457,0.00024815839541677826,-0.0006019448474886816,-0.00127947692149283,-0.0019380584416034503,-0.0027093965485138548,-0.0035741519461723425,-0.004317295086539512,-0.004606784570627407,-0.004164429779649123,-0.0029378407762455172,-0.001172161150836165,0.0006691192494293459,0.002100849313532594,0.0028286309757801897,0.002863981293327263,0.0024832538965797544,0.0020590724943086265,0.0018620216902941063,0.0019405135701844075,0.0021353708063524893,0.0022061355532855846,0.0019852058843885735,0.0014670427955359609,0.000785620153240737,0.00010488567162913532,-0.0004997277838361277,-0.0010876134890884593,-0.0017936067262730522,-0.0026983116180864155,-0.003712895856874514,-0.0045622449987421645,-0.004894970509058023,-0.004467408812898453,-0.003292667927938091,-0.00165774199247148,9.050220954203965e-06,0.0013425845309612435,0.0021944796435748,0.0026493541443845816,0.0029089628279210652,0.0031316770665097016,0.003333739727783079,0.0034068223552604377,0.0032241037384621225,0.002751191199054476,0.002082598018769823,0.0013809751341342343,0.0007646024511292108,0.0002240910495665967,-0.0003700702984184272,-0.0011681663810748423,-0.0022113295626289544,-0.0033553699131619657,-0.004301828369469619,-0.004724967012786823,-0.004425881884602039,-0.0034295812706701583,-0.001974973323148628,-0.00040842546624199675,0.0009580448019053029,0.001951132719377687,0.0025603362429107565,0.0028875970729709917,0.0030634181088067024,0.003174523735270887,0.0032290295897275368,0.0031630275714392628,0.002879560405701493,0.0023046503403789205,0.0014394019912914164,0.00038395634480442977,-0.000684505917232102,-0.0015783903443463618,-0.002184328475789961,-0.002521518707455221,-0.002733360371443204,-0.003002733760379017,-0.00342787950992127,-0.003931147083055571,-0.004267208205618147,-0.004142460466303137,-0.0033830001609198588,-0.0020482956470506413,-0.00041670896861640595,0.0011492435962112012,0.002373389520821407,0.003169592123619883,0.0036256773299215045,0.003893858535310883,0.0040686340103391625,0.0041309566117972586,0.0039858398436798245,0.003557007602008588,0.002867803165882566,0.0020514087053227926,0.0012827177834940895,0.0006754160139970155,0.00020974755632519152,-0.00026169246173751823,-0.0009283012985708239,-0.00190041556353359,-0.003118831567766315,-0.004346174942635691,-0.005248870679122468,-0.005531237139632448,-0.005056830173042184,-0.003900802565021851,-0.0023147644924493326,-0.0006290227051738314,0.0008589058466105988,0.001964772013869179,0.002644116669336019,0.0029654000746333177,0.003048001716940414,0.0029946754991811565,0.002850086102515056,0.0026041080904985452,0.0022322053739975626,0.001740280882241968,0.0011773016105215805,0.0006026690130960518,3.212833734699428e-05,-0.000591314901320239,-0.001366064569012491,-0.002345621482049146,-0.003446852249490236,-0.004418214683464303,-0.0049062769669785825,-0.0046028668070458275,-0.0034039203089142314,-0.001495976428285598,0.0006826917861241996,0.0025981201011523705,0.0038263784692468715,0.004214477838765241,0.003920798738265588,0.0033157037041568367,0.002791036419425092,0.0025737209471652536,0.002637275872551273,0.0027525399525034026,0.0026421581484522604,0.0021463697737281007,0.001304328322319794,0.0003078461686760857,-0.0006377462189498167,-0.0014537457675019197,-0.002235193925974476,-0.003167074938336254,-0.0043550342732094315,-0.005677029263322701,-0.00676103746259342,-0.00712555295192555,-0.006420876154130911,-0.004639465635982512,-0.002169185573260004,0.00035357213443407576,0.002320397511853289,0.003411525033263269,0.003704383538459157,0.003580123615725753,0.003488892692573175,0.0037060635261384114,0.00420694122835976,0.004714740241057188,0.004880178929957029,0.004484144126350183,0.0035511665343506095,0.0023191995045607405,0.0010954365749789121,8.955680090217072e-05,-0.0006796342084951653,-0.001358986229824132,-0.002142651773005962,-0.0031332911147432764,-0.004257312175956446,-0.005273091065002517,-0.005863741899745402,-0.0057701729836291335,-0.004906664930198823,-0.003409970960320212,-0.0015994254738820163,0.00013765057727542582,0.0014869734969818545,0.0023123074687934142,0.0026781339780540315,0.0027839707117945246,0.00284757691831616,0.0029969457538766286,0.0032219319529134703,0.0034025297779498166,0.0033911874876354367,0.0031007305289304137,0.0025492173739654674,0.0018386604363948569,0.0010836576166746638,0.00033682442302193833,-0.0004391831234580627,-0.0013317108287643417,-0.002391795340593181,-0.003554123602127357,-0.004616011383157962,-0.005296708116702268,-0.005352901603380448,-0.004692704528936181,-0.0034283024099606664,-0.0018387474325113375,-0.0002616256850676219,0.001031328331258238,0.0019145594927218487,0.002413092657023089,0.0026427979735284494,0.0027304412537785543,0.002759538056807698,0.002762511977480334,0.0027466857915250794,0.002722935923126678,0.0027100999478944362,0.0027090984197957746,0.002664673951005189,0.0024467893337742908,0.0018795002181260165,0.0008210042864080244,-0.0007359610301823411,-0.0025988114482822277,-0.004394483512773714,-0.005682903106060729,-0.006120440282601254,-0.005596294918859308,-0.004275010779589442,-0.002526004284814191,-0.0007769041557787633,0.000639640358008115,0.0015803146141782848,0.0020954413640599336,0.002355781478246479,0.0025463231188539025,0.0027783928366087265,0.0030534070037436765,0.00328179655088322,0.0033366077428403423,0.0031132132686260074,0.0025722180869060403,0.0017532856035931295,0.0007576844013782074,-0.00029270701881024374,-0.00130167435983845,-0.0022258257078018266,-0.0030648143850197595,-0.00381788062896203,-0.004434337282538459,-0.0047951396191602625,-0.00474706095338457,-0.0041779352274478425,-0.0030922855681929534,-0.0016412319573887138,-8.345187521644902e-05,0.0013079658939212616,0.0023470051646092517,0.0029932133771505237,0.0033389283375668552,0.0035350128724043663,0.0036963874051793117,0.003837464008316614,0.00387056094863574,0.0036667983664072246,0.003145300395900179,0.0023396932884201214,0.0014009617436328923,0.0005296935481885055,-0.0001284329576607678,-0.0005656772951760296,-0.0009231440045553518,-0.0014157786293792075,-0.0022043128387012603,-0.0032791810629047347,-0.004422054092195184,-0.005276335213352354,-0.0055016345415360695,-0.004936859071154542,-0.0036838918045925917,-0.0020630122818308997,-0.0004632434048170687,0.0008283749095504365,0.0017246972740405744,0.002317330644366603,0.0027636946353147675,0.0031613465932143784,0.003487649077206545,0.0036334056767603168,0.0034960781293888847,0.0030631040132427035,0.002428931074776107,0.0017376393237827441,0.001092328173507213,0.0004923167900403775,-0.000159626933793037,-0.0009815054221266474,-0.0020111514874645753,-0.0031397658236549074,-0.0041219395307844015,-0.004663492921728219,-0.00454706894209753,-0.0037345762609168423,-0.002395302086914848,-0.0008439242300900816,0.0005832518860864363,0.0016546165851415513,0.0023120034978455794,0.0026525207581283524,0.0028401862407156087,0.00299941676905499,0.003147841204215829,0.003200752561208821,0.003039671779888395,0.0026036224542427717,0.0019489658140988816,0.001238021897929465,0.0006540180549115073,0.0002845097907547945,4.304764294820902e-05,-0.00031170423645251175,-0.0010509252868513884,-0.002302009492154086,-0.003923669074291235,-0.00551103884260888,-0.006543903587593615,-0.006610107990908758,-0.005591885561757923,-0.003722080926134422,-0.0014869280691937983,0.0005703238315254002,0.0020484548578981786,0.00280496527474195,0.0029561749839075984,0.0027832137153814404,0.0025992373679971847,0.002632571722319796,0.0029584616949044984,0.0034891245149760767,0.004018341094570316,0.0043068940658417924,0.004179670957879941,0.0035906627636397366,0.00261938840409803,0.0014014111916139907,4.3799114713746496e-05,-0.0014083079130490102,-0.0029256978655899275,-0.0044065985791391675,-0.00562354108007929,-0.006266117882363044,-0.006075382459975994,-0.004998202998062905,-0.0032656498693805188,-0.0013352683828244112,0.00028814330833279813,0.0012686850254284752,0.0015823521347928726,0.0015096610674091304,0.001475390281984021,0.0018128039714938446,0.0025746590611703175,0.0034963004024469325,0.004138101302543494,0.004131742396954924,0.0033876162723461617,0.002137915422347581,0.0007896709802711459,-0.00031726771166315124,-0.0010920925494316792,-0.0017012865954998755,-0.002404260386134986,-0.003327499281534256,-0.0043247149282517544,-0.005014843560777362,-0.004980295114041577,-0.004010985629419138,-0.0022508129040768547,-0.00015805920508726767,0.0017019672807827575,0.002917171754005431,0.003397956190837298,0.003367421291901186,0.0031897870796401308,0.003144586928509399,0.0032764744355582576,0.0033968748856029315,0.003222223396045753,0.0025596054524297273,0.0014326680755710635,8.219377769768201e-05,-0.001151180345369358,-0.0019919154279698335,-0.0023529327549526844,-0.0023585514425807164,-0.002264752846446617,-0.0023230920589358247,-0.002653752694471834,-0.003182850556928871,-0.003670344818053567,-0.003818229199353438,-0.003413091666868784,-0.0024363758005845576,-0.0010851310585484099,0.0003119589146083309,0.0014436510087096305,0.0021542006429893833,0.002497788959746935,0.0026799707607733595,0.002918658571151049,0.00330443108753865,0.0037428282617407863,0.00401327529214043,0.003907453880512475,0.0033605944657876807,0.0024950713850519545,0.001551601851125947,0.0007510229333731192,0.000167527757461235,-0.00031472350021149293,-0.0009345953629002748,-0.0019063308791180296,-0.003265222264114435,-0.00479146210125012,-0.006064143367952844,-0.006631279094338502,-0.0062159487224873276,-0.004852712689582093,-0.002881307427731488,-0.0007998118801395893,0.0009462027740913571,0.0021311908044095093,0.0027949622114342007,0.0031557089597124208,0.00344925696168903,0.0037853295669948925,0.00409478245919732,0.004189033130590018,0.003892056081020958,0.0031658938131383482,0.0021535060444310083,0.0011095552868769605,0.00025694857199282345,-0.0003445010284103681,-0.0008325685100650137,-0.0014501440627494502,-0.0023732248092564142,-0.0035604816903939,-0.004719831716069146,-0.005422378876778931,-0.005307689988512035,-0.004269539832966406,-0.002521472197701387,-0.0005092255610755199,0.0012801698093020926,0.0025131502095790343,0.0031157211001610957,0.003250904981885064,0.0031931331997491885,0.003171212934821836,0.0032592812828056076,0.003364501155416039,0.0033077715162397135,0.002945651424196034,0.002262085930165457,0.0013776394196937675,0.0004725469500529246,-0.00032774039468374557,-0.0010301993356811613,-0.0017601540887435632,-0.0026573944044920588,-0.0037451437377089224,-0.004858382060501959,-0.0056854443732671876,-0.00590650704620235,-0.005350825038088734,-0.004082779593459493,-0.0023719148735357903,-0.0005722889170115971,0.00101561397497635,0.0022298748780439216,0.0030523983568890986,0.003556607365589735,0.0038411769718395966,0.003982522131801612,0.0040150857758606134,0.003933481754146787,0.003709024756611479,0.0033151635778633113,0.0027531895204746673,0.0020644397069155664,0.0013176451767736529,0.0005738280071192104,-0.0001513227762471003,-0.0008998399480477111,-0.001741688389488632,-0.002711895120961232,-0.0037494061612399023,-0.004679410732155812,-0.005260811856365939,-0.005283022116946296,-0.004664035882860436,-0.0034962316983116765,-0.002013313812926191,-0.0004960782260409989,0.0008313987495816803,0.0018619495550366329,0.002599418786503309,0.003105008997000996,0.003437331927194167,0.0036205173347970514,0.0036478125230794576,0.00350426144833793,0.003186788383013817,0.0027103498946346102,0.0021008857995358484,0.0013812174847056267,0.0005578087304982596,-0.00038106447445615055,-0.0014457196926436263,-0.002605330322160359,-0.0037487755868838455,-0.004678410626161051,-0.005157663294723152,-0.005001384356805824,-0.004166371557414406,-0.0027916400594686515,-0.0011611136977013972,0.00039784529031820716,0.0016322490918987416,0.0024412264205353152,0.002878804973392369,0.003086314005852259,0.0031950901380751067,0.0032537420523542234,0.0032177262450252472,0.003000805577102822,0.0025498786083435945,0.0018909755876593483,0.0011156989857310207,0.00032090514797972815,-0.0004507244039551364,-0.001221756770294878,-0.0020313718861996065,-0.0028612350547661198,-0.0035916072153309585,-0.004025677749765891,-0.003975852906919052,-0.0033646644795183645,-0.00228147093488133,-0.0009610665297387577,0.0003050737373085121,0.001278777961877052,0.0018541687601642792,0.0020749249124365687,0.0020905187723917478,0.00207638429879741,0.0021529334964071516,0.0023351729047184208,0.0025319880229037967,0.002595076172202503,0.0023959996722845807,0.0018937531923772849,0.0011554792155121622,0.0003156535276917569,-0.0005039568707726671,-0.0012626397074332477,-0.0020089964928359638,-0.002817937699149617,-0.003694722711909238,-0.004511969184586363,-0.005029941030850636,-0.0049990700123641735,-0.004289412594541624,-0.002971414306498204,-0.0013004150766893366,0.0003856583676445425,0.0017983795256895823,0.0027936098426395786,0.0033897122310966935,0.003713478485647625,0.003911159185705944,0.004070316150581645,0.004184431725682999,0.004168952150037809,0.003916038326556846,0.0033608079907786804,0.002526583647872878,0.0015239246226513446,0.0004994970264637151,-0.0004405345536492947,-0.001287552920181046,-0.002126792048337015,-0.003063578828100358,-0.004115394398891716,-0.005136791186280189,-0.005836849055794863,-0.005899294369475809,-0.005149316839741836,-0.003671975412785161,-0.0018060762947847597,-7.1205496938333114e-06,0.0013501534427641103,0.0021236399339808337,0.0024309598914504316,0.0025438276999633167,0.002714934072354712,0.0030363038728768938,0.003404706590395933,0.00360467493080514,0.0034519429914049793,0.0029085263953764506,0.002101638486955472,0.001238476519935945,0.00047296464826932617,-0.00018843018111385298,-0.0008769609638713146,-0.001748371795374747,-0.002835844100050949,-0.003966323787254316,-0.004802245720147326,-0.0049934473357930685,-0.004355016724807037,-0.0029709784283448617,-0.0011689766173693607,0.0006155169802348678,0.0020120381165482895,0.002842074237778807,0.003149027940280938,0.003130454998051212,0.00301581009465371,0.002952600879796909,0.002952425474614171,0.0029135160827765865,0.002697763727740343,0.0022175808222533056,0.0014889439410266916,0.0006259518734325972,-0.0002204368603614757,-0.0009491554121720951,-0.001572344904266355,-0.0022097764044534526,-0.0030024047657801803,-0.003985500978550558,-0.005000639918965991,-0.005717051937423264,-0.005771376070240967,-0.0049567341977506466,-0.003351977825427707,-0.001311447225406327,0.0006830901441337326,0.0022275520077830306,0.003149449309516575,0.0035377029333981415,0.003646162487125413,0.003732676587978018,0.003921606470355732,0.004157048619808814,0.004260988226873663,0.004054006186233443,0.0034657415981844547,0.002573799920657213,0.0015552868485286051,0.0005864121622956373,-0.00024792807190019187,-0.0009836454504685002,-0.0017325710749653987,-0.002590713595357721,-0.003551474206008959,-0.004473238189618077,-0.005123014382511143,-0.005277059129620546,-0.0048266473448909195,-0.0038325546948280997,-0.0025005636436609474,-0.001095082444296262,0.0001604784486620922,0.0011480034048766952,0.0018611934299212402,0.0023636496826899794,0.0027284089751278924,0.002992152117615002,0.0031447501607507304,0.003152654646966511,0.0029946120036740227,0.0026829667647721932,0.002257112013702208,0.001757208040562659,0.0011996310526969844,0.0005721689362379327,-0.00014768312779151068,-0.0009617441732130002,-0.0018236543130459326,-0.0026294923280522344,-0.0032350273586596845,-0.0034979733489150346,-0.003330611304392026,-0.0027385645969124793,-0.0018243317254229498,-0.0007521015586155204,0.00030659144145920176,0.0012160470885609832,0.0018893500178084647,0.0022769654809110004,0.002354833010383089,0.0021315098344857055,0.0016707451124308788,0.0011037499709242874,0.0006047150877418342,0.0003272596484555027,0.0003310569148215081,0.0005420757839851807,0.000774255845860134,0.0008049206092804825,0.00046584455763328924,-0.0002927083655957096,-0.001386401531718668,-0.0026231034121091054,-0.0037501302663777436,-0.004506035288637446,-0.0046723486374894395,-0.004125197423638344,-0.002879896851359778,-0.0011117579886247323,0.0008653042507080796,0.0026696778612364937,0.00395926324685353,0.00453993495696442,0.0044284423244705315,0.0038334870315321424,0.0030553465906556793,0.0023511767866704475,0.0018377658777343228,0.0014822277552970972,0.001174081835520365,0.0008203008622960465,0.0003967831188786421,-7.037976588352194e-05,-0.0005646818484867073,-0.0011211853866424338,-0.001808464758561453,-0.0026569648004666734,-0.00358506667052431,-0.004383009345095614,-0.004780366458342695,-0.004567441087794861,-0.0037026654602055377,-0.002344042519349911,-0.000788468880565776,0.0006447343602816993,0.0017258658309061104,0.002376221344876429,0.002664743223681701,0.0027516773870622123,0.0028037797261994397,0.002913250024941647,0.0030564403646384714,0.0031166487168408277,0.0029614155259979243,0.0025264874053493635,0.001848920493533539,0.001026467792794306,0.00013734434533841603,-0.0008115584986016105,-0.0018593265759040943,-0.003001129626843653,-0.004103341055618933,-0.0049002236897515376,-0.005096220132063279,-0.004521620147914158,-0.0032450600146412224,-0.001567671574426149,0.00010345248095982684,0.0014311943203359789,0.0022763103462642735,0.0027134556553300403,0.0029384960249124055,0.0031289109404611056,0.003338368727261623,0.0034800223371824635,0.0033988756241328313,0.0029833992124299923,0.0022478749552800985,0.001337663544931405,0.00045525343528995905,-0.00025059579129726165,-0.0007694066243208435,-0.0012357637943949049,-0.001846164177576891,-0.0027239536541848854,-0.003806489446214234,-0.00482665279157009,-0.005413593915590768,-0.005267215939768638,-0.004311132099862702,-0.002736303471078607,-0.0009120859454850428,0.0007787472545061108,0.0020840416538026848,0.002933403446620164,0.003391866371610591,0.0035695761345922146,0.003552334806632863,0.0033852020135903185,0.003097139124066242,0.00273078004010186,0.0023477031033295385,0.002004011689138864,0.0017138944767108293,0.0014269402480230858,0.0010370317649800475,0.0004241126084228565,-0.00048564743506681923,-0.0016650767975767448,-0.0029616496770714417,-0.004121044427774444,-0.004859266400403758,-0.004961443849542279,-0.004367320635839006,-0.003202349859204362,-0.0017348844712777715,-0.0002761280595093783,0.000930065867135171,0.001775583919084859,0.002287233334819869,0.002567553913103631,0.0027166878483564022,0.002778797023662299,0.0027368613818486006,0.002549553515629942,0.0022003246752631015,0.001723868843226608,0.0011906170979190493,0.0006576352613430285,0.00011939331118302789,-0.0005014795664732507,-0.0013034403641322327,-0.0023146203263307843,-0.00341545088071151,-0.0043349965954842746,-0.004744535649831662,-0.004411359432318177,-0.0033290573330022446,-0.0017436274719231848,-5.2611010391034795e-05,0.001368165252698657,0.002311676032224948,0.0027826903954757884,0.002928881573646456,0.002921131918378979,0.0028638856423679406,0.0027788241663461175,0.002645792593915933,0.002451027184221456,0.0022038390860329086,0.0019195884992158439,0.0015939634608181587,0.0011928096854083435,0.0006629947893661945,-4.4742017856158785e-05,-0.0009502689270236228,-0.002019875206894144,-0.003148566693572104,-0.004160824836025494,-0.004842551937216723,-0.005003738570229123,-0.004550656455198381,-0.003533933666459178,-0.0021458196423903494,-0.0006631022807723047,0.0006424614426518684,0.001589906179463746,0.002136405093793656,0.0023676100381408655,0.002436903819085856,0.0024829820374358143,0.0025659791584001705,0.002652675728581643,0.002654232634684381,0.002490160678613419,0.0021382262255741804,0.0016410750903648231,0.0010693834281458778,0.0004693852573863363,-0.00016763291940739074,-0.0008899417240819827,-0.0017291932268535142,-0.002637137436330976,-0.0034598577379063005,-0.003977148481768129,-0.003995295072261933,-0.003443522938494723,-0.002416389656301394,-0.0011362798396321815,0.0001396672526260891,0.001212838742554442,0.001990165194376245,0.0024746962963953195,0.002722689754748463,0.002799639055664404,0.0027556440619800823,0.0026222715156188348,0.0024208773779457017,0.0021694087908483393,0.0018791684188791007,0.001542266746682495,0.0011200080857313144,0.0005459462733271793,-0.00024850108997211205,-0.0012903850252740739,-0.002520814382937918,-0.003774094918485382,-0.004800314617397346,-0.005333587908238592,-0.005184054436161458,-0.004315384271587696,-0.0028720350283903814,-0.0011408711174233244,0.0005406452733374173,0.0018942658692346086,0.0027831322883459303,0.003229956460440355,0.0033646200180652793,0.0033327680778910728,0.0032195135015673283,0.0030303311351737956,0.002729827071280009,0.002298127366452996,0.0017559254645894925,0.0011396504741989421,0.0004532620339775977,-0.000353107186477171,-0.0013442403420509843,-0.0025136086967524557,-0.0037062531127112254,-0.004615539650485138,-0.004881263232458357,-0.004253948626845901,-0.0027422189761136884,-0.0006594097451994094,0.001465985407144974,0.0030828147420732944,0.0038280120737306895,0.0036602905838380943,0.002855078151002003,0.0018627322177281538,0.0010984359666040247,0.0007673482655861476,0.0008093644145657,0.0009807147680588623,0.00101310570630252,0.0007527797358298944,0.0002053865409732993,-0.0005194669932198097,-0.0013046199279519635,-0.0020848201538016626,-0.002830503966130652,-0.0034826929664040366,-0.003907390684687888,-0.003923744904669794,-0.0034011327558442547,-0.0023613690667303095,-0.0010089295326643146,0.0003440764088717041,0.001420886581214026,0.0021056359674686055,0.002473804442160183,0.002709416610372937,0.0029641505529958328,0.0032522279336816393,0.003450895265497614,0.003402361149073408,0.003039577401181204,0.0024402476388275004,0.0017673641782636272,0.0011412025633176473,0.0005412373521774288,-0.00018323754443836564,-0.001192599473290922,-0.0025049914208883765,-0.003918261722039478,-0.0050664246483084815,-0.005584556015875807,-0.0052852934072654435,-0.004243469103680228,-0.0027459055659553003,-0.0011470347379222705,0.00027911216400417014,0.0014119730880636076,0.0022613203887141787,0.0028861536213416967,0.003318703778268663,0.00353870093108594,0.003502110243591582,0.003193753978240263,0.002663058866661112,0.002016771063950224,0.0013699092927527798,0.0007821898073940747,0.00022011803706977818,-0.00042285579830466204,-0.0012457355212301922,-0.0022379911404752993,-0.003223022670781667,-0.003901148928400435,-0.003988597056326553,-0.0033792394825020193,-0.00222646135411304,-0.0008838148315571327,0.0002673535091562258,0.000999875678561476,0.0013229531052313865,0.0014230465784189185,0.0015144709245305669,0.0017028270859429247,0.0019435465188218717,0.002105379159368562,0.0020796506134261603,0.0018559900491987903,0.0015194379936228665,0.0011811028362525133,0.0008948657739169049,0.0006148367350223585,0.00021857967873251322,-0.00041755033194477894,-0.0013307339247836795,-0.002416012676866346,-0.003432661684959512,-0.004077083690408127,-0.00409801678737021,-0.00340739932854684,-0.0021349273592976186,-0.0005937258089016668,0.0008355573664099638,0.0018531173032161935,0.002351612439491154,0.002436864238639307,0.002347824833850584,0.002317564668236007,0.002448441621186844,0.0026671666754385336,0.0027807533110095223,0.0025966483869224845,0.002034425611483779,0.001164895476024829,0.00015954202693119375,-0.0008114968288906398,-0.0016653897302711218,-0.00242264470241714,-0.0031463444600594082,-0.0038482082223779087,-0.004427194419084086,-0.00468617773515801,-0.0044230354784773164,-0.003545865089092185,-0.002146518765729937,-0.0004892201762645887,0.0010837579270915937,0.002284102284381425,0.002981473569109753,0.0032274379101338716,0.003190899724435392,0.0030475397355720687,0.002891293062649129,0.0027168061449518604,0.002470570024669439,0.0021223875022995413,0.00170101139731514,0.0012709269407142044,0.0008737830012612349,0.0004837140302846705,1.5014602625104158e-05,-0.0006163610739740076,-0.001413772589285563,-0.002254967419215228,-0.002916916943264709,-0.0031673020870275313,-0.0028790128284430336,-0.002105276333654728,-0.0010694384758728412,-6.865220836736329e-05,0.0006602037958781295,0.0010403632889532406,0.0011651271397525888,0.0012101120644210635,0.0012941657893653729,0.0013688250187953554,0.0012110100832645003,0.0005462960967991678,-0.0007444394626471788,-0.0024490239800361445,-0.004006994167657701,-0.004713199772566876,-0.004073879476258041,-0.0021267716597043406,0.00048326848149428565,0.002761025693287215,0.003836150835346146,0.0033941836993372004,0.0018154419013695746,-5.1685054211035066e-05,-0.0013398404314262204,-0.0015734924242340159,-0.0008278641497961177,0.0004112191563283832,0.0015626443481475127,0.0022428294879981883,0.002389254364802005,0.002190451346469943,0.0019075093630631192,0.0017099095591016189,0.0016108010889511416,0.0015120460603734501,0.0013060146347709414,0.0009598896248285853,0.0005316196673034006,0.00011496995914981939,-0.00024391455021313137,-0.0005982360551938316,-0.0010793440141391327,-0.0018072183868757875,-0.0027836563045304636,-0.003837080577823767,-0.004663254847363173,-0.004950832318460418,-0.004527486744095107,-0.0034460562491704476,-0.001963578617804773,-0.00042867272458550786,0.000857481353536025,0.0017362311414579634,0.002209098015206353,0.002391120410411255,0.002438152438225147,0.0024828384140971114,0.0025960311120481637,0.0027749174715885378,0.002952679337310324,0.0030240159740758154,0.0028803048913292237,0.002444924216263057,0.001696614036877135,0.0006728342485507592,-0.0005431829473654544,-0.0018373869565473724,-0.003069858447821934,-0.0040740442396633636,-0.004670132216442988,-0.004708842309725796,-0.004136737009461178,-0.0030467312328215836,-0.0016728480023078572,-0.0003148683266285,0.0007790793370026867,0.0015132160208265802,0.0019710954231151137,0.0023481378642443494,0.0028217390060517105,0.003430605606982482,0.004035408573590372,0.004388602252600876,0.004275499604170414,0.003642298916734042,0.0026316806172197813,0.0015022727541033614,0.00048034081681979507,-0.0003649881208940202,-0.001144689725022366,-0.0020538454239692914,-0.003212168632484782,-0.004537698142420651,-0.005735113560886754,-0.006415621043573943,-0.006287383541491892,-0.005310034939110154,-0.003723771171416113,-0.001936156762977808,-0.0003347189151265024,0.0008644964992063481,0.0016521650040893466,0.0021457584375896843,0.002469390781371059,0.002681896306480706,0.0027893740003848747,0.0028058146713192188,0.0027900124440407995,0.002813497332118964,0.0028794898086494055,0.002865852452213233,0.0025626185360984677,0.0018112566927099543,0.0006678025286179635,-0.0005321598078876573,-0.0012890738098127667,-0.0012066085669628383,-0.0002654524769307347,0.0010793234770772667,0.002077465623205662,0.002071270301412033,0.0008751166866852842,-0.0010894669365262436,-0.0029994507481605976,-0.004059782332166344,-0.003901457054491563,-0.002724304677602528,-0.0011303918180443151,0.0002220890893270544,0.0009326606310141382,0.0009806350034003177,0.0006280291093461966,0.0001987754984160519,-0.0001219855600439399,-0.00036219616734261325,-0.0006912379207029897,-0.0012647522501320865,-0.0020847437893097387,-0.0029544485258003106,-0.0035502450893731725,-0.003570018479013522,-0.0028792755569600117,-0.00157969132289493,3.327387260041218e-05,0.0015986071233241054,0.0028355963417441466,0.0036346629845020887,0.00405510635342285,0.004243338002242251,0.004324897370072147,0.004331474454518215,0.004198577267249007,0.003826498306065871,0.003161583872746486,0.002245800385844086,0.0012039546241729047,0.00017682872529174113,-0.0007573632200013553,-0.0016214927671141474,-0.0025083921649063363,-0.0034925226081115573,-0.0045353117137407,-0.005446485924826603,-0.005937809465069477,-0.005753096315598295,-0.004808586426590896,-0.003262980207931466,-0.0014700870788730558,0.00016770525309959812,0.0013688571626414544,0.0020742213894383923,0.0024289994204022376,0.002662422469562695,0.0029394285493397204,0.003270036528185997,0.0035230664875888964,0.003526359185353307,0.003185033547306896,0.002542688241040902,0.0017502772595287819,0.0009672725069066603,0.0002619850730304768,-0.00042243270147960654,-0.0012111665937302825,-0.002182353762177726,-0.0032649624914041493,-0.0042187909887882865,-0.004719187722075971,-0.004506547058917503,-0.0035208987008317916,-0.0019492093475442394,-0.00016062112132123984,0.0014371216750089452,0.0025499982057820827,0.003089428657300677,0.003167958124462073,0.003010894269539673,0.0028330215783284626,0.002740559238487178,0.002701224300621827,0.0025890872614450448,0.00227262454628129,0.001693106493371397,0.0008894131375928566,-3.86978509054446e-05,-0.00099625591152514,-0.0019378509134077636,-0.0028600094169179903,-0.0037494417842447664,-0.004527881813824585,-0.005038100851957161,-0.005090273499438081,-0.004550017423067125,-0.0034214896294461356,-0.0018769000803404976,-0.00020967337305898242,0.0012710626354707638,0.002354173133710215,0.002991815147489059,0.0032849426690519604,0.0034007778506002125,0.003470935789038674,0.003527792956483461,0.0035111071254195045,0.0033315742330163236,0.0029421911024990867,0.002367057214335502,0.0016720250700508086,0.0009065612095535109,6.719046767952863e-05,-0.0008850797121665241,-0.0019626415490775957,-0.003087868888727865,-0.004075847479419151,-0.0046844453103916765,-0.004713521000361582,-0.004104297960080073,-0.0029841724302529194,-0.001626537366188758,-0.00033944813269933395,0.0006621473636516979,0.0013330108912681564,0.0017812430371886773,0.0021700375228437966,0.002598766325458344,0.0030387276053771587,0.003362454914482838,0.0034388262435724407,0.003217267547888018,0.002734168836643157,0.0020404452259696866,0.0011202249260326507,-0.00011342141060961988,-0.0017180365548179887,-0.00357993335252844,-0.00534622801307022,-0.006512217528622682,-0.006642193399530588,-0.005600456122989508,-0.0036470095153777653,-0.0013317329477647612,0.0007525476479294775,0.002214623526095079,0.002978869002950343,0.0032325500207316614,0.0032678918555822984,0.003321230694904993,0.003484531915526303,0.0037049719690164587,0.0038425193652258235,0.003744953103948411,0.0033129790085836886,0.0025417963544788194,0.0015298253339207516,0.0004481298550528406,-0.0005246595245922891,-0.0012791167410383495,-0.0018280004221192493,-0.0023038996607971903,-0.0028924000001506384,-0.003723600942146593,-0.004771059946530997,-0.005812743746711829,-0.006486194316566196,-0.006426704714429986,-0.0054332457234411305,-0.0035859059644287932,-0.0012535190809123274,0.0010244997264006388,0.0027422411848670503,0.0036353015054832478,0.0038005389646871036,0.003663502186525511,0.0037884066718151393,0.004596348736963121,0.006112778662552545,0.007875587362046193,0.009080806474557286,0.008931608617189538,0.007035326005804242,0.003637216435269822,-0.00045471544552001385,-0.00422892300504484,-0.0069150924321610165,-0.00826324557835414,-0.008518124593933599,-0.008147489421331576,-0.007524779194864331,-0.006761799734454479,-0.005758077430681095,-0.004384653861671485,-0.0026521000330869534,-0.0007539896847474836,0.0010211856654097557,0.0024321725498978,0.0033848737919874522,0.003937115393268641,0.0042220022255933624,0.004350204285792877,0.004354136498225426,0.004200524608550999,0.003850087018870652,0.003315475303533868,0.0026755500278694347,0.002036124998509718,0.0014621197732995043,0.0009244247783613522,0.0002993114442144051,-0.0005675602293318359,-0.0017559346512801088,-0.003177471111854381,-0.0045530996243920655,-0.00549280174961433,-0.005655634690852358,-0.00491568313272257,-0.003443279629324711,-0.001647425689085955,4.042174072812154e-07,0.0011712745697361544,0.00180237450831892,0.0020746137968826505,0.0022656451444506395,0.002571393614090516,0.003000558251093318,0.0033933818443280246,0.0035371850524156772,0.003298544117877639,0.00269385480763641,0.0018664041777557258,0.000994767970106944,0.00019204206007292788,-0.0005456119299979633,-0.0013133731502648835,-0.00220981627218865,-0.0032350523545080943,-0.004233737828572442,-0.00492347776297402,-0.005007606204732204,-0.00432330232667244,-0.0029473188794749473,-0.0011944489397304788,0.0005018038968487371,0.0017702382528225178,0.002451162494252188,0.002636791409435886,0.0025863153190512746,0.002567172199352208,0.0027109811106480267,0.0029595751046467967,0.0031225671130496162,0.0030036033547493324,0.002515084042674234,0.0017138360114072003,0.0007454416066488972,-0.000253999932120858,-0.0012245758741295544,-0.002171012060230808,-0.0030866936347981704,-0.0038780086277650757,-0.004357696210876657,-0.00432712098165315,-0.0036991113610016185,-0.002576166060128126,-0.001223790897217516,5.079533817987187e-05,0.0010400217008815875,0.001710734125314571,0.0021715948224392393,0.002561758664949798,0.0029367253940713644,0.003225012441576914,0.0032811864259783283,0.0029971930733329218,0.0023949514628471913,0.0016343620002923086,0.0009254554781610448,0.0003963906589890978,1.1698961262496775e-06,-0.00046668798805605063,-0.001246459023789101,-0.002429649472634716,-0.003831313366507964,-0.005006545434718433,-0.005433356775935722,-0.004781913913352692,-0.0031205057127358824,-0.000925017331385917,0.0011340091339690458,0.0025145908190502162,0.003048345905750014,0.0029638405249337455,0.0026866398226526476,0.002556208738954387,0.0026430045917213343,0.0027682279467267225,0.0026860131860192726,0.002283207972736912,0.0016525660376394068,0.0009946972607418427,0.00043121108858642804,-0.00012151027435292777,-0.0009086235843719513,-0.0021362899578749738,-0.003748797679534747,-0.005350358933625078,-0.006351211230387104,-0.0062651203175195045,-0.004976230970619677,-0.0028099803733917044,-0.0003733046554591987,0.0017260059740383733,0.003115245069285067,0.0037393110252549365,0.0037891600713417677,0.0035531821659636528,0.0032788970739605653,0.003095528360531151,0.003004999868205985,0.002923043309554802,0.0027420658112202847,0.002385875275338845,0.001833452351532038,0.00110661561506424,0.00023800072164150104,-0.0007522900096316736,-0.0018498566707415556,-0.003009901415577228,-0.004117043523791825,-0.004976405279546552,-0.005358457610508407,-0.005088584042267301,-0.004139690681072772,-0.0026743711740053753,-0.0010037986089757318,0.0005253421111551217,0.0016629022341985607,0.0023400832562909656,0.0026647327228287165,0.0028325853764100723,0.0030048494024411737,0.0032196257467010858,0.003383792419943535,0.0033444344279876595,0.0029921332172781027,0.0023304757518876704,0.0014687397618513792,0.0005453899210636224,-0.0003625350785921036,-0.0012770684795166578,-0.0022713054779608735,-0.0033632915925314475,-0.004425526638094677,-0.005182891542132573,-0.0053201249386167875,-0.004647691250784474,-0.0032291200654616637,-0.0013871142613666022,0.00042533333157013383,0.0018219613649860058,0.002640896386397514,0.002979413682636492,0.003094078166581385,0.0032300810910443523,0.003479513884534281,0.003745857891194697,0.0038262126326289838,0.003553427194560414,0.0029079001314236356,0.002031023999232426,0.0011346627344853508,0.0003662056337268226,-0.00028283887599522253,-0.0009633507458116422,-0.0018547988436171078,-0.0030198385411740153,-0.004318065237226304,-0.005436053731954209,-0.006021903185721908,-0.005849964939874962,-0.0049238390645323605,-0.0034645425868983434,-0.001800647255510491,-0.00023125417482293008,0.001064020723257257,0.002037731520328413,0.002732636911375311,0.0032300737350673663,0.0036160886391916917,0.003960645559815415,0.0042920894109189575,0.004565328461116647,0.004647704439474131,0.004351425238770318,0.0035148208586473087,0.002095326426021336,0.00021858112467975852,-0.0018496404835494462,-0.00379186971192662,-0.00533192340449524,-0.00628107579376473,-0.006530207680611782,-0.006025719684530555,-0.004773654881018783,-0.0028804080353575356,-0.0005927705258526471,0.0017146478061255397,0.0036265913686033555,0.004818842015504321,0.005169253331970296,0.004789238957889668,0.003958621444412573,0.0029976464102929737,0.0021416479057550725,0.0014786445314862147,0.0009692503223382376,0.0005166621986724765,2.9438681698740437e-05,-0.0005589636463016416,-0.0013017381387106515,-0.002238277914111209,-0.0033538783183586006,-0.004519774688453796,-0.00547090465587524,-0.005869220224176777,-0.005445303932074011,-0.00414838459178519,-0.0022122079798824615,-8.401131622119739e-05,0.0017561934991399885,0.0029919298407910058,0.003578657097659541,0.0037125359457941785,0.003685864514787182,0.0037140220432350015,0.0038282976387174297,0.0038879302517890726,0.0036964556472920363,0.0031484254436223913,0.002315031352301252,0.0014125924356007623,0.0006683999851955744,0.00016420137187032413,-0.00024108989999490813,-0.0008467439385424708,-0.001921964747967058,-0.0034929040080344262,-0.005236552983274571,-0.006569941738221114,-0.006915630604138775,-0.006009546528742068,-0.004071060392156742,-0.0017212425247011371,0.0003178500882023154,0.0015757961063843735,0.0020390396571938227,0.002098628114719917,0.002281281218439013,0.002924663038866328,0.003980349341332292,0.00504655725642291,0.005598737777511204,0.005278032271836063,0.00407536580549525,0.002319439639484524,0.0004926158701946255,-0.0010093761898729468,-0.002038653025404567,-0.002699411791637873,-0.0032127121774646167,-0.0037358668185752137,-0.004246641172243613,-0.0045547857565195375,-0.00442443803857892,-0.0037274496374512583,-0.002534779026073488,-0.0010954388099176453,0.00027815478645086306,0.0013469997166149967,0.0020280249724744575,0.0023865656512990184,0.0025591692804894056,0.002662504866804889,0.0027407538893318593,0.0027704534569096715,0.00270412581718115,0.002515445610568695,0.002215795802074228,0.0018351836572127072,0.0013841908703415993,0.00082614855526178,8.48548049155159e-05,-0.0009061305371618966,-0.0021335003187049973,-0.0034544139406755847,-0.0046055199147717486,-0.005280694413698425,-0.0052472053306986425,-0.004444539444889039,-0.003017066668838776,-0.0012661990092014041,0.0004530626444858372,0.001845010762432366,0.002753104771580297,0.0031837591333609173,0.003272366572140214,0.0032072603563888264,0.0031410707291375886,0.003126452231035099,0.0031063158547057243,0.002963433508157012,0.0026007380479870397,0.0020031759284383534,0.0012415792635766414,0.00041656588276544476,-0.0004168497718646162,-0.0012852327017889636,-0.0022576142423493457,-0.0033488617484889625,-0.00443196130555361,-0.005233061875769549,-0.005436752825533762,-0.004854564905269918,-0.0035570600892931943,-0.0018792456257493374,-0.00028079160913035734,0.0008664716236152304,0.0014415592147613932,0.0015939828089960458,0.0016165858394349862,0.0017590366721028732,0.0020983378939185894,0.002533447795623344,0.0028843821135295564,0.0030146648810445336,0.0028964488057954094,0.002589068652973575,0.0021624115167001496,0.001627848819137998,0.0009284546875110521,-1.2511402987823493e-06,-0.0011425434851369191,-0.0023290483949078454,-0.003264042525221165,-0.0036260375067835057,-0.0032171408449571744,-0.0020777024259328518,-0.0005012937121314479,0.0010681241322554446,0.0022144501117766064,0.00271830668629826,0.002630136175051391,0.0022052894962320646,0.0017314447506247316,0.0013436508486832882,0.0009398397814566267,0.0002602954069984734,-0.0009022973364283921,-0.002485675707790544,-0.00408104558352081,-0.00507550644074201,-0.004962420288193051,-0.0036506542891150515,-0.001579153215801198,0.00045681269007919823,0.0016883630494388797,0.0017509106019001912,0.0008427609741962611,-0.00041458092734534017,-0.0013162915685741192,-0.001414340222156853,-0.000684250065389584,0.0005368311322995098,0.0017698813953666989,0.0026360461697101578,0.0030016585696219697,0.0029770017012367305,0.0027980207353923243,0.00267011564743896,0.002658432323101535,0.0026741131468015333,0.0025507747716171465,0.002157978015696135,0.0014826973568823204,0.0006334849449970989,-0.00022917744489786996,-0.000988501390349908,-0.001632037618739264,-0.0022407399766485826,-0.0029145464826563225,-0.003680587352392348,-0.00444060751916143,-0.004991704903438239,-0.005111633006247883,-0.0046622329260767965,-0.003655382516982791,-0.0022496424132308424,-0.0006851610761120781,0.0008055079743616695,0.0020666915481721607,0.003040837854561063,0.0037408252493095393,0.004198140849774084,0.004422745487660829,0.004398885119640118,0.004113493627863602,0.003590186335805783,0.0028994916825514938,0.0021345938209663515,0.0013661898533204697,0.0006045071044938903,-0.00020510093564702562,-0.001142063692155015,-0.0022385707682479735,-0.0034111276223082678,-0.004441180804013877,-0.0050346701881243405,-0.0049482766642189435,-0.004122575848962421,-0.002743802344514337,-0.001187552900636069,0.00013520162832976424,0.0009506227540925986,0.0012228203112296327,0.0011351796394064404,0.0009709375220408598,0.000962144428460425,0.0011852030051545898,0.0015491629998416409,0.0018704105189509914,0.0019826140304725435,0.0018166602375480827,0.0014087829401585043,0.0008429519319902914,0.00017790780079767615,-0.0005784429871575657,-0.001416426026127821,-0.002224284761173796,-0.002722996279213253,-0.0025205187526625913,-0.0013046510042400074,0.0009081590829510891,0.0036235528274287704,0.005956913786055307,0.00697490453476534,0.0061449332820912245,0.0036455967758341435,0.0003361017865441654,-0.002630656232380983,-0.004348499110975282,-0.00454905822218905,-0.0036341240711046316,-0.0023631708972048915,-0.0014103854751033864,-0.0010564718068588387,-0.001165247290559694,-0.0014036668237532401,-0.0015235001068835833,-0.0015147580115683133,-0.001554041687289146,-0.0018170382771139574,-0.0023037574107197976,-0.0027955464829119816,-0.002960990027472415,-0.0025317920148704865,-0.00143956681231285,0.00015450392249711421,0.0019337360386776524,0.0035482236105308573,0.004722092900654328,0.005310330824641006,0.005305438728923121,0.004813446634386919,0.004016046874718405,0.003123534365141028,0.0023193803402185333,0.0017066867851134758,0.0012775184775467784,0.0009229968630988898,0.0004836562295433861,-0.00018070618807538544,-0.0011305147606247212,-0.0023167808580138384,-0.0035884078922634767,-0.004728766521649402,-0.005508081960021379,-0.005739324124436784,-0.0053272442384695515,-0.004299260218820727,-0.0028067068120468572,-0.0010914882501551516,0.0005740535623791229,0.001954702684594004,0.0029047982269194174,0.0033893439157340853,0.0034700897323853095,0.003266088810339218,0.00290649327849418,0.002492820934732841,0.002079631797113664,0.0016724877639702812,0.0012368501755220859,0.0007133778395882993,4.021553633886169e-05,-0.0008152921988661224,-0.0018190603571958644,-0.002842679334744849,-0.003670091368380769,-0.004054737295578563,-0.003815520749896652,-0.0029282595347655408,-0.001559625196389791,-1.5871169384486998e-05,0.0013741679363826927,0.0023832663657148275,0.0029530848976918912,0.0031725734435334007,0.0031865711967436036,0.003093476990080853,0.002895274882264005,0.0025282226655874186,0.0019484644312605381,0.0012081864733686242,0.00046174454844870663,-0.00011248555911507288,-0.00042908538257822545,-0.0005729093628403521,-0.0007760964217574356,-0.0012941822355617746,-0.0022456011583713064,-0.0035067462994953615,-0.004727568586398684,-0.005467524797089431,-0.005387272926138149,-0.004402682534380944,-0.0027271911521361616,-0.0007841176359821946,0.000966536885169559,0.0022035470471246893,0.0028429560766765143,0.0030226234246444913,0.0029923697333874423,0.002971652314480364,0.0030464736328134744,0.0031521637343380833,0.003142032057058536,0.0028967731899549546,0.0024092119734333162,0.0017949163639575734,0.0012228317113223645,0.0008064407884583913,0.0005192822203830239,0.0001879927954425818,-0.00042197997777830006,-0.001461596786009563,-0.0028669490215565358,-0.004321532751839025,-0.005354300905583285,-0.005542820840129794,-0.0047223400556669695,-0.003084880369679707,-0.001106579696247027,0.0006627621303462365,0.0018360620762557303,0.002327796904949589,0.002332039851828267,0.002169110606442134,0.00209831011671529,0.002199656576428492,0.002374429409636731,0.002441676755035798,0.0022598054846164283,0.0018008536302541072,0.0011430688271225464,0.0003997662980407765,-0.0003598997850302203,-0.0011403237886313834,-0.001976417264320227,-0.002848167116681237,-0.0036181756332652614,-0.004048877100969787,-0.003905298530799958,-0.0030893462521167318,-0.0017241591284026206,-0.00013139476504991834,0.0012951980868480767,0.002257002027478147,0.0026709233324336834,0.0026789173591640265,0.0025426002442801984,0.0024832410254610974,0.002558791368087578,0.0026473245803508927,0.0025421879306628766,0.002097493797733968,0.0013341899760586145,0.000442602250877659,-0.00032063138975164723,-0.0007818738617627574,-0.0009589753779532822,-0.0010615388162983335,-0.0013734751880617514,-0.0020762945584796642,-0.0031120518159224054,-0.00417021979100129,-0.004816153046873499,-0.004697784613669185,-0.003721187805723532,-0.002102735479738681,-0.0002741538615200966,0.0013053992175219293,0.002333236113589561,0.002757593564545224,0.0027502370513030516,0.0025866988841143452,0.0025026709675894277,0.0025955433608820496,0.002807341562156244,0.002980915462677563,0.0029496083719415815,0.002614497307533392,0.001978498534897408,0.001130003609222792,0.00018991087692298069,-0.000748912328604223,-0.0016550039162935167,-0.0025406241570252383,-0.003399272663047187,-0.004140508654198829,-0.004578065389931715,-0.004499635627507155,-0.003789193539838734,-0.0025261878973362704,-0.0009893933080400927,0.00045054548365609163,0.001494823725632187,0.0020445421049719316,0.0022218651130910894,0.0022756722216814283,0.002428365299871531,0.0027509555854460187,0.003133666357037477,0.003361944105788573,0.0032470023987435214,0.002731829565493309,0.001913524748601739,0.0009760196669074117,7.988358564048738e-05,-0.0007218028448703045,-0.0014905385929373637,-0.0023282911254282304,-0.0032677405284868193,-0.004196793240401978,-0.004870570688814701,-0.005013931063168694,-0.004462400846094495,-0.0032625386500417172,-0.0016722926110604869,-5.782239626407382e-05,0.0012580568284728593,0.0021151541555263194,0.0025447120308159975,0.002704333973904201,0.002767523959590883,0.0028339218286653175,0.0029025629692201096,0.002906045014516145,0.002769740719024505,0.002455872590246854,0.001972742686241063,0.0013552122554723518,0.0006366127725414269,-0.0001688314319569821,-0.0010627524557542127,-0.002037574678062867,-0.0030386570346781785,-0.003934654135419098,-0.0045238619566216175,-0.004592900932804716,-0.004012291035240908,-0.0028203465342437383,-0.0012405525566119005,0.0003903250262765314,0.0017538235017131145,0.0026734646024001454,0.0031644339104745754,0.0033840598914026496,0.0035146536420162487,0.0036496329154866594,0.003750812923602755,0.003698685612979303,0.0033962476291721456,0.002850687412897166,0.0021711974997297096,0.001477975163297886,0.0007819834911058957,-7.417744789472004e-05,-0.0013504373965858025,-0.0032290747922127856,-0.005612987995219508,-0.0080334973078778,-0.009759385234603667,-0.010091030923736904,-0.008704039907424313,-0.0058533361802480385,-0.002308163748635107,0.0009647598614392413,0.0032086696972464354,0.004164982556797505,0.004107060252808186,0.0036280100162537953,0.0033143178886691155,0.003476264127522057,0.004054749889033941,0.004723015276122629,0.005106655907161111,0.004998481101036387,0.00445992148874318,0.0037639131705772522,0.0032144284718159666,0.0029406232382310667,0.0027816291947593214,0.002339090227562918,0.0011893897898605462,-0.000846319641065203,-0.003525500086724074,-0.00621759582384397,-0.00815240108653622,-0.008761596367789552,-0.00793118219203414,-0.006031576398917908,-0.0037201901730096777,-0.0016356905998166577,-0.00014883426185674812,0.0007166706941080178,0.001185844775779311,0.0015421258728287761,0.001961561302052701,0.0024512408679934735,0.0028990112798631365,0.003178479362086015,0.003232853931765006,0.0030882018770206324,0.0027994951788341818,0.002377887236459793,0.0017587869498753256,0.0008420976736126442,-0.00041412068406472503,-0.001906305232078212,-0.003368220968170506,-0.004448715604176282,-0.004849960542139596,-0.004452330936244297,-0.0033597902340952958,-0.0018477850890923383,-0.00024981035481684685,0.0011556263304107525,0.0022097168035680346,0.0028784527949799665,0.0032181564514662314,0.0033296374405982266,0.003317832997035264,0.0032603556364735617,0.0031856844498110775,0.003067248609122393,0.002840915199908121,0.0024426156395782805,0.0018464342583432026,0.0010775700117955716,0.00018950358114868022,-0.0007775451851218706,-0.001821412646839889,-0.0029590260304699916,-0.004168584259044707,-0.005331035115381702,-0.0062191750423108,-0.006559767329008601,-0.006149119296980522,-0.004963051128175399,-0.0031964089026464398,-0.0012034433109765642,0.0006334247554068376,0.0020401783118938676,0.002929126974586761,0.0033905867881654835,0.003614238681676588,0.0037831695334485382,0.003987617524946634,0.004192265587398259,0.004268092285321498,0.004072848282393595,0.0035406492925412095,0.002732441588929824,0.0018148522543820485,0.0009727707285120688,0.0003020869271438718,-0.0002527870621078943,-0.0008719806818724339,-0.0017491918664287592,-0.002953596357914158,-0.004343042042943147,-0.005583647403998304,-0.006274965112704501,-0.006122849211767726,-0.00507554786374792,-0.003355806100590125,-0.0013730796238082934,0.0004408906799977727,0.0017926145372739234,0.002607112920403292,0.0029963413110602934,0.003146449752793324,0.0031981310037465134,0.003191305677766023,0.0030967875422939946,0.002895957985639184,0.002637498580269179,0.002420032388090673,0.002307014750907932,0.0022353621369366715,0.00199378841599549,0.001308991470051453,9.233387386766706e-06,-0.0018232021475156337,-0.0038089948381451084,-0.005385879463236817,-0.006040291433985803,-0.0055436527675393876,-0.004068095760172101,-0.002116700927858363,-0.00030182465652645605,0.0009162291641096301,0.0014026586149236914,0.001357812783655887,0.0011722050215018348,0.0012088717714189546,0.0016229400087606992,0.002302967002065484,0.0029542197956156646,0.003270396741126818,0.003094263304131987,0.0024771210951877658,0.0016104460357370216,0.0006835266639486474,-0.00023297706895758732,-0.0011971856885465441,-0.0022934346044290064,-0.0034910126248881438,-0.004570577512660304,-0.005183911710392227,-0.00502334396701117,-0.00399966166450598,-0.0023165412585805156,-0.00039367494147672286,0.001315575205363708,0.0025073302009801257,0.003117221687959666,0.00328707577221783,0.0032469521502625745,0.003185631923193356,0.003173501267147849,0.0031646077069856864,0.0030617623427761638,0.0027985514342007273,0.0023871245348469692,0.0019030895303523618,0.0014181381524512003,0.00092595962645826,0.0003162205950544445,-0.0005735625530522145,-0.001846016595195641,-0.003432902816464412,-0.005057747952162318,-0.006312054371082501,-0.006821005238344674,-0.006415181726535083,-0.005210880744281679,-0.003549952866336721,-0.0018341706209177985,-0.0003521276948046042,0.0008062235339631142,0.001716419836880899,0.002511623170432736,0.003276609174169337,0.003998055060853809,0.004579153755869948,0.0048937833489622355,0.004848529766757984,0.004427633261831555,0.003703967921235847,0.002809196443817977,0.0018732008275491993,0.0009622090658373548,5.2869346813724994e-05,-0.0009347005959910526,-0.0020547908026275164,-0.003249211510015818,-0.004313691666262553,-0.0049543969295555886,-0.004920319993822667,-0.004144079916102957,-0.00280586535845181,-0.0012730005067396123,5.8360017570583094e-05,0.0009326375158563203,0.001324095031336813,0.0014061228526071126,0.0014297882853411496,0.001584574387084618,0.0019129798071201515,0.002312917418350882,0.0026122602313836322,0.002664736247321862,0.0024120808353359337,0.0018837828057910403,0.001146688617194229,0.0002479892387461353,-0.0008024631968279179,-0.001993496413618766,-0.0032436182575974345,-0.004356614203077742,-0.0050496578352698905,-0.005058834074694603,-0.0042730626558917795,-0.002818784481572619,-0.001037087073004859,0.0006464351276709091,0.0018965130790500918,0.0025976655467121806,0.002871733173351201,0.0029774403059379872,0.003149519810943529,0.003466351270038791,0.0038165803529928597,0.0039774752866261875,0.0037545540931558305,0.0030997371106218268,0.002141334918460594,0.0011123766907309663,0.00022198530156047783,-0.0004553556138867927,-0.001010302183570382,-0.0016319433895284332,-0.0024798447394119958,-0.003564418940301257,-0.004702402814595065,-0.005575374910698279,-0.0058641821021426475,-0.005391506918061289,-0.004201852270920814,-0.0025432036575661885,-0.0007653212047797328,0.0008124795647150048,0.002003229888211473,0.0027842369814989444,0.003255506500953739,0.003553910978461445,0.0037682617870402175,0.0038952273852604366,0.0038538394769620336,0.00354684376702084,0.002933588218536265,0.002073511200499398,0.0011147743522518763,0.0002309185208126868,-0.00046413844448136107,-0.0009780164020269987,-0.0014401932682421572,-0.0020300318075169143,-0.002861270079419975,-0.003882294857050337,-0.004852399318687908,-0.005419620648290043,-0.005271708363069715,-0.004288116402416999,-0.0026139816168996646,-0.0006138613671123142,0.0012746480169643195,0.002714191838962905,0.0035818584965718403,0.00397343780366346,0.004108329064075567,0.0041962708611362285,0.004337849415497904,0.004499996953727526,0.004560478088284056,0.0043830356250218255,0.003881726392225321,0.0030506034744758985,0.001956018411376896,0.0007032141991730173,-0.0006039966762953902,-0.0018907767999997926,-0.003113730814492636,-0.004241723922668418,-0.005234070924963075,-0.006037176396123235,-0.006603772854750737,-0.0069143720838770375,-0.006970840356470289,-0.006752299477512812,-0.006164321583035045,-0.005039072765852366,-0.0032223260499790836,-0.0007155251282545195,0.002221962775276938,0.005101927554260149,0.00737737563858832,0.008662248713826023,0.008871791443657547,0.008209793866987518,0.00702934274483081,0.005662066002383684,0.004306635025926285,0.0030101274566650066,0.0017173560434895774,0.0003418023197989836,-0.0011722793792906443,-0.002802099535168784,-0.004412047227705476,-0.00574677103041253,-0.006478542066946981,-0.006321009433193184,-0.005176709704038673,-0.0032416281186327736,-0.0009886820085821216,0.0009908041206081336,0.002223024257673398,0.0025448820606020065,0.0021507852132150243,0.0014699009340603986,0.0009435764606064468,0.0008215533644366439,0.00107672410617594,0.0014679955570478013,0.0017002847971629793,0.0015831858917671954,0.0011010944172279427,0.0003702658764022489,-0.00046769685363993,-0.0013305843670028182,-0.002199582907718103,-0.0030513351785706145,-0.0037842500193654757,-0.0042088487126775405,-0.0041208675414740395,-0.003411797651512973,-0.00214369874259473,-0.0005407211055762353,0.0010955578696363257,0.0024970576214274065,0.0035095817557679004,0.004110254324712472,0.004365010437792669,0.004357539721529975,0.004132049917206388,0.003681360459294353,0.002982988908246318,0.0020543150210870545,0.000984093061191309,-8.710823064004745e-05,-0.0010284779173756664,-0.001780155767660622,-0.002366988294036175,-0.0028494149750754073,-0.0032440690417592545,-0.003474701709861769,-0.0033970857958540712,-0.002889050244201558,-0.0019480804297713808,-0.0007313989315943158,0.0004888082883705809,0.0014297504866526533,0.0019057382930135276,0.0018882582864136344,0.0014977925263375271,0.0009405668175264926,0.00042389357976710287,8.516570804668726e-05,-4.389549296809153e-05,-3.422543436993903e-05,-2.643405260637665e-05,-0.00017916564164892443,-0.0006082434696927537,-0.001328843600432139,-0.002221695458718706,-0.003048099377622307,-0.0035238884828603136,-0.0034291788307965953,-0.002699035854163298,-0.001439078195926563,0.00014779478833712488,0.001874382363251208,0.0036369379137892906,0.00538045525851493,0.006984402191404882,0.008167057501169523,0.008514078861954162,0.007658424739929661,0.005521297536803908,0.002453233873818455,-0.0008453093613298648,-0.0036077749021909363,-0.005334302317220651,-0.005980569826097259,-0.005901964487159279,-0.005603733696158639,-0.005452698651613735,-0.005506861399550131,-0.005534629201867507,-0.005188067130759045,-0.004222557501808995,-0.0026456772410458664,-0.0007259141594280294,0.0011314542954023404,0.0025674354845209146,0.003413620194073665,0.003728882365050988,0.003723057047626212,0.003623067808417953,0.003560734699527776,0.0035369485881755515,0.0034634941524929585,0.003238321737349107,0.0028007967070786794,0.0021408721790510663,0.0012753397039015396,0.0002260432238126718,-0.0009734723039651393,-0.002245327291301866,-0.003438118040208236,-0.004335602032910941,-0.004715649101277461,-0.004436908767157592,-0.0035077451057589568,-0.002098529302452637,-0.0004899143220085634,0.0010162920738748418,0.0021824482868351837,0.0028853586285046305,0.003123062140321869,0.0029888950849458517,0.0026302718270445713,0.0022054214451984674,0.0018440017245770946,0.0016144454688135261,0.0015038341254245437,0.0014197362691553029,0.0012201095397835373,0.0007653519526298212,-2.6247916067896528e-05,-0.0011413305530980286,-0.0024644851726614344,-0.003799306006002479,-0.0049075221270826214,-0.005557294836791786,-0.005575397849520264,-0.004896922527798787,-0.0035994085602783664,-0.001902492966531023,-0.00011904375854037547,0.0014362600441794086,0.0025481414576418483,0.003164375913616589,0.0033877111919491934,0.003399704014242168,0.0033594537126882887,0.0033340011122693263,0.0032948691223830514,0.0031714829240426356,0.0029169944483279473,0.0025393163245074966,0.002080372086444368,0.0015662748988276884,0.0009711339886838836,0.00022487962525866777,-0.0007368640312740906,-0.001910663111115902,-0.0031873309445464987,-0.004360539334805841,-0.005181537233229662,-0.005439918227295464,-0.005040016973803898,-0.004042355703274998,-0.002649678170956949,-0.0011376856880530722,0.00024303364902321292,0.0013485084496282279,0.0021649858002939404,0.0027639432008949327,0.003219312606689481,0.0035425498078465985,0.0036792488259734385,0.003566810085446138,0.003206412756275533,0.002689759979439742,0.00215364606062101,0.0016894528888500389,0.0012695291950819048,0.0007441779916708748,-7.929554332952878e-05,-0.0013117538587912477,-0.002875930936735426,-0.004479806225944271,-0.005696946270305543,-0.0061288478217861354,-0.005577985721099699,-0.004147114120510027,-0.002212240272305851,-0.0002784548125325323,0.001214827038322533,0.002050572429010272,0.002285880350389927,0.0021827369260258365,0.002056865092504175,0.002119815400558468,0.002390317437263997,0.0027139855182804163,0.002872590815582248,0.0027163519828271956,0.0022425685623986753,0.0015781205147926828,0.0008829601697647859,0.0002416107734453983,-0.0003819439365678541,-0.0010915570981472416,-0.001940143272655875,-0.0028253347728269193,-0.0034780826774482667,-0.003568655625703976,-0.002880914079405661,-0.0014583193862623568,0.00036662279149105,0.002088162148752801,0.0032390834320922914,0.0035942532957898158,0.0032587934626833815,0.002587591990220768,0.001970752270421262,0.0015979573476313936,0.0013382264965930352,0.0008186859609422283,-0.00032342260922715177,-0.0021506986162844765,-0.004276401784463825,-0.005975417068214728,-0.006530269497681778,-0.005633765274422043,-0.0036063755746373882,-0.001272933408898658,0.00045467197049172997,0.001050830054851941,0.0006237597306419042,-0.0002026664147935721,-0.0006823911199017349,-0.00036521272574666455,0.0007015390817590043,0.0020725765921738738,0.003204294949795584,0.0037555088494569833,0.003724089124827183,0.0033749869407023324,0.003037152613177539,0.002903796340901556,0.002945520865510815,0.0029667412356746284,0.002751715190195075,0.002202621038601136,0.001388211256045427,0.0004829007490208988,-0.00035630275045045,-0.0010927797935018136,-0.0018259354163924753,-0.002706121370408003,-0.003797625496838179,-0.004974150753646864,-0.005918749525335026,-0.006244052742928727,-0.005678905615987292,-0.00422385644166959,-0.0021871739009430465,-7.335140322852081e-05,0.0016242765874798862,0.002621768476205957,0.0029338743460006083,0.002815811915849239,0.0025991482452389224,0.0025159184827871356,0.002602492598743929,0.0027227265414415044,0.0026809643935410627,0.002348904775249149,0.001731027813919248,0.000938125292663151,9.881795174759823e-05,-0.0007225745236265966,-0.0015409056193441467,-0.0023863156492705062,-0.003210002976689369,-0.0038368928511886414,-0.004015644777522268,-0.0035481175342160923,-0.0024190023880308062,-0.000839442199901057,0.0008270727221045466,0.0022131563349382095,0.00308532174656275,0.0034023925794637658,0.0032808989495655937,0.0029062058943885504,0.002446405393998189,0.002007351352575254,0.0016324086342345639,0.0013245037618135863,0.0010635058309563538,0.0008060813314595181,0.00047654597517601544,-2.7739441049440608e-05,-0.0007959992305625734,-0.0018330569968485078,-0.002996080104738478,-0.003993866691076979,-0.004479662396968189,-0.004209292812889254,-0.0031802057409946217,-0.0016606889805615697,-7.762592794356607e-05,0.001179390645061499,0.001923304761713676,0.0022095084926288017,0.0022390410650499986,0.0022011650855499835,0.0021617244683736635,0.0020600859098135957,0.0017972223360191136,0.0013391115698634893,0.0007585702357215953,0.00018788600745083981,-0.00028234591457352133,-0.0006852199113856238,-0.001176428547373466,-0.001936208409418058,-0.0030232116911709274,-0.00426817668963722,-0.005284920077561215,-0.005616710084572098,-0.004956360988881119,-0.003323498724425609,-0.0010896871674475424,0.0011828804153202672,0.003015769719489193,0.004249842986147542,0.005094843706706771,0.005944635738968248,0.007053878893448338,0.008275205173672666,0.0090437444242043,0.008657137882356144,0.006707283761507402,0.0033991850916172137,-0.00046233786486952534,-0.003837178165914035,-0.005957722211274188,-0.0066766248416965214,-0.006455936890436281,-0.006027166393933813,-0.005945876447793967,-0.006304278801406753,-0.0067444627076540375,-0.006726423496270636,-0.00586791235524691,-0.004158394007429467,-0.0019475771232507232,0.00025233235412154347,0.00201676893257868,0.0031721932067145186,0.003804653469987416,0.004139908218126534,0.004384174304827637,0.004617868349599354,0.004787415372548849,0.0047767440591306885,0.004498647307384053,0.0039469510503350085,0.003185936558461608,0.0022966479782266236,0.0013235776614001504,0.0002593344543481705,-0.0009222142021639568,-0.0022046004693456194,-0.0034781906612096317,-0.004537028282227705,-0.005135932278089906,-0.005086150056954257,-0.004342515245903912,-0.003036434839276182,-0.0014375901581855429,0.00013576084994786249,0.0014156867830635341,0.0022529206397409875,0.0026349556333101483,0.0026574055538687623,0.0024674837957288035,0.0022031533093367656,0.001948469035051797,0.0017183010917555263,0.0014749025276382206,0.0011653160046349465,0.0007574618386627094,0.0002531130233106747,-0.00032753540099482643,-0.0009715739275291768,-0.0016804445690849171,-0.0024437689139149912,-0.0031959479438850597,-0.003793492410191653,-0.004044079882910754,-0.0037845374727790426,-0.002968186848765943,-0.0017095570992553795,-0.0002560406754293555,0.0011027194625850409,0.0021425239211648726,0.0027766001144146936,0.0030604230494048878,0.003133883002970476,0.00313555760842067,0.003133663035664989,0.003105160570828645,0.002967625095605681,0.0026418525153659844,0.0021082170741437115,0.0014228416511553078,0.0006818001673026062,-4.509488394941223e-05,-0.0007641301737559293,-0.0015483566538232088,-0.0024641432268373976,-0.003478417059399428,-0.0044156228894265005,-0.005007929065481822,-0.005019914639777476,-0.004374767640734008,-0.0032042849998494575,-0.0017931109532307867,-0.00045264578665662905,0.0006030878779051409,0.0013186723359347582,0.0017785685192436358,0.0021338376260336515,0.0025167042967637874,0.0029776563850234124,0.003463349386873463,0.0038396614413718708,0.003951596371770499,0.0036967373244269743,0.003077717946973185,0.002204512836036426,0.0012428388519595973,0.00033603811305164073,-0.0004570356251148354,-0.0011754317107608324,-0.0019140102246004598,-0.0027458248142817098,-0.0036467802134376556,-0.004464036464400337,-0.004954422013081735,-0.004885320247731771,-0.004152344472778714,-0.0028505383750534645,-0.0012554026991138736,0.00028180051583662224,0.0014727132554371923,0.0021949944114054215,0.0025112466411215412,0.002601149129469833,0.0026490387646365757,0.002748597407505755,0.002871228851567588,0.002906056253731575,0.002740714159137254,0.0023342117492133963,0.0017425596826104138,0.0010857692441611725,0.00047589436259908935,-5.3100698142634784e-05,-0.0005700981888578475,-0.0012024440403062447,-0.0020372816846167315,-0.0030231138298760906,-0.003938944743945485,-0.004466801386619613,-0.004340716211083154,-0.003491924166550682,-0.002104561906450477,-0.0005451560009903408,0.0007978694100039339,0.0016776504243240448,0.00207038999920396,0.0021412036767432686,0.0021268266557077434,0.002207855499740898,0.002435934384022659,0.002737813621618181,0.002971897108753347,0.002993565940477927,0.0026986761247699735,0.0020415076177506103,0.001040099566209581,-0.00022116781416226417,-0.001595242092091116,-0.002892920815572253,-0.0039235003884095536,-0.004543205653654269,-0.004689209458774129,-0.004382744069605165,-0.003703110674329097,-0.002751708680033176,-0.0016283193844489692,-0.0004287719353915346,0.0007456434595179021,0.0017863856094800876,0.002595843219087913,0.003119209407500831,0.0033682302208411763,0.003415666180419656,0.0033571446990883678,0.003259807271530216,0.003128304487271925,0.0029095127563462586,0.0025330189186918498,0.001960847110158711,0.0012134254900765468,0.00035508278327683375,-0.0005486321748037967,-0.001468132197238161,-0.002410506437197365,-0.003379191858442335,-0.004319862742803246,-0.005093933680944381,-0.005506575669103316,-0.00538228657815323,-0.004650139999940043,-0.0033922561003122903,-0.0018272187509493771,-0.00023393697821620136,0.0011477661397770347,0.002191955684382317,0.0029028542624107553,0.003370764723025091,0.003697490097386018,0.003933625680522867,0.004057930489246164,0.00400281768037143,0.003706587941523275,0.0031625815498896506,0.0024387719168635757,0.0016551177161886913,0.0009260289191712499,0.00029537023159530824,-0.00029756130454950997,-0.0009904320351172174,-0.001908528981564594,-0.003055603814910905,-0.004252659125832254,-0.005176116023937102,-0.005490259745095638,-0.005007546308692713,-0.003787899213837276,-0.0021217089945924795,-0.0004082477986001618,0.0010028035654483984,0.0019272671470415338,0.0023735747074314973,0.0024862656130603218,0.0024492967335268388,0.0024011976106992306,0.0023962292495714123,0.002416070722434329,0.0024111039732078454,0.0023398011825851786,0.0021819164662042487,0.0019210510795832634,0.001514330146127662,0.0008798693959376845,-7.281823407597626e-05,-0.0013704108809213865,-0.0028973912311146995,-0.004367774022056825,-0.005387320295356909,-0.0055973333505746,-0.004836977522226904,-0.0032387256964639946,-0.0011993966136885023,0.0007668308176356683,0.002224979161823358,0.0029729702349509763,0.0030853286825260535,0.002836625470224804,0.002550785109651217,0.0024511692243005647,0.0025773523052727066,0.002796546232253054,0.0028917023746762665,0.002675928362281614,0.0020766845856947927,0.001153868895096586,5.26681953829173e-05,-0.00107353823338705,-0.0021216259882208864,-0.0030460907713152946,-0.0038192826103227127,-0.004381543944563738,-0.004625259509866481,-0.004432323046573229,-0.003745303371818028,-0.002625760380875663,-0.001257367958045039,0.0001153992666682454,0.0012816901130346672,0.002139054294535877,0.002707475205686078,0.003078553498393657,0.0033345787618830306,0.0034890473490365565,0.0034847412564799228,0.0032470772739958183,0.002753259837514062,0.002066617802469515,0.0013090017141026864,0.0005873835925677554,-7.539749132016586e-05,-0.0007550136469019685,-0.0015680759437603773,-0.0025719370752917345,-0.0036807001184233573,-0.004651351203188646,-0.005158647830386014,-0.004931199716201503,-0.0038866765345552698,-0.002198191259017753,-0.0002519870488699794,0.0014921594215454585,0.0026767668088848997,0.003176662665028924,0.003122149532004812,0.0028078041844950326,0.0025367587060275763,0.0024798492141155874,0.002615457889250642,0.002769552000270999,0.0027240038225761045,0.0023314167561264316,0.0015783245661191128,0.0005709279400572377,-0.0005382260140968439,-0.0016307167814421997,-0.002655569419997501,-0.00359487127860799,-0.0043917024070319124,-0.004902393341700765,-0.00492266225568164,-0.004286090387018051,-0.002979055373880108,-0.0011975683353370582,0.0006975260026558216,0.0023101401206697147,0.00335650266479721,0.0037556546075923378,0.003623712620934798,0.0031871973296007036,0.0026699897849100586,0.0022118618254991177,0.0018473744980476308,0.0015351681003261603,0.001204703582140197,0.0007908587853655796,0.00024750611316195646,-0.0004492988474252646,-0.0012934061454416583,-0.00223157389775742,-0.003148013508018661,-0.0038685580004123865,-0.004197523582618056,-0.003984357450845558,-0.003196221575219641,-0.001958444978103586,-0.000531162516777414,0.0007791527846240048,0.0017360869936323688,0.002259915012567537,0.0024396732962697495,0.0024652994847434305,0.0025171721079459658,0.0026722562354704747,0.0028750515786091654,0.0029838744147393705,0.0028604897570702684,0.0024485642706809497,0.0017961471115006777,0.001012500561204631,0.00018966583357985086,-0.0006582369057330077,-0.0015934363678543728,-0.002683315936938029,-0.0038988842976202176,-0.005050150642589694,-0.0058136328895305855,-0.0058565192922234496,-0.005000522931536128,-0.003335884351574861,-0.0012166054443647776,0.0008683599563941477,0.0024856107057387466,0.0034160795796870642,0.0037091290962585795,0.0036145143881208667,0.0034334811262951423,0.003365283081903932,0.0034239028862996326,0.0034626574843126894,0.0032865193228092254,0.002782151470764053,0.0019852981755324427,0.0010457607628041768,0.00011845702904290543,-0.0007408439240124492,-0.0015998891080294688,-0.0025741245902193453,-0.003699645229839458,-0.004841540173569932,-0.005705951310202805,-0.005961071611441765,-0.0054037070186531925,-0.004077001742096906,-0.002271069781103317,-0.00040489554879131237,0.001146464667411697,0.0021892051829826573,0.0027480376329302304,0.0029973903197249925,0.0031364224245808868,0.003280465025037585,0.0034225203402176167,0.003473232368988185,0.003343445823717687,0.003012940467213172,0.00254139530605077,0.0020164025342882873,0.0014771404677816529,0.000873218422186358,9.847795895492504e-05,-0.0009124577379243373,-0.0020874036301065718,-0.003192920277540645,-0.003915415515670699,-0.004009537255747111,-0.003426930684024134,-0.002345647372805101,-0.0010828544058324435,5.0935712798069266e-05,0.0008630533104828934,0.0012935345787052548,0.0013460278879369454,0.001009457350903186,0.00025025214025636367,-0.0009025020744030539,-0.002238903014354676,-0.0033260360771687337,-0.0036233209689022963,-0.002736772021467964,-0.0006806227811542184,0.0020255766152294705,0.004518003974602102,0.005946212387641841,0.005841321554188744,0.0043026391107327255,0.0019205016235236115,-0.0005028325947313664,-0.0022826506946490932,-0.003080505803453369,-0.002951439650454463,-0.0022229705790920897,-0.0012922976709849859,-0.0004512479467246993,0.00018494104188965363,0.0006377965331912556,0.0009703873404439035,0.0012109283252973357,0.0013366779877730327,0.001306535970863129,0.0011006340007380748,0.0007360573732962742,0.0002598628472156528,-0.0002605937277816605,-0.0007398119392922136,-0.0010815665396791527,-0.0012115595015927095,-0.0011332349654825612,-0.0009701534694955816,-0.000944812040225289,-0.0012722051801779442,-0.0020054501259690093,-0.0029223030011131957,-0.003544963645301897,-0.0033261397405482196,-0.0019366086789363995,0.0004911110206530346,0.0033160361600582965,0.005606114445357887,0.006542534862739833,0.005811454177669011,0.0037664627629961788,0.0012607869578134326,-0.0007638840936652351,-0.001704604612523127,-0.0015141545439399573,-0.0006192287211846373,0.00037283460103659165,0.0009901304915997538,0.00106800483234495,0.0007198302717756011,0.00017093917035371388,-0.00041697496159019524,-0.0010234010353546814,-0.0017194725576559818,-0.0025461862834261655,-0.0034144200181455506,-0.004097681003847541,-0.004324502013265504,-0.003914951986673342,-0.0028809721588564036,-0.0014342018703599343,9.985155131480775e-05,0.0014109313015894518,0.002309019986620099,0.002761368758952464,0.002860740077113678,0.0027564795392811727,0.0025862545521092312,0.002432315540686612,0.002308410806430376,0.0021729406343410154,0.0019599112278094705,0.0016160032901027124,0.0011283299233742863,0.0005285588316427075,-0.00012980263995082612,-0.0008063279929291121,-0.0014943042020224614,-0.002207047491161508,-0.002933916863567692,-0.003595335254372503,-0.00403318508830973,-0.004054962960135763,-0.0035177683965382928,-0.0024114669712355925,-0.0008952126787385549,0.0007387847161368706,0.0021655695872492245,0.0031499639861209136,0.0036340939293178103,0.0037446898540305223,0.003711889010627095,0.0037371901025265745,0.0038786938372488344,0.004016783906717865,0.003921476163640811,0.003385626131353605,0.002349660814841626,0.0009470723035345689,-0.0005563626465988872,-0.0018977810494178846,-0.0029529791207135317,-0.0037959657834701734,-0.0046441144076589825,-0.005711059019106917,-0.00703950896340391,-0.008400005399910144,-0.009315254743491907,-0.00921831220501528,-0.007695382649654841,-0.004715535941457022,-0.0007306719957253865,0.00343321106643739,0.006872154792841401,0.008951647883057917,0.0095239366605127,0.00890595683853182,0.007653892082685476,0.006283692358059383,0.005091947176643638,0.004139538657024397,0.0033495759792644972,0.0026182481500115263,0.0018649289358590975,0.0010193227672271087,-1.479020886632678e-06,-0.0012729335694902021,-0.0027945635413453916,-0.004421082804943288,-0.005857057533916337,-0.006744449303263622,-0.006811190229588753,-0.006003083513433096,-0.0045228929173967815,-0.002750779402433715,-0.0010877605799330327,0.0001948207229911335,0.0010262878171869668,0.001504554345075524,0.0017942331200347013,0.0020194879908449264,0.0022089462468798367,0.002312824830864176,0.0022680989738966036,0.0020611054887586487,0.001743160157939125,0.0013895222550804475,0.0010336843434807206,0.0006301621636643363,8.357249512515742e-05,-0.0006633998805074734,-0.001537683232214284,-0.002309898020924396,-0.0026741580789010158,-0.002406800597792312,-0.0015159533276101716,-0.00028198762221803885,0.0008552162910489161,0.001511096006958831,0.0015506201960539358,0.0011446878743654437,0.000655390040883318,0.0004233465157866432,0.000587315076995279,0.0010377857305431141,0.0015160815011204258,0.0017815082289785963,0.0017378920018399384,0.001450592055879578,0.0010617249248448218,0.0006721626288341213,0.00026919720103750673,-0.00025931085800512963,-0.001039056577571069,-0.0021045758048735042,-0.003332869223728231,-0.004449805431516585,-0.0051110196821072046,-0.005028985372152275,-0.004096749423623027,-0.0024529350265661697,-0.0004501333535331947,0.0014698285902022773,0.002941462318570128,0.0038022269052086074,0.004116441819584506,0.004089222694944891,0.0039273296299605015,0.0037324487401788594,0.0034838863251546275,0.0031022844772527897,0.002532932721351894,0.0017851315799844105,0.0009095155995126323,-5.1922045579292004e-05,-0.0010899246317651514,-0.002199763344754899,-0.0033218119225709233,-0.004302668878100816,-0.004919638242529102,-0.004969238524877954,-0.004374345014661617,-0.003245818771531602,-0.0018561941318714968,-0.0005331264065500296,0.0004713730093651797,0.0010647999600819603,0.0013099574746796654,0.0013471934763618796,0.0013005031385960486,0.0012267353462956487,0.001129846367995169,0.0010135021270850227,0.0009183823457627635,0.0009040199393942895,0.0009822740431509912,0.001058976457040331,0.0009518100798444828,0.0005066450248535154,-0.0002455669657478375,-0.0010061773715095352,-0.0012960248044379577,-0.000707571902842455,0.0008063614301981759,0.002794353151102499,0.004443744201057801,0.0049587729045285685,0.003982709742469832,0.001814941458493037,-0.0007189491408548688,-0.00267792414655184,-0.0034590429962651687,-0.003038630366754298,-0.001890513986405528,-0.0006699322425050331,0.00012867356975475351,0.0003540172169026758,0.0001592366272301232,-0.00018612132474414794,-0.0004969875710504201,-0.0007723413221493468,-0.0011558646102870231,-0.0018008495807605904,-0.0027281478498347245,-0.003760652686980015,-0.004570514202556527,-0.004813291040498088,-0.004279061230893941,-0.002985711616780182,-0.00117354997858481,0.0007886718599776931,0.0025368399370364362,0.003824019462956243,0.004570800261192503,0.004844180828668793,0.004786967822311576,0.004537902733915346,0.004180977793906649,0.0037416135089179195,0.00321900303170907,0.0026247800904066936,0.001998957134315165,0.0013923361280524607,0.0008279344694947251,0.00026903816520248275,-0.0003793995216954914,-0.0012260277570219627,-0.0023199999742632782,-0.0035852011151962836,-0.0048021984902924825,-0.005661469567511654,-0.005877269763435529,-0.005314873808211732,-0.0040663822632276,-0.002427929015678191,-0.0007805007953722476,0.000568332091800507,0.0014980382617050785,0.0020827107674212682,0.0024929502941825428,0.002856947490451007,0.003170417199532984,0.003310923557835996,0.003140953621069775,0.0026249090668596315,0.0018777691754963736,0.0011099825864490124,0.0005016133956422335,8.614584661826902e-05,-0.0002771511494927207,-0.0008140194390515268,-0.0016736030114677563,-0.0027909869487388935,-0.003866003492866409,-0.004485411266605044,-0.004327109953209351,-0.0033308704067467874,-0.0017377483532056495,2.1414083766617322e-05,0.0015212886512564986,0.0025131675977973925,0.0029884608706405606,0.003118349516129431,0.003119549361312842,0.00312670342370657,0.003137212428984042,0.0030477200271713974,0.0027489313582564536,0.0022141970081024425,0.001524408377211925,0.0008139436834824277,0.00017480402188027784,-0.0004143245419192469,-0.0010802707394371763,-0.001963606910241986,-0.003093147043550422,-0.0043058728922983945,-0.005273643795296592,-0.005638610160218034,-0.0051903172843868655,-0.003983662947859262,-0.002325749733542748,-0.0006369845113306785,0.0007335281248814357,0.0016366775390308376,0.002136751508897362,0.0024215825017589983,0.002673589119033943,0.0029732406773510843,0.0032764952286871377,0.0034643263582664714,0.0034272802553325377,0.0031342079799211936,0.0026464652380379016,0.002071366595751088,0.0014851622085579703,0.0008757026949475732,0.00014563593637516208,-0.0008175273583767899,-0.002039057843020691,-0.003381570570739935,-0.004549081828959569,-0.005185077313132289,-0.0050265124826670456,-0.004037618925408465,-0.0024497306273448694,-0.0006793023058069508,0.0008392907142080305,0.00182424072773978,0.0022372636016406355,0.0022551977060247972,0.002145406276344861,0.0021168900316908355,0.0022264317913399043,0.0023814515453662688,0.0024226803610144535,0.002227240979129782,0.0017703314415456108,0.0011176282746293187,0.00036607088870253693,-0.00041928479888509113,-0.0012260954748160371,-0.0020588646040973066,-0.002875154755034157,-0.003547381736322139,-0.0038892754635327163,-0.0037399042299538095,-0.003054166765134542,-0.001941123630418707,-0.0006259424355457172,0.000639783650100494,0.0016667069551073923,0.00237147759307038,0.002764794137610349,0.002905404936090107,0.0028548056966679457,0.0026576095922733493,0.002349359457337551,0.001972784445101018,0.0015790881136530776,0.0012056702839581125,0.0008444713962021044,0.00042837559965172025,-0.00014395776883050664,-0.0009484714090937376,-0.001970588130051002,-0.0030734341380901304,-0.004023539335151547,-0.0045675187115455,-0.0045259412679023985,-0.0038621295344457773,-0.002696211754591624,-0.0012600859735766095,0.0001846766287883611,0.0014284340022309846,0.002360729711683023,0.0029703062839453293,0.0033096645808050225,0.003449521709668603,0.003445897859095273,0.003329248348160513,0.003110629088060129,0.0027923564017620483,0.002372939414576772,0.0018445393014103458,0.001188599665247965,0.0003771519877488333,-0.0006153221607068321,-0.0017888657809292424,-0.003088634672927938,-0.004380780137979797,-0.005451079251707658,-0.006042129364591502,-0.005930644087130141,-0.005022128347009108,-0.0034194790200555575,-0.0014222310237027897,0.0005588133031130865,0.0021432194267515083,0.0031164005070253506,0.0034936302866541485,0.003480046328332034,0.003346955258819775,0.0032895268309224043,0.003341261888679339,0.0033878925005018596,0.0032651175700123287,0.0028757526113720065,0.0022528051834873886,0.0015312420001767644,0.0008498621646705498,0.0002492762623158341,-0.0003644917492817002,-0.0011606181488392681,-0.0022570786279979558,-0.0036001510143598,-0.004926104456178177,-0.0058404858094666945,-0.005985959520381704,-0.005216026742780571,-0.0036807183837143844,-0.0017726914557435703,4.207477825130825e-05,0.0014198485561126685,0.0022587535221711835,0.0026870744084687695,0.00294052366443007,0.003205832221843692,0.003516533593258938,0.0037493924745515416,0.0037128650928757497,0.0032726674191650845,0.0024442771132800814,0.001402439888898539,0.0004019305411763995,-0.00034997829738134473,-0.0008023100584822875,-0.0010886497443602138,-0.0014498568634867186,-0.0020815945613036338,-0.0029857738757295216,-0.003916705132053111,-0.004470663674824415,-0.004286832741549299,-0.003254000637185398,-0.0016013297398343065,0.00018852432026141485,0.001602425285772775,0.00233348147750601,0.0024024873945681516,0.0021045711161213946,0.0018212505462519787,0.0018088357010402252,0.002078968637757998,0.0024279673690091874,0.002584486380464746,0.002379820569748469,0.0018386890749014309,0.0011422696268079055,0.0004950331811386262,-1.6026455502149385e-05,-0.000479064981968287,-0.0010928566812660296,-0.002015663333695742,-0.003218417312715886,-0.004435980961005001,-0.005256078920194005,-0.005304890103001784,-0.0044306977310136775,-0.0027880202464485564,-0.0007811777012188951,0.0010994825755880151,0.002466826643263236,0.0031671763935468182,0.0033022184417480917,0.0031434470898167237,0.0029842115776795397,0.0029983778909431994,0.0031698145298513104,0.003322899346501116,0.0032340059493365624,0.0027624629574624473,0.0019301303686762772,0.000907411912704231,-8.482939109615256e-05,-0.0009001227840031898,-0.0015427003531724333,-0.0021453763433245663,-0.002857907136747198,-0.0037131843096593615,-0.004558100365312254,-0.0051002858122674586,-0.005051182504650828,-0.004284889491904276,-0.0029205494024641234,-0.0012807273250938591,0.000250436251146341,0.0013915943288246386,0.002065775404178812,0.002392127832312624,0.0025811702449304455,0.0027976243977890693,0.003069922060523005,0.0032955444385704986,0.003331521113398326,0.003105338473539029,0.002669441546062131,0.0021626723091317324,0.0017071667914997412,0.001313176290481363,0.0008576467246645142,0.00015413959908220536,-0.0009230887067730228,-0.002327921075789703,-0.0038059989094517254,-0.004961629943601586,-0.005408726812599806,-0.004942024527967201,-0.0036450856978921674,-0.001873650903427272,-0.00011357008454018595,0.0012189911475031223,0.001934226862177552,0.00210698928925379,0.001989362402630988,0.0018566224934894915,0.0018724563825962218,0.0020367592410191378,0.002226317600563317,0.0022876579355137236,0.0021203736049510914,0.0017071356418989778,0.0010881351074278486,0.0003141210466006602,-0.0005793888600331587,-0.001556594303736798,-0.002540464875172497,-0.003386077916251822,-0.003901995796224177,-0.003920332724661875,-0.003378676486691218,-0.002363082269280711,-0.001082996480589337,0.00020864578404278375,0.0013049269976110796,0.0020991259059328945,0.0025863127252916986,0.0028260537377913612,0.0028942044530509297,0.00284773204943202,0.00271396058194779,0.0025021109252952724,0.002223146494126623,0.0018980749534601561,0.0015418448606107603,0.0011303810263918368,0.0005798534692022744,-0.00022924424638686314,-0.0013757227265531761,-0.0028037348807101476,-0.004274502595778977,-0.005414160726434195,-0.005854326816785079,-0.005400176030389252,-0.004133591264286989,-0.0023880094536305584,-0.0006023399999064232,0.0008685620590056003,0.0018841331565541692,0.0025229980329658703,0.0029722494641111884,0.0033776495199041127,0.003748150482827836,0.003966970388043004,0.003890454875428101,0.0034608861604795236,0.0027547858695588043,0.0019353373480556777,0.001143850923630657,0.00040674806288545066,-0.00037505870103225644,-0.0013411794900737152,-0.002541225213569254,-0.0038420025026347456,-0.004937590893043638,-0.0054679651827889645,-0.005186484119428201,-0.004085581301945524,-0.0024126113997649853,-0.0005692824103922803,0.0010500042044809092,0.0021988664260589553,0.002835914010529095,0.003084104706457752,0.003127875276908614,0.003108150223234148,0.003066573687577071,0.0029570514388511807,0.0027044835296334605,0.002266863488574579,0.0016594272725456642,0.000927947832006388,9.758246625136133e-05,-0.0008524531676473769,-0.001952137702170821,-0.0031552383607119554,-0.004269951142890133,-0.00497832086681036,-0.00496423200974208,-0.004087879243005368,-0.0024967241504077376,-0.0005922157862755941,0.001138041135658489,0.0023269887905022716,0.0028583218741681958,0.00286063091952263,0.0025913049158695434,0.0022913413160583315,0.002088868490193607,0.0019826115394266115,0.001885610202552436,0.0016859018038561462,0.0012909444558799677,0.0006490051249749568,-0.00024044592928574833,-0.0013158389068520042,-0.0024440294115182456,-0.0034258080297877034,-0.0040298785806939415,-0.004056256938651816,-0.003411635172439627,-0.0021653687426295117,-0.0005547906126372665,0.001074185716018754,0.002376305811413861,0.0031240325730679678,0.003280743698464479,0.0029949498546915348,0.002517306106460655,0.002080390001186764,0.0017994880419981872,0.0016403601655769116,0.0014635062269337078,0.0011138876512802594,0.0005034933250387991,-0.00035540748591334544,-0.001372647127613303,-0.0024278948523547513,-0.0034027713277542605,-0.0041792052405276335,-0.004622575428722792,-0.004586795234414127,-0.003962173697895211,-0.00274843438948537,-0.0011056732991541105,0.0006610990620275943,0.0021931409758612855,0.0032085855887353555,0.0036082753334601915,0.003500939029042637,0.0031336238503828543,0.0027647604798124903,0.0025474120688020858,0.002480760050466855,0.002444873638301364,0.002284735058826386,0.0018863140658305104,0.001204945914650593,0.00024946801627906716,-0.0009404762274188225,-0.0022892947798029105,-0.0036538982727971144,-0.0048046312761391916,-0.005461831732920115,-0.005394138882937531,-0.004533127698410568,-0.0030342576322075583,-0.0012387056463293534,0.0004515290958474853,0.0017225790873726795,0.0024488791335480872,0.002703245295272233,0.002684086952161908,0.002603859729285104,0.0025932386387329622,0.0026604069941175684,0.0027144908838673374,0.002630514422713481,0.0023153040098380425,0.0017398049358348347,0.000930364601832171,-5.866251215056568e-05,-0.0011586483629763326,-0.0022726611668000096,-0.0032514902272306363,-0.003895997080434755,-0.004009152961992769,-0.0034838826269453955,-0.0023792701338736493,-0.0009346294273958954,0.0004979502361339148,0.001577770863215853,0.002101310656106704,0.0020726477416426973,0.00168630985882363,0.0012297025014438286,0.0009492633020216325,0.0009418150245859202,0.001120197906562989,0.0012653881947386194,0.0011363436554236665,0.0005863974571761756,-0.0003607295315811131,-0.0015013394946417737,-0.002511625492656365,-0.003059872757841183,-0.0029344235846719643,-0.0021362341213105075,-0.0008893135043731715,0.00044444202832163033,0.0015099964947427366,0.002093534731176154,0.002183340594999867,0.0019368333293134704,0.0015814841040270736,0.001302064864752591,0.001161945983049422,0.0010849899316293034,0.0009014665098480121,0.00044086203220596276,-0.0003645530408662111,-0.0014138445672113862,-0.0024500904483773555,-0.0031576554684920742,-0.0033015006500456377,-0.0028348031357185734,-0.0019138908184895323,-0.0008137028143838443,0.00020230625669537977,0.0009801557885460287,0.001493526030645623,0.001793090695662986,0.001939545815296198,0.001969352732352238,0.001903685780973879,0.0017733172097524248,0.0016250041575852903,0.0014988829442079059,0.0013959901472669963,0.0012642414633260229,0.0010158577380897404,0.0005665713974162456,-0.0001239330494519444,-0.0010261167360260395,-0.002034936396081273,-0.0029849606383985376,-0.003685838607013627,-0.003973689285611532,-0.0037643174264987574,-0.003086113525468062,-0.002074121968510078,-0.0009238500848791959,0.00017570403172091457,0.0010989599790756923,0.0018050535285348067,0.0023173218830273845,0.002677925512324471,0.002907891271596416,0.002996704064402041,0.0029230051510217864,0.002685267884567172,0.0023154187485212993,0.0018626172381728825,0.0013574421261042721,0.0007830105493903402,7.910342174853729e-05,-0.0008129552144825618,-0.001884653408602919,-0.003014148226298211,-0.003976243711058055,-0.0045154169020422885,-0.004450296285430637,-0.003755802637759392,-0.0025785794882184285,-0.0011776115077199254,0.00017699389817371484,0.0012938782048581817,0.0020982441076310048,0.0026112786407212736,0.0028967888061733893,0.0030114464846634067,0.0029832112916969404,0.0028198034117963536,0.002529949103253391,0.0021344741361717166,0.0016547572264312142,0.0010865968480909243,0.0003850546542591157,-0.0005138053702375204,-0.0016305216971712003,-0.0028695673140592703,-0.0039894284876510365,-0.004657599898152493,-0.004586005298728883,-0.003685150267087255,-0.0021475131504699783,-0.00039806684561588556,0.0010782420225866258,0.001948371347506418,0.002169690626949112,0.0019789316798140867,0.001738720142862426,0.0017302765497654719,0.0020104074521824786,0.0024088720257108764,0.00265432019347388,0.002539942287556552,0.002024019637086735,0.0012140906311877383,0.00026646474622479116,-0.0007138313578165316,-0.0016990952193684317,-0.0026807515471642014,-0.0035829332530767696,-0.004225628543312168,-0.004379574586785097,-0.003888549346438127,-0.0027822496439216735,-0.0013000826448357897,0.00020175474548636617,0.0014115419823287612,0.002194777494214261,0.0026176417184281056,0.0028533756533118304,0.0030422541989939622,0.00320218494457535,0.0032423923676949233,0.003053220431906212,0.002593172371293648,0.001907779941603275,0.0010775227325251547,0.00015032111496123002,-0.0008769100016750533,-0.0020068196880660342,-0.003159954574264739,-0.004133941046958197,-0.004652620028447061,-0.004492357831291705,-0.0036137875461636246,-0.0022139644747117253,-0.0006581037891187401,0.0006766524365119492,0.0015590179342269011,0.0019765852528045606,0.0020904512309510405,0.0021080438704678952,0.002154662160294851,0.0022174566273829065,0.002186205240868003,0.0019551768685699203,0.0015147695595253816,0.0009702431717014523,0.00047278582898217466,0.00010765824009164736,-0.00018170613122220412,-0.000571118756899037,-0.001234041668411545,-0.0021913947012963397,-0.0032346084303758096,-0.003987952912573342,-0.004089541516383879,-0.0033884954581554633,-0.00203742200713908,-0.0004221799246840615,0.0010267134620052009,0.0020264981498727443,0.0025322504836914183,0.002692114261272708,0.002717335872686951,0.002754737398894568,0.002829215981317315,0.0028697006796307564,0.002781292487100554,0.002507080289984865,0.002042024192429841,0.0014024566806193747,0.0005890503760439486,-0.00041568978396301344,-0.0016044477663732354,-0.0028864638173209077,-0.004063024809225905,-0.004869427668529683,-0.005072552967740556,-0.004574806930089728,-0.00346785316297822,-0.0020067689664469354,-0.000517921070528566,0.0007142926479849213,0.0015317958922809296,0.0019286817564994644,0.002019477403305586,0.0019738204251659097,0.0019481448587103604,0.002037334884059156,0.0022552715082625463,0.0025402366574281375,0.002774863669184156,0.00281308852895051,0.0025137040826747254,0.001781685639736207,0.0006100803495666892,-0.0008945827844242479,-0.0025191759931559973,-0.003985222726238858,-0.005011741547028032,-0.005381739604722924,-0.004997722419809996,-0.003914494992952471,-0.002336975430333831,-0.0005741639260479342,0.001045071208636944,0.002268391202897409,0.002991238327752732,0.003273172313993177,0.003292092091121301,0.0032544227547699088,0.003296993222862664,0.003421247931490531,0.0034901484798521435,0.0032931868586436397,0.0026532123865873843,0.0015256303083245298,4.091503080004609e-05,-0.001531311579163655,-0.002877808768685834,-0.003748216039817981,-0.004023262097198537,-0.0037236080119142324,-0.002975742262678026,-0.0019715968422165664,-0.0009460703046990124,-0.00016136341349242583,0.0001383640723516162,-0.0001766961054624498,-0.0010077371470556052,-0.001979903340399009,-0.002541746716330396,-0.0022112267360695726,-0.0008557004846456565,0.0011655240804897926,0.0031121416875265614,0.004195458440267146,0.003958888525506143,0.0024977246397012115,0.00040504309535444646,-0.001512573146585597,-0.0025897204687981607,-0.0025530636876740995,-0.001571049816367679,-0.00011467429593256832,0.0012773401563488853,0.0022138490862162576,0.0025640012271070474,0.0024428311553891654,0.0021009202889575715,0.0017822180051658538,0.0016161666677640203,0.001585014764061492,0.0015678795903176972,0.0014272793397557652,0.0010863864742338932,0.0005542559280660685,-0.00011011981787904649,-0.0008621902706276343,-0.0017094849473194805,-0.0026849625679819956,-0.003768558102887559,-0.004816013632856146,-0.005559646448521655,-0.005701834979069664,-0.0050578319859752,-0.0036654666038857427,-0.0017937396342713146,0.0001587231090151688,0.0018205124972011455,0.0029772812215086634,0.003615002976653178,0.003869550695751219,0.0039231217046235825,0.003906880075014864,0.0038558296872677573,0.0037280118090600666,0.003463955051190074,0.003042493795311246,0.0024965958039892813,0.0018829425673655268,0.0012317036966349132,0.0005160119483549459,-0.00033402766315241306,-0.0013783823532718196,-0.002605023635533688,-0.003892887982528644,-0.005021402889574655,-0.0057292561144748465,-0.005805501323747813,-0.0051780476788963695,-0.003956892234753758,-0.002404230348952247,-0.0008399287586783183,0.00047214194905074395,0.001400351305271346,0.0019519909945651685,0.002221155393550749,0.0023193571615763965,0.002329250252168442,0.0022942716457276537,0.0022277811815723117,0.0021182156123140615,0.001925932977864607,0.0015924620099554048,0.0010845171368092147,0.00046251311826887354,-7.955168075642906e-05,-0.00026446203139512893,0.00011732695691393791,0.0010315531482868413,0.002126375107608944,0.0028500444681000183,0.00272711629682928,0.0016367929301944206,-8.796420023195368e-05,-0.0018154352579227476,-0.0029336664108811626,-0.003140420299154331,-0.002544616676203253,-0.0015489852382398164,-0.0006118983465093813,-3.505782900058033e-05,0.00011886415167309823,-3.4488372308836266e-05,-0.000337598456348829,-0.0007070212746552369,-0.001162037603645526,-0.0017618950434289244,-0.0025041018786216727,-0.0032561731017685088,-0.003769823314495487,-0.003776734426579896,-0.0031172071348657794,-0.001832548922138149,-0.00016940007423135392,0.0015100700021601539,0.0028689566505716428,0.003718654228384233,0.004066868661079249,0.004073994166934521,0.003947454128048917,0.0038310801089148612,0.0037436972003878724,0.0035925857706107164,0.0032489445564979494,0.0026416591283927185,0.0018163807315986348,0.0009246168003904807,0.00014562624333993256,-0.0004163352648012407,-0.000798699026250912,-0.0011676982403744293,-0.0017276686150807402,-0.002600369734912403,-0.0037397513982478023,-0.004926738489144631,-0.0058450176817455325,-0.0061999006645014,-0.005827280584429897,-0.004750306120994061,-0.0031670680824594493,-0.0013799859286015676,0.0003032478780141438,0.0016608922048732561,0.0026099833973154654,0.0032044589622190057,0.003581282196377136,0.003877050736430642,0.004151846572263065,0.004357589618621999,0.004369891391746811,0.004069943502423672,0.0034318418977037786,0.002561009155179917,0.0016528062660317619,0.0008883108967754691,0.0003276733562591152,-0.00013058727835719161,-0.0006926241768455143,-0.0015420980393075728,-0.002713727842503247,-0.004039184385141227,-0.005196699088996913,-0.005840463021684504,-0.005746142302710697,-0.004903050325456788,-0.003512156124551606,-0.0018966203477134027,-0.00037306348151566835,0.0008544541075477529,0.0017348995991029411,0.002339869910604349,0.0027898413493303888,0.003177083736628795,0.003517497731856546,0.0037464530384406164,0.003756605582471388,0.003460592361522034,0.0028489249886793767,0.002010293540441472,0.001096854930400609,0.0002487059663774689,-0.00047844626941844973,-0.001132943070175166,-0.001813145698632152,-0.0025676956656571362,-0.0033157296358005154,-0.003848558397091967,-0.003924247349711805,-0.003402228635284615,-0.0023334435481946587,-0.0009479431967993291,0.0004512879585482593,0.0016200091207512228,0.002450692899238646,0.0029600611239386137,0.003212515394634027,0.003244072369767169,0.0030394969676287784,0.0025661857389269035,0.0018236446642139383,0.0008632376258411669,-0.00023154064496570077,-0.0013746429134221146,-0.0024810666577199103,-0.0034402510036160103,-0.004094276121477318,-0.0042646108592473845,-0.003836009482206146,-0.0028517665890460415,-0.0015466005268705953,-0.000271709671877559,0.0006628049812762225,0.0011399739437789034,0.0012869874736164877,0.0013873672330608577,0.0017027424336422245,0.002311210123735502,0.0030603076677150217,0.003660118396158197,0.003853389191223488,0.0035544269597924958,0.002875332925791222,0.0020338445130959185,0.0012088721763232825,0.00043575293406330644,-0.00039511130098770857,-0.0014350044022817788,-0.0027309105568177044,-0.004128738072418778,-0.005294430815408722,-0.005853176109694709,-0.005572700784592929,-0.004485535483234943,-0.002879758377791338,-0.001165723701887113,0.000303630137300374,0.0013620313748484466,0.002049884490170008,0.0025319884735865465,0.00297181109395311,0.0034332459075818145,0.0038544021903587737,0.004094523591071792,0.004019559763201601,0.003579042992397465,0.0028371076134089054,0.0019446039831710665,0.0010664821288788168,0.00029989560456219886,-0.0003742528520113284,-0.0010761032510355618,-0.0019481699286669416,-0.003048881398633515,-0.004275064316813698,-0.005361888593595654,-0.005971594218720157,-0.005834229354654276,-0.004871876198291582,-0.003242751718840492,-0.0012826165517798049,0.000625060153747622,0.002183785793790016,0.0032609625980944625,0.0038813712499421197,0.004156803548509209,0.004199371104159461,0.00406537324916783,0.003752630830852968,0.0032419926052008065,0.0025500632688805086,0.0017561946405968635,0.0009830407430800642,0.0003374179794220994,-0.00015648488322745745,-0.000588605455283018,-0.0011277149168968117,-0.0019215370956449152,-0.00297765731632439,-0.0040976904764412885,-0.004922558409238605,-0.005087166784968344,-0.0044099567231864,-0.003007386527243885,-0.0012574175623461987,0.00037583442503738785,0.001558374311907277,0.0022201994459714663,0.002535563482998642,0.002772610324629732,0.003109954862080476,0.003528068889224852,0.0038293361048760354,0.0037620311659467085,0.00316857068793269,0.0020735037903650815,0.0006674999803467478,-0.0007947060853378343,-0.002114347029959519,-0.0032093019827203594,-0.004079634303531875,-0.004711272919721247,-0.004999701032440091,-0.004764881928742705,-0.0038620657243800607,-0.0023170187075710028,-0.0003853467124007838,0.0015210121013244642,0.003008441297492788,0.0038740576932668955,0.004170232308986725,0.004125704495061838,0.003980520833500749,0.0038427632270418254,0.003651851696423934,0.003256562426662463,0.00254032399429268,0.0015025959065089588,0.00024694871195792413,-0.0010989292378787566,-0.0024553673080718527,-0.0037908410601532896,-0.005050501595196585,-0.00607928828162034,-0.006619102735267873,-0.006407228542500863,-0.00532426358277001,-0.0034953033607153096,-0.0012730172387742564,0.000892830516419247,0.0026244691242821843,0.0037329654761479487,0.004234823029174594,0.004283914016000438,0.004073772866786427,0.0037625295309497825,0.003442184908818727,0.0031433860419807585,0.002854687684420173,0.0025406738579884227,0.0021540363244475823,0.001643566948680583,0.0009624150733986456,8.087829400209951e-05,-0.0009951955361180791,-0.002205641651033647,-0.003427296610130832,-0.004485133356811295,-0.005186313475783332,-0.005371288698287697,-0.004967497328984429,