-4.6840574040779516e-05,-0.001375013679849154,-0.00223702000671272,-0.0023965523117262175,-0.001950504911950146,-0.0012558196024651247,-0.0007331135289577392,-0.000663190204418615,-0.0010816231273713048,-0.0018079865893825993,-0.0025688469634011363,-0.0031332202926803547,-0.003390808210874288,-0.003348849421915338,-0.003071169315442983,-0.002608904130064838,-0.001968414125187613,-0.0011335859529369302,-0.00012218047672373465,0.0009694654509680659,0.0019739884316905057,0.002717801426864218,0.003105572307926581,0.0031689369329036387,0.0030451673618976764,0.002896870727760818,0.0028214911833625064,0.002804188615254605,0.002737736009712246,0.0024903254110906154,0.0019764673151514353,0.001193272931403343,0.0002145383155885269,-0.0008377819519628767,-0.0018208272362898585,-0.0025893450993308177,-0.0030149505537350467,-0.0030151553391268363,-0.0025848953047691147,-0.001809644181241563,-0.0008445444248071331,0.00013395532969215015,0.0009778551951255916,0.001593329980618524,0.0019369665377847517,0.0019976674700477723,0.0017834520602093055,0.0013200643465308627,0.0006539553709992542,-0.00015090497992311866,-0.0010238016012013387,-0.001896054711286952,-0.0026972748178170835,-0.003340339165294131,-0.0037112722111624116,-0.0036840729329254518,-0.003166677328765354,-0.0021601684594978153,-0.0007961669300614448,0.0006782742039848091,0.0019721741319840133,0.002849133226108939,0.0032062223061673804,0.003097415739388975,0.0026957848740541083,0.002216708417241171,0.0018353635276103387,0.0016268767845357213,0.001546518545148427,0.0014557601268593333,0.0011868869218207,0.0006244306504408197,-0.00022807958978229848,-0.0012257988185079612,-0.0021196476577161013,-0.0026442730615391886,-0.0026244090570401767,-0.002053808676986786,-0.0011080038549957367,-8.006521697417597e-05,0.0007352625464685988,0.001157580669518915,0.001183051323603542,0.0009625557672986604,0.0007059637255129453,0.0005608842086044239,0.0005301766446269374,0.0004756623650457434,0.00021111892259987057,-0.00036417677582226637,-0.0011708562840333449,-0.001959297217275056,-0.002429979044747192,-0.0023979370510967737,-0.0018990960767040726,-0.0011683259009001722,-0.000502251651612591,-9.605013603479549e-05,4.350917949818862e-05,6.449241485975764e-05,0.00015344766969282823,0.00041966577304899553,0.0008475978909752321,0.0013300281493683422,0.0017438522833431867,0.002014107365899028,0.002132256036492454,0.00213107634733387,0.002044809685172067,0.0018849912542499491,0.0016437480384484322,0.0013138117883840748,0.0009038993603814058,0.0004349916152114643,-7.883426201122547e-05,-0.0006454933712921858,-0.0012858149695530374,-0.001998206341650559,-0.0027195958883416624,-0.003315898042608849,-0.003619865040474176,-0.0035017475765744665,-0.002933280926138684,-0.0020076118063101596,-0.0009047144805001527,0.00017684788660969812,0.0010856823034901362,0.0017514120576856448,0.0021778473863211367,0.0024083712190082042,0.002488071853098679,0.0024432912495350612,0.002283082444885703,0.0020108604718817834,0.0016314973185412517,0.0011504331470886023,0.0005735397117511,-8.42337847267124e-05,-0.0007851877586935946,-0.0014626167474122564,-0.002030804122745944,-0.002408789384119861,-0.0025466234670376963,-0.002441388831969361,-0.0021348654228474377,-0.0016927710964197548,-0.0011747447688923713,-0.0006109799949234873,-4.926843454012042e-07,0.000665354495563244,0.0013677261261285203,0.0020384699858533185,0.002570546743335933,0.0028581747104874018,0.002842879455233603,0.0025376794258557727,0.0020170785991063733,0.0013819798373442358,0.0007209758127532844,8.735521377625045e-05,-0.0005010316839888574,-0.0010456590825796846,-0.001548746145278075,-0.0020026055683433773,-0.0023871434443238646,-0.0026687371220407187,-0.002796964014701735,-0.0027053389166141273,-0.002327052217212834,-0.0016295325092417342,-0.0006561020652069887,0.00045033767153299206,0.0014672324528997042,0.0021636587244297147,0.0023986541583161975,0.0021947016068182158,0.001736039001735381,0.0012806287980485851,0.0010291596366583358,0.0010253870711548472,0.0011453745086300253,0.0011788525944924082,0.000950096691564083,0.0004053201261249773,-0.00037833228080609994,-0.001251343330709878,-0.0020649816608969535,-0.0027079535938422253,-0.0030958108353366944,-0.0031454838031574573,-0.0027776444713696062,-0.0019606058879659094,-0.0007672759269221566,0.0006030905919856362,0.0018685534727235233,0.0027622646013040265,0.0031366555108789385,0.00301731307326836,0.002574588890651535,0.002027842808827201,0.001538532540934832,0.0011547315141748654,0.0008334997235098012,0.0005134685611241721,0.00017728463015081238,-0.0001440870498565296,-0.00042447416864973566,-0.0007026746280190015,-0.0010879100895032502,-0.0016886900090212953,-0.0025069033711600922,-0.0033759970356289286,-0.00400001752604164,-0.004082715348565528,-0.0034730407965590793,-0.00224220558871597,-0.0006540835121629125,0.0009435252239837164,0.0022426853157158184,0.0030598534849445923,0.0033614484465375166,0.003239249314003781,0.002855366270072792,0.002378215998292214,0.001931115391057085,0.0015701108193495227,0.0012925229513614939,0.0010601200910320312,0.0008168310241715428,0.0004954525571799407,2.617816899610722e-05,-0.000637739395306395,-0.0014792666315008977,-0.0023861162213609332,-0.0031600490687433308,-0.00358089402375117,-0.003503815031953815,-0.0029376155830910197,-0.0020517694158124155,-0.0010985327832373978,-0.00029133295491173345,0.0002883784674721655,0.0007015659191754371,0.001079869620727831,0.0015238423003201826,0.00203651205723817,0.0025275994652455883,0.0028752650608282193,0.0029982864851147276,0.0028914614087467293,0.0026073983853463654,0.0022062829354821717,0.0017145567446474007,0.0011209391302191072,0.0004058735001226619,-0.00042450356378428045,-0.0013270641250885894,-0.0022360733355041296,-0.0030824992230084752,-0.0037958039747476476,-0.00428806146485977,-0.0044456811120116325,-0.004156033060431853,-0.003368127918719074,-0.00215127446696501,-0.000706246047168758,0.0006893629839943875,0.0017777745680434896,0.0024108439111144822,0.002590886499169152,0.0024485242316578007,0.0021731848258487304,0.0019294981575710508,0.0017955840329621892,0.001748773714358231,0.0017027052931372479,0.0015733301078471556,0.0013344433220149501,0.0010300946047667409,0.0007403293630292167,0.0005274381738133907,0.0003989094243704391,0.00030608773625025653,0.00017134685721453954,-7.7401171861989e-05,-0.00048111226188570855,-0.0010357027818759705,-0.0016856348548074155,-0.0023253929425947283,-0.0028163351488280476,-0.00302356955314297,-0.002863739803028319,-0.0023422809609201286,-0.001560203625983682,-0.0006852546196069098,0.00010094969450269778,0.0006594161232654909,0.0009342725772163277,0.0009646296010674069,0.0008647497372024887,0.0007789764365606829,0.0008255444115098853,0.001048447568270217,0.0013975007917964154,0.001749896437495409,0.001968968555073808,0.001972368427256702,0.0017683108838609512,0.0014322905890867526,0.0010370910229766342,0.0005886509641183268,2.3650044626804577e-05,-0.0007191489817984321,-0.0016027754717997662,-0.0024489232658524325,-0.0029947802037468964,-0.0030260260590838747,-0.0025040499571904605,-0.0016035081587476108,-0.000632131719230274,0.00012132662946097493,0.0005224580633520388,0.0006348936877110297,0.0006541894693803007,0.000776606182179574,0.0010804762838175785,0.0014856936323640656,0.0018093996999597984,0.0018805715149641346,0.0016439559364456182,0.0011933097688217858,0.0007190907964830469,0.0004066479158861527,0.0003439154092999095,0.00048192476735598854,0.0006565601221899221,0.0006538577692126503,0.00029360126704334306,-0.0004931147170112555,-0.001616943572288152,-0.002836146527609259,-0.0038235083219476823,-0.004277663599726245,-0.004038166238162542,-0.0031548661559462326,-0.0018764005544695133,-0.0005560797559047553,0.0004885359584012434,0.0011018031807673502,0.0013430968789931328,0.0014374430017279577,0.0016423062485180894,0.00209592582792194,0.0027307401039298506,0.0033055509232173285,0.003541666137591672,0.0032828785619280158,0.002582919780999552,0.0016704084574269303,0.0008191502469366398,0.0002085697238783143,-0.00014178899172617872,-0.0003355547893559652,-0.0005024600943623244,-0.0007165217188783354,-0.0009806868387262167,-0.0012702003059381194,-0.0015822685811738907,-0.0019428656144800348,-0.002365350409481759,-0.0028004653360934884,-0.0031261186315340644,-0.0031932943646805316,-0.0029002071706343406,-0.0022465015387292545,-0.0013361625698605122,-0.00033388471602235795,0.0005949961090182995,0.0013311817233240017,0.0018220309448496242,0.0020791191210570307,0.002160436312572584,0.0021428104737116417,0.002089898758775523,0.0020255783578022823,0.0019266597458939203,0.0017446055461455216,0.0014503602125459686,0.0010767947650523857,0.000725063041098431,0.0005167733246288434,0.0005098039270798457,0.000629325410767378,0.0006692299602786642,0.0003823666695219226,-0.000379467200136465,-0.001554451181327674,-0.002859446957372172,-0.0038952881808977835,-0.004317667653083138,-0.003984186237173428,-0.003003715208675938,-0.0016724596282742974,-0.0003422455754489241,0.00070808976794003,0.0013467977174864737,0.0015976256203656478,0.0015998085526898681,0.0015417627010430653,0.0015854419925438264,0.001799981579019937,0.0021299503099183274,0.002418948233487195,0.0024853011185767297,0.0022161136658722957,0.0016315989168860677,0.0008848684505002868,0.00019501298592896048,-0.0002555474565055986,-0.0004106466965833226,-0.00037246892511452506,-0.0003568363556747758,-0.0005886318425232288,-0.0011850590177300406,-0.0020833208261940286,-0.0030506733227661995,-0.0037769397253661083,-0.0040091623545283955,-0.0036638935177285923,-0.0028595058776010726,-0.0018504933853247822,-0.0008994669154691619,-0.0001584083780598706,0.00037584557903830307,0.0008137745698886193,0.0012720776765084009,0.0017880868253399107,0.002301677538643028,0.0027069873652925728,0.0029297200395226124,0.0029741473281347424,0.002911756910198419,0.0028267960760386696,0.00276027338357973,0.0026877099946824444,0.002537692405522444,0.0022322444328631372,0.0017229850499358274,0.001007588794601695,0.000125927312330208,-0.0008561831241800975,-0.0018657913849898552,-0.002834804702616006,-0.0036988260654768055,-0.004385326644575544,-0.004805167551423827,-0.004864688886501236,-0.00450279349792915,-0.003735311456232492,-0.0026755352152290092,-0.0015091810785922474,-0.00043010867300679825,0.00043044696204611846,0.0010433098691594814,0.0014707463825113208,0.0018155611029873374,0.0021589661124774497,0.002517948576727374,0.0028402947964275985,0.003036561289810688,0.0030307924000242356,0.0028031238051934,0.0024026173364611525,0.0019253005020278785,0.0014704873938320411,0.0010979013923016578,0.0008054882292407794,0.0005365168724172961,0.00021070104486246768,-0.0002364451899303764,-0.0008241467008835705,-0.0015175351492577836,-0.0022376440107546892,-0.002879903686099434,-0.0033324356143374983,-0.0034938610986819745,-0.0032954280683563683,-0.002727535690552092,-0.0018602374843817962,-0.0008414348451781478,0.00013765381519750992,0.0009038006359702142,0.0013654338384063742,0.0015456248662652347,0.0015620481370245025,0.0015596735356823391,0.0016312239654167416,0.0017704472643219802,0.0018853566057654464,0.001862923051176646,0.0016455451820251027,0.001272920812882492,0.0008648179006287846,0.0005557766189402919,0.0004193205689030018,0.0004229302908479017,0.0004373036985314523,0.00029533126898453454,-0.00012883156595454564,-0.0008597062805709296,-0.0018062683935113728,-0.0027937488315278583,-0.003619399169903905,-0.004106468881995376,-0.004142210902233833,-0.003697650753731293,-0.0028298469120002384,-0.001665557285481372,-0.00036756147398053426,0.0009067501491378912,0.0020376732011430925,0.0029521049148023277,0.003608846204080524,0.003976898131285923,0.004029020336221002,0.0037595943737922157,0.003212078122009173,0.0024878344901256774,0.001719743251308136,0.0010229783607244242,0.00045579300696887043,1.569799410105696e-05,-0.0003323621636253457,-0.000623272534858689,-0.0008808087668136697,-0.0011315672751030423,-0.0014225099585682573,-0.0018156331239951244,-0.0023509585133489534,-0.0029963777734608775,-0.003620125057074322,-0.004015323956890953,-0.003977204196860219,-0.0033988133167051496,-0.002333741228489025,-0.000988493872908388,0.0003545538901216132,0.0014446240304141081,0.002147412971068787,0.0024708739726909588,0.002528845809843314,0.002468733183096195,0.0024009321534141036,0.0023606833951810855,0.0023147229964271157,0.0022037803798808037,0.001994676981657655,0.0017097580974048847,0.0014133117412613665,0.001162877336662774,0.0009608698244130045,0.0007448854738887314,0.0004262774319081849,-5.162683967772257e-05,-0.0006784957018933775,-0.0013863161195703188,-0.0020876760228209536,-0.0027084442142440057,-0.0031925026447082393,-0.0034858841487828045,-0.00352754021269696,-0.0032667390813933073,-0.0026996346989933435,-0.0018947976664341732,-0.0009807115150600215,-9.612498433893643e-05,0.0006661106672148781,0.0012842232894008253,0.0017861677765542126,0.002199859577557693,0.0025130114222211447,0.002672626849502019,0.002624824379311807,0.002365810659547136,0.0019654377042609334,0.0015429589511003277,0.0012079407728987036,0.0010037633449867546,0.0008891541419308995,0.0007672238973416186,0.0005409614755577925,0.0001599319596570681,-0.0003667017033402927,-0.0009895296439668467,-0.0016473264945932446,-0.0022803450458280874,-0.0028238975900082095,-0.003199238497022902,-0.003322071916973874,-0.0031318336040714453,-0.002624691438035072,-0.0018679621501620967,-0.0009847332915475615,-0.00011372806300269226,0.000638328700115879,0.0012295888852772593,0.0016838385280740938,0.0020579011550628484,0.002394635471528378,0.002690006171261661,0.0028924340683856757,0.0029298643102253033,0.002743791366914509,0.0023127977294524946,0.001663994572660248,0.0008789255207167104,9.099407527911503e-05,-0.000541597351471573,-0.0008964692727242426,-0.0009597756745237422,-0.000861870354529029,-0.000834488924477354,-0.0010950821834096504,-0.0017179223793509853,-0.0025703837550089623,-0.0033594558645659565,-0.0037685737915922517,-0.003610106448454956,-0.002909194227134717,-0.001876047831887705,-0.0007897911804748583,0.0001345122991053139,0.0008221051483081427,0.0013261700221620801,0.0017495701750231446,0.0021569988164820485,0.0025308761791424028,0.002791868548947075,0.0028635551786553087,0.0027338614854697774,0.002469672455964731,0.0021745721487411583,0.0019208008287650118,0.001704789824247484,0.0014566674969978836,0.0010933135313742474,0.0005744770103297971,-7.573574118772605e-05,-0.0007898466704259502,-0.001497517972084572,-0.0021537186359419608,-0.002737777582319441,-0.0032300727536437924,-0.00358785442725993,-0.0037410102236294933,-0.0036156725356771427,-0.003175414724820568,-0.002455135509807839,-0.0015619987014767198,-0.000636374161566895,0.0002058675744728013,0.0009124835459334468,0.0014907605541446334,0.001967770536524663,0.0023474080445189277,0.002595238403842038,0.002659732117058688,0.002514348664077646,0.0021936572213886022,0.0018003184227515328,0.0014734204884756597,0.0013272982206569458,0.0013881214109614734,0.001563967758871275,0.0016729621197580427,0.001523788104867946,0.0010099791117935653,0.00016677765566074716,-0.0008420168958711289,-0.0018002635147227426,-0.0025357026589523787,-0.0029826179489595636,-0.0031791614790669456,-0.003208603313250712,-0.003128054075964744,-0.002932976152904708,-0.002577682193313221,-0.002031016201779968,-0.0013223740403317016,-0.00054330546353485,0.0001950212199309752,0.0008160264359754383,0.0013055755900289818,0.0016981479681954315,0.0020369561224537996,0.0023387671704137906,0.002584605118058635,0.002735014005647418,0.002752645314893049,0.0026156899162762468,0.0023184219259982887,0.001867646284655982,0.0012860740620036608,0.0006236953825163907,-3.600801149550173e-05,-0.0005931448571595017,-0.0009764436101336778,-0.0011941711910442006,-0.0013499375713988803,-0.0015940645439218308,-0.0020250852836123214,-0.0026019528581818804,-0.0031344521805176237,-0.00337276243375814,-0.003147469576892754,-0.0024712394056789783,-0.001534927691866765,-0.0006000775518798492,0.0001423505474952752,0.000657548589854963,0.0010478404409384994,0.0014510979778323697,0.0019304083038003265,0.0024274536401525343,0.0028027920521356124,0.0029275083834793695,0.0027628059499350353,0.0023799827553320878,0.0019154110209178724,0.0014940939252856972,0.0011692701118568955,0.0009100747494541193,0.0006372767280937446,0.0002794821808723588,-0.00018552401896571535,-0.000725929349283821,-0.0012847437220674645,-0.0018189429088582728,-0.0023198714608861338,-0.002798724644758301,-0.003245609229675144,-0.00359217814794994,-0.00371082350788636,-0.003462839585951344,-0.002774918064090987,-0.0016999860376518876,-0.00042254587102431146,0.0008007462731853019,0.0017373992548391985,0.002264366279548083,0.002402226788945524,0.0022869671965266318,0.002099351931798558,0.001988276432629752,0.0020199906629150663,0.002167475961427111,0.0023366425781823795,0.0024150445647294263,0.002322948612167244,0.0020450982323703027,0.0016288129188078218,0.001151292352021794,0.000676248282216065,0.00022386705912463443,-0.0002334374514336787,-0.0007523021607760631,-0.0013867494701252563,-0.002153075856689341,-0.003000987499304813,-0.0038044893513725546,-0.004385849016292378,-0.004573345019962957,-0.004271856925640169,-0.003510746889748539,-0.002440843200328704,-0.0012796240564475077,-0.00023171281492339333,0.0005784969937594058,0.0011363461138590631,0.001522249092924256,0.001862064631078558,0.0022608069654369185,0.0027439909312236936,0.003233018096435179,0.003572543045622773,0.003604623122432694,0.0032553439428349524,0.0025849750041658324,0.0017689261107199149,0.0010181437844445753,0.0004856386861114212,0.00021144179278642606,0.00012788360231385512,0.0001067337213196394,1.152930562142978e-05,-0.0002679367860178915,-0.0007954179110201256,-0.001566961060916616,-0.002487047300101829,-0.0033644161200181216,-0.003955712099434083,-0.004058575338779318,-0.0036129813135506866,-0.002747097718144927,-0.0017273588852450641,-0.0008313135213994925,-0.0002146534241598192,0.0001490266178413843,0.0004223860035796191,0.0007856054311019334,0.0013207778031593394,0.0019673730307101845,0.0025661078057078847,0.002951922563825396,0.003032897411629,0.0028140162812333703,0.002370397498862541,0.0018050204002449538,0.0012200655194969873,0.0007029664940666302,0.0003102141338696771,4.144027525849884e-05,-0.00017845277199428155,-0.00047889649742005223,-0.0009740418547590846,-0.001674227130090415,-0.0024382102596369848,-0.003013096871924142,-0.003155429261979108,-0.0027683785981961547,-0.0019699842975654113,-0.001043779435020661,-0.00029411300530269517,0.00011173763280491103,0.00022232999590800153,0.00025572083354918516,0.00045713856697823514,0.0009471240120850212,0.001649785308375134,0.0023382515364597147,0.0027616829207756,0.00277349258764347,0.002390508841609912,0.0017645523809753766,0.0011000611943625415,0.0005689140704440978,0.0002554616579335254,0.00013822844542034514,0.000103367277144522,-1.3109042457978837e-05,-0.00035927344710412956,-0.0009960270652265555,-0.0018529407820848018,-0.002739508449744495,-0.0034143729445805246,-0.0036824698161150504,-0.003472456714798241,-0.002856653435497124,-0.0020074815059733585,-0.0011182130456650697,-0.0003306918611999199,0.0002986443432891913,0.00078914929292226,0.0011988810250987043,0.0015824015503661543,0.0019606944467966195,0.0023125156893931548,0.002588341469482909,0.002738186559073502,0.002736641232461286,0.0025907559965138226,0.0023297628233107347,0.001988810581624382,0.001599896094031737,0.001192120288794409,0.0007918114473046487,0.0004125825241879683,3.7679076030155956e-05,-0.0003885132002849172,-0.0009413649271095231,-0.001668281422232385,-0.0025363660277874893,-0.0034111523193676024,-0.004088500611085352,-0.004370836241778796,-0.004151208026912187,-0.0034614819734333393,-0.0024586638020477553,-0.001356449803654663,-0.0003390657592587865,0.000497144561949149,0.0011480583774247464,0.0016598117752850854,0.0020741518735630403,0.002395906626811662,0.0025965110821019096,0.0026424875116272716,0.0025258953451023232,0.0022787766452046464,0.001966413127910847,0.0016642717542357877,0.0014280986344952643,0.0012688481164727426,0.0011448235815121675,0.0009786626883527977,0.0006946177911741478,0.00025781012081131573,-0.0003074948370673068,-0.0009323942033073811,-0.0015403448632813844,-0.002079409263514171,-0.002526552675341385,-0.00286492423657593,-0.003058671631877309,-0.0030516547831615564,-0.0027955211234786314,-0.0022876301728141655,-0.0015899276844411256,-0.0008120182158335844,-6.620932981534736e-05,0.0005777487867029064,0.0011092647788752273,0.0015552803116951762,0.0019380209947749236,0.0022446393707159008,0.0024315871344331246,0.0024590740553475155,0.0023273984875441358,0.002085801228823201,0.0018061210430437276,0.0015407270890439775,0.0012957654466777858,0.0010374884436536553,0.0007222586487524781,0.0003230955302777255,-0.00016690426104079832,-0.000748450360134825,-0.0014225961679489093,-0.002172352255418661,-0.0029293574305032685,-0.003557907626432451,-0.00388374641681276,-0.0037644218827942383,-0.0031646690053870634,-0.0021898796138828543,-0.00105268131749845,1.1906737579633225e-05,0.0008361780507998943,0.0013675277902455978,0.0016569268436555761,0.001806905474482657,0.0019155760319410305,0.00204404254028163,0.0022109712539339376,0.0024007486093354223,0.0025722183507227063,0.0026676250189460217,0.0026291807967646244,0.0024232510027485978,0.0020578260103567133,0.001576249585188511,0.0010264075056450011,0.0004260960508172853,-0.00024855202616011056,-0.0010399624204545969,-0.0019631429144654315,-0.002963088295836919,-0.0039012660874488706,-0.004585175151137693,-0.004836346492157406,-0.004570230809875721,-0.0038460552687552873,-0.0028512492791404227,-0.0018191221935879049,-0.0009222017536505985,-0.0002039567877264129,0.0004108543480487435,0.0010379258370650753,0.0017403437632941225,0.0024786493880450786,0.003129532053542846,0.0035546600223151964,0.0036746913314041015,0.003506910766485423,0.00315014760157865,0.0027302085106668842,0.0023382178488162045,0.001995542711992064,0.0016625334870312035,0.001282042632382341,0.000827107431772406,0.0003198317445086648,-0.00019098379366855398,-0.0006755716683380303,-0.0011560769296522174,-0.001697954356787021,-0.00235964238021654,-0.003129715169940715,-0.0038919503669519514,-0.004445820139718746,-0.004581083611248021,-0.004175181763293829,-0.0032653072886327994,-0.002053352475966009,-0.0008324163874497683,0.00013448168669313474,0.0007229890566945893,0.0009861370866723717,0.0011042351263284868,0.0012774497968584596,0.0016228786146731233,0.0021294854131336926,0.0026850809983717475,0.003146939423999637,0.003408500661692471,0.0034276465330941256,0.0032138425470222744,0.0027979915777485882,0.0022132792894578395,0.0014985266324938056,0.0007131436783338602,-5.780134260351431e-05,-0.0007215987719321735,-0.0012126272592960083,-0.0015221408424271245,-0.0017019307048568937,-0.00183630824092625,-0.001996695197656752,-0.0022042193269372094,-0.0024212392968812656,-0.002575318598764711,-0.002599473511135182,-0.0024634134599157797,-0.0021786248297164983,-0.0017798337750207002,-0.0013014220137499161,-0.000767041918433991,-0.00019550084496168307,0.0003890136422492808,0.0009554310119850867,0.0014746075965072166,0.0019288208604275538,0.002311349780710187,0.002614357319735577,0.0028144964968286196,0.002870643348639044,0.0027416061237343194,0.0024163045513953857,0.0019358244125767567,0.0013872864356535657,0.0008656760791383393,0.0004222663202517956,3.20233444648e-05,-0.000393947528468435,-0.0009506888034028678,-0.0016667889519186908,-0.002461773695631015,-0.0031643500344846077,-0.0035862623578246018,-0.0036108897084671148,-0.0032444684221610244,-0.0026001559306795237,-0.001828452960929283,-0.0010430072892152716,-0.0002912794018816928,0.00041813013016899793,0.0010661192493274072,0.0016016731505645648,0.0019693224034670774,0.002159509820216634,0.0022327684536272907,0.0022885983594309847,0.002395694617159194,0.002534116906442243,0.0025947525917688905,0.0024410591670642034,0.001994136220347487,0.0012873609348502,0.00045869125365689416,-0.00031263530479848367,-0.0008894167429964617,-0.0012377698474585266,-0.0014372335543158957,-0.0016343595149466705,-0.00196080396594624,-0.0024553717612547203,-0.003029388653624739,-0.003494355222617212,-0.003640860783174497,-0.003333653725982101,-0.002579589418942119,-0.0015353867570017182,-0.0004478555075773655,0.0004484810336329797,0.0010282253161083318,0.0013188149595145643,0.001469965503546756,0.0016660100216937192,0.002027031005901026,0.0025482984754040985,0.003105044981351229,0.0035147985328417342,0.0036221623472539326,0.003364446055632028,0.002791076937411505,0.002034786700442579,0.001254317513873828,0.0005766713465506541,6.034315831417907e-05,-0.0003131343121293671,-0.0006238115196535929,-0.0009828136963042841,-0.0014935038326846666,-0.002208940625289835,-0.0030935164712607758,-0.00400492135149614,-0.004716425164417397,-0.0049873725810848524,-0.004661630246593605,-0.003747112857884866,-0.002428334871332147,-0.0009965289550317982,0.0002700947161999251,0.0012124204415735003,0.0018270409223043733,0.0022194913255146956,0.002509841979110881,0.0027527478326965765,0.0029200240059775607,0.002948416685140835,0.0028101085469927423,0.0025508956645618128,0.00226836306275354,0.002047287095445078,0.0018992399551726656,0.0017495931467182554,0.0014830267843327911,0.0010200305964413235,0.0003759129442881039,-0.0003367384810452842,-0.0009672536218643366,-0.0014146928709730991,-0.001691170618351714,-0.0019180365268265604,-0.002249747251239471,-0.0027654039559910663,-0.003393174177155944,-0.003918720809281125,-0.004080086400318118,-0.0036980031287519987,-0.002767950704192629,-0.0014642076044846131,-6.029942336573086e-05,0.0011824851361497209,0.0020973627403763134,0.0026341916521399307,0.002833249641303156,0.002784672240033362,0.002598024231896563,0.002381995721751775,0.002221179725841218,0.0021463617106394287,0.0021143176307640106,0.002020383000051886,0.0017506052770290843,0.001250324611228577,0.0005668277756134964,-0.00016617931757557304,-0.0007985947455933274,-0.0012471044204841132,-0.0015378606487296599,-0.0017784543125456355,-0.002074627287797383,-0.0024452104926779208,-0.002792412116359932,-0.0029496249203461253,-0.00277847220638634,-0.0022549627666012617,-0.0014919708894461118,-0.0006855306075851707,-1.832384037958948e-05,0.0004236999950373736,0.0006776644192936045,0.0008642101167594152,0.001108421647953345,0.0014649561860526031,0.0018853108887586102,0.0022423489886103263,0.002398827664331493,0.002284530517179195,0.0019405157846691106,0.0015042044820079972,0.0011408857485941549,0.0009585994904229846,0.0009535289817535751,0.0010141938268794972,0.0009779472930202965,0.0007060943827879112,0.00013987317172609254,-0.000683097560308739,-0.0016477723062987377,-0.002596510916714748,-0.003362337806464339,-0.003797125039306613,-0.0038013745953480328,-0.0033572472534785453,-0.002551136589362457,-0.0015637185326034015,-0.0006167878197714419,0.0001073914693886075,0.0005361948996126234,0.0007280983729695364,0.0008321068829999021,0.0010061927976749254,0.0013379155004121584,0.0018065675763940337,0.0023003033478070324,0.0026719995784276764,0.0028026194388271228,0.0026455798275444955,0.0022403326957296747,0.001695538636340063,0.0011481894539167733,0.0007097515432847178,0.0004174951386474048,0.0002139623263480834,-2.8961606552566782e-05,-0.00044510256070989427,-0.0010959973262361466,-0.001919789131607659,-0.002737596692722992,-0.003320600205367033,-0.0034891482717920533,-0.003194635073690263,-0.0025387318961856455,-0.0017163086632895127,-0.0009143270665163233,-0.00022954428563201114,0.00034326840902287284,0.0008515122233889355,0.0013062711537365698,0.0016516659286667798,0.0018083307547151115,0.0017543961782256847,0.0015730970439416113,0.0014194533317666142,0.0014220153870472727,0.0015893923870519576,0.0017923967758852275,0.0018396055305612208,0.0015972170838911399,0.0010727189011771323,0.0004073106376245397,-0.00021573957950331757,-0.0006844870570243035,-0.0010191993863484794,-0.0013426844203773352,-0.0017799935036909513,-0.002350552090179764,-0.00292070579332387,-0.0032513406258820304,-0.003121765606136852,-0.002464090174005978,-0.0014281041932237206,-0.0003289496283775759,0.0005034682987827307,0.0008917878695961209,0.0008975895951893663,0.0007745546366550726,0.0008158488640739467,0.0011860348827823486,0.0018337564019666698,0.002529295791345326,0.002996707668085348,0.003059659523504666,0.0027201334100441727,0.00213441561026835,0.0015111400275516754,0.0009959860028600346,0.0006067443846396783,0.000246502924383924,-0.00022299298182920467,-0.0008939056094890959,-0.0017551958295182013,-0.002686704465487889,-0.003499005765538832,-0.003998358444576627,-0.004052239920088173,-0.0036327994109656616,-0.0028221810094040227,-0.0017781480913671096,-0.0006776182293807757,0.0003332796098785019,0.0011621585445825457,0.0017677872270088141,0.002149339181654696,0.0023404182931636955,0.0024031140431275645,0.0024079319773600057,0.0023969979097048138,0.0023503594680616934,0.0021853922460745947,0.0018033644666643352,0.0011636872385071637,0.0003401457582025329,-0.00048368754928023415,-0.001089020699248173,-0.00133173140156397,-0.0012269330035140178,-0.000956052327936309,-0.0007836190500652032,-0.0009210591004525628,-0.0014083030755783934,-0.0020793021465345834,-0.0026336102109362843,-0.0027780519594435425,-0.002365436481959992,-0.00146153372566926,-0.0003110900920769558,0.0007749590732856127,0.0015518127250052042,0.0019283446670545687,0.001974008418348291,0.0018537377851500544,0.0017334193529876748,0.0017045403099127244,0.0017572837041111259,0.0018035457425324296,0.0017313292729765934,0.0014648375986395575,0.0010062324755742583,0.0004414410072766609,-9.563452451499609e-05,-0.0004881309113049378,-0.0007003559204332611,-0.0008051026664966837,-0.0009522151084568557,-0.0012866495741182783,-0.001855206666098579,-0.00255381556197061,-0.0031511864617175863,-0.003385621455037293,-0.003090092307985566,-0.002280500313376912,-0.0011576809385626526,-1.952090909399483e-05,0.0008702869715103533,0.0013872971900104323,0.0015744324514357212,0.0015888811884439548,0.0016058244927509647,0.0017313925916847377,0.0019627062120665434,0.0022049928433440767,0.0023305103810933193,0.0022491182360829727,0.001957515057952542,0.0015434677145679675,0.0011412740567866687,0.000858945048276148,0.0007144576558936236,0.0006167518182357492,0.0004052715964944332,-6.905380616004114e-05,-0.0008609799569562019,-0.0018874328534282422,-0.0029449348684426847,-0.0037802565926013465,-0.004182942276718134,-0.004060878899197041,-0.00346924810548183,-0.0025824867316951877,-0.0016210661311044175,-0.0007638986105911072,-8.573107741311322e-05,0.00045022867063370227,0.0009412762060342516,0.0014656210093234136,0.0020227018232371772,0.0025306716066205793,0.0028811964988843812,0.003012972821416376,0.0029526719204357645,0.002794582528249155,0.002632049495076863,0.002486426482179364,0.0022813977762181836,0.0018812258384194639,0.0011704235302095597,0.00012722448235389245,-0.0011496380722066672,-0.0024695449961792356,-0.003611322990177178,-0.0043845942121335,-0.00467019263579669,-0.004436287595877122,-0.003735940349554155,-0.002691446587979829,-0.0014688027211948414,-0.00024656657591270136,0.000815258847474897,0.001601888007093453,0.002063285522856392,0.002222871219748174,0.0021693722354316327,0.002027591219019636,0.0019126441079238968,0.0018840183685674802,0.0019217593936982713,0.0019401208054893458,0.0018353484553798784,0.001544274090745988,0.0010819506639705993,0.0005360303417875588,1.8527885371233638e-05,-0.00040004251360302093,-0.0007361406159630249,-0.0010867011885196836,-0.0015655864165054255,-0.0022140926270161833,-0.0029408123906479967,-0.0035369516172845993,-0.003768996475419239,-0.0034979646424570495,-0.002751962820103022,-0.0017067607221116846,-0.0005901795346008355,0.00042451054896372275,0.0012698092960804585,0.0019583746328824,0.002513435921377619,0.002913078815681822,0.003089591599690662,0.0029831654442637806,0.002610496899360126,0.002095871833322848,0.001632673640470033,0.0013870597150372054,0.0013978785622150588,0.0015386550624223567,0.0015748298394867486,0.0012889341779943916,0.0005987275914194712,-0.00040480043192662416,-0.0015187590481127878,-0.0025402915773998593,-0.0033498081598018307,-0.003915955531191861,-0.004237476916159185,-0.004284158759790936,-0.0039925205139854265,-0.0033208247058745775,-0.0023161148993391194,-0.0011342833615001068,1.089187659837588e-05,0.0009413046734186521,0.0015912570576241015,0.0020189900141457102,0.0023477568956111416,0.002675599526046042,0.0030095737177124153,0.003261164145546647,0.003301020723658271,0.0030382671608805904,0.0024797976814783223,0.0017395925425852366,0.0009956071799306822,0.0004164862771992948,9.130978013032826e-05,-8.699604446787848e-06,-2.1524628742218424e-05,-0.00014096034228059252,-0.0005368644299169449,-0.0012785040221477085,-0.0022912955919444458,-0.0033656850566842903,-0.004217435557660028,-0.004579536647160846,-0.00429399698823752,-0.003370443029777335,-0.001989081673596847,-0.00044567183754133915,0.0009422524561205961,0.0019345434435686427,0.002437341198881534,0.002515943176644507,0.002346737763660946,0.002129722192316657,0.0020024334695690317,0.0019949963922295854,0.0020426656094342847,0.0020404509366216423,0.0019039765814032198,0.001603403342721608,0.0011591984854405213,0.0006136831859337176,3.914965162727887e-06,-0.0006459262103424522,-0.0013125204745784709,-0.0019561872708965195,-0.002514588775120548,-0.002913046652764829,-0.0030842111151801075,-0.0029855269171029895,-0.002609627611977593,-0.001990845502012825,-0.001209587664479729,-0.00038704916121773967,0.0003409203126023641,0.0008705779061344985,0.001177788780101277,0.0013358388531730337,0.0014835999932869045,0.0017515814653792767,0.002180834039647329,0.0026792061434992476,0.0030446499070118493,0.0030534492403905857,0.0025767643758516983,0.0016672161372335318,0.0005622155518940216,-0.0004121826459976786,-0.0009973601915376049,-0.0011361715828523545,-0.0010054143872639883,-0.0009204169519798845,-0.0011600531949154602,-0.0018090510062737835,-0.002704737551067936,-0.003514294874450971,-0.003896034098416144,-0.0036571797145861853,-0.0028304708352096205,-0.001641250812827047,-0.0003946744553271716,0.000652686033855683,0.0013763483713636478,0.0017953842564268937,0.002023395311821306,0.0021934906744412795,0.0023931073831327957,0.002631579593328909,0.002846150624895458,0.0029370960600414355,0.002813664214272629,0.0024321781995954514,0.0018146623385637255,0.0010450213109490683,0.00024514821545272624,-0.0004636229177690605,-0.0010035308263573201,-0.0013714139989855672,-0.0016396063755587534,-0.0019177874807843308,-0.002287235911117321,-0.002740715537073701,-0.003167076781919159,-0.003397600642699574,-0.003290773252316556,-0.002803789746764586,-0.0020081035878304516,-0.00104699127759534,-7.12944769209621e-05,0.0008051562212345863,0.0015151610274175978,0.002027179407907605,0.00233600145427404,0.002463231382937784,0.0024587192167079856,0.0023903357817976188,0.002319631047598604,0.0022742885972675247,0.0022341722486161055,0.0021420259508953925,0.0019356131982114536,0.0015835649486870963,0.0011024354248184258,0.000543032004968887,-4.48401216213845e-05,-0.0006429247165621986,-0.0012650193693591449,-0.0019234539014661965,-0.002585675368888169,-0.0031582111578334453,-0.003519612849633527,-0.0035871388101933314,-0.0033711163748208896,-0.002972943507649889,-0.0025205463814259193,-0.002082416424084065,-0.0016216484473237436,-0.0010269539473441076,-0.00020409929373801147,0.0008332677821908366,0.001937401749581491,0.0028870235278860516,0.0034981380549922274,0.003713102572278704,0.0036095368090074175,0.003326207694210707,0.002962125399924956,0.0025237899316499766,0.0019581862940390004,0.0012427797369303057,0.0004584867981976997,-0.00021825024330300764,-0.0006098772803914336,-0.000659892065886185,-0.0004987271409054583,-0.000400087146364983,-0.0006412380090696332,-0.0013419845443659799,-0.0023757088481665533,-0.0034092737308990405,-0.004055804104005119,-0.004058017169095592,-0.003402281919391595,-0.002306797801150101,-0.0011011463788948438,-7.045376983444104e-05,0.0006542237653286656,0.0011126594889558205,0.0014455422197805368,0.0017865042531412358,0.0021776337289607824,0.0025502545544420527,0.0027737343630900198,0.002738738210560161,0.002426063151043675,0.0019236019564583056,0.001383329813154845,0.000941365699762064,0.0006431833353414527,0.0004152869868809041,0.00010314384472936565,-0.00043934838470089657,-0.0012540442281694347,-0.0022293767026217988,-0.003128669250022761,-0.003685692729394146,-0.003720639733999507,-0.003218483338843116,-0.00233154564831129,-0.001307334052650887,-0.0003798804708407726,0.0003213925666873807,0.0008037151545068218,0.0011742239060979014,0.001558222510631013,0.002015885152413983,0.0024996472570367077,0.002873749683424901,0.0029856031835215134,0.0027508897468835223,0.002206087385569869,0.001499030590974236,0.0008212169762247727,0.0003168303927907657,1.6229982883538976e-05,-0.00017115082087487742,-0.00040157072520242314,-0.0008097395392430588,-0.0014349568806131252,-0.0021955037345968787,-0.00291915847896318,-0.003410977318836838,-0.003525691837955535,-0.0032150807077475467,-0.002536373453990857,-0.0016263315002364139,-0.0006566503965230849,0.00021369158848246088,0.0008786661168959913,0.001310191347490255,0.0015596061064534368,0.001729981725257887,0.001924361096385336,0.0021900894493368777,0.002487546379867267,0.002703701307220651,0.0027087187012389225,0.002429039310512745,0.0018971413695078455,0.0012461272422397292,0.0006458304901596005,0.00021222332910807165,-5.858019453567644e-05,-0.00029099657568544286,-0.0006600858774409098,-0.0012855608060193184,-0.00214610939072127,-0.0030628744074706255,-0.0037665594841514976,-0.004018000302620947,-0.0037208148401307326,-0.0029658219726145774,-0.001982683239341073,-0.0010260860570157104,-0.0002605949937039062,0.00029374570686744136,0.0007322746153371971,0.0011800192874185454,0.001704646929840973,0.0022756450293300668,0.0027843393849670836,0.0031045728479911906,0.0031564753516248423,0.0029409788867054976,0.0025329310305403645,0.002042448810852673,0.001566528956457895,0.0011526777024065326,0.0007875763866781699,0.00041252307077435397,-4.29239562217236e-05,-0.0006246828834438176,-0.0013309736548615604,-0.0021094434936662653,-0.0028698660755356806,-0.0035020558313582917,-0.003893457321206984,-0.003948863155771377,-0.00361494414599706,-0.0029034303492812535,-0.0018993852209592142,-0.0007452273287947891,0.0003951447764971945,0.0013765765315698615,0.0021017224705293007,0.0025320920901618156,0.0026828277744780794,0.0026070002475647473,0.0023761713218769342,0.002063528682000361,0.0017331632324945766,0.001434504364940019,0.0011982642010981547,0.001031937289722529,0.0009165719354149414,0.0008079747493631548,0.0006437982473532114,0.00035589793518507346,-0.00011257722230307828,-0.0007849739173911868,-0.0016256428946881652,-0.0025203731855540693,-0.003280321382678044,-0.003686333596300526,-0.0035721331578287257,-0.0029132776686619038,-0.0018668767876001177,-0.0007209675524252061,0.00023537891429191172,0.000852302974255945,0.0011828724198605237,0.001425338414089305,0.0017762516207438194,0.002286880744712637,0.002815999984030684,0.0031109616370025342,0.0029658412327537103,0.002355630199077625,0.0014621468687777237,0.00057812791030315,-4.842797120313525e-05,-0.0003367575367623497,-0.00039820347361697997,-0.00046050185825946945,-0.0007410725901737859,-0.0013354603255309318,-0.0021686807612709413,-0.0030230713815007915,-0.0036249412598576896,-0.0037524256955931284,-0.003320857822140205,-0.00241150506001963,-0.0012338435657605145,-4.1679597774327195e-05,0.0009563334046477107,0.0016528911525309385,0.0020477263258357175,0.0022125087116195725,0.0022409774426697497,0.0022095339580480676,0.002160251855241157,0.0021029730713937322,0.002025401548502868,0.001903008772967071,0.0017088560252392511,0.0014270776395873019,0.0010671125681223502,0.0006657064261941428,0.0002653527825834178,-0.00012305085299681097,-0.0005441644706871861,-0.0010796397719712559,-0.0017861986838541457,-0.0026263171168436064,-0.0034423252597570253,-0.004002341342989666,-0.004099989696430071,-0.0036522572772536843,-0.002738976407734081,-0.0015639943180437736,-0.0003653500817339171,0.0006726924447230481,0.0014629091731519766,0.0020043259372069626,0.00233966332137617,0.0025140471403173148,0.002556504325574234,0.0024850617928911366,0.002321429302696937,0.0020991212074011035,0.0018570377997665414,0.0016223403472866295,0.0013950030963083082,0.0011463464510457744,0.000834418315455487,0.0004266483192720003,-8.535343069295876e-05,-0.0006872683994358316,-0.0013536607678449656,-0.002053268517963572,-0.002736635060599295,-0.003314260844911463,-0.0036514667777877907,-0.003602871288998945,-0.003081080145080179,-0.0021216738589087906,-0.0008988571471651358,0.0003270691517782982,0.0013071719237289783,0.0018961023405623864,0.0020937046761944334,0.0020208169118300285,0.0018488015750462586,0.0017214594807095239,0.0017034569168794542,0.0017691935244777122,0.0018267109540030032,0.0017631189692309181,0.001497232395396654,0.001022518216774277,0.00041960819894871414,-0.00017616995686614128,-0.0006439667781821362,-0.0009468442822629327,-0.001155012884590202,-0.0013994823172034279,-0.0017781421357504499,-0.002272002615589579,-0.0027274006376576793,-0.002920505106003671,-0.0026707919228004325,-0.0019417634591433102,-0.000874183112157567,0.0002674462190741084,0.0012096554454887722,0.0017880936850564674,0.002007617564426861,0.002013049060964682,0.0019887052197626463,0.002045593769110249,0.00216156592561121,0.002206980803933066,0.002036810750977623,0.001590831133625741,0.0009394425717199984,0.0002460991119009415,-0.00033091710873990544,-0.0007353013329862236,-0.0010441318973078099,-0.0014088671034131512,-0.0019387588352613087,-0.0026002968685272894,-0.0032018113230285646,-0.0034815413985100105,-0.0032506984155869327,-0.002504756573913113,-0.0014341022188081804,-0.0003283721897209536,0.0005654607277451615,0.0011464897140270353,0.001470323983847909,0.0016742248247781904,0.001875356631870753,0.0021074420652268705,0.0023244413880205523,0.0024510563391255463,0.002435051805391489,0.002268302758451625,0.0019752004408343936,0.0015904984965999223,0.001148117289076885,0.0006837804365845889,0.00023711194442459295,-0.00016079206867876102,-0.0005108899608080291,-0.0008599073171073396,-0.0012834815076251294,-0.00183786050827744,-0.0025041751889006434,-0.0031610114591881983,-0.003610747972522688,-0.0036571039271708124,-0.003199947668823115,-0.002297334491820315,-0.0011566951797626495,-5.338552237952004e-05,0.0007846798264873265,0.001266764576541558,0.0014561034964285984,0.0015071622254528999,0.001563626439212241,0.0016799984961605747,0.0018108538884744904,0.001864750690225903,0.001779595828155062,0.0015697201398383112,0.0013198992490929809,0.0011355748061609532,0.0010807801117425479,0.0011378968446323974,0.0012090203413696453,0.001156217340080076,0.0008594631275916909,0.00026616120981171965,-0.0005849877150528515,-0.0015696640638085666,-0.0025086050536064983,-0.003215593354650866,-0.0035511544044137425,-0.003464049400432725,-0.0030013981577717936,-0.0022797631584770784,-0.001430558142493832,-0.0005497977654917922,0.00031894615925612377,0.0011602854465390363,0.0019413714086383587,0.0025809420974879337,0.0029609745102704196,0.0029804623632196333,0.002620694595733314,0.0019796820254608634,0.0012486966937216301,0.0006375651941931016,0.0002860015991437477,0.00020592268636006615,0.0002809290327496749,0.0003189921998289901,0.00013223444423968509,-0.00038782049805402704,-0.0012239265933935639,-0.002228419106666539,-0.0031616738253239835,-0.003764560562644388,-0.003844022874690099,-0.003341406314662459,-0.002354539526423084,-0.0011022152029835652,0.00015371546180703176,0.0011944727108754117,0.0019042668748479345,0.002284805664215348,0.0024250510665503977,0.0024433509937890324,0.0024285045205889332,0.002405647066197566,0.002340436194991671,0.00217529398805643,0.0018748782467487436,0.0014542879358094684,0.0009746084088784893,0.0005092348045481736,0.00010054282398598097,-0.0002678703980414323,-0.0006655885001903988,-0.001176122386113982,-0.0018425862885310942,-0.0026261006300446117,-0.0033982766545714903,-0.0039718764824587475,-0.00415760418236198,-0.00382802039857437,-0.0029698596971441723,-0.001707474260731484,-0.00028234778978086805,0.0010165270663994128,0.00195455092632418,0.002443237659503222,0.0025708383848365556,0.002545198568440818,0.002571258853920489,0.00272916939947946,0.0029257617818309028,0.0029532200643202643,0.002624785412368794,0.0019066749178689283,0.0009619784850164344,7.307856010763789e-05,-0.0005147775867456825,-0.0007342357406263495,-0.000734486809748096,-0.000793909370233043,-0.0011575317670068095,-0.0018908246927908344,-0.002828436661993671,-0.003643051228199697,-0.003996830052050256,-0.003697759416481157,-0.002784649065696993,-0.0015047431142778238,-0.00020298385504794814,0.000818624661658427,0.0014073022515244597,0.001591563865869775,0.0015360982259350411,0.0014478802595703608,0.001477970796298058,0.0016613710713012791,0.0019183710627824165,0.002111351370831181,0.002124088045271017,0.0019212168712641805,0.0015594185581819136,0.0011498981041944446,0.0007966193167657936,0.0005437891291890074,0.0003573744433540021,0.0001461477320980648,-0.00019103063991565564,-0.0007143722656504559,-0.0014094165941750494,-0.0021819457549189618,-0.0028824012516533767,-0.003351026176314983,-0.003467762083172674,-0.0031887267138999433,-0.0025564470446547694,-0.001682483322598593,-0.0007124174920645869,0.0002121468984126653,0.0009833479833983648,0.0015441702728437726,0.0018924498828189907,0.002071200851558516,0.002145312378778099,0.0021706652527412793,0.002169821487462098,0.0021288737411933817,0.002017626784914111,0.001818098075501461,0.0015397974778418424,0.0012113077185730299,0.0008567519334217353,0.0004761970544848444,4.371552750890217e-05,-0.00047668402029141726,-0.001106382184099598,-0.0018286364321488321,-0.002573675994173766,-0.0032197209856559363,-0.0036170603694310206,-0.0036350714039040345,-0.003217012290185403,-0.0024149428288300573,-0.0013806561910118351,-0.00031105155086610784,0.0006253614211440021,0.0013412565723241357,0.0018367974376338528,0.002164281379325317,0.0023799189412790803,0.002512474946711224,0.0025603051288646183,0.002508137469764093,0.002346076750007158,0.0020774301633561584,0.0017134303719970308,0.001263977178780663,0.0007362849975230718,0.00014464365826003021,-0.0004786406114678614,-0.0010853350298034117,-0.0016295964595421084,-0.002088427610804828,-0.0024640352463557616,-0.002761591468319199,-0.00295932923937616,-0.002999390958945537,-0.0028142283199203964,-0.0023738167061054844,-0.0017185437411677091,-0.0009500279444654037,-0.00018251341194228912,0.0005131000900115287,0.0011346328250256708,0.0017267317308420223,0.0023272780308127823,0.0029181222728697307,0.0034120151818897273,0.0036838054446761024,0.0036276734064642807,0.0032092066274759965,0.002486396128749127,0.0015912447514791074,0.000682903487122029,-0.00010567404922541218,-0.0007068399546319226,-0.0011320537965362615,-0.0014588150106163793,-0.001794273653257372,-0.002223551841717458,-0.0027590680530830544,-0.003314856868719596,-0.0037260448002830867,-0.003813411407286473,-0.003466071835097362,-0.002700182677966096,-0.0016607759332332968,-0.0005637992215548168,0.00039200669325381425,0.0010988514958038176,0.0015651693556313598,0.0018852923207666869,0.0021734473296241077,0.0024967259555315007,0.0028398445885226644,0.0031179621013835523,0.003228629011446001,0.0031114130206716805,0.0027784262501187856,0.002297938212654057,0.0017452470966879277,0.001156195859665509,0.0005137724163552597,-0.00022640089647168354,-0.0010901017132226962,-0.0020450586775140568,-0.0029873938012048695,-0.003759206547614193,-0.004191254129577968,-0.0041585371594988945,-0.0036324812359770954,-0.0027095452353443072,-0.0015969575155609342,-0.0005493241981424729,0.00022493160979365084,0.0006449948959048571,0.0007829635226402269,0.0008161293753131509,0.0009300352242914665,0.0012238059706510815,0.0016664661867783395,0.0021228582686083756,0.002429660544358587,0.0024778945291770494,0.002260283870998777,0.0018656725147767946,0.0014312667342858978,0.0010794391988382258,0.0008649320854418423,0.0007494291992946385,0.0006125753867312631,0.00030057983681667047,-0.0002999679023700866,-0.001192105463364618,-0.002238528219127151,-0.0031942956670837365,-0.0037939563410352294,-0.0038546239225672537,-0.003346462055516271,-0.0023987042746097197,-0.001242699800649264,-0.00012391249500897153,0.000774751313762594,0.0013694838983439575,0.0016694727931712522,0.0017463129704596155,0.0017000806743958344,0.0016311890295741037,0.0016147854312045839,0.0016751721160913606,0.0017699875459304538,0.001801610146725845,0.0016626318343160398,0.0012976284750896446,0.0007449737578969703,0.00012813494939019235,-0.0004047621222220835,-0.0007609353252531037,-0.000955890245685482,-0.001106013354840768,-0.0013600547868525372,-0.0018030972936829025,-0.0023853020677780876,-0.002919203144850932,-0.0031548807794087802,-0.002899172713030666,-0.002118074562002113,-0.0009673590956435941,0.00026726827758834313,0.0012921311991408754,0.0019286056921373302,0.0021754088326527954,0.0021810150922309934,0.002145750774416937,0.0022095617286573637,0.0023844984659970063,0.0025615684627709615,0.0025803263820812195,0.0023198306148648267,0.0017636787390616327,0.0010087216546712796,0.00021666435655705633,-0.0004644365121185233,-0.0009688672639263171,-0.0013388673710251655,-0.0016942977601527229,-0.002157945839803432,-0.0027693132675346826,-0.003431492376663496,-0.003928570329307998,-0.004018691027327754,-0.0035610409974642307,-0.0026035427292191355,-0.001371535123695832,-0.00015664482527525062,0.0008282049655174335,0.0015368067237336593,0.002067699690312679,0.002553670139386705,0.0030423553804989852,0.003449675962150161,0.0036147234081495613,0.0034150261201640578,0.0028620150566829533,0.0021117617465331003,0.0013831049828230374,0.0008360515785265923,0.0004883542581785773,0.00022115807259149157,-0.0001354421470160245,-0.0006963990960869697,-0.001460165904516819,-0.00231749193251426,-0.0031077164232576767,-0.0036788448173767424,-0.003922894960473447,-0.003786457997478322,-0.003271388616726243,-0.0024354552386754054,-0.0013899901550096557,-0.00028531363713154754,0.000720460594677518,0.0015024358246695222,0.0020038400914922086,0.0022484806748570866,0.0023235734984005515,0.0023393024097380687,0.0023814849113464646,0.0024754235726846285,0.0025737435329292024,0.0025733971790574467,0.0023591307883417427,0.0018608834223730552,0.001101286239730226,0.0002044655493849514,-0.0006503406036696442,-0.0013155602050268422,-0.0017538860752118277,-0.0020521656420596415,-0.0023493935982391826,-0.0027199412662503807,-0.003095002047442446,-0.0032857385850845753,-0.0030992979679896736,-0.002470629941766939,-0.001522550231600489,-0.0005165295992009436,0.00027478859579031095,0.000700040513001432,0.0007955853422496012,0.0007538012849219291,0.0008133949573709293,0.0011311071851365622,0.0017014736768121907,0.0023639505094656186,0.002889452867637111,0.003096377441123844,0.0029326702826556203,0.002483245778001398,0.0019070961382277015,0.001347469734502661,0.0008676373144873688,0.0004414877417237712,-7.745540783001578e-06,-0.0005508562869017267,-0.0012085971470502238,-0.0019354593196949652,-0.0026308887691191118,-0.0031692889061544337,-0.0034378810343134647,-0.003371330464604763,-0.002973065256344228,-0.0023162307491770683,-0.001522653340740952,-0.000725550195608582,-2.877449806940914e-05,0.0005216593339227851,0.0009416109728612178,0.0012856150577848576,0.001605932957219142,0.0019141000917285386,0.0021678669663491267,0.0022951811658896127,0.0022438229995803715,0.0020244386659182497,0.0017141855940345527,0.0014135903480469321,0.0011836949311497633,0.0010065411679763174,0.0007958675822601597,0.0004495701133320857,-9.115313475152305e-05,-0.0008101864245637898,-0.001622955299063253,-0.002406858319453935,-0.003034269160920709,-0.0033966209695677103,-0.0034210337812416764,-0.003084669223726734,-0.0024260180093083577,-0.0015450610647529852,-0.0005839978411174824,0.0003111401792332692,0.0010351261535845157,0.001553408892369326,0.0018997278243420212,0.0021404712927041644,0.0023257562611331867,0.0024575223134946575,0.0024945523519117343,0.00238908729010484,0.002128232865766003,0.0017513884212140868,0.00133240529523775,0.0009383185712324313,0.0005903136719358478,0.00025058969899300373,-0.00015624292145550393,-0.0006979993327529267,-0.001389796955916587,-0.0021719987109617587,-0.002921028307629057,-0.0034864872050818776,-0.0037377505537348277,-0.0036020847804118356,-0.003082235207226742,-0.0022511200987090528,-0.001230623269437621,-0.00016507322050372808,0.0008045122448489461,0.0015660634942043792,0.002061741324082273,0.0023031037348101406,0.0023609428422093795,0.002325982336724043,0.0022595661512049585,0.0021661914906815002,0.002006905995817802,0.0017430019779409813,0.0013779593959916906,0.0009689717906825558,0.0006020783125053272,0.00034726696216867974,0.0002176198069701302,0.00015092871611754286,2.2715628330338797e-05,-0.00030923350977606523,-0.000939531600702005,-0.0018530304373577673,-0.0028974735333398443,-0.0038141353561406705,-0.004323669427368155,-0.004233450161184012,-0.0035164464210900104,-0.0023230573431629485,-0.0009213455087631697,0.0004032778436425758,0.0014419218887153818,0.00211257710797335,0.0024552912941664365,0.0025851181411167138,0.0026289147610464364,0.002671989993321966,0.002731598411010026,0.0027617895483989414,0.0026826017379312757,0.002419605020140675,0.0019391885426006438,0.0012689058625441384,0.0004965810324170385,-0.0002544017084082223,-0.000869950720824172,-0.001295860725011679,-0.0015695014310185321,-0.0018082258518764176,-0.0021475715146123957,-0.0026522216551634757,-0.003248108415497712,-0.003724602606243071,-0.003822424375136705,-0.003369773837035619,-0.0023900965493087083,-0.0011114799350645038,0.00013720760489572886,0.0010876033318251643,0.0016558135592334188,0.0019553493399920717,0.0021945345289557825,0.0025262420165975195,0.002945286223376974,0.003294063514105966,0.003365728152625215,0.0030351844618093336,0.0023378314397971903,0.001454986016545324,0.000622691265471568,1.997719968592211e-05,-0.00030550081628724526,-0.00044473629035090526,-0.0005733641816358648,-0.0008659319618186071,-0.0014147851737253095,-0.0021838009169704016,-0.003012968897548985,-0.0036712689844384883,-0.003938032795534702,-0.0036832179754852324,-0.00291762372779386,-0.001794022249575692,-0.0005568899093057128,0.000542185393800973,0.0013312119302968958,0.001771240388910545,0.0019533595895826882,0.002039796868964541,0.0021752628700056893,0.002410245281725011,0.002674565709768305,0.00281632066174425,0.002687935663278677,0.0022342881098399445,0.0015335358159927846,0.0007650698070598711,0.00012031895789046585,-0.00029357854957811366,-0.0005034524703856214,-0.0006486271241566625,-0.0009040296294151849,-0.0013882675644162632,-0.002097506748005817,-0.002891421756129192,-0.0035381749767549927,-0.0038039302333180113,-0.0035516400842292304,-0.0028041734942540666,-0.0017391326906028067,-0.0006150966385437579,0.00033543671825249155,0.0009934241407894618,0.0013791600208733603,0.0016091590281165674,0.0018142054179830385,0.002067340695729053,0.0023590529260215424,0.0026235979199542986,0.002788131746854575,0.0028071566921196583,0.0026635020844876234,0.002347432098786622,0.0018431508469297184,0.0011434350706970877,0.00028510245260529035,-0.0006274475341652895,-0.0014436450035922544,-0.0020351815877288635,-0.0023713343189690366,-0.0025428895831149266,-0.0027039542528539506,-0.002959407899576825,-0.0032714677762300235,-0.0034542336271769273,-0.0032698390503379067,-0.0025717961176514857,-0.0014076692305702613,-1.698734482537571e-05,0.0012753679369795464,0.0022075725414687913,0.002686569319267998,0.002796731004103269,0.0027176532920824125,0.0026090461558440237,0.0025324908101199825,0.0024477588929995246,0.002270489002940674,0.001944056172327675,0.0014811793114090036,0.0009598663942021221,0.0004862681785859588,0.0001463534327141278,-3.635234592461363e-05,-0.00012423734436179832,-0.0002573071050271283,-0.000603979838417746,-0.0012788804877093708,-0.002260799211621968,-0.0033584848053820485,-0.004258347001373822,-0.004647138595545427,-0.004355815935433775,-0.0034481887992152084,-0.0021993441835588237,-0.0009676397681432814,-2.6795224542760176e-05,0.0005493232239633943,0.0008863898886293642,0.0011998970365866318,0.0016479077778992894,0.002238780823254321,0.0028472129029331597,0.0033178355736412125,0.003576721208976596,0.0036687397597103895,0.00369492437832923,0.003699285044338675,0.0035947689247352197,0.003192841250205793,0.002326437129303452,0.0009848042847036757,-0.0006361204758399529,-0.0022091984760449473,-0.003431997552866598,-0.004162276836812823,-0.004449461965298566,-0.0044542687665289965,-0.00432362650454759,-0.004106975571026764,-0.003756589210915223,-0.003191323138112434,-0.0023693519447389837,-0.0013264674395385948,-0.0001704250373213282,0.000952880254803476,0.0019018108133494387,0.002577939982816875,0.002953382944163638,0.0030761973599076056,0.0030455527299953385,0.002961699891270861,0.0028739161773768725,0.0027570888221486703,0.0025342450402819766,0.0021336762699596685,0.0015446178817881304,0.0008340160442771442,0.00011222801660238328,-0.0005293114478943126,-0.0010656949601792432,-0.001538861178614983,-0.0020107781557834707,-0.002501532261620763,-0.0029540218304579743,-0.0032494544482047603,-0.0032657207095241093,-0.002944131599293294,-0.00232482358299035,-0.001530310300483123,-0.0007082239272304884,3.1790935992344034e-05,0.0006510080177094348,0.00117001865351146,0.0016270192788664217,0.002036626597881287,0.002374317301253064,0.0025911206915199634,0.0026436137593669473,0.002518041868894548,0.002235838361852336,0.0018421930617430731,0.0013885603872545499,0.0009192251590536434,0.00046531296408943465,4.447601005898305e-05,-0.0003361781839485503,-0.0006756802053167442,-0.0009760389190176812,-0.001243722768787326,-0.0014958916735432215,-0.0017647066456036337,-0.0020887613070935886,-0.002486050893096541,-0.002918545553880124,-0.0032736604440948254,-0.003386899740795777,-0.0031071519262360113,-0.002375128099414078,-0.0012697433326687977,9.217727313416582e-06,0.0012180858777393107,0.0021666590693968984,0.002784187606877863,0.003120188876271254,0.003283886547129415,0.0033613899078066825,0.0033618292724840342,0.0032243984999631072,0.0028785309000635907,0.0023144572227892695,0.0016147900095355118,0.0009245256670848228,0.00037848043153688885,3.247901065891773e-05,-0.00016060221388686084,-0.00032032532008990943,-0.0005774397124872583,-0.0010181398258271076,-0.001657213681523718,-0.002439542354570768,-0.003254571046226894,-0.003952272901013581,-0.00436389634444509,-0.004338845134626342,-0.0037992936308615145,-0.0027926039412418963,-0.001507199695317317,-0.00022645088635814286,0.0007731178036595473,0.0013364566223786007,0.001497481554626511,0.0014568002880252606,0.0014741369770298347,0.0017307849001281178,0.0022380580232695176,0.002840877825498436,0.0033079268960894553,0.0034512183315440334,0.003209731256116559,0.0026625545583546157,0.001978728312976685,0.0013362346303866152,0.0008451434177981631,0.0005011934281922903,0.00018652916008140956,-0.00027719272483571976,-0.0010367394457831696,-0.0021118038174758676,-0.003343484421055152,-0.004423082223908303,-0.005002757877440578,-0.004845248675803782,-0.003940311586590918,-0.002523206237070898,-0.0009783279781471602,0.0003260095299441436,0.0011866592466537743,0.0016233702802140545,0.0018218590475962723,0.0020013099958729914,0.0022828585081822294,0.0026295139089567094,0.0028846238112819485,0.0028803841403932857,0.002549836333337166,0.001975576287939767,0.0013464729398069255,0.0008487480460409779,0.0005573087188273531,0.00039267497629974003,0.00016812180243963159,-0.00030274623303763845,-0.001100308781045417,-0.0021496751899613992,-0.003245124552719116,-0.004126603654002351,-0.004568321864757961,-0.004445409800034326,-0.0037632470261048418,-0.0026504544409349552,-0.0013230003581025033,-2.6759292792347122e-05,0.0010315842567534166,0.0017461982121402008,0.002139621066647849,0.002337004985556702,0.00249364009445971,0.0027107372553127635,0.002983776158035672,0.0032097222631802197,0.0032466624893513277,0.0029931360900070686,0.0024473542504747864,0.001717815006445284,0.0009792884970658603,0.0003938642272403025,3.5877265740596976e-05,-0.00013972120417131043,-0.00026877611366244824,-0.0005072579990069772,-0.0009594595628921207,-0.001639872936658438,-0.0024759960379621693,-0.00333533599042495,-0.004057112241595544,-0.004482475226530525,-0.004487670260669622,-0.004020703759171764,-0.0031293275427646317,-0.0019619458648554916,-0.0007321939235402761,0.0003438884635979107,0.001115663635724415,0.0015461996903751523,0.0017224593485800886,0.0018183988029963616,0.0020170210201668867,0.002418394525305614,0.0029777099941991096,0.0035138730493452413,0.0037968688636302664,0.003674462592452643,0.0031665350398086623,0.002465530039856235,0.001833834014394643,0.0014519950803810928,0.0013048553673248476,0.001174773458738496,0.0007525425439567069,-0.00018971549210669168,-0.001656365814736418,-0.003394661356937199,-0.004987963620215491,-0.006025296086908971,-0.006260594503070859,-0.00568946571720285,-0.0045208213444218655,-0.0030723349591746715,-0.00164571192819096,-0.00043379555415352434,0.0005123216103951469,0.0012555642986032478,0.0019047368645175552,0.0025374577746765637,0.0031474102074181445,0.0036404905945429675,0.003884104845848898,0.003785886578171665,0.00335674519023407,0.0027170154305145317,0.0020385561618948287,0.00145893941038354,0.0010222943617388355,0.0006787897273742012,0.00033061967566912925,-0.00011514406303537542,-0.0007168343970314334,-0.001490330948774851,-0.0024022083328301357,-0.0033527136740258896,-0.004164029470487017,-0.00460501867965459,-0.004469109489364135,-0.003681684917795805,-0.0023757573222169875,-0.0008741222261668458,0.0004361659635395474,0.001282205359721409,0.0016389650370656696,0.001735868602225354,0.0019209113708993772,0.002448642206046149,0.003308417087529691,0.00419642838331107,0.004659611913061322,0.004339401886889991,0.0031783685703965607,0.0014687627878598802,-0.0002857300958753967,-0.0016133580807820886,-0.0022845263466760644,-0.002380560943118353,-0.0022019621846049117,-0.002084376341907662,-0.0022266865659564886,-0.002611817464548418,-0.003042873253600251,-0.003260603231760214,-0.0030771865661885604,-0.002462932437117169,-0.0015505175222210472,-0.0005622730234716156,0.00029723878043216444,0.0009255304397892803,0.0013412834725442264,0.0016368709606464818,0.0019033543971594823,0.0021783054826015453,0.0024417625312004917,0.002646941129254575,0.0027523122488914125,0.0027327780549700883,0.0025735971157136665,0.002265408088411996,0.0018117819748000087,0.0012435562530741253,0.0006244193441111369,3.674122131714676e-05,-0.00045020495841511924,-0.0008148790760804298,-0.0011006012225196892,-0.001399964969309221,-0.0018073349515279646,-0.002359877761478122,-0.002998343123947284,-0.0035721719677056078,-0.0038920429535993606,-0.0038080414281573566,-0.003276222561886673,-0.002379599839233526,-0.0012923984875096016,-0.00020761931212454152,0.0007318112300251165,0.0014628538874678165,0.001984631448269103,0.0023154628645066294,0.0024608413632184844,0.0024161811427902973,0.002198351257645781,0.001874774999948185,0.0015580929288932684,0.0013600130626427113,0.001331142919558491,0.0014288239292008249,0.0015395588092119651,0.001545645473326955,0.0013924914934752269,0.0011096166640029493,0.0007710448127014214,0.0004269497831344699,6.118543763201378e-05,-0.00039084782851685055,-0.0009770335102950818,-0.001666471730699877,-0.002339753867111893,-0.00284285999691568,-0.0030698568392115433,-0.0030184275118250677,-0.0027801620842566824,-0.0024716489001393514,-0.0021532188581489028,-0.0017922373422726212,-0.0012985168775523402,-0.0006085731694313642,0.00024140965804900216,0.0011083970677412437,0.001809773305677226,0.002221231372439823,0.00234061915470776,0.0022771167007045613,0.002174823497749493,0.0021212306042730903,0.0020988985262667017,0.0020095663763275576,0.0017523923090204117,0.0013020111393292964,0.0007315924116889269,0.00016336930627639835,-0.00031880641552471564,-0.0007290581190241535,-0.0011602101944319866,-0.0016903786797893743,-0.002279856615208055,-0.0027409439634191114,-0.0028204135408590233,-0.0023548557506205656,-0.0013989999979518075,-0.0002341461192684269,0.0007605653499962611,0.0012988273719018902,0.001322851136498562,0.0010060859015820047,0.0006333336002838693,0.00044147275955478326,0.0005149018410059271,0.0007814730313295717,0.0010882540286533719,0.0012961827279752694,0.0013373007807395,0.0012153519236728558,0.0009701571639857371,0.0006420554089363543,0.00025911030026675385,-0.00015643441770640072,-0.0005809316054746307,-0.0009933545107576576,-0.0013852391774939817,-0.001761687278126744,-0.002125618212131281,-0.0024536578681987713,-0.002682451920601821,-0.002719833452217636,-0.0024797888835039555,-0.0019251059611519454,-0.0010961758729118522,-0.00010997050971556363,0.0008740480869229258,0.001708815911236654,0.0023103910282689004,0.0026779217976784296,0.0028711569888176082,0.002959104712930181,0.0029721548884820157,0.002887499779876103,0.0026550552454770605,0.0022444424241030887,0.0016809777915198897,0.0010468506901764824,0.0004456573564944223,-4.9751470184930275e-05,-0.0004362381644885246,-0.000782294277909715,-0.0011876183277627847,-0.0017184901420459696,-0.0023545335498316817,-0.0029817254196158,-0.003442136162761181,-0.0036144045423873302,-0.00347584328898188,-0.0031067553585616297,-0.002634706563313268,-0.002154460190855208,-0.0016726434522220494,-0.0011096213423271203,-0.0003579688184510364,0.0006339276973224277,0.0017993004988880559,0.0029495134364684946,0.0038387681458557643,0.004268952485746423,0.004181418669493462,0.003685798939661861,0.003008065114839506,0.0023831337508811723,0.0019469914559254128,0.0016835949259144517,0.0014527232330468322,0.0010810869265382062,0.00046351974346263327,-0.00038394368478959507,-0.001345387552021394,-0.0022772685479618806,-0.003076018059487041,-0.0036954552087890926,-0.004112632767621408,-0.004283689166297738,-0.004138362256540042,-0.0036266585075592963,-0.0027822621708093053,-0.0017462701960125819,-0.0007208853115693832,0.00012504302582083226,0.0007397667201968221,0.001207306631643292,0.001686393839774966,0.002302775430632776,0.0030562415978179725,0.0037974361043511167,0.004291061097536595,0.004332098615023334,0.003850118682226007,0.002944083767717953,0.0018319422940516875,0.0007487849588776012,-0.0001466371201541627,-0.0008093197410627682,-0.00128150943443815,-0.0016343343722182615,-0.0019225063319362073,-0.002175885054237751,-0.0024154292412155495,-0.0026607694232461173,-0.0029098596064677466,-0.0031057590334200684,-0.003129061363828241,-0.0028424822078484137,-0.0021731334484255734,-0.0011810881276541707,-6.180917121481274e-05,0.0009309356736842698,0.0016026071137132513,0.0019078446344317722,0.001959559437631434,0.0019526545269986542,0.002048662530831444,0.0022883062741690546,0.0025784681731902087,0.0027540028883445014,0.0026730790671724214,0.002290987078629818,0.001675805880480236,0.0009649777105668808,0.00029230293055444636,-0.0002747608010528913,-0.0007577177628618416,-0.001240975727721723,-0.0018106244355473081,-0.002487676169075041,-0.003190037723007493,-0.0037463287157705983,-0.003959582519231541,-0.0036920510060773296,-0.002930394562775522,-0.001801147533251253,-0.0005313386360438683,0.0006276697239293737,0.0014839391876974666,0.0019671767949005223,0.0021463255688701547,0.002190791609014027,0.002283621718761265,0.002521056618711347,0.0028499308364728394,0.0030842004988089577,0.0030020518205950424,0.0024764260559124547,0.001565633717907173,0.0005067615346526885,-0.00039322380363027067,-0.0009146282630009856,-0.001045008651942915,-0.0009919934072558948,-0.0010741754403704256,-0.0015418554260839044,-0.0024219200682254033,-0.003474233322414853,-0.004289894886275927,-0.0044835352273315835,-0.0038781769866047125,-0.002586191109147479,-0.0009507178635507268,0.0006110333224082186,0.0017756996060636083,0.0024140942117021305,0.002592548149957961,0.002496615272863469,0.002327997148515163,0.0022232005810250074,0.0022189735255550634,0.002263768740433604,0.00225953812578441,0.002114528757652309,0.0017881163744750338,0.0013097233017096725,0.0007606652969930129,0.00022484220872945082,-0.00026545871121822927,-0.0007540350761026075,-0.001333681588544271,-0.0020741044328780106,-0.0029406262473998914,-0.0037542955891117107,-0.004232825080802278,-0.004111801493126116,-0.00329255102778875,-0.0019311168668294109,-0.00040252385412619654,0.0008570420920378232,0.0015519070532407128,0.0016620962653255962,0.001435227829588752,0.001237913221420289,0.001348954652715165,0.0018099687404857616,0.0024156039226630355,0.002843774886680784,0.002845296453631881,0.002381115402197393,0.001631630192080322,0.0008817006879866358,0.00035656245223737444,0.0001051354240204969,-9.382792034192625e-06,-0.00021682662464561457,-0.0007026699059852582,-0.0014979048408667417,-0.0024467263430304185,-0.0032631799720467835,-0.003650035674021835,-0.003429131503463785,-0.002627674493912468,-0.0014806466498412368,-0.0003425368723922891,0.00045799617668663506,0.0007568560367710293,0.0006209262055425079,0.0003079339232582275,0.00013703306015257146,0.0003324724992475796,0.0009168008185826355,0.0017048259396521984,0.0023982719852543807,0.0027309377541707867,0.0025907784417997775,0.0020600555156234726,0.001359792686158362,0.0007358053660308198,0.000350575984297884,0.0002320211230962153,0.00028858661285015205,0.0003626073623497805,0.0002865337080133556,-7.309394916871713e-05,-0.000777533867450831,-0.001777917653796581,-0.0028926436249644407,-0.0038308814512561335,-0.004279598152445656,-0.004030751312193626,-0.0030866867933125224,-0.0016796581714740412,-0.0001845142106564299,0.0010350898879633017,0.001768827750210745,0.002021159872351855,0.001969591769128208,0.0018509788105103915,0.0018391693148048322,0.0019738616540035912,0.0021669970737267065,0.0022702618658731557,0.0021604086582240863,0.0018004783238610125,0.0012559296299215544,0.0006664554596225241,0.00018694912918689678,-8.199368688361345e-05,-0.00014799206158318641,-0.00013852786985616293,-0.00025523078825358015,-0.0006800071147162137,-0.0014695043223229179,-0.0024898023195702845,-0.00343501080815554,-0.003939601723451735,-0.0037456485952853487,-0.0028458220259716107,-0.0015186767850874424,-0.00021889297992610103,0.0006351568050085831,0.0008672306467930245,0.000626139870797696,0.0002943771179163713,0.0002716420671263131,0.000756055219097227,0.0016454857227365728,0.0026080477949293347,0.003271601871292943,0.0034175818876269314,0.0030706823220721827,0.0024451242794436352,0.0017955208689730134,0.0012716305586457286,0.0008622914011857839,0.00044838175563560045,-8.64379703661113e-05,-0.0007685425872582782,-0.0015241203124637982,-0.002237374241006131,-0.0028206123247488005,-0.003240528858695425,-0.003489226809620924,-0.003537221816544207,-0.003319542419592033,-0.00277571796213031,-0.0019157423115568162,-0.0008571387186775763,0.0002041906677545008,0.0010776739708271102,0.001662885141343201,0.0019802111406804785,0.0021312806330688874,0.002222106022659473,0.002303025472979565,0.002359144669042591,0.002343769850857533,0.002220195776359582,0.001982106140609544,0.0016481500159786513,0.001246323655028535,0.0008041355555573565,0.00034759108696899154,-9.851524397234111e-05,-0.0005161280234667379,-0.0009040712194400063,-0.0012833657341332074,-0.0016869773399852417,-0.002131720155301929,-0.002584963439970332,-0.002949847174305231,-0.0030884536809048235,-0.002880949772901247,-0.0022927961310488932,-0.0014108434126841416,-0.00042285263912877425,0.00045355704166869524,0.001057303837678326,0.0013420071408152747,0.0013794929601827564,0.001312819412360045,0.0012874937928424653,0.0013946839347800414,0.0016467921788117148,0.001985451619970541,0.002308107305710516,0.0024984548258953024,0.0024545704369809502,0.0021160022513921294,0.001488965234772089,0.0006592942975242341,-0.0002223682698195993,-0.0009893896371267507,-0.0015265297390654013,-0.0018213362740537196,-0.0019656334654909375,-0.002098616421626293,-0.0023195047575803656,-0.0026203966921022432,-0.00288091352281881,-0.002928963582855422,-0.0026312420505488175,-0.0019612458715045234,-0.0010108798417202704,5.2302316059642544e-05,0.001052174839166763,0.0018592171594966544,0.002410962941687066,0.0026978107820595358,0.002734662753319014,0.0025447049207096813,0.002167652610927306,0.0016800601312362536,0.0011998897664467914,0.0008560113488862449,0.0007306252247599082,0.000807632092946865,0.0009631947447101595,0.0010126441989095555,0.0007937890479934155,0.00024225182409405392,-0.0005824181893406433,-0.001529794553680708,-0.0024231561305329413,-0.003113567498793369,-0.003500218749010617,-0.00352599092608699,-0.003173004445741442,-0.0024716402507396406,-0.0015139524672204705,-0.00045130848999725315,0.0005354420265065588,0.0012865529230319836,0.0017139131912516535,0.0018281874895277593,0.0017279690736160876,0.0015530320148230766,0.0014220186559986212,0.001384288598704926,0.0014085361653990614,0.0014112359411805504,0.0013090537979395637,0.0010703610336741073,0.0007415810186074531,0.00043168443064032407,0.0002544435667001548,0.0002524710877346181,0.0003469367205074195,0.0003530134949257201,6.718768823047762e-05,-0.0006136508909462919,-0.001608661938847919,-0.002659325931538178,-0.0034312901104033037,-0.003661912873969672,-0.0032750447339924965,-0.0024018419867320763,-0.0013002682796410822,-0.00022350394031593764,0.0006866931625676401,0.0014255934080996593,0.0020644377779704235,0.002646965013229528,0.0031110478573234913,0.0032893931442657715,0.0029984673976583,0.0021694901989627265,0.0009416894497412878,-0.0003477946653269561,-0.0012849648984709391,-0.0015539249837768932,-0.001079057931278173,-6.71197596934037e-05,0.0010675724876778921,0.0018593498567788065,0.001961489613459982,0.0012628226875281232,-8.813065910547426e-05,-0.0017478429507613554,-0.003294836167934331,-0.0043537402730396794,-0.004691950974948695,-0.004270455186814024,-0.003241107009144296,-0.0018904107897303234,-0.0005425221587679299,0.0005481192296328749,0.0012726243307490358,0.0016780516258343985,0.001908362010614941,0.002109467558516054,0.002352546454684755,0.002616330266534765,0.002828171518443024,0.0029242926369442996,0.002881152074175866,0.0026986102341130668,0.0023589396601430834,0.0018089215738335248,0.0009949232696300622,-6.594950845114207e-05,-0.001235145868062849,-0.0022760066386097533,-0.002954744254244313,-0.0031604923563117657,-0.002962121606273813,-0.0025587333477401623,-0.002156268519764157,-0.0018553048585338411,-0.0016231257405992154,-0.0013580068167150672,-0.0009880656803078064,-0.0005292247651292655,-6.467820649396546e-05,0.0003307604196767372,0.00065855573328323,0.0010013349601998142,0.0014564309373086186,0.0020425482122525787,0.00264636236105562,0.003052496645938041,0.003046998477604013,0.002536437109999203,0.0016124497908812957,0.0005217324943443411,-0.0004447685338390102,-0.0010843242299750902,-0.0013665109533527444,-0.0014273071328958845,-0.0014808069026972768,-0.0016974504678384,-0.002110444733272029,-0.0025937802662640837,-0.002918632490300066,-0.002858604114538236,-0.002294257278252361,-0.0012710616684291586,1.189703204722693e-05,0.00127488110059589,0.002260163548011403,0.0028213391718832745,0.002961762012539682,0.002806771911937857,0.0025258280176612335,0.00224559387217873,0.0019986944512507487,0.0017325524853237996,0.0013690852439215125,0.0008769754835245002,0.00031029407969695847,-0.0002133499353597541,-0.0005848557726028111,-0.0007822130643633495,-0.0009030458622118409,-0.0011217017229670505,-0.0015859766813857853,-0.0023096439868773824,-0.003128165312420759,-0.003754523444711037,-0.003913837218262517,-0.0034840580270444725,-0.0025603773391089687,-0.001403475685091415,-0.00030228896198492797,0.0005650764471090348,0.0011897198272937189,0.0016819573825384228,0.002155911269690366,0.0026298316403936322,0.003006006227946647,0.003137311942055913,0.002931324837794009,0.002422583273433686,0.0017681711593378856,0.0011721375557833986,0.0007867924645089904,0.0006470363820274398,0.0006664168681731986,0.0006850116662070193,0.000537479494955943,0.00011247273909012164,-0.0006108631910114759,-0.0015523190899159886,-0.0025448710118155665,-0.003371476428178411,-0.003819726667461617,-0.0037444988326471016,-0.0031218370183172806,-0.0020727737889755494,-0.0008399192818806358,0.00028437967775114597,0.0010566570788416566,0.0013686871791099388,0.0012825903324081597,0.000996066438663353,0.0007512360564159589,0.0007285925305637012,0.0009759611493351801,0.0014042940957497585,0.001846110184947841,0.0021397063386114487,0.00219302082486719,0.001999308304029975,0.0016083568701431865,0.0010809522439954606,0.0004579454032875307,-0.00023979896634290202,-0.0009866018110650612,-0.001724546148794475,-0.0023568581041494576,-0.0027714067583799536,-0.002883356978341566,-0.0026729199159607068,-0.0021966655591576442,-0.0015665591119619112,-0.0009085132042673649,-0.00032044309902904333,0.00015405950709310862,0.0005295794256285897,0.0008608605183548125,0.001208707572715656,0.0016014166557626287,0.0020084714308340043,0.0023418869709353864,0.0024895479374839415,0.0023684666734098123,0.001973217144058917,0.0013933169283466011,0.0007847572899634335,0.00030166519438439693,1.6728216697159274e-05,-0.00012764126198838688,-0.00030283214230209356,-0.0007082820307653711,-0.0014524910813917356,-0.0024622700313342866,-0.0034749705995131873,-0.0041304168217632066,-0.0041277524080699495,-0.0033732585045173733,-0.0020413132348732817,-0.0005095221767466335,0.0008060650127646574,0.0016339415685230887,0.001953351513182231,0.0019686351979502936,0.0019691382998412842,0.0021556272942394442,0.002530806760408159,0.0029116361825040574,0.003049604853099625,0.0027846736346551857,0.002142799670172996,0.0013221177824190443,0.0005777496260709964,7.399033782865255e-05,-0.00020780390580312945,-0.00044986178340852194,-0.0008782476868769836,-0.0016140386804277802,-0.0025830610856324987,-0.0035356400475208983,-0.0041632686362968845,-0.00424563606709836,-0.0037491876569992937,-0.002830681432824961,-0.0017529581558692346,-0.0007633999901272477,2.3538279342405575e-06,0.0005491675655510109,0.0009798824411436993,0.0014136105364891479,0.0019123313884779648,0.002451836509359591,0.0029435781380765568,0.003285270040795769,0.003407141886970045,0.0032914147213914495,0.0029639818672509742,0.002473501669734547,0.0018747580507242484,0.0012220604806804508,0.0005653911042148045,-6.0338897113712504e-05,-0.0006505534347861907,-0.0012342640566300146,-0.0018508486817404048,-0.0025078106388035605,-0.0031493298449984625,-0.0036638198683210596,-0.003930493378465741,-0.003874353993252106,-0.0034936801414585323,-0.0028476684502378507,-0.002021855544730749,-0.001099596727463076,-0.0001542376814515421,0.0007446319881160325,0.0015271660307546418,0.002131747932657928,0.0025237564530362017,0.0027131481421560806,0.0027566677163912787,0.002735484703054733,0.0027128003939486754,0.002693082453613322,0.0026114474567093503,0.0023679449876755922,0.0018927509275508325,0.001204271717437661,0.0004211073396617812,-0.00028666119084193076,-0.000785358367375266,-0.001056517041912304,-0.001217032603839395,-0.00145925575661022,-0.0019353585384651066,-0.0026484982272158833,-0.0034180854441203,-0.003949208204702963,-0.00397553738511527,-0.0033981624843063465,-0.0023416444554137917,-0.0010959451273945947,2.11425209951558e-05,0.0008037140645694064,0.0012273334055473307,0.0014214492430779577,0.0015720096379313465,0.0018134049602480185,0.0021649885265651353,0.002536770014901075,0.002791355871157625,0.0028231787653091624,0.002611894915465763,0.0022247580865016768,0.001772574633823408,0.0013487750627747006,0.0009870117442240592,0.0006569953365249321,0.000292640099836689,-0.00017058248862006104,-0.0007694836890122502,-0.0015016673899680031,-0.0023191508988719507,-0.0031213836392099247,-0.0037570173853867456,-0.004051421186893364,-0.0038649575314135547,-0.003162521280022537,-0.0020575272240164594,-0.0007979762670080412,0.00031250285854215874,0.0010320977430455062,0.001284143547234662,0.0011906238944462894,0.001008889586210902,0.0009969213772403854,0.001278709002657215,0.0017870706585441432,0.0023157458845796106,0.0026436879518473948,0.0026511636520525628,0.002360859990100271,0.0018945636657094363,0.0013904865088462835,0.0009382984986104311,0.000558680335566619,0.0002164426925522134,-0.00015640803789624774,-0.000637391306912681,-0.0012834741265028646,-0.0020901386582120383,-0.0029552672656572836,-0.0036793380776940572,-0.0040243153553711055,-0.003818074167731747,-0.0030523121364640594,-0.001911747200773333,-0.0007054151235197474,0.0002712029537726146,0.000870573504542289,0.0011508150675964665,0.0013251965825355678,0.0016297047313797261,0.0021782893357686177,0.0028839749557926916,0.0034924742618645402,0.003715477141413096,0.003392803616727361,0.002590600594597596,0.0015748916579156342,0.0006720454609045393,9.741746112031043e-05,-0.000145927716622678,-0.00024161446798564668,-0.00043207540106359,-0.00087444521043528,-0.0015670371158432003,-0.0023771365058730563,-0.0031308980552097318,-0.0036924801824078143,-0.00398401216934045,-0.003957102822652777,-0.00356845186658618,-0.0028000794868475974,-0.0017117535756900725,-0.00047078182763343854,0.0006864294810320735,0.0015524785868404375,0.0020455768164306504,0.002237377262953744,0.0022911433272625806,0.0023519994292493336,0.0024622420855622638,0.002553737636600818,0.002515201236522885,0.0022842799448565035,0.0019027356399995159,0.001500223854879434,0.00121755657105262,0.001116586007810992,0.0011318723711123172,0.001095642625854834,0.0008250509788482039,0.00022305901870213466,-0.000665681346298463,-0.0016761462592921757,-0.002605168252063307,-0.0032998325036944875,-0.003697582934987179,-0.0038032105799451223,-0.0036356856448021032,-0.0031961388792276944,-0.0024847935054470296,-0.0015503578507978567,-0.000525300380102935,0.00039360778117299177,0.0010227021970197847,0.0012864772345637246,0.0012697428481085423,0.001185478198569487,0.001266564526530413,0.0016384689618947888,0.002245121773219416,0.0028711086119658745,0.003248775782905165,0.003192351279783487,0.002688597710530405,0.0018995566985785675,0.0010808148729444058,0.000460669627125859,0.0001395464673750247,5.198456544409599e-05,8.440008702889287e-07,-0.00025533246194210397,-0.0008958418003619142,-0.0019489856501073,-0.0032527528814553387,-0.0044854464279602945,-0.005266479466729448,-0.005298985550254302,-0.004498437271720882,-0.003043909851805229,-0.0013163539883354137,0.000255126382059068,0.001364733038740101,0.0019323855382037448,0.0020905154929569936,0.002075873882199507,0.0020963424903345613,0.002244686702802593,0.0024914032664581347,0.002738899697556537,0.0028907444123486828,0.0028944345623624053,0.002743708851977504,0.0024554806838860675,0.002048724132860973,0.001542703693907559,0.0009696029820328093,0.0003805963113750312,-0.00017131808496538732,-0.0006664900874088182,-0.001144830927060552,-0.0016933916792136357,-0.0023876808968010697,-0.003214196814902569,-0.004026073174723246,-0.004575087892028921,-0.004618722829086227,-0.004047147362657292,-0.0029532173193541665,-0.0016001243841531068,-0.0003052161804195713,0.0006923494070656033,0.001310581930978676,0.0016200382054367658,0.0017737573511839144,0.0019181983626424927,0.002129990974794945,0.002399784690160224,0.002656136077521518,0.0028056589158912734,0.002767624177839041,0.002495408373921542,0.0019891032687616795,0.0013031982321747848,0.000543940397490392,-0.00015437451675664516,-0.0006767938871193413,-0.0009826293633372822,-0.0011361653069403518,-0.0012842496395699264,-0.001577945020466571,-0.0020722266903078494,-0.0026609114796737124,-0.0030943125253514643,-0.0030854845642168172,-0.002459345540157209,-0.001267415113709682,0.00019967060967178993,0.0015199371693607627,0.0023208433058839275,0.0024424145619133153,0.0019986774676657654,0.0013078964808701187,0.0007323605758072747,0.0005130066126731937,0.0006796410997255533,0.0010711832085774334,0.0014416834303717617,0.001588771804761825,0.001438733435820276,0.0010528131499075372,0.0005636213811627067,8.579561781487532e-05,-0.0003452474833545769,-0.000772731888534973,-0.0012615588557706146,-0.00182629711013697,-0.0023952781771602732,-0.002837734791919457,-0.003037240944571491,-0.002960693296722719,-0.0026724741042358268,-0.002281051127743753,-0.0018555099691277082,-0.0013743912381543933,-0.0007471215871713288,0.00010469677018457068,0.0011618192306622804,0.00227615086247125,0.003217148412743132,0.0037720506643248446,0.00384483471571711,0.003499166577934476,0.0029217263016098694,0.0023270297357347344,0.0018574214886250594,0.0015323442270124808,0.0012692637069702125,0.000955939245191712,0.0005272583456624432,3.1436680895302518e-06,-0.0005295790873282218,-0.0009764968996366344,-0.0012996239042493366,-0.0015472056409696843,-0.0018282850632163092,-0.002241871788125456,-0.0027992405126265763,-0.0033870526333324726,-0.0037997743820327337,-0.0038304176756655483,-0.003372240075406072,-0.0024750798652927813,-0.0013260930695442317,-0.00016904542931113085,0.000790901865409088,0.0014492794076564322,0.0018112138647625269,0.001959623616250355,0.002009680629655992,0.002068703996889087,0.002205647583438844,0.002429059660005457,0.00267847868545661,0.0028394275326596484,0.0027857758767091357,0.002437187813282136,0.0018053829032838964,0.0010022056164500162,0.00019824650813822303,-0.000453210784295557,-0.0008892527948436025,-0.0011651307887073968,-0.0014156530924624624,-0.0017674937890735437,-0.002252462070242206,-0.0027751776536695943,-0.0031568235941122746,-0.0032290305660102226,-0.0029208726986955195,-0.002288864762273827,-0.001478562270494823,-0.0006483338863272327,9.671100281722581e-05,0.0007266628100985116,0.0012615328456099502,0.0017227489268188325,0.0020955821357038057,0.0023272773386352323,0.0023620653338567283,0.0021886422394596927,0.0018644364303467336,0.0014947605819209293,0.0011775459717692184,0.0009523018495001371,0.000790830343155052,0.0006344124877190601,0.00044393362122579355,0.00021981452207389804,-2.2920600912955738e-05,-0.00029784907474584253,-0.0006641517334895992,-0.0011928699688752453,-0.0018984575886698634,-0.002681841000814808,-0.0033305032048639247,-0.00359051256199174,-0.003282756059259705,-0.0024048610289799186,-0.0011601592250509787,0.00011110019190389999,0.0010716406385415172,0.0015312043599493225,0.0015226150511677213,0.0012714714685533265,0.0010753704630074297,0.0011543277415499973,0.0015475637156286768,0.0021059951303900783,0.002578235834163076,0.002739490855517681,0.0024952699158601764,0.001913062426806794,0.0011770875888079246,0.0004962891286226516,8.936199572867967e-06,-0.0002776589760670686,-0.00048734934078672185,-0.0008101786166406919,-0.001394249476925442,-0.002243510480904742,-0.0031794060953022267,-0.0038996053198667316,-0.004114244207730616,-0.0036897399207340537,-0.002718347083387372,-0.0014713798566302764,-0.00026285109044038856,0.000695893903254775,0.0013667670262123034,0.0018468800346499816,0.002257716295107296,0.0026404882220263603,0.002925844542341513,0.0029915920206910708,0.0027623751337551364,0.0022795644589147803,0.0016923297325499081,0.001174512594508399,0.0008208117019730789,0.0005892376470112194,0.00032732622862718816,-0.00013285001623612145,-0.0008670880141894541,-0.001800087904414612,-0.0027255204125723126,-0.003391537639929924,-0.0036071381955829845,-0.0033196869264810885,-0.002631154003959904,-0.0017487542807876635,-0.000893579057560542,-0.0002095074431342197,0.0002840650637087848,0.0006726312617995128,0.0010726833012689365,0.001547580528299393,0.002063159018460192,0.002507182071497969,0.002755564014897938,0.0027400472572212805,0.002475537929861848,0.0020365703030960905,0.0015077715379115972,0.000946940712605981,0.0003827510472176304,-0.0001627953765659649,-0.0006573910429987589,-0.001069208847277313,-0.001398513885844893,-0.0016978586156074593,-0.0020502001476961837,-0.002505054321991722,-0.0030113429372624553,-0.0034007561055492182,-0.0034497122858223456,-0.0029948097150994885,-0.0020345449695222456,-0.0007524573794160756,0.0005565098503820922,0.0016165368695912495,0.0022864225040903972,0.0025990257545763307,0.0027083364672375815,0.0027800804744500755,0.0028915210579317312,0.002996204099098236,0.002967608819634312,0.0026897391344156167,0.0021395614441844816,0.0014147910126886595,0.0006914242256870028,0.00013172357284712579,-0.0002101194518062809,-0.00043166487136872837,-0.000742722918351726,-0.0013517463982850946,-0.0023309801077985946,-0.003533731779459109,-0.004618485457886881,-0.005182344347958513,-0.004946113225355051,-0.0038983169836411292,-0.0023186096847407334,-0.0006604865821677586,0.000650850579801007,0.0014008560938823882,0.001653195713024227,0.0016721087173462539,0.0017507473374323884,0.0020459100451872517,0.0025081448067159366,0.0029344484994740083,0.00309963529639894,0.002884841340220085,0.0023347917170822175,0.0016239067887141778,0.0009622917393629189,0.0004982631254287921,0.0002653823823703362,0.00019001060106925687,0.00014176827587231394,-7.175112106431016e-06,-0.0003411629021596739,-0.0008843113848755631,-0.0015963131702453912,-0.0023701152775862004,-0.0030377269467182725,-0.00340297243743279,-0.0033087634522532194,-0.0027150118444852663,-0.0017393506730232061,-0.0006234062913762476,0.00036847583073233074,0.0010643753677959155,0.0014465330985420502,0.0016240130235740278,0.0017369443386617827,0.0018558619978118354,0.0019401562689071413,0.0018783842871295709,0.001579208816889081,0.0010510580870433791,0.0004195040575057478,-0.00012651625234758913,-0.0004251548352665049,-0.0004177740624635123,-0.00017629221951163542,0.00012200039233047153,0.00025635145045107416,4.2965748093487174e-05,-0.0005849011708003561,-0.0015253848696602469,-0.002518267516705715,-0.0032307340735982875,-0.0033904195888520327,-0.0029026304852732008,-0.0018903463150463564,-0.0006363271565605301,0.0005404794085283762,0.0014106488628864782,0.0019044799120516882,0.002103194762918418,0.0021671870813058294,0.0022426950026128377,0.002391607032049771,0.0025729887349276665,0.0026781545118875717,0.0025960310849344626,0.0022737110287562355,0.0017431567975020414,0.0011042743431124052,0.0004764632641694589,-5.519288403664044e-05,-0.00047268837619559364,-0.0008232209149849167,-0.0011874248472754918,-0.0016357314553846005,-0.002192527178369968,-0.0028198560377556627,-0.003422730445630605,-0.0038725030460592088,-0.004042458392860221,-0.003846882875824443,-0.003271336813472191,-0.0023825919678577973,-0.0013142652578095344,-0.00023359498101623965,0.0007009095474852254,0.001382029542307889,0.00178717319572743,0.0019887047835333966,0.002127134211371751,0.0023466216829501805,0.002716908372272396,0.003183309677192981,0.003578942447312527,0.0037010231315326887,0.0034155280173526854,0.00273593540407501,0.0018333396533499304,0.000969013677175619,0.00037774243707105267,0.00015417170550087672,0.00019622093391341068,0.0002378545327257407,-3.543137874968292e-05,-0.0008353185485732938,-0.0021518549936602785,-0.0037252724409801126,-0.00512807587645577,-0.005926923463498509,-0.005854760691068467,-0.004915600205217262,-0.0033744649577230066,-0.0016403618400864998,-0.00010142287217447554,0.0010098306495332267,0.0016654507075323072,0.001997132108493515,0.0021938644741834974,0.002398318449795842,0.0026482077560819805,0.002880505947392563,0.0029860965325130794,0.0028819983460323445,0.0025628557019204646,0.0021048678292597154,0.0016214687711634164,0.0011986949169295986,0.0008503023760664687,0.0005182530463543256,0.00011374007274642128,-0.00042937734794332486,-0.0011177856154926421,-0.0018908241519826016,-0.002636384576983627,-0.003219729620280131,-0.003517520908677857,-0.0034511560207676,-0.0030104238604637635,-0.0022574238144045444,-0.0013081984031050509,-0.0003012550476473402,0.0006329517871748418,0.001393573679097636,0.0019229252910295997,0.002214729052648322,0.0023142120606430196,0.0023035500610195806,0.0022707576500225423,0.002270193124518528,0.002290859844335447,0.0022493329138870465,0.0020162568109346095,0.001471168687086707,0.0005656152876068912,-0.0006328794630139099,-0.0019381578557642893,-0.0030900269820390066,-0.0038325428491992977,-0.003998238811326481,-0.003567344808621364,-0.0026793286074257754,-0.0015898527813744553,-0.0005844268045128633,0.00012299185297131145,0.00046692652440553884,0.0005456825455020179,0.0005607057431911572,0.0007043809591906863,0.0010542590083778092,0.0015342254361397911,0.0019659292949342645,0.002178011668955021,0.0021042450402211257,0.0018105178692092113,0.0014387331078041527,0.0011097406696112906,0.000850690397874851,0.0005911252598998759,0.00022514332537970606,-0.00030246316743243965,-0.0009384338776549637,-0.0015263258844200283,-0.0018771544591122983,-0.001872795115303698,-0.0015449098354657093,-0.001075230514435187,-0.0007039399127303837,-0.0005936371250900338,-0.0007330701180091386,-0.0009438172723827479,-0.0009861634729560718,-0.0006974017685904806,-8.077165477943758e-05,0.0006998560367196889,0.0014068779463588834,0.001843311817831819,0.0019341371093707423,0.001739756825254091,0.001406030910449645,0.0010858113068694204,0.0008733838308323425,0.0007764859001288691,0.0007260013270784945,0.0006086536099946624,0.00030887823842788145,-0.0002466165694255816,-0.0010474570600619714,-0.001975705761957302,-0.0028198406383118787,-0.003337142168153746,-0.0033487491166975286,-0.0028249237392053,-0.001912031557645005,-0.0008769334049164893,1.171654079067325e-05,0.0006072347532613087,0.0009463877939341176,0.001210058202217554,0.0015993423217765634,0.002195209486048363,0.002886813854263654,0.0034189330465344537,0.0035369706439431587,0.0031423074477083452,0.002358624601489323,0.0014642387775218512,0.0007309486821815514,0.00026830035663732575,-3.309417700079364e-05,-0.000426756658669544,-0.0011483062825767298,-0.002258191182731499,-0.0035758022764347704,-0.004739225575686603,-0.005357418756392614,-0.005177531575706235,-0.004190298221757909,-0.002632885842016132,-0.0008956739576640412,0.0006248038884486269,0.001667974494112681,0.0021899749954036245,0.002348448625480987,0.0023971216631285775,0.0025416186459772815,0.0028329058966902925,0.003157000181534013,0.0033232040794882517,0.003191846911510524,0.0027581206508288177,0.0021396492406053525,0.00148171340210128,0.0008502947055078028,0.00019096036536965147,-0.0006140763007564411,-0.0016266713102182397,-0.002752391236125437,-0.003732629960011937,-0.00424721971019908,-0.004076375778217664,-0.003229696554353764,-0.0019628149672321713,-0.0006650680850651615,0.00032082712006093535,0.0008429687352858252,0.0009673887050375592,0.0008841159909148941,0.0007662441260823686,0.000679880892958394,0.0005967237339364693,0.0004809745281399722,0.0003686766040315219,0.00036918781571013376,0.0005842377696309995,0.0010081323660039343,0.001490237017919306,0.0017944081671258418,0.0017172768874117706,0.0011871685819633904,0.00028755057514259644,-0.0007915669871623255,-0.0018270717945829621,-0.0026171271085274833,-0.00300797853146808,-0.002912123785416518,-0.0023322004352104506,-0.0013798630795161019,-0.0002634509636089779,0.0007699060358441626,0.001521508398165128,0.0019161683345471307,0.0020231536799576876,0.0020069568831654902,0.002029653627856676,0.002155535812431365,0.0023123288784968584,0.002336001296149276,0.0020779831607689115,0.0015111859657619643,0.0007653771707333246,6.359925089194406e-05,-0.00040509199882106037,-0.0005990948917532898,-0.0006542538177173926,-0.0008110097232287769,-0.0012784160287342096,-0.0021087174643520316,-0.003149785306036116,-0.0041018373516449914,-0.0046505418743507075,-0.004607926262405264,-0.003987438425070072,-0.00297524090553055,-0.0018189255994829616,-0.0007030679828509251,0.00031367741783335824,0.0012690688245991914,0.002208235316089191,0.0031056840926957973,0.0038537411350753935,0.004319239163026978,0.004421435424352035,0.004175295221891795,0.0036760538908258084,0.0030438775464075715,0.002369109485250501,0.001688357918306062,0.0009942761825045565,0.0002613023019999535,-0.0005310825774399574,-0.001382968302555577,-0.0022618898638495115,-0.0030929732034191185,-0.0037614407086868553,-0.004139462449653674,-0.004133717816410868,-0.00372874487675551,-0.002996195271074016,-0.0020605909627955388,-0.0010432285273215174,-2.1651761764662552e-05,0.0009704727759653837,0.001908445553738121,0.002736255698062391,0.0033529640929259997,0.0036394612311154294,0.003513356193013257,0.0029808844381378446,0.00215323978539675,0.0012126914498047476,0.0003421018105790221,-0.00034689746477579775,-0.000850039205317072,-0.0012520979036323835,-0.0016627018933028362,-0.0021381515559657747,-0.002630326065034304,-0.0029931819193495493,-0.003048704116036567,-0.0026806513308696954,-0.0019061030336192863,-0.0008845419491234395,0.00014286949190695517,0.000954134761570921,0.001436888951905886,0.0016235870784997665,0.0016548944917212098,0.0016915362931488173,0.0018219399697202597,0.0020161427982108727,0.0021518261217397506,0.002096950084377734,0.0017986413026883866,0.0013226455223068188,0.0008176265449851622,0.0004260810698625341,0.00019782441280481614,6.003690137955923e-05,-0.0001386762812634532,-0.000538841666516288,-0.0011893503275060805,-0.0020196456903281276,-0.0028732292949829293,-0.003573836014037466,-0.003981791691629795,-0.0040144358240225015,-0.0036358906898333074,-0.0028429810292870785,-0.0016710876091694544,-0.00022089112742287636,0.0013182985868822107,0.002682421880377495,0.003601117020146685,0.0039011767887268322,0.003591521742081883,0.0028738310471891253,0.0020613541395822503,0.0014443441852165014,0.001173956492176229,0.0012231013764863767,0.0014338605989866991,0.0016125117312117008,0.0016159027609265184,0.001391477777205606,0.000967845621732901,0.0004181536385509536,-0.00017763100656685072,-0.0007576758679305975,-0.0012904327999682494,-0.0017784613982616913,-0.0022537287352723525,-0.0027594597578707723,-0.0033177679642959748,-0.003894553090771626,-0.004382499340139469,-0.004618781817273027,-0.004437063796288047,-0.003734872665374079,-0.0025283266252207185,-0.0009692585333433469,0.0006876157027041546,0.0021608276065272283,0.0032341512074885253,0.003824369998121529,0.003991701638356681,0.0038879053097927913,0.0036713157319494287,0.003435761401366909,0.003189287413005311,0.002886541337617461,0.0024868771217171973,0.0019980854735303713,0.00147859751667868,0.0009990361272617307,0.0005895405667967657,0.0002078975815041535,-0.0002486352917321624,-0.000889781481193591,-0.0017621922167867967,-0.002797941303308498,-0.0038095321771620047,-0.0045399754309204884,-0.0047530991651264735,-0.004329953236257233,-0.0033291391732235727,-0.0019783799557733773,-0.0005927963459474253,0.0005477114744965614,0.0013037742992797492,0.00171014575768808,0.0019194260262201366,0.0020884563012888036,0.002274962521894881,0.002407631270039734,0.002347921079353145,0.002002139187144218,0.0014066347218580594,0.0007244078169992176,0.00015134963285058235,-0.00020547340491987472,-0.0003932854613642344,-0.0005764495707282786,-0.0009206555250019314,-0.0014745300296404185,-0.0021236064379746436,-0.0026420738502351254,-0.0028068532583524373,-0.002506041836496595,-0.0017855607127698326,-0.0008195556112707325,0.00016881709898036875,0.0009927037991805973,0.0015584060125619563,0.0018787599651998359,0.0020444616988091963,0.0021666024170731886,0.0023141630558871605,0.0024754892022640024,0.00256448169387427,0.002470221601777148,0.0021247145288024135,0.0015515178377646546,0.0008652709782318494,0.0002166233680101074,-0.00029126224585165417,-0.0006661908806713857,-0.001025951168870065,-0.0015230767965004207,-0.0022336758375623633,-0.0030783612001245297,-0.0038307622930372097,-0.004218243027371606,-0.004061382748875689,-0.00337126445110859,-0.0023461297045746033,-0.0012690797567169907,-0.00036848856165720787,0.0002764009184421511,0.0007343845214960364,0.0011384937777649195,0.001582955297304634,0.0020686968173315176,0.0025231401443460157,0.0028649577961177824,0.0030572582873526623,0.0031108868722536103,0.0030452757317152414,0.0028495210150959877,0.002483560389653324,0.001922723027697863,0.0012093455701276663,0.00046394134504992076,-0.00016587298717433475,-0.0005952812603298786,-0.0008728964416284533,-0.001175008545643407,-0.0017083993050935728,-0.0025677464433700847,-0.0036335834871488466,-0.0045839683885847094,-0.005029660933065483,-0.004706346566707999,-0.0036168910808032986,-0.002039762458298839,-0.0003957053843514305,0.0009516815073945565,0.0018474185620788645,0.002366639813274256,0.0027057684966046835,0.003021793815701731,0.0033247788285778153,0.003488159085777745,0.0033606627037103196,0.0028958379364719647,0.0022056423068633384,0.0014996281684039648,0.0009519469250103411,0.0005877543892007914,0.0002659205628633946,-0.00022934616955818846,-0.0010430386779712525,-0.002135322536326004,-0.003265520618427381,-0.004088227420112707,-0.004316073303980608,-0.0038647563316227002,-0.0028992223475166434,-0.0017494582950968436,-0.0007383577568543355,-2.0158242762643476e-05,0.00047309060226726147,0.0009442138497762656,0.0015604553412161355,0.0023134101237562875,0.0030036036715117365,0.003360713112936205,0.0032195380767657874,0.0026349903230665763,0.0018602160871125546,0.001201083122425119,0.0008378210957712025,0.000722219497123927,0.0006098971216982854,0.00020639896158340817,-0.0006571709572220331,-0.0019146452773136774,-0.00327528947800763,-0.004341566895647528,-0.004769616292998569,-0.004397247475582547,-0.003292915534681344,-0.0017221394283047121,-5.820852117324857e-05,0.0013285067398143393,0.0021749729353720522,0.0024015592130489597,0.0021365534884365826,0.0016682971132906835,0.0013253283056337717,0.0013249959916762585,0.0016647601663164128,0.0021240091508471738,0.002387619952005754,0.0022266871027602753,0.0016301878169402207,0.0008075133345815988,6.121767194384336e-05,-0.000390858127530636,-0.0005366638173458709,-0.0005651644384307801,-0.0007435768456194113,-0.0012515546651163706,-0.0020670093361401507,-0.0029638143850946874,-0.0036170987221769797,-0.003755663143270435,-0.0032825079703610706,-0.002308136990441298,-0.001089331308921598,8.776935359617374e-05,0.0010186423507765364,0.0016336720256995574,0.001977938169975676,0.002142719117314145,0.0021963038993203492,0.002154079888366755,0.001997997628178309,0.0017237352616933362,0.0013790259500240072,0.0010648319210669382,0.0008947807517501673,0.0009332769071183338,0.0011458643039562264,0.0013904262940233562,0.0014582723271830674,0.0011512897161086548,0.0003661107824769382,-0.0008471090551207057,-0.0022768536165986564,-0.0036039076746708053,-0.004504644937085408,-0.004766668524366637,-0.004364149153040866,-0.0034510856422016348,-0.0022720133760134502,-0.0010409953117408697,0.0001363425292835203,0.001250973706888723,0.0023066877332512006,0.003235143546741344,0.0038803239963898653,0.004070146043126958,0.003728010280351731,0.0029465963479994024,0.001969356384664736,0.0010836528998900575,0.00048394634300782556,0.00018096783853135815,6.143877398705135e-06,-0.0002915550528181845,-0.000906207694565521,-0.0018612351097391719,-0.002974683456083527,-0.003920382116357427,-0.00436048782914812,-0.004092235916419594,-0.0031404739052778192,-0.0017481601836800854,-0.0002663159234703706,0.001000725213305613,0.0019123645195761529,0.0025092244087839342,0.002927417586420891,0.0032677392903931388,0.0035053313134961396,0.003500024320127773,0.0031025066478057453,0.0022852965352202674,0.0012041046528496688,0.00013632371253239207,-0.0006721666287866934,-0.0011509105875350133,-0.0014378061020773555,-0.001772605900090725,-0.0023179216113250645,-0.003024639662842372,-0.0036311626285790077,-0.0038021907227338255,-0.0033263762719496002,-0.002254133196525983,-0.0008896773770467848,0.0003620588314046092,0.0012034415644240793,0.0015820218140856518,0.0016784578429198047,0.0017606820492561243,0.0020023989398295725,0.0023789765178397243,0.0026976398747724124,0.0027330879432118475,0.00237865404418304,0.001719909704006758,0.00098846579655983,0.0004255868491604872,0.00013698033923829526,2.4734498974125687e-05,-0.00016071156361795408,-0.0006723133590202199,-0.001600514584104284,-0.00278280856983518,-0.003846891136564862,-0.004375867678817392,-0.004114319741550422,-0.003104443332556968,-0.0016739732248361816,-0.0002780848218124377,0.0007198651577650849,0.0012089420281255199,0.0013474934284108636,0.001434866961685683,0.0017184320464695678,0.002247869945919555,0.0028542906725743007,0.0032563632880728546,0.003225602620113526,0.0027160710552584033,0.0018897850122362406,0.0010290735056165882,0.00038709324504042065,5.7399722938969726e-05,-6.955644462644593e-05,-0.0002415966895014201,-0.000705452197058848,-0.0015633204794175412,-0.002696975432166262,-0.003797765804443334,-0.004490062449325181,-0.004491569955335972,-0.0037367532393321893,-0.002407241604855473,-0.0008567921902714391,0.0005329822992870023,0.0014993905354771066,0.0019826032306319713,0.0021134298146117834,0.002118208296589881,0.0021920205798794277,0.002402592415221602,0.002667821831169354,0.00281091674209424,0.002658378058384906,0.0021273179688203773,0.0012597162391628379,0.00019502977982145155,-0.0008924029655223135,-0.0018505426676685937,-0.0025746175854731634,-0.0030020646819423013,-0.0031005278183583057,-0.0028690387937685274,-0.0023504859525182403,-0.0016345829945176036,-0.0008348381937798081,-4.823317880784701e-05,0.0006722302531033006,0.0013080243989931745,0.001836292911136039,0.002199000794812576,0.0023157842930655675,0.0021406855996052116,0.001721107380563438,0.0012054254939856302,0.0007776154794719358,0.0005516561030866165,0.0004947464717116394,0.00043715382523827194,0.00017195068362833355,-0.0004132604350641424,-0.001254385377751846,-0.0021295344073070164,-0.002766370515768998,-0.0029741641387458356,-0.0027262734771543473,-0.0021518130164977054,-0.0014497413518458715,-0.0007826677117601592,-0.00021495849936908353,0.0002748175424284974,0.0007299543002875767,0.0011561911788111477,0.001512476503019809,0.0017533732054111223,0.001881658558139287,0.0019610947555255675,0.002071306159072821,0.0022345758413645513,0.002371262014088712,0.0023246070871512183,0.0019470560355758838,0.0011943747757255031,0.00016551898299832436,-0.0009378325712253766,-0.001904673546409373,-0.0026017614275874678,-0.0030055500928494305,-0.0031703941332723432,-0.0031636134230342092,-0.0030122888146742475,-0.0026928006593759145,-0.0021645220897491936,-0.0014215168084472012,-0.0005258145519710317,0.0004013384085031508,0.0012259179370760708,0.001856022791323035,0.002270873517249403,0.0025075812739966227,0.0026178971401743085,0.002626385485706711,0.002518485462356065,0.00226457130935917,0.0018605457924854496,0.001354245973481032,0.0008366033934347828,0.00039951010762729147,8.390244476560115e-05,-0.00015050396082466394,-0.00041205581351033737,-0.0008215096114754462,-0.0014397309907096848,-0.0022178429846796566,-0.0030000899196913166,-0.0035810147654307505,-0.0037874383540985692,-0.0035429786803542703,-0.002885865276052,-0.0019389366260216094,-0.0008553961722603553,0.00022841152012411205,0.001213254294953287,0.0020315117247171766,0.002633589937873973,0.0029846942358592934,0.00307603808242318,0.002937672471377492,0.0026357790700849894,0.002249597842963472,0.001840546558615107,0.0014319909368861483,0.001008147937460292,0.0005269923295931044,-6.082331126588142e-05,-0.0007875412437057386,-0.001635603766936471,-0.0025055359800988763,-0.0032106825559110913,-0.003525165142837989,-0.003281643622811928,-0.0024725099714078304,-0.001288087512604038,-5.243002720201951e-05,0.0009201678438389267,0.0014690844737405824,0.0016457384087848583,0.0016507132260181704,0.0016893235071421381,0.001835828052496263,0.001989657550075933,0.0019482975148875797,0.0015486858380635922,0.0007876220250792498,-0.00015342727613004876,-0.0009939067889179337,-0.001499070375350502,-0.001600543103135795,-0.0014250424203121528,-0.0012161470082518136,-0.0011932943283030465,-0.0014267456001149149,-0.0017977271216444797,-0.0020641702193410815,-0.0019930082006376654,-0.0014849217837006894,-0.0006257599882809042,0.00035727603565297483,0.001204924268574521,0.0017405987063039883,0.0019348796164216895,0.001895113056831999,0.001793694953541703,0.001775474009891908,0.0018893060883510707,0.002071367267018269,0.002180798203279506,0.0020678487938870418,0.0016472685502209926,0.000949498284393867,0.00012466929500597234,-0.0006141029643404545,-0.0010935837263151378,-0.001279848742444258,-0.0013101800303433643,-0.0014215811987782598,-0.0018029358369422135,-0.0024556571937497107,-0.0031559497727629707,-0.0035561580184798546,-0.0033746075438667884,-0.0025616649125617926,-0.0013390765433875058,-8.689677711794686e-05,0.000852858433338044,0.0013372219199174968,0.0014570441924081953,0.0014385997157886766,0.001487349696541526,0.0016758503093089476,0.0019360979073071824,0.0021409155903229418,0.0022036992339313196,0.002126047845630046,0.001971273230125671,0.0017978683430460388,0.0016092528809004882,0.001353137389977503,0.0009603336521887727,0.00038658433141058185,-0.0003696908395354071,-0.0012709954949819305,-0.0022442291492731745,-0.003172363042679512,-0.003888868483294714,-0.004203092445986991,-0.003967533346478519,-0.0031602630331717813,-0.001929684723520295,-0.0005605072816216889,0.0006346843969211562,0.0014455934485148908,0.0018451383639790787,0.001974383567460965,0.0020388452214938377,0.0021769771737570743,0.002380474035972375,0.0025143475235269645,0.0024200331270189087,0.002030204932454541,0.0014180591106255265,0.0007508567623992163,0.00018342769238358385,-0.00023438963690344328,-0.0005759718802120341,-0.000973421380755932,-0.0015150921133213321,-0.0021705816105014523,-0.002787961979106503,-0.003162961711542852,-0.0031388656498271667,-0.002681244074900632,-0.0018890503340224301,-0.0009415429747959953,-1.583327557577621e-05,0.0007786605974573278,0.001419362359239219,0.0019433682328219187,0.0023958087768928475,0.0027815828244924035,0.003044017167668177,0.0030842584407208534,0.002817302352677109,0.00223604970144753,0.001440371202619863,0.0006031363739848327,-0.00011358139720173805,-0.000641041105534849,-0.001030603622044286,-0.0014058526800769984,-0.0018705550402296112,-0.0024314138068382138,-0.0029834651859565113,-0.003364457586371088,-0.003441330847169266,-0.0031745338693221405,-0.002623578649482293,-0.0018970247770973992,-0.001085850117205211,-0.00022738113786539534,0.0006777512777756872,0.0016131224028930178,0.002502110114654222,0.0032088184557298822,0.0035889121231625284,0.003560788727388137,0.0031543723120717854,0.0025080049144334156,0.0018129244354210103,0.0012331560041696982,0.0008419493676841627,0.000606933862979377,0.000428758642546611,0.00020731518277704655,-0.00010529601256882635,-0.0004948713264234643,-0.0009178220640016696,-0.0013466933370522485,-0.0017905373318736952,-0.0022715340766291383,-0.0027735012437015215,-0.003203441347548586,-0.0034044800074128495,-0.0032259658210762503,-0.0026144818864607252,-0.0016680481658815215,-0.0006122816933018683,0.0002973721720303489,0.0008973804871774033,0.0011931364261328664,0.0013428926294630225,0.0015516668593910747,0.0019341777478271197,0.0024314015488110735,0.002838180119822508,0.0029306637025413086,0.0026152964491761707,0.0020022119543604546,0.0013513045945027734,0.0009208282739737872,0.0008119636292796922,0.000905385318112324,0.0009265691280325619,0.000597378428928134,-0.00021471767870890658,-0.0014266637831890734,-0.002773067085333795,-0.003912272365898404,-0.0045497333392200325,-0.0045311826547494325,-0.00388163231642461,-0.002786297542483166,-0.0015220063197465513,-0.0003600937646938609,0.0005240419043695968,0.0010958857370605112,0.0014414595608477812,0.0016967800231832545,0.0019689834592770844,0.0022902939706957105,0.0026203193388468693,0.002881857192345347,0.0030010672087543437,0.002930467038971193,0.002652234831755992,0.002173038169684517,0.0015209989509498702,0.0007454854796988286,-8.654076364842029e-05,-0.0009017019223416537,-0.001636228121529232,-0.00225011128212932,-0.0027329738754604716,-0.0030976602066963943,-0.0033615469969826093,-0.0035219391822931753,-0.003538566976710012,-0.0033374316732909257,-0.0028416715190462518,-0.0020192127700155564,-0.0009230893705127481,0.00030149127899857736,0.001455166755646425,0.0023548746017192372,0.002902729693936874,0.003115999831521417,0.003101068325865935,0.0029869385652379083,0.00285744431792303,0.0027199084863250836,0.0025230687696439344,0.002206225317150731,0.001745449984613864,0.001170137555743567,0.0005454566243691343,-6.385100959171042e-05,-0.0006261135410668987,-0.001154628690033322,-0.0016920602843749732,-0.002272781642403787,-0.002880749073568087,-0.0034275320075138147,-0.003769784279283146,-0.0037657210108142662,-0.0033453110933784687,-0.0025556422099850314,-0.0015529928215712798,-0.0005423614638237478,0.0003049967190220602,0.0009139776868786226,0.0013182278389883243,0.001620065500817143,0.0019212481069637456,0.0022614910354056723,0.002596202787984899,0.0028235182167547076,0.0028441234290872293,0.002619356626061574,0.002194168780023698,0.0016729881796911086,0.0011662379431780661,0.0007423818853077397,0.0004116396900219578,0.00014101117308336418,-0.00012080361762685553,-0.00042901317429644556,-0.0008403650464392461,-0.0014063547692666298,-0.002145891272314867,-0.003002242159063265,-0.0038149083350359934,-0.0043433271433125,-0.004352664684428067,-0.003726521169098087,-0.0025421930738239147,-0.0010579683039061646,0.0003877074421413636,0.0015131300622609404,0.0021946530274490083,0.0024843576335572323,0.0025456455653189683,0.002551901290877041,0.0026046185249741804,0.0027041456821312085,0.0027710784205784936,0.0026954071896496726,0.0023904544965858776,0.001836337189389387,0.0011003458299932893,0.00032162888820803947,-0.0003432677401949087,-0.0007953179577904809,-0.001048280079118151,-0.0012250145251407208,-0.0014865860617030312,-0.001929689604572042,-0.002513131437396885,-0.0030604325490975097,-0.0033405281104083705,-0.003181929757952392,-0.0025578500343441017,-0.001599629514052052,-0.0005369926069832506,0.00040032301384907196,0.0010715695357175004,0.001466503099835372,0.0016847814674299238,0.0018653706348530313,0.0021002945299229995,0.0023767648867386595,0.0025811561410190903,0.0025671144025623325,0.0022518352579707253,0.001682301017999153,0.0010248562588968705,0.00047502063509939456,0.00013600605039457413,-5.866540626898705e-05,-0.000321252143194067,-0.0008843387142806218,-0.001838069639888576,-0.003027443519681032,-0.004083668463718204,-0.004589205608679663,-0.004291177639548616,-0.0032387524865192057,-0.0017599675037399847,-0.000291075121068806,0.0008381141576523092,0.0015372047102183897,0.0019388252800661768,0.0022606855375752796,0.002643100240685898,0.0030615966783081694,0.0033566192792849436,0.003347306065885126,0.002951067998303817,0.0022376849562490454,0.001393906922652198,0.0006282152309307681,7.358867270881929e-05,-0.00026202483852474706,-0.00048011459094334137,-0.0007276081975610966,-0.0011202162311788268,-0.0016880796489896963,-0.002362982087511201,-0.003005219146794592,-0.003452253827177563,-0.0035681940981791885,-0.003281496428111095,-0.002607488993787328,-0.0016531087896792267,-0.0005968647388668259,0.0003605192311095252,0.001064436008578908,0.0014650781548399621,0.0016326156311621692,0.0017125830984283292,0.0018393770234579364,0.0020555104084746725,0.002286575103691044,0.0023902132338109033,0.0022503604452225284,0.0018575967250396824,0.0013244162448045132,0.0008256171562176988,0.0005005388404725124,0.00037504468054957757,0.00034615089524543197,0.0002348149229091036,-0.0001227268821752214,-0.0007898623529548512,-0.0016882187346851133,-0.0026162630485278763,-0.0033197155759392303,-0.003585396513852247,-0.003320113999262274,-0.0025821428375563038,-0.0015548138126288012,-0.00047840458957308554,0.00042869639515819295,0.0010323410528849167,0.001314290176359603,0.0013681131201896417,0.00135784477356064,0.0014454519931508358,0.0017097392403816454,0.0020950712005122617,0.0024251635397404053,0.0024870927336069692,0.002147475591374694,0.0014357105461214952,0.0005411428932405074,-0.00028066140644636265,-0.0008416702596579621,-0.0011176034229796838,-0.0012495534157827065,-0.001449026689910258,-0.0018602998397907618,-0.002458441772954334,-0.0030416135423676554,-0.003323717424267318,-0.0030771113280283345,-0.0022472437142954244,-0.0009792824156436496,0.00044966073766346124,0.0017459719870388877,0.0026984087689977576,0.003220312942658593,0.003335292242821406,0.003132601547976477,0.002720716929588022,0.002195863046819345,0.0016293051586199526,0.001068802033868223,0.0005462094752716747,8.378296444052459e-05,-0.000305552375138272,-0.0006252536882485794,-0.0009059584530037355,-0.0012097607085020986,-0.0016141188582251718,-0.002169531188579681,-0.002845792668156532,-0.0035014612478905223,-0.003910069939290849,-0.0038471136718529276,-0.0032001898073625097,-0.002041089248402936,-0.0006131865633403718,0.0007666990130094403,0.001844165039254309,0.0025306129789143513,0.0029196695702538742,0.0032069563251816537,0.003554679240614349,0.003974291947745686,0.00429533952114655,0.004245896836708821,0.0036085641687587243,0.0023679515070050925,0.0007615030746000889,-0.0008057766958891694,-0.001944887453275836,-0.0024671007571168075,-0.0024669892400818686,-0.002257365202691181,-0.002191324672881308,-0.002468009206761803,-0.003026100713884131,-0.0035807282499003227,-0.0037824635835137545,-0.003411271650529798,-0.002498253746823743,-0.0013071749128633567,-0.0001876238266261841,0.0006132982143497876,0.0010701540287794487,0.0013619142523212757,0.0017341910536220991,0.002328057902352331,0.003078798853589331,0.0037420313419252327,0.004027508384860421,0.0037599165825570055,0.0029752154557435937,0.0019024960384928873,0.000846920073895571,4.074506274854309e-05,-0.000458484874437447,-0.0007722896223998389,-0.0011100928480557853,-0.0016341642551904241,-0.002354536691821125,-0.003110230411382002,-0.0036448278600133134,-0.003732823194295626,-0.0032876504286121727,-0.0023963669286991155,-0.001270020831807215,-0.00014609316127785774,0.0007987808403327082,0.0014841713972408963,0.001908186112188447,0.002107875542696894,0.0021300302371424973,0.0020217063950020674,0.001829246170489072,0.0015941021787326754,0.00134647450861435,0.0011047392708088237,0.0008822007058487357,0.000692502001753778,0.0005440198253269929,0.0004237198036818714,0.0002834631377462832,4.596095291046413e-05,-0.00036202694288487835,-0.0009614969786390843,-0.0016869641856569967,-0.0023932713835410967,-0.0029071420368771772,-0.003097872892323924,-0.0029283082975121726,-0.0024592407297409115,-0.001808091259534682,-0.00108815991770828,-0.0003638561686943524,0.00035463187126879995,0.0010799290379510823,0.0018049655545660107,0.002478412085520346,0.003010917529601898,0.0033049219910950287,0.0032911622964986766,0.00295672486305779,0.0023552959701461937,0.0015955927779805288,0.0008100300172523808,0.0001136757070918197,-0.0004302853435183378,-0.0008238115689266751,-0.0011209134558660835,-0.0013949445524648562,-0.0017001468189741463,-0.0020419244072233914,-0.0023666046539383744,-0.002575664890945231,-0.002561924442204675,-0.002256208704400598,-0.0016654774875829274,-0.0008831160820189148,-6.263921540758329e-05,0.0006361952505422157,0.0011049468467051395,0.0013210445702181225,0.0013439500126823543,0.0012767221151377965,0.001213785491795516,0.0012016299147431654,0.0012304145914582797,0.0012558547767235993,0.0012338697004078657,0.0011456963085752154,0.0010002601899284397,0.0008161881857273951,0.00059784684453523,0.00032225083692413573,-5.301511514693247e-05,-0.000562212714996261,-0.00119650863442952,-0.00187980204312116,-0.002471502130267892,-0.0028027586015792775,-0.002737745207663754,-0.002236490957629864,-0.00138840139547019,-0.00039381318902507155,0.0005053610820375112,0.0011175843812519554,0.0013739449329381824,0.001346738869472178,0.001206301392759697,0.0011372139002937252,0.00125305635252845,0.0015480938321436083,0.0019060026838085245,0.0021585958704236747,0.002164264733937435,0.0018683589716514937,0.0013198863419123007,0.0006426979091581972,-2.0174065496344866e-05,-0.0005633351883706187,-0.0009562878672843825,-0.0012491625181286997,-0.0015431625178842527,-0.0019325463649543279,-0.0024400513858925145,-0.0029797334748244636,-0.0033762126846913587,-0.0034412458366472358,-0.0030709566330924063,-0.002307245024119574,-0.001323613568683686,-0.0003404465160310654,0.00048239482546287137,0.0011141126048279213,0.0016431587784829613,0.0021945074391682695,0.0028235245471562352,0.0034529707235967304,0.003895351846649434,0.00395007357141383,0.003518900927999454,0.002673923335824115,0.0016412056528262201,0.0007080327631030685,9.693608107867908e-05,-0.00013691545036021184,-0.00013734245190973426,-0.0001875492365974767,-0.0005777167405674657,-0.001454332816990307,