4.171519853082426e-05,-0.010696886508977882,-0.019184210280036234,-0.023922866760405233,-0.024607987656292844,-0.022074319922160017,-0.017813764016929686,-0.013319989460310851,-0.009570744419897578,-0.00684737707316267,-0.004894531297695634,-0.0032608946687182633,-0.0016133406164803334,0.00011767755658722429,0.0017835015124220178,0.003173447664087665,0.004164291249116404,0.00477718730382455,0.005127646070023476,0.005321632306849484,0.005377612772209292,0.00522854239404956,0.00479864231761133,0.004097064518529809,0.0032591280891093146,0.0025022039405114826,0.0020213624181391063,0.0018900503126218797,0.0020273813820353365,0.0022496602030358734,0.0023697574558561537,0.002281144523755912,0.001981275452126908,0.0015352942699419472,0.0010191903566709607,0.0004852092805974535,-3.530377391487011e-05,-0.0005099097353917265,-0.0008958771035523275,-0.0011612308208352692,-0.0013230879807973224,-0.001467913527087077,-0.0017235331916781909,-0.002185619955208253,-0.0028393887086587003,-0.0035305721030578384,-0.004015014307349834,-0.004068189632410521,-0.0035969060975109724,-0.002691418255416787,-0.0015891841309332959,-0.0005701090646073471,0.00016168689361473502,0.000551180303885023,0.0006898096878468095,0.000746483567132789,0.0008730851133799439,0.0011322325697289482,0.0014772781197913496,0.001784825322231684,0.001915915018595831,0.001775230216842021,0.001347374383000023,0.0007043381426695059,-1.2359794408578397e-05,-0.0006294872488096105,-0.0009933950613138817,-0.0010221058226669068,-0.0007374235192602508,-0.0002570752304761517,0.0002565984045138686,0.0006695507069626993,0.000932197569524543,0.0010870117155649638,0.0012233299041176542,0.0014067041697250744,0.0016254686237952916,0.0017867369312349036,0.0017641107800523952,0.0014680120051829182,0.000896306166917692,0.00013694044274293,-0.0006734123243026387,-0.0014036306827092003,-0.0019624275191193036,-0.0023019588339567663,-0.0024049304154199528,-0.002275660180534389,-0.0019417905928645687,-0.0014568028297888818,-0.000891347462608809,-0.0003139610170006782,0.0002258613306534323,0.0007001204226825437,0.0010906624995941233,0.0013752371160128552,0.0015235555445130338,0.0015062927459276953,0.0013095825220075376,0.0009440078913054418,0.0004422534347833068,-0.00015077196092639158,-0.0007849981846640608,-0.001401859480422745,-0.0019242860872746791,-0.0022544034069480775,-0.002292487716762931,-0.0019764781453730485,-0.0013235918877594244,-0.000447546462621625,0.0004670322810297906,0.0012299794266172146,0.001722543868776013,0.0019437934725922007,0.001995547228362141,0.0020106893047851207,0.0020678919621324437,0.0021466890089538986,0.002149603889837769,0.0019719721235102925,0.0015692032263427583,0.0009771153345030112,0.0002777327596265968,-0.00045709366949401914,-0.0011980337295028807,-0.00194237361819375,-0.0026655819586841483,-0.003282304567877667,-0.0036519370722244474,-0.0036317233317382674,-0.0031480781105275675,-0.0022457752247461234,-0.0010880644443616598,9.327017521367262e-05,0.001075639004338182,0.0017178647096255893,0.001997404540073782,0.0019993318620833036,0.0018656650158657881,0.0017308010059376051,0.0016723698896300735,0.0016954407655860142,0.0017494273169273605,0.0017623001673634396,0.0016724577248196284,0.0014443908176266077,0.001065508640479015,0.0005329616518438857,-0.00015406934390257217,-0.0009839847292244515,-0.0019050281206244525,-0.002798503214084304,-0.003480381917460415,-0.0037488722759175734,-0.0034678098659484758,-0.002646085573183156,-0.0014638778337819115,-0.00021911405100950748,0.0007881251794252904,0.001377514533790055,0.0015542532957554664,0.0014850708127042767,0.0013977933215499213,0.001457222163121244,0.0016820300266345211,0.0019454802990087447,0.002057294754595568,0.001878990863193574,0.001406333958408837,0.0007719181703231147,0.00016774766043134692,-0.000264938971348577,-0.0005113912511474297,-0.0006777940051579454,-0.0009078599699910691,-0.001275048224782054,-0.0017210467298277056,-0.0020819774641364854,-0.0021858586661877228,-0.0019570809188752783,-0.001459502616357419,-0.0008525122150381315,-0.00029360360188979346,0.00014537055993259457,0.0004953374691772628,0.0008365321452355854,0.0012175707138762657,0.00160427171679962,0.001891037157224423,0.0019647426456532936,0.0017781125267171218,0.001385220241636313,0.0009163764760471242,0.0005071727418408896,0.00022422451358988446,3.1891352873555744e-05,-0.00018055685910020125,-0.0005275287371571992,-0.001052250092386976,-0.0016888364850281886,-0.0022790833740520206,-0.0026330474927226902,-0.002604170650923137,-0.0021477515706189504,-0.0013415062528855783,-0.00036167687152442556,0.0005765928885662437,0.0012926320310478175,0.001698037372760033,0.0018134726400825985,0.0017368446865030232,0.0015810741879666954,0.0014181764540206695,0.001261958468271489,0.0010938238376521142,0.0009045268156956843,0.0007144235997008686,0.0005546839700057476,0.0004262292336480439,0.0002741897086792372,6.196758276083504e-06,-0.0004502738475698162,-0.0010873885808126435,-0.0017944164122781388,-0.0023906745448183547,-0.002697599337347605,-0.0026126867639856095,-0.0021500971288801376,-0.0014316689268086464,-0.0006355147575938277,7.297700750731828e-05,0.0005971883134734315,0.0009298706377916013,0.001133706701395998,0.0012957919424606407,0.0014796385354959264,0.001695418742048926,0.0018978171450009787,0.002008586456289528,0.0019529921659322681,0.0016964330462779609,0.0012673547039506827,0.0007541928039969418,0.0002706787524832169,-0.00010117229186165796,-0.00036245279642104617,-0.0006075104000916474,-0.000973531506761314,-0.0015471566667487934,-0.0022805691359084135,-0.002974937352273188,-0.0033549469735189895,-0.003202549165460037,-0.0024772419665109067,-0.0013530536546349462,-0.000148556308336003,0.0008139902059572178,0.001347571172738842,0.0014692256581656984,0.0013686005265654056,0.00129548830759084,0.0014241136371234853,0.0017635345433199322,0.002160785696744979,0.0023937844279491275,0.002300051293139529,0.0018665366463141222,0.0012300509136372916,0.0005920273614342396,0.00010131737976241796,-0.00022509317302155105,-0.0004981088434877065,-0.0008729378821610155,-0.0014353989183830502,-0.002125771812343828,-0.002747697074973184,-0.003061019555281462,-0.0029078337091183936,-0.002300216611556124,-0.0014194019542280757,-0.0005270136313529041,0.00016091027754780375,0.0005666660711651877,0.0007618202578829696,0.0008972838927294455,0.00110010992706686,0.0013997072030933874,0.0017218887649147947,0.0019442313992803965,0.001971721055410229,0.0017872259816007167,0.0014532704358211895,0.0010715594473073627,0.0007275642882676954,0.00045102792970609575,0.00021059136789538532,-5.93102523608054e-05,-0.00041656876590060696,-0.0008754083341459508,-0.0013908605526218103,-0.0018689088359928633,-0.002198776352280643,-0.002295521094018137,-0.002134648777736556,-0.001761305815591867,-0.0012682285388309843,-0.0007538661505715052,-0.0002834392940657841,0.00012709173649439126,0.0004989169030441355,0.0008611451452875708,0.0012229875051023734,0.0015616930655937967,0.0018296977312484855,0.001974748505353052,0.001962746426098809,0.0017938966009376474,0.0015054259988425433,0.0011575137193065243,0.0008048180796712636,0.0004650528796382215,0.00010432683647311383,-0.00034276316260890946,-0.0009185110197117654,-0.0015812708260208512,-0.0021838479192230445,-0.0025223966421683594,-0.0024424824752774695,-0.001942014686264511,-0.001199185488834389,-0.0004938825612476234,-6.066182237877087e-05,3.831388535604054e-05,-6.060228022583113e-05,-0.0001150421090136849,7.119623635566457e-05,0.000532353784536861,0.0011302726128550485,0.0016476489467860695,0.0019184857636776644,0.0019121756731181778,0.0017251622084196064,0.0014966764558043907,0.001309922939585221,0.0011412557970963166,0.000883005890194977,0.0004193927478042704,-0.0002917918547108147,-0.001175678553284106,-0.0020545685268248573,-0.002711117971115391,-0.0029717991979591966,-0.0027751043234829774,-0.0021950245468488664,-0.001408282595239466,-0.0006193215559984037,2.1039791881499975e-05,0.000463257674129177,0.0007520855420954666,0.000975534417731957,0.0012036999573582046,0.0014519127893429732,0.0016824685155214679,0.001834415117063846,0.001858132205906694,0.0017354599648280384,0.001479250060441849,0.0011180824166355362,0.0006778531488017732,0.00017234397796556957,-0.00038977577900852986,-0.0009838187482193944,-0.0015477460026683551,-0.0019802744782958185,-0.002170561394203718,-0.0020514034385317103,-0.0016465877907432707,-0.0010777610956324449,-0.0005163468490453388,-0.00010192223928104653,0.00012526191784623694,0.00023486749896657133,0.0003527326928055454,0.0005770547234080567,0.0009172287323665866,0.0012904769792602441,0.0015713126676498356,0.001656083320318268,0.0015019066258089833,0.0011247518991462924,0.0005730714487798826,-9.30198661980386e-05,-0.0007999787071842491,-0.0014463218798314447,-0.0019023473146316699,-0.0020428263059491993,-0.001803543271137075,-0.001227744980713945,-0.0004674983278669192,0.00027008606597570786,0.0008076356878440558,0.0010684593729569788,0.0010950476593979065,0.0010065890790334371,0.0009230337956208706,0.0009024305423096554,0.0009268908578847542,0.0009375298329962125,0.0008852668638724128,0.0007573710145025721,0.0005635608012370778,0.00030066546764761414,-6.650499236707488e-05,-0.0005828295153100462,-0.0012480034670940467,-0.0019683832218191522,-0.002558080472422122,-0.002803600132497654,-0.002564161970750482,-0.0018518798645396164,-0.000842219900968203,0.0001963553711662035,0.0010177501110676043,0.001497402573997525,0.0016652672798688553,0.001661336904167525,0.0016440220474211054,0.0017031627157637107,0.0018214987416518345,0.0018980784415981332,0.0018125530192041675,0.00149011321718409,0.0009327509277922139,0.0002077252471268212,-0.0005889192701691578,-0.001364724480094971,-0.002040490660571042,-0.0025412182927862766,-0.0027890002280268984,-0.002716576163273309,-0.0023012180859454346,-0.001597078882807752,-0.0007374878514279949,0.00010536317619975414,0.0007865898730450918,0.0012427293185576721,0.0015004865826815158,0.0016358730076647923,0.0017127052161971053,0.0017426031834399073,0.001691744524020522,0.0015244928363739325,0.001246317252889738,0.0009093161254195617,0.0005735364555829063,0.00025417483715491583,-0.00010015052054594052,-0.0005730062370233149,-0.0012063395932654503,-0.001936343131709726,-0.0025867862134100286,-0.0029332912462719006,-0.0028079672509324386,-0.0021881037872051997,-0.001219964811966442,-0.00016331514619166178,0.0007162717556747276,0.001254236027892875,0.0014416922342206913,0.0014042839999288805,0.0013207601023154194,0.0013271986093385951,0.0014574374790498395,0.001645873212596083,0.0017805507108714458,0.001767489826575692,0.0015682155745938464,0.0011972017437984904,0.0006939247796420325,9.616497223976478e-05,-0.0005672013385938276,-0.0012639745475865548,-0.0019409861908348319,-0.0025170185805785785,-0.0028939398622526797,-0.002982398524145725,-0.0027314109427173526,-0.0021509676426134236,-0.0013202258827659686,-0.0003767748249492668,0.0005147412499958439,0.001209730541468858,0.0016308775447030676,0.0017926105308693997,0.0017858418160518808,0.0017263022192650218,0.0016926851771089937,0.001689427042173672,0.0016554331342420196,0.001512438248381329,0.0012224123283124794,0.0008172865695824984,0.0003806413263628079,-8.257154705882178e-06,-0.00033078753923965925,-0.0006444426298092626,-0.001040947823979269,-0.001569207490262172,-0.002171888230676822,-0.0026805106257211837,-0.002880834931320387,-0.0026179662050041528,-0.0018847280349139673,-0.0008434182736661961,0.0002335489130587017,0.0010751488153395376,0.0015196770431099252,0.001567391892383591,0.001357114834481903,0.0010856311534749134,0.0009150721661423059,0.0009134072965721379,0.0010493732684050986,0.001231674369797855,0.0013619587407970664,0.0013715911567769286,0.0012293756850309812,0.0009281604619817861,0.00047016961826043676,-0.00013197747840845968,-0.0008369505057164891,-0.0015554911398654428,-0.002153964828271579,-0.002492551882253977,-0.0024844454219646412,-0.00214156917889029,-0.0015743338533475188,-0.0009400474086544777,-0.0003687805150732693,8.86439761328627e-05,0.0004607838501154634,0.0008089250442883366,0.001168245010140052,0.0015157833736020691,0.0017829630646939297,0.0019001914930642438,0.0018419818282846725,0.0016431603407040213,0.0013762541963740016,0.0011044143457783324,0.0008394459310861856,0.0005322977078822237,0.0001047411350647112,-0.0004935437611836375,-0.0012341108654549571,-0.0019945252371615517,-0.002590178904282106,-0.0028420561193859602,-0.0026529025023904187,-0.0020581813299493344,-0.0012242414806001743,-0.0003862862865562822,0.00025063394339958577,0.0005989165339238821,0.0007152695567246209,0.0007504023911278231,0.0008512901137924557,0.0010753936035701249,0.0013672576694528753,0.0016059386247896366,0.0016864476859085116,0.0015808548650732032,0.0013439023784459255,0.0010669631643146372,0.000815580663214991,0.0005912223168817576,0.0003376726438571587,-1.6992202594628075e-05,-0.0005108420390445,-0.0011178183836370393,-0.0017482753320688642,-0.0022757323095734506,-0.002576875013094693,-0.0025703253305734007,-0.002241168338864211,-0.0016428698634569573,-0.000877686434228942,-6.690798859426098e-05,0.0006752639952198556,0.0012584080182299262,0.0016273034618890523,0.0017730280433842156,0.001739551984013446,0.0016138551636924775,0.0014926586564405976,0.0014360841800043047,0.0014341145995622347,0.0014102278423962131,0.001265006547113528,0.0009348210518248989,0.00042825043156891084,-0.00018257352834715693,-0.0008062861225963146,-0.0013774541148513506,-0.0018694455873429334,-0.0022694602085910997,-0.002541600118306389,-0.0026142260303590042,-0.0024094434818674663,-0.0018997680431844866,-0.0011535586010650595,-0.00033264456081799176,0.00036753360133038996,0.0008079720361022061,0.0009746991211660785,0.0009811858285624056,0.0009982267136948181,0.001151594833140448,0.0014500243673503273,0.0017868305606208628,0.002010473214074188,0.0020158472017863163,0.0017981971169870677,0.0014400988770908933,0.0010472567696987855,0.0006793773223835818,0.0003198031637278949,-0.00010149061781170195,-0.0006498726797933359,-0.0013284825754244541,-0.0020526055086289544,-0.0026690759490356495,-0.003011623472536135,-0.0029664722065140554,-0.002517952927782738,-0.0017539028223793685,-0.0008310303600382029,8.010576276469745e-05,0.0008441200541206516,0.0013861497924346827,0.0016915745804409834,0.001789560271267116,0.001732148973474723,0.0015766967624743279,0.001374409301768842,0.001164132382678103,0.0009690120529109984,0.0007942849906498198,0.0006264447993083652,0.00043561602397067006,0.00018333923447779658,-0.00016282353725230204,-0.0006093003232560596,-0.0011180539542027675,-0.0016014215191211777,-0.0019401685208262956,-0.0020239180411614076,-0.001798986521491359,-0.001300468489081699,-0.0006491184654833075,-8.568437292083922e-06,0.00048137485323389805,0.0007636087211704277,0.0008815345545115352,0.0009413751820464878,0.0010377106576346753,0.0011881054459389887,0.0013213390699066121,0.0013290786518593244,0.001145335946256181,0.0007966078952430301,0.000386465619836264,2.6497097061809667e-05,-0.00023559905599190517,-0.000438848946233726,-0.0006669690420895833,-0.0009721627129263932,-0.001319580311086282,-0.0015926634238469432,-0.0016569440093782957,-0.00143965691522142,-0.0009733557632705472,-0.0003789669018537708,0.00019479053300647123,0.0006345166002802703,0.0008943387181030805,0.0009906494955592789,0.00097483546516185,0.0009039743816354316,0.0008211233520280024,0.000746637974148634,0.0006767072662270958,0.000585715106539026,0.0004327581512527863,0.00017589739427019402,-0.0002038760455506728,-0.0006753600105498996,-0.0011431634197381618,-0.0014650364097473893,-0.0015043031650422943,-0.0011974855535878844,-0.0006004950860057184,0.00011849350089750555,0.0007444070746540637,0.0011096301427145302,0.00116845709160414,0.0010111352545262922,0.0008091290079629246,0.0007203286889307988,0.0008040686918557938,0.000989692266231437,0.0011129005345017595,0.0009984044772802002,0.0005459299610825494,-0.00022010345410824415,-0.0011546982174271297,-0.002042202292347707,-0.0026682671366934545,-0.0028868224631417175,-0.002660215832326166,-0.0020605882097194583,-0.0012344739191398355,-0.0003478592558277655,0.00046260250003236317,0.0011126907271075902,0.0015668005116069505,0.001822440173442515,0.0018996873632505101,0.001839311156790405,0.0016998018022636899,0.001542565497886613,0.0014061658711821,0.0012832870007636792,0.001116656379332424,0.0008207623803452912,0.0003223249026423232,-0.00039682520870252353,-0.0012717874504900321,-0.002153896266199092,-0.002842326573133924,-0.0031438062408743308,-0.002943999496735747,-0.002262405746619574,-0.0012608292270082854,-0.00019144597071627152,0.0006990784329500786,0.001264792511287278,0.0015052291392119966,0.0015362827660059507,0.0015071412655214304,0.0015147716788879552,0.0015652727839104155,0.0015974556815554516,0.0015425191238334483,0.0013734916024417676,0.0011119421328311886,0.0007948763058403109,0.0004342183494650677,3.876841576915728e-06,-0.0005340754827107319,-0.0011826238449696314,-0.0018761253428361325,-0.0024852767478582244,-0.00286213959319291,-0.0029019375418945473,-0.0025876546855481803,-0.00199338025059223,-0.001247043328712113,-0.0004762510138015887,0.0002330595821395741,0.0008480236724158987,0.0013719772367635223,0.0018133489388336417,0.0021576595766125716,0.0023578280203142756,0.0023513407136185687,0.0020999552087532453,0.00163155684429961,0.0010552212860323075,0.0005299805947654361,0.0001944698930423682,9.289797362062465e-05,0.00014175235461032394,0.0001621499006326649,-3.370987786349071e-05,-0.0005436271877949537,-0.0013124953058669974,-0.0021368649305923237,-0.002738547329115961,-0.002878804311245292,-0.0024648451561483597,-0.001599151802966753,-0.0005439124493287527,0.0003882769188961544,0.0009681308415238137,0.0011425743041564697,0.001039460936609767,0.000881686777405648,0.0008573448466055034,0.0010179496638623733,0.0012616546930274463,0.0014089740328915754,0.0013228327710832185,0.0009970043828606192,0.0005563199949945442,0.00016880113212865166,-7.120785467169919e-05,-0.00020844924250458985,-0.00039298107792156957,-0.0007661240321848325,-0.0013409915450201466,-0.0019593557485753023,-0.0023586297437626835,-0.002311454720592758,-0.001753535108034888,-0.0008236079032309422,0.00020469641717630943,0.0010542554718096782,0.0015615517009488244,0.0017191163079743514,0.001634250585679203,0.0014441067443042956,0.0012438913426937406,0.001064203373203522,0.0008950104388162933,0.0007248771341555544,0.000561461317359365,0.0004203962083381889,0.00029690552011684784,0.00014826660292957596,-9.307253899042338e-05,-0.00047903861184791087,-0.0010022433108425658,-0.0015773494761373574,-0.002061801203295495,-0.0023081936743757823,-0.0022234789813516194,-0.0018066416089397644,-0.0011478322644431058,-0.00039182091736832727,0.00031458527284791357,0.00086705135868282,0.001224137498431821,0.0014010457551086636,0.001445273489034598,0.0014081044120077871,0.001325003466754623,0.001211745237132899,0.0010737323000557636,0.0009179974147540027,0.0007561010163302192,0.0005934836020035847,0.00041290947806779253,0.00016823536933272063,-0.0001978958534333167,-0.0007139928034161913,-0.0013379377257414118,-0.001942855268323179,-0.0023490495382955216,-0.0023942688137872674,-0.0020095322310171525,-0.001260685665981997,-0.0003318605917179868,0.0005435146012640965,0.0011721882287837066,0.0014691623890099137,0.0014734176740842948,0.001307261152294085,0.001105104652367481,0.000952866962971616,0.0008687301598925383,0.000825386019672275,0.000785712554664061,0.0007205182764150019,0.0006004598344155005,0.00038233922597761063,1.6593983239119323e-05,-0.0005176805012404305,-0.0011723696494524323,-0.0018185390673492324,-0.0022820516674079486,-0.0024141857961234286,-0.0021592423578775553,-0.0015797739726177364,-0.0008252248710309608,-6.442647508104484e-05,0.0005778565590574615,0.001048240057984112,0.0013515634992583797,0.0015184846868107167,0.0015805755542481503,0.001564788386822356,0.0014993449238415795,0.0014151067944607896,0.0013344965509529438,0.0012544922625118318,0.0011381100985339546,0.0009245625482011175,0.0005564583934896981,1.189217895455235e-05,-0.000673937959950158,-0.0014083244168168999,-0.002063202784358786,-0.002511509981789406,-0.002663991444719975,-0.002493930000566702,-0.0020431792313291546,-0.001409289748493226,-0.0007180683947409229,-8.895307831217382e-05,0.00039704179714030515,0.0007158861564626653,0.000897105741635601,0.0009983475084423417,0.0010704030930756435,0.0011329006405037974,0.001174847205498469,0.001175849631142237,0.0011274423519443307,0.0010347176315750658,0.0008972149409641214,0.0006891025374897411,0.0003636292414328881,-0.00010999100794482366,-0.0006965246408146857,-0.0012689464394193448,-0.00163759230192811,-0.0016324728064240168,-0.0011974592828145354,-0.000437135099849193,0.0004205976752792404,0.0011302775269383591,0.0015401112271283264,0.001641253633641055,0.0015314917990085991,0.0013289197099867686,0.0011007661991242423,0.0008522831188985359,0.0005696148961091985,0.00026901572117519405,2.7300791460628006e-06,-0.00019046021699033015,-0.00035239908573430695,-0.0006279552048217426,-0.0012014720403224842,-0.0021643662544277484,-0.0033898582288753596,-0.004507875892479514,-0.005027751655955705,-0.004567504705101928,-0.003070004680005736,-0.0008755659476105585,0.0014043651812298222,0.0031505460904314607,0.00399428981247241,0.0039389491807825545,0.0032991974285955846,0.002512779196293017,0.0019335644127930545,0.0017037259508834684,0.0017466850888204787,0.0018583652600525132,0.001833878296724209,0.0015631895578406066,0.0010569506545204843,0.0004054163992279315,-0.0002917453766461084,-0.0009763203245729204,-0.0016335964804594554,-0.002252420650264069,-0.002779960934312909,-0.003111305171611954,-0.0031285521839287326,-0.0027669723572316678,-0.0020635389522853246,-0.0011530838544828955,-0.0002134808632397126,0.0006038187573640755,0.0012154080468645182,0.0016031520348124524,0.0017844836171820957,0.0017868814329843397,0.0016437041694035077,0.0014038058391881425,0.0011341813215157972,0.0009025789631075364,0.000746891935436022,0.0006523914163349627,0.0005544793881627396,0.000367232686218091,2.1805487622245844e-05,-0.0005038529603120232,-0.0011726955896495623,-0.0018917541969772653,-0.002526524705639557,-0.002926346758148686,-0.0029618081254956198,-0.002568335412657408,-0.0017798165685401592,-0.0007325295147614569,0.00037066806347790294,0.0013260103537542057,0.0019959861378440373,0.002345841637662563,0.0024331210243207038,0.0023603301300757482,0.0022200478959924883,0.0020613079130280885,0.0018882388228049901,0.0016811415468710195,0.0014202423385273272,0.0010967926113269982,0.0007085766401435916,0.0002483740633930714,-0.0003009759914545745,-0.0009544430930520862,-0.0016963801974720126,-0.0024517659346454954,-0.003082000270624349,-0.003421696244052031,-0.0033471288754213513,-0.0028406394283012988,-0.002010526528598297,-0.001050321782316342,-0.0001588736048683833,0.0005339347289625593,0.0009979446109247827,0.0012821748462764875,0.001465418215807371,0.0016108750261564254,0.0017454705662307065,0.0018630162811141824,0.0019369979943107153,0.0019311134248072648,0.0018070205453612942,0.001535573208234268,0.001112826645177376,0.0005713617881514878,-2.562243321683344e-05,-0.0006089588755282081,-0.0011314762585145303,-0.0015770939399352413,-0.0019413706193777223,-0.0021983519637264184,-0.0022851556095136645,-0.0021270160802555884,-0.0016935563325762462,-0.001046120558546174,-0.0003340174296851673,0.00026937328851411293,0.0006549378931140905,0.0008331938069012915,0.0009182601595719266,0.001048775262080586,0.0012956145279252446,0.0016141516904258533,0.0018690897400749171,0.0019140502725266647,0.0016763403795349706,0.001197717456608457,0.0006107839781997661,6.799848270619218e-05,-0.00033543648928669215,-0.0006032676973229354,-0.0008232653655486023,-0.0011034314750418268,-0.0014922155355257842,-0.0019272381716658605,-0.002247708082398321,-0.002273829957433059,-0.0019142936195022688,-0.0012367870383266024,-0.0004502750496164224,0.00019984591284417664,0.0005640363600567191,0.0006658802212008862,0.0006741567858282232,0.0007870969694895972,0.0011030258194447366,0.0015586178007695015,0.001969579825537199,0.0021422612498517768,0.001983353108561893,0.0015428739601454633,0.0009727600269026997,0.00043538213642335173,2.0398096623929862e-05,-0.00028551798443852673,-0.0005676576791521328,-0.0009153423970163234,-0.001355081743339269,-0.0018178373439173192,-0.0021575765884478534,-0.0022168009842814763,-0.0019113396618945153,-0.0012908097484910185,-0.0005360844234431357,0.00011462021392085936,0.00047787236551508533,0.000515479944417068,0.00035094308685549224,0.00019948062738682167,0.00024879718755134293,0.0005573496929144228,0.0010275352556563637,0.0014670890838521505,0.001699370391349026,0.0016550051885481643,0.0013915916033858397,0.001035534668879414,0.0006895009659486385,0.0003684172830461082,5.025822773680513e-06,-0.0004811524191959526,-0.0010989118675533347,-0.0017420870836250186,-0.0022192273910973063,-0.002341857235065154,-0.0020207389481309984,-0.0013156181824255046,-0.0004132492104768371,0.00045019535332989954,0.0010796949446393448,0.0013834434406208604,0.001386547622860451,0.001200883236482863,0.0009697216060242453,0.0008085875719035716,0.0007611408185109622,0.0007841414322732301,0.000768073377683842,0.0005887190911504094,0.0001715085774586155,-0.00045964724482469924,-0.0011755670363618022,-0.0017853318738985454,-0.002111500234120169,-0.0020605345963328058,-0.0016557792131909996,-0.0010216543769158402,-0.00033109498300882623,0.00025877804196619574,0.0006574565480988422,0.0008612050730682158,0.0009376533738381059,0.0009830637058659943,0.0010715276024429801,0.0012194353401628563,0.0013814536890573064,0.0014775404512111468,0.0014338899641908502,0.001215391749910315,0.0008358338842973504,0.0003464465849792441,-0.00018685066409959602,-0.0007051142139813381,-0.0011674307535351526,-0.001547738294017584,-0.0018225120690424357,-0.0019617969577268367,-0.0019344710819909194,-0.0017262763698707533,-0.0013558464893918638,-0.0008732238921869617,-0.00033992432820605757,0.00019350008473760212,0.000694062518087757,0.0011342253663898833,0.0014770234831375246,0.0016781102751228186,0.0017084050382542904,0.0015793657876621706,0.0013458541644191303,0.0010771222374465657,0.0008128985787332669,0.0005372011837603376,0.00019354411628605644,-0.0002634857919550068,-0.0008135813357104438,-0.0013529426158652067,-0.0017314435333632813,-0.0018260440990702778,-0.0016058831697377163,-0.001148690798710674,-0.0005999581579359614,-0.00010273503432966343,0.0002589382234868102,0.0004749897786515327,0.000585626609163501,0.0006443006789604924,0.0006920785507541384,0.0007504607996006779,0.0008228279254652823,0.0008924826447260572,0.0009169333289177226,0.0008305887814666335,0.0005679869941142345,0.00010482717411319727,-0.0005045399811618389,-0.0011212572202126776,-0.0015626034779841836,-0.0016767572591259994,-0.0014150901566776083,-0.0008613859483465307,-0.00019860983547634846,0.0003714203623457448,0.0007132686241149671,0.000803984200378296,0.0007206179690922324,0.0005845337274902662,0.0004994202579542299,0.0005145985565860945,0.0006208187745620597,0.0007644613860270795,0.0008642553470617165,0.0008283069252070878,0.0005797562516969663,9.327571042508001e-05,-0.0005726327252709866,-0.0012722992235514338,-0.001812409624287778,-0.002022571464289185,-0.0018239000327357033,-0.0012618217761658922,-0.0004886367242302352,0.0002935457680329104,0.0009034609193736883,0.0012380935649735194,0.001298477368167077,0.0011766310221852845,0.0010081561923234183,0.0009072832805473456,0.0009102627579875705,0.0009529660949335555,0.0008964710085976988,0.0005936881921812342,-3.0300131305921246e-05,-0.0009208808005358788,-0.0018884087451125338,-0.0026618517581233872,-0.0029841097349682794,-0.0027135811959051494,-0.001890632032962243,-0.0007364265317765558,0.00042410754788869016,0.0012893634359935507,0.0017036372452599586,0.001715182958166698,0.0015361952860308836,0.0014205054516550494,0.00152173176385214,0.001810261695458423,0.002097316292333847,0.002151898864774291,0.0018392052095958324,0.001195463941603381,0.00039540616410687886,-0.00036167776872415933,-0.0009696075431546619,-0.0014595413140792688,-0.00194473970795609,-0.0025063914050381777,-0.003099232470512793,-0.0035421921788436894,-0.003604399345989407,-0.0031360554563826058,-0.002165009182353217,-0.0009007588064943528,0.0003561177975143485,0.0013458829840102223,0.0019496342421317864,0.002208620952605234,0.002263875416335589,0.0022599433801244765,0.002269257002211672,0.0022739165984011172,0.002204390778761899,0.00200223575828424,0.001664494344648135,0.0012447121982735987,0.000815938837213614,0.00042350657010151605,5.7210703775381535e-05,-0.00034244617872487186,-0.0008478839571994652,-0.0014944317288187845,-0.0022384275813358114,-0.002944894840003968,-0.003418591609532639,-0.0034744027793125153,-0.003020026591163289,-0.002110334335658464,-0.0009416941594208529,0.0002161495792436523,0.0011206824130022867,0.0016431556448726135,0.0018015291947555054,0.0017264501340069796,0.001579982250637343,0.001470998410894758,0.0014125007038488008,0.0013415802197781854,0.0011853130446170751,0.0009282050342731972,0.0006362174398884509,0.0004197864967967965,0.0003574880094088294,0.00042923603399342434,0.000505325314564259,0.00040526880274050923,-2.285204237726648e-06,-0.0007137238057388822,-0.0015683514288264032,-0.002306050226313202,-0.002678398202532724,-0.002558393006292174,-0.001994153210818657,-0.0011808961738940808,-0.0003677123818845618,0.0002517936166780677,0.0006105968639972373,0.000770300202141662,0.0008612197052834259,0.0009982420107635115,0.0012182070879852224,0.0014681076884950134,0.0016435243910068928,0.0016505821557790995,0.0014559705943933698,0.0011006375393966805,0.0006744135205835116,0.00026804673557749234,-7.193351441637261e-05,-0.00036243364511965947,-0.0006658023293859636,-0.001041683173788024,-0.0014937500291318496,-0.001943170368055642,-0.002249066701961035,-0.002270539861257857,-0.0019396148708346235,-0.001305299160555402,-0.0005224372024057844,0.00021137795393872457,0.0007388784069751435,0.001003891047712491,0.0010615449350351734,0.0010379906746729828,0.0010640607851260214,0.0012149205102420719,0.0014791372944473803,0.0017654079060329575,0.0019418597968855543,0.0018929939361085613,0.0015719876014685425,0.0010243432784376335,0.0003685567943479777,-0.00025945892746268365,-0.0007694765546867899,-0.0011510038434073165,-0.001456266705348033,-0.0017411284309426728,-0.002001934255449132,-0.0021530594325101316,-0.0020666806573174583,-0.0016554067409883775,-0.0009467902574752618,-9.936863077390605e-05,0.0006559624063866295,0.0011198060347518677,0.0012161043824915159,0.001021285310317277,0.0007156382528170357,0.00048481252093768404,0.00042559731476681103,0.0005059249100430679,0.0005971756990031962,0.0005555132021394806,0.0003024639915336669,-0.00014054170955664022,-0.0006767426272764907,-0.0011928308662101583,-0.0016090972314851285,-0.0018909853733264743,-0.0020241081588723074,-0.0019814592933411683,-0.0017141688228496095,-0.0011753944675140472,-0.00035860766594927667,0.0006802408381952357,0.0018323211963237164,0.0029648137942308935,0.003942096594443949,0.004626441905849962,0.004875100504026313,0.004564566886573145,0.0036516621817998993,0.002239324049731458,0.0005916831424127995,-0.0009345767793294959,-0.002020928276570947,-0.0025148597017980623,-0.0024904494360598146,-0.002215069953589303,-0.002039199868913971,-0.0022520893463681543,-0.002953190203810868,-0.00398632011812959,-0.004970868615950348,-0.00543505766172721,-0.005011416903804177,-0.003613355914692551,-0.001503336174986816,0.000794701109654573,0.0027072025011561952,0.003844968963556311,0.004141843591532087,0.0038344028034007008,0.003307381567910031,0.002896734755026028,0.0027511746005282273,0.0028074737215942397,0.0028690228287887127,0.0027292493383529242,0.0022721757578957865,0.0015084626727337677,0.000546611071471816,-0.00046849420267676243,-0.001409324007026768,-0.002187506730639264,-0.002746309752867112,-0.0030455502734833308,-0.003060127092215385,-0.0027952448648359838,-0.0023014963808031356,-0.0016694079232146455,-0.001000043477396368,-0.0003703467486638112,0.00018214516939828456,0.0006468439909006869,0.0010151395238208734,0.0012677587702402606,0.0013864001838170997,0.001377457697567928,0.0012817620129060737,0.0011541270725976694,0.001023208253328344,0.0008632104878185535,0.0006052289919200571,0.00018847308464999446,-0.0003792837973929298,-0.0009938086379600547,-0.0014835945958918894,-0.0016858157575357791,-0.001528245488733085,-0.001069587392476039,-0.0004729550389172783,7.407805477760855e-05,0.00044784828857084646,0.0006357350259444962,0.0007180312894145628,0.0008004465285359754,0.0009417736518963051,0.0011204156980877185,0.001255051829809981,0.0012592086381851184,0.0010908019454990367,0.0007662560302891723,0.00033598612636913535,-0.00015551695602011102,-0.0006928063789463262,-0.001277211639544315,-0.0018879765519381516,-0.0024485189021004852,-0.00283055145715536,-0.0029039149675221844,-0.002604885168992408,-0.001977313685856998,-0.0011562192980004039,-0.00030291448375865064,0.00046585215796094575,0.0011110079130769617,0.0016535085285607194,0.0021299132867763065,0.0025592698637150147,0.002941565553138363,0.00327537759860722,0.0035634637050775972,0.0037867413817206817,0.003861030864038676,0.0036192488942160613,0.002857837465468716,0.001445924312931736,-0.0005557550414648923,-0.002842541193717224,-0.004928935559360182,-0.006311791388043394,-0.006659726023042257,-0.005938611450207149,-0.004415816766645687,-0.002545756550667912,-0.0007935209541472883,0.0005236766982893684,0.0013134612865467992,0.0016828561841313672,0.0018366031830037962,0.001955216269473126,0.0021107858371897364,0.002254730923338016,0.0022740351360918914,0.002078310513042096,0.0016655610197338386,0.0011280096878959808,0.0005955287999629468,0.00015387842111984319,-0.00020660856555460702,-0.0005738499653578663,-0.0010359107532634027,-0.0015937474082060126,-0.0021270930328784196,-0.002441942967541529,-0.002372257234334532,-0.001871635455201298,-0.001040169138478539,-7.770577174738261e-05,0.0008005004923518134,0.0014378287855836246,0.0017722896172977123,0.0018340844393034497,0.0017179543731883323,0.0015430937639644314,0.0014103862799224516,0.0013676234145032734,0.0013946182425023392,0.0014157658331934888,0.0013368654623433865,0.0010907559049545118,0.0006696126829718861,0.00012642037583604455,-0.00045556421014385413,-0.0010069241233204966,-0.001501772627359093,-0.001953722407412289,-0.002380991809996417,-0.0027644247029410215,-0.0030284024725310754,-0.0030622019851789953,-0.002774770234966241,-0.0021528605842851384,-0.0012862024121717101,-0.00034060008712706916,0.0005089346238671673,0.0011484974266393513,0.0015610219791783058,0.0018105507518256612,0.0019876817401408334,0.002149303069023965,0.0022866428024835507,0.0023377446538472403,0.002234373246336326,0.001953622205374933,0.0015418654336146094,0.0010946377254785734,0.0007022798331787325,0.0003934850872517133,0.00011356911774390024,-0.0002438386581113032,-0.0007652492251009261,-0.0014464402649972507,-0.0021664612649924765,-0.002727360265895002,-0.0029431757613376667,-0.0027319072265320522,-0.0021592637946697205,-0.0014073939526455,-0.0006836232447257302,-0.00011985272969841046,0.00027975270808824535,0.0006131225093084248,0.0009941327297565729,0.0014607223749249886,0.0019357342770254418,0.002265824057023967,0.0023142233122632454,0.0020485303596534526,0.001567146750583028,0.0010461241086486136,0.0006381663797366312,0.0003857689693003356,0.0002016892022232529,-7.178947285055694e-05,-0.0005605303843086968,-0.0012720929833824157,-0.0020719159107157707,-0.0027328787776871918,-0.0030318587366749573,-0.002846606144408578,-0.0022087088367763567,-0.0012896293704564442,-0.0003273744795262041,0.0004710430070042347,0.0010042866851670159,0.0012931321237513534,0.001434931560374789,0.0015271306272519652,0.0016070253469537103,0.0016416898382602707,0.0015684951367515407,0.001355232752655288,0.0010383245073999944,0.0007119043832552042,0.00047040900963057214,0.00033756826397253936,0.0002294367865028642,-1.3546717843534095e-05,-0.0005297192017840531,-0.0013247447975584417,-0.002217041984597513,-0.002887371958382124,-0.0030194826610238546,-0.002460051645815005,-0.0013096013092582692,0.00010657772430073403,0.001372512761739401,0.002152655293981251,0.0023190344231629164,0.0019800315413916816,0.0014042060200633237,0.0008805302807711217,0.000585405371954565,0.0005223137723353996,0.0005602102319612525,0.0005407613881617717,0.0003852543329339632,0.00013514793385899877,-9.495608619559579e-05,-0.00021549480903358263,-0.00024217081551992437,-0.00030211888260918114,-0.0005586178781652002,-0.0010992517813228227,-0.0018562376257435739,-0.002609861753286852,-0.0030779482702360363,-0.0030443208421104535,-0.0024569124661573127,-0.0014449878874421638,-0.00025264954099104783,0.0008683215091008512,0.0017472608159740679,0.0023262532585389033,0.002634678314250549,0.0027374269991046274,0.0026925647052047914,0.002535895975760632,0.0022865644108094794,0.001957767913994954,0.0015628884268286641,0.0011177964195065206,0.0006424338455196573,0.00015925209729574793,-0.00031633383889031466,-0.0007899854799923137,-0.0012914489396071737,-0.001851660214736192,-0.00245918032481057,-0.00302594413823895,-0.0033968104091083875,-0.003411601796372724,-0.002989212902161326,-0.002181805853644812,-0.0011620040472349654,-0.00014832704943227963,0.0006865326626676584,0.0012718757471247392,0.001634220663619146,0.001846812940087046,0.001973023422844596,0.002037703210884589,0.0020347181394163223,0.0019539951158957687,0.0018031038205815907,0.0016079955205439958,0.0013951581053587266,0.0011706786944549817,0.00091280375825099,0.0005841071819600496,0.00015546432069325246,-0.0003731581273631768,-0.0009660318346843373,-0.0015591954868355326,-0.0020739174471121774,-0.0024284244420565296,-0.0025480860590481862,-0.002380724515812168,-0.0019204988220148645,-0.0012313047827661862,-0.0004498626206743951,0.00024731235819177,0.0007079574799108004,0.0008697258307727503,0.0007894937872497774,0.0006146291991191268,0.0005073158629385532,0.000562040513301906,0.0007625042864857193,0.0010019452644849014,0.0011527723282447474,0.0011414099335374658,0.0009820721214886777,0.0007508299440282845,0.0005211605849465207,0.00030789636390915205,6.031959854524145e-05,-0.00028959431576679553,-0.0007575163240597315,-0.0012660768635030047,-0.0016647505423862984,-0.001800418539938889,-0.0015940650407025882,-0.0010765258956177094,-0.0003670308712514945,0.00038251229966048723,0.0010378207667513348,0.0015033308246053241,0.0017203245640607088,0.0016643632196361837,0.0013548337359030479,0.0008676568522138649,0.00033042812879955155,-0.00011209647494722294,-0.00035309563894552745,-0.0003730950116585456,-0.0002557902823871999,-0.0001567809518425164,-0.000234191555049,-0.0005700421749687495,-0.0011193228931158298,-0.001714667751312361,-0.0021298378782600006,-0.0021757122426505674,-0.0017843689878339125,-0.0010412144461555504,-0.00014983023448625343,0.0006540002929277997,0.001199113753563287,0.0014416475763194595,0.0014646145924681222,0.0014165012097906353,0.0014227932953722934,0.001518959616728058,0.0016405260628640011,0.0016717959661901286,0.0015204712387253427,0.0011723762278571192,0.0006955876445406956,0.00019534451796645322,-0.0002497100163726334,-0.0006291204742502844,-0.0009929597716548902,-0.0013985351454497551,-0.0018456590123974062,-0.002245601298426508,-0.0024504715241356755,-0.0023314468117674493,-0.0018602612320808075,-0.001141834012201706,-0.0003727648609633564,0.0002545185372853752,0.0006460615346319573,0.0008401515994271955,0.0009577279580917154,0.0011020934993644872,0.001277757692510083,0.0013876225332434527,0.0013130107804155363,0.0010197060227846396,0.000609958775913968,0.0002743925261448814,0.0001677887832587559,0.00029096946027504087,0.0004651329376099997,0.00042839572944034583,2.7300470088285206e-06,-0.0007720394123356506,-0.001625791254780542,-0.0021828190494285376,-0.0021548744487319056,-0.0014920137697018035,-0.00040728057097218706,0.0007329590070038056,0.0015853467058279452,0.0019743347201131743,0.0019355284935919242,0.001651490080322003,0.0013319405007432244,0.0011099325874717406,0.001001964908768519,0.00093500819501854,0.0008071252787485393,0.0005393992368195186,9.482715996020303e-05,-0.0005306680485328462,-0.0013197915983117832,-0.0022260113685854312,-0.0031479765730057225,-0.003912444288012977,-0.004296431742870196,-0.004098159551425393,-0.003232561116384932,-0.0018022484354021304,-9.612275809094643e-05,0.001500343739462017,0.0026501657583802313,0.0031950526934403363,0.0032027814309018724,0.0029080262289932616,0.0025810132686752635,0.002393359122371293,0.0023452822029323417,0.002283046442569392,0.0019926306996694296,0.001323736723305155,0.00028651017083324004,-0.0009254487802175684,-0.0020005389640338797,-0.002636426044810438,-0.0026702106085760347,-0.0021480735933688128,-0.0012999909467564118,-0.00043367010266606444,0.00019734459199251692,0.00048666922663173753,0.0004895253383656502,0.0003622551237987413,0.0002670124208803083,0.00029273756658838553,0.0004259526077575346,0.0005725768452317388,0.0006070998652408061,0.0004226094778137916,-3.072178018434076e-05,-0.0007191542864454766,-0.001514268327101255,-0.0022103028530785092,-0.002580312290085827,-0.0024595719520805726,-0.0018195658207351224,-0.0007913670670738016,0.0003788283830536234,0.001422151090768709,0.0021422656602759684,0.0024696319310431487,0.0024562294190722633,0.002224180679788521,0.0019018030663335785,0.0015783751821747043,0.0012889235022997569,0.0010199082167327382,0.0007219416310862746,0.00032626986934583904,-0.000228575818138502,-0.0009588111803221403,-0.0018011086341025583,-0.0026063833682215326,-0.0031762985847806286,-0.0033330965042818322,-0.0029919550462709525,-0.0022007135696639566,-0.0011268678348521184,2.6721692757921724e-06,0.0009810062410193386,0.0016838888122107675,0.002090444707533584,0.0022595667744961766,0.0022803982968523113,0.0022232900510683893,0.002112138396056644,0.0019264809904405522,0.0016282641542822687,0.0011973589697757557,0.0006552672274782329,6.189202891759241e-05,-0.000514195684906517,-0.001033105134160565,-0.001500679195331008,-0.0019474008113120294,-0.0023782923836143245,-0.0027298218108494873,-0.002873751929365739,-0.0026791935458170485,-0.0020996572263543055,-0.0012260150153985073,-0.00026286878536890975,0.0005640789582264291,0.0011147132570338142,0.0013902429615421812,0.0015064524547442923,0.001605437430795033,0.001763053943057309,0.0019479240413244725,0.002052801791002927,0.0019738046783604655,0.0016847401640588708,0.0012587055195939724,0.0008236740678624808,0.00048100323745964063,0.00023914439213157238,5.7393380630174065e-06,-0.00035323494149608087,-0.0009183254509961854,-0.0016406503234577153,-0.0023355345781228,-0.00276078989595424,-0.002743462293402958,-0.002281876742641756,-0.0015564176113089607,-0.0008359598465136119,-0.00033419415592548683,-0.00010335341727579664,-2.73616997089653e-05,8.874846450382173e-05,0.0003944344995998328,0.0009093258144679405,0.0015207857605094956,0.0020524002504198192,0.0023546725964549353,0.0023659813570203686,0.0021190626749363266,0.0017036463134295471,0.0012155860334642848,0.0007190008076934786,0.0002320780835369001,-0.00026444240174821666,-0.0008002473720417969,-0.0013769863146439057,-0.0019344307157796593,-0.002345511196248619,-0.002457718384181902,-0.002171727115692809,-0.001516328311862241,-0.0006678743390766144,0.00011209748627728344,0.0005971819294881452,0.0007088146787144682,0.000553573287623844,0.00035935998421892084,0.00034551265562318256,0.0006019990256622691,0.0010460032756032284,0.0014755061726723858,0.0016818541108855841,0.001553700306248653,0.001118106149504327,0.0005069015747338972,-0.00012132409432673535,-0.0006541165193826678,-0.0010538004608454687,-0.001333435158948243,-0.0015049856657412207,-0.001541770908100576,-0.001386871753657959,-0.0010056867117408201,-0.00044520600227029644,0.00014923800950272618,0.0005847996051269561,0.000717739576961921,0.0005369827910792152,0.00017733416543791285,-0.00015202845673708285,-0.00028192638273516956,-0.0001689386495963628,9.945062018093358e-05,0.0003768705913547981,0.000552529290772665,0.000603373563955993,0.0005761586064077048,0.0005257904721929149,0.0004656161936666572,0.00036887874938289645,0.00021460181971661016,3.4179274737465484e-05,-8.483125686327506e-05,-4.6577972319164105e-05,0.00018564744567257767,0.0005512654671952966,0.0009131978520586599,0.0011264259352110615,0.001111059465904324,0.0008862861618114168,0.0005500703559005939,0.00022225559858699402,-1.6945329459646123e-05,-0.00016750854301408955,-0.0003168284316128837,-0.0006098328297898105,-0.0011845273801652087,-0.0020880917027580334,-0.003207100886899688,-0.004255784250478505,-0.004851657099884619,-0.004665401550733408,-0.003581392980877896,-0.0017817248178366041,0.0003040441830507644,0.002167668823169053,0.0034226624691292506,0.003933007045130218,0.0038171509615530404,0.003351047277646158,0.0028395775507032888,0.002515836115777037,0.0024860749797952176,0.0027078619047797734,0.002992871560274777,0.0030483823901171483,0.002576587051999272,0.0014177408055842805,-0.0003273626726973854,-0.0022792637611548155,-0.003905560429998578,-0.0047432198998078505,-0.004602909743054104,-0.003644721671268208,-0.002288063764557062,-0.001010431469538119,-0.00014309256267215826,0.0002380564942954925,0.0002864746829285801,0.00025500898062774105,0.00034143558597865694,0.0005920788660503088,0.0009047356828092263,0.0011117374319483842,0.0010819593883676889,0.0007818201730798791,0.00027353036224547083,-0.0003278537733585637,-0.0008996286044021407,-0.0013348965822389913,-0.0015482457772434282,-0.0014826445511188168,-0.0011278485579482118,-0.0005400498078639616,0.00015823909149762836,0.0008093833976476786,0.0012732985023202064,0.0014775354361729464,0.0014419238746501326,0.0012674295507503074,0.0010931600179111206,0.0010361279446005583,0.001135280053269512,0.0013238144183609643,0.0014475817630237907,0.0013292750208234345,0.0008542001534975567,3.819509813210323e-05,-0.0009567720427324271,-0.0018704431616428986,-0.002438091157536237,-0.0024928643175944716,-0.0020346648274639986,-0.0012349517443236433,-0.00037113278663540643,0.0002853247901195049,0.0005785410405300965,0.000523582824179655,0.00027994702782969266,5.8093438263529906e-05,1.023284921906789e-05,0.00016340340294170876,0.0004251021684049518,0.0006475601279051653,0.000705817901638896,0.0005465646496786858,0.00019362468957427123,-0.0002736813062464049,-0.0007449444913979239,-0.0010968467294829947,-0.0012144960367691316,-0.0010258289726691604,-0.0005410452612135113,0.0001282133796252876,0.000792721637353336,0.0012522280666510668,0.001377385945019541,0.0011674920463610268,0.0007537187119046594,0.00034207595401713147,0.00011833514010928944,0.00015700907237377437,0.00037905638178192103,0.0005840840053335165,0.0005477394266475335,0.00013978227706234645,-0.0005969025788159412,-0.0014496918456812368,-0.0021235250470871907,-0.0023689749836766673,-0.0020866946304949332,-0.001359018503476871,-0.000401073866981825,0.0005350825300321612,0.0012531433270800544,0.0016642910584546587,0.0017872802055196356,0.0017095958782556361,0.0015334574010458595,0.0013301680734218602,0.0011187981468341575,0.0008733043572134935,0.0005494782642106498,0.00011562605451439557,-0.00042664994065509394,-0.0010355053502584212,-0.0016321384248691557,-0.002111582778693219,-0.0023631846232852445,-0.0023019989371706674,-0.0019029683821376912,-0.001220993514729994,-0.00038267609423402025,0.00045015182825279017,0.0011298372534556643,0.001564733515356393,0.00173883594307923,0.0017050900846925176,0.0015570055278785171,0.0013886261324458867,0.0012558055941907546,0.0011521926972273425,0.0010103480773619518,0.0007313503288366918,0.00023574173149444025,-0.00048272282852899616,-0.0013260659099798536,-0.002105384528852493,-0.0026022263772882796,-0.0026563087080217463,-0.0022388388305213495,-0.00147212396708935,-0.0005811158147972703,0.00020128762274625604,0.0007275065870558311,0.000980544671550426,0.001052456819347659,0.0010743542768659802,0.001140476105224467,0.0012669973061296461,0.0014013855670902307,0.0014667359402493565,0.001407344387280021,0.0012075423693147125,0.0008799810484543288,0.0004435205601234635,-8.407184683473115e-05,-0.0006710514057549136,-0.001251165243542999,-0.001723295074668398,-0.0019814356098149712,-0.001959520058947502,-0.0016626203745361532,-0.001165723049669814,-0.0005831965519500652,-2.795260815340191e-05,0.00041998780374596597,0.0007260233002641256,0.0008965119818019984,0.0009650164736554939,0.0009759048059916004,0.0009677571243087056,0.0009570416412286372,0.0009252558033511592,0.0008174573076382885,0.0005608632529983485,0.00010438254618097418,-0.0005348209369368829,-0.0012440509490723056,-0.0018319230341549012,-0.002094564665300176,-0.001907015051720929,-0.001293918939643627,-0.000435978277799098,0.0004010753986684731,0.000984683232061429,0.0012199639377603842,0.001182904501010595,0.0010627670960260396,0.001046425363119365,0.0012117718347409573,0.0014906675343082508,0.0017169022147276746,0.0017216066547726988,0.0014143904519667316,0.0008079489665990948,-1.1467588886547738e-05,-0.0009308557755924227,-0.0018371681456237046,-0.0026154284796185067,-0.0031408641337901224,-0.003294040797665453,-0.0030047318360997377,-0.0022984242989945803,-0.0013077861480189686,-0.00023174283068320793,0.0007385905181710313,0.00148438556126523,0.001978984993661778,0.0022597386006826614,0.002378776304035239,0.0023675952535801427,0.002233087191852449,0.0019760965111449225,0.001608722584027308,0.0011534560906517654,0.0006279161393153752,3.448965524197728e-05,-0.0006292354315312852,-0.0013425395932606173,-0.0020374190914957922,-0.002600705220969806,-0.002908257717729705,-0.002875216478555462,-0.002494771189772064,-0.0018437796344085281,-0.0010524723681955912,-0.0002555137556886469,0.0004494672214036961,0.001017339108885592,0.0014445212972455826,0.0017466113815817381,0.0019415827155407663,0.002044892769270186,0.002070561364397667,0.0020293104107999105,0.0019219199627455285,0.001734065863511945,0.0014396248337664637,0.0010130500054238447,0.00044471560316417967,-0.0002484333511521454,-0.0010207548627787812,-0.0018023651355312154,-0.002505195994926594,-0.003028535405155024,-0.0032687292909382186,-0.0031409428873523408,-0.002613897300052063,-0.0017438081705398456,-0.0006834878297012513,0.0003511841095107186,0.0011522442479251212,0.0015974707509429204,0.0016950129525563034,0.0015695887678245542,0.001395983866439843,0.001314295670504667,0.001370585950236586,0.0015106387475520102,0.0016233994163246126,0.0016042053702443157,0.0014018122465108002,0.0010284083527989877,0.0005360385854640248,-1.8981790237550852e-05,-0.0005989363616212343,-0.001181927823998858,-0.001739500858358147,-0.0022150542242034424,-0.002523512611258177,-0.0025781091094150286,-0.0023308945008302887,-0.0018031635980943566,-0.0010869897184277548,-0.00031535312845231876,0.00038442748358213,0.0009306186888553543,0.0013013635712614668,0.0015194699377711041,0.0016212010538380218,0.0016311100142155635,0.0015582275203457324,0.0014112970754031383,0.0012157081417539441,0.001014312890006399,0.0008484190971057108,0.0007318850061709873,0.0006370297444588796,0.0005023999259985806,0.0002574817444125097,-0.00014942313659334642,-0.0007308357498886513,-0.0014484193166672326,-0.002206798856932115,-0.002856006542676521,-0.003214687199835811,-0.003123064855322408,-0.0025141699422246374,-0.0014680089116937472,-0.000209367188410462,0.0009641924562763503,0.0017963912145142573,0.0021720847326481612,0.002150466130781472,0.001914276678895968,0.001664424756696085,0.0015204185198659267,0.0014816536001232292,0.0014639391134545123,0.0013765304420828989,0.0011827323816310683,0.0009070005884358608,0.000595055861060302,0.00026573967358079186,-0.00010729769582920322,-0.0005727289602491348,-0.0011553708991989848,-0.0018172419655070222,-0.0024495475636521916,-0.0029019010628093377,-0.003037626517934367,-0.0027921116504596713,-0.0022073353341241567,-0.0014226903715235497,-0.0006212325287618389,4.509926942286612e-05,0.0005127939515774985,0.0008155959733133763,0.0010422071589098521,0.001271430510330032,0.0015253825076336541,0.001765781431307007,0.0019274567923960803,0.001960785168868179,0.001855919640791265,0.0016409138852454704,0.0013640049067293594,0.0010738218651295012,0.0008035171550517414,0.0005589133749347921,0.0003134890487120549,1.7982299022637534e-05,-0.0003712133891814218,-0.0008545278894427417,-0.0013652364112091578,-0.0017800006859475448,-0.0019657719828620854,-0.0018410477938050117,-0.00141915776474842,-0.0008122623165930934,-0.000197168114864053,0.00023998514504374705,0.00036194801116695295,0.00012945078793211075,-0.0003692475546959676,-0.0009233443010314737,-0.0012541001561772705,-0.001117825024012717,-0.00042456856215079483,0.0006866305267831341,0.0018697723749906809,0.0026989832590310777,0.0028462379003017504,0.002220865266325704,0.0010019549958502274,-0.00044512068851391745,-0.001718039700438041,-0.002519082970583505,-0.002732286521889572,-0.002419242886786864,-0.0017549459045356195,-0.0009450271799969626,-0.00016192102774977913,0.0004834505502936073,0.0009408678835486947,0.0012079158841471582,0.0013168666800236943,0.0013215109099170479,0.0012788379651225564,0.001226582859742815,0.0011681239115437516,0.0010787872532979435,0.0009361429809357821,0.000757412295657795,0.0006142769085081866,0.0006023069797679434,0.0007702799556864837,0.0010490488571218654,0.0012353912276288656,0.001064755272263218,0.00035287668798096713,-0.0008684699377715076,-0.002311111249598883,-0.0035297848184405343,-0.004121178992810606,-0.003914262278973291,-0.0030416088932830386,-0.0018521993043516078,-0.0007226487291386211,0.00011883745216382079,0.0006587089483455235,0.0010333114837475239,0.0013935057299700488,0.001793323039990157,0.002166692392903952,0.0023889414096724105,0.0023660435591339886,0.002088135242467629,0.001620142728010811,0.0010489620002305418,0.00043131345452162266,-0.0002216378963787425,-0.0009160932311254168,-0.0016269899559715393,-0.0022656741451201126,-0.00269113877916966,-0.0027651160979648304,-0.0024226941461520175,-0.0017176391137084855,-0.0008137072487706396,7.696102078829151e-05,0.0007777187707652741,0.0012110699543531657,0.0014117384335810119,0.0014868007691863415,0.0015476852214714152,0.0016503871478374375,0.0017721995186934848,0.001832790597697408,0.001745979228287804,0.001474803291651996,0.0010607967712351874,0.0006096626124721379,0.0002367268883987344,-1.410792228273951e-06,-0.00014970639416774916,-0.00034038953439373475,-0.0007193278952524806,-0.0013479595023093158,-0.002137366600559742,-0.002859788477139713,-0.003241272784220989,-0.0030907104072709865,-0.002395754869736527,-0.0013327833174490778,-0.00018720951950927742,0.0007693886358253056,0.0013796874028636245,0.001633757774814371,0.0016326152683400366,0.0015152304245483817,0.0013917888203854984,0.0013109162349978227,0.0012635632000199107,0.0012079279399503239,0.0010961713127765167,0.0008915048930861943,0.0005745477862533464,0.0001436984936138168,-0.00038555125663182385,-0.0009801701835206887,-0.0015886362726021265,-0.0021418798867085614,-0.002558893327273466,-0.0027582542282015305,-0.0026735066962417188,-0.0022671033642413414,-0.0015375703944787837,-0.0005195307197188903,0.0007168505077762621,0.0020593435891371583,0.0033423443583189306,0.004348137903576573,0.004842949375290521,0.0046532454549049794,0.0037552607762760025,0.0023256370314079684,0.0007078806452885676,-0.0007076200726770446,-0.0016379185969182808,-0.0020168375898191003,-0.0020012254624358584,-0.001872415319103004,-0.0018863972552687592,-0.002149156679278894,-0.0025758192235159445,-0.0029470134687488185,-0.0030275160574946653,-0.002684168091378003,-0.0019449636361975214,-0.0009754379201094197,6.918282475857652e-06,0.000829238160702757,0.0014200975257867262,0.0018040677058479139,0.002048956221837033,0.0022049460257922322,0.002273526725645453,0.0022207070822529377,0.002019058638266439,0.0016847868829647874,0.0012801917869556929,0.0008764001734183544,0.0005012085047173405,0.00011201968760134043,-0.0003787633120461184,-0.0010336216216341573,-0.0018173967786844492,-0.0025732088351618563,-0.0030714528253946846,-0.003111296418742819,-0.002619654768046086,-0.0016921027248602916,-0.0005540306181077154,0.0005339698756530308,0.0013743450444768633,0.0018872247493063499,0.00210466935242929,0.002121276882181121,0.0020351157746044783,0.0019086470244906507,0.001761325167262498,0.0015861960626535265,0.0013717656927647907,0.001112048603948551,0.0008000106270761471,0.0004144783369228356,-8.226530523723955e-05,-0.0007249957130530538,-0.0015089005075352583,-0.0023566707017749888,-0.0031155688034714985,-0.0035983531076609425,-0.0036555751105385456,-0.0032427444332098947,-0.0024434555602759,-0.001433976090061038,-0.0004097808143834449,0.0004849275501860029,0.001190246846368892,0.0017173885154602073,0.0021066275440841083,0.0023857215343631123,0.002552249281104915,0.0025852964862542386,0.002472822308801235,0.002232184712370709,0.0019080300518130775,0.001549094828132254,0.001180661987249008,0.0007915895033561132,0.00034387688256545037,-0.0002014867501773918,-0.0008559514263224385,-0.0015839931885223279,-0.0022993748270021676,-0.002879484818705275,-0.0031967151893540803,-0.003159869199391256,-0.00275092002960949,-0.002039528741207633,-0.001165380951057846,-0.00029413317424142914,0.0004338911060362623,0.0009412800790872138,0.0012255492202199846,0.0013455669700081605,0.001389889390995138,0.001437645883007822,0.0015248325099607083,0.001630113319435623,0.001689382868164429,0.0016343326093732063,0.001433924725879995,0.0011128777944232223,0.0007353851375396037,0.00036628749276512056,3.664572199455038e-05,-0.0002654459050933928,-0.0005778545228962858,-0.0009359594127123015,-0.0013482863405434064,-0.001783088991027785,-0.0021670235225032925,-0.002398176589075412,-0.0023760507037432084,-0.002043379766428502,-0.0014225768855654676,-0.0006247470454110463,0.00018107834486123607,0.0008301566165554279,0.001227630158044364,0.0013834298849556372,0.0013963523187606906,0.0013950683914258333,0.0014687534177053412,0.0016251950502567927,0.0017960858350401566,0.0018804921326149937,0.001797347545703,0.0015178470691730576,0.0010658180360660285,0.0004948103883442598,-0.00013866822229170934,-0.0007896646511905141,-0.0014225070911167647,-0.0019983706448764246,-0.0024644339127481616,-0.0027542700358170543,-0.002802177032172274,-0.002566728802163124,-0.0020540690003421243,-0.0013298764760712055,-0.0005108479568403223,0.00026626864994597633,0.0008880765650038306,0.0013002626789421884,0.0015167386624451652,0.0015980299929214314,0.00161317802234133,0.0016071742145243447,0.001588208198448968,0.0015345525325827795,0.0014116224206562845,0.001189210680973021,0.0008528762554159537,0.00040784144275202557,-0.0001224269647415079,-0.0006984173274962354,-0.0012642361283211208,-0.0017464420947353888,-0.0020587493345771138,-0.0021188510356590783,-0.001875939490304516,-0.0013373641905427703,-0.0005787772663284154,0.00027104567944594165,0.0010656809180396014,0.001680955526147567,0.002043004607651913,0.0021370337619071684,0.001999316445329628,0.0016989797880045377,0.0013141253190987355,0.0009048448026613675,0.0004889806523912858,3.3161315673925235e-05,-0.0005270295927618338,-0.0012359613510623784,-0.0020573831856695955,-0.0028444970044457676,-0.003374899232149568,-0.0034478879758132173,-0.00299436146387135,-0.002129164831053683,-0.001105537528859755,-0.00019429728746481623,0.0004403915339272566,0.0007976114716626442,0.0010041580755276332,0.001218524954102219,0.0015353536875846107,0.0019411015270172603,0.0023352194739830875,0.0025937002268481705,0.002633950872323633,0.00244740305796942,0.0020903213969036046,0.0016475942536953233,0.0011947527792271443,0.0007764078806111087,0.000403416318282017,5.993365776369061e-05,-0.000288074895031435,-0.0006838326035976612,-0.0011661412981962636,-0.0017491491223924195,-0.0024003039503866213,-0.003027421052344702,-0.0034870233419398615,-0.0036202979335258813,-0.003310486259092198,-0.002540881564736794,-0.0014245590314592256,-0.00018363697101977418,0.0009219344354939863,0.0016883126742574027,0.0020402939685166674,0.0020461455462164376,0.00186834376431134,0.0016779663930149345,0.0015780357727210644,0.0015727939757243282,0.0015922675160203814,0.0015507170131785742,0.0014004719830698993,0.001148875683124426,0.0008323681522803248,0.0004718665181689932,4.713911284119129e-05,-0.0004856709713510904,-0.0011414388036171683,-0.0018549302010499912,-0.002472085444019634,-0.002800695135059699,-0.002699467871678055,-0.002156286429336431,-0.0013074726196589514,-0.0003824290096598041,0.0003971632114673379,0.0009073274396752749,0.0011539207067075127,0.001237375268555633,0.001278912098414626,0.0013526021722349833,0.0014562586970887541,0.001528491340081514,0.001495153759488012,0.0013159135565721197,0.0010045802746311756,0.0006136899271421794,0.00019646109177044328,-0.00022597570124258467,-0.0006678192974994464,-0.001148631436558795,-0.0016503559697323832,-0.0020928011569243516,-0.0023502359842290806,-0.002307178414817776,-0.0019246586762098365,-0.0012760633991494071,-0.000525116628490156,0.00014702199593422008,0.0006247098786802345,0.0009015543410896983,0.0010605303796020688,0.0012069641209709262,0.001398714791104865,0.001615172368380794,0.0017786922370289808,0.0018092277343737266,0.0016750524552626542,0.001408094784710444,0.001076334182513894,0.0007330475263244191,0.00037724945798338485,-4.683901549681896e-05,-0.0006069495494953909,-0.0013192288281267338,-0.0021019967950504544,-0.002779028879785076,-0.0031392209564973634,-0.0030274410657266963,-0.0024211761698093824,-0.0014522423976465505,-0.0003605326167854592,0.0005984089564505352,0.0012478070901202885,0.0015430313140914029,0.0015631282060534373,0.001450640344478226,0.0013342249898257294,0.0012745467400925368,0.0012580406048087306,0.0012338331908000747,0.001163692260531455,0.001049136889800545,0.000917435539738849,0.0007783014143188231,0.0005866886584693693,0.00024763933084394227,-0.00032696439801998086,-0.0011382065267897291,-0.0020496971461280017,-0.002810913417602398,-0.003156337758595394,-0.002932505959324965,-0.002181237000873996,-0.001128407520843482,-8.190458376005445e-05,0.0007053444188712722,0.0011341299125384179,0.0012722231767948343,0.001284652230290692,0.0013269905285780048,0.0014622445124502178,0.001642682976138426,0.0017578859059389214,0.0017128934341969378,0.0014867656480515366,0.0011385483601027368,0.0007625521128456524,0.000425731234143697,0.00012855158788869337,-0.00018662204380131062,-0.0005868054573284525,-0.0010915502865328985,-0.0016436631440194095,-0.0021244992566691184,-0.0024038106436314174,-0.0023960956559025866,-0.0020952351837897347,-0.0015735773771000288,-0.0009501290759277921,-0.00034536917329988117,0.0001570979572696599,0.0005283041575066485,0.0007883823267265315,0.0009847582217749067,0.0011654374028513517,0.0013575258385020309,0.001556902729408246,0.0017301153534721178,0.00182545876691629,0.001788273203798276,0.0015763635574690942,0.0011731877696012551,0.0005965013812765337,-0.00010072677389431033,-0.0008386000882709367,-0.0015243968550084017,-0.002065948243856739,-0.0023810899917955032,-0.0024073790203591916,-0.0021186834499043175,-0.0015468659764622241,-0.0007936457801515394,-1.4038919060634742e-05,0.0006332379914110712,0.001048763688511819,0.0012329646254796635,0.0012753441621484092,0.0012933042549816785,0.0013559063384708555,0.0014416429498580066,0.0014589771922347296,0.0013158367219070063,0.0009897455492739648,0.000549471964234495,0.0001127669317763215,-0.00023100305952623574,-0.0004801440230516826,-0.0007200441143930929,-0.0010600430282319646,-0.0015463396293757662,-0.0021065561017336457,-0.0025638689910382913,-0.0027170961364577986,-0.002442968870385569,-0.0017624633362760007,-0.0008337426496513456,0.00012234177092631247,0.0009195182667013317,0.0014722041331031964,0.0018008746541400425,0.0019855703118131026,0.002102533163195065,0.002180060737997376,0.0021919951781116218,0.002084974747467102,0.0018195161548685667,0.001400517312160354,0.0008809206662223645,0.0003385682675950911,-0.00015910214732020274,-0.0005835215022195563,-0.0009534885861178218,-0.0013197050100621813,-0.0017292768085433283,-0.002182618509298433,-0.002604491820083172,-0.0028528210595591677,-0.0027738371790674322,-0.0022831234263805227,-0.0014283662721053963,-0.00039193287290417353,0.0005766683923618373,0.001266272130291429,0.001591364302283702,0.001615163846053732,0.0014993819136540102,0.0014120018151943092,0.0014445591545371298,0.001580095062347452,0.0017208403205604714,0.001751729566118616,0.0016010674885396,0.0012682849865943856,0.0008112874646482651,0.000307439331623741,-0.0001874545399757602,-0.0006604220112295412,-0.0011328168896758185,-0.0016272984512351201,-0.002128400301577786,-0.002559519030054681,-0.0027931765885929913,-0.0026966474941304583,-0.002196843365193791,-0.0013343763063651613,-0.00027547388080970993,0.0007335445116784483,0.00145622867276893,0.0017612436864670022,0.001675585449618953,0.0013657323862373508,0.0010529553472282082,0.0009052554045710654,0.0009626191953777276,0.0011340291305419726,0.001264061417903306,0.0012284419169860052,0.0010037675019507661,0.0006733800496297082,0.00036841708739075436,0.00017967751062029094,9.2527915748061e-05,-1.497241714889738e-05,-0.00030478394798393743,-0.000875408062122675,-0.001679040358614481,-0.0025112031306427944,-0.0030892271981563684,-0.003184865408647635,-0.0027388935730330434,-0.0018897568399903648,-0.0008977351741965185,-1.0713864967243749e-05,0.0006470218929720585,0.001100126763459673,0.0014571109710643613,0.0018072991717141545,0.0021507726182913006,0.002403108955001913,0.0024629956582496544,0.002290120962799661,0.0019389782629910058,0.0015283817036869532,0.0011698819865514774,0.0009019314613499965,0.0006688637091896259,0.0003543457298320823,-0.00015112302491465703,-0.0008832769838238498,-0.0017677472751327162,-0.002629165002419001,-0.0032439961441143167,-0.003421149167544259,-0.0030825201836896113,-0.0023089714926994753,-0.0013233735173193652,-0.00040671346033253154,0.00022096664784583726,0.0004964397133417405,0.0005317187589376418,0.0005400012951449287,0.000707849892067107,0.0010864556974734057,0.001565243064237828,0.0019418228167859112,0.002043977202702813,0.0018288274542658358,0.0014004330982208008,0.0009387480863005596,0.0005870812681856296,0.00036872997421073404,0.00018348486584200512,-0.00011485939736533343,-0.0006078506256052663,-0.001236728575973922,-0.0018102630534626066,-0.002095853201946955,-0.001943378677166918,-0.0013694609639436986,-0.0005516566555304196,0.00026345478809209613,0.0008811766209570632,0.0012353993438939351,0.0013805597802297167,0.0014166731472983777,0.0014075718081385609,0.0013494102587749354,0.0012027135331682582,0.0009509687502748887,0.0006297192932192097,0.00029628446086053236,-3.768973881598727e-05,-0.00044994385909295586,-0.0010738035306927984,-0.001987182127386862,-0.0030904794560083055,-0.00406716878345262,-0.004482977214106801,-0.003993973572181378,-0.0025542824689090693,-0.0004954110630302829,0.0015883332765430913,0.0031011443001962118,0.003713188642905339,0.003484903395375932,0.0027854452649801282,0.002067082073636297,0.0016349000635117168,0.0015348266097770474,0.0015949792396809611,0.0015633158297889075,0.0012472041516325217,0.0005886013446927862,-0.00033383380693631027,-0.001344921107317028,-0.00222446022539381,-0.002760985740821087,-0.002810578472704606,-0.002352143313173199,-0.0015124131877252036,-0.0005346583221569164,0.00030831342960036196,0.0008217377230738909,0.0009647279965809966,0.0008543233369591044,0.0006928715088229417,0.0006536287322918216,0.0007833836245361692,0.0009749492990926018,0.0010268841434420933,0.0007603008003860981,0.00012961824146145355,-0.0007343607424024635,-0.0015738058357109355,-0.0021186426166344813,-0.00220378538544712,-0.0018276835273633274,-0.001128805421339076,-0.0003049229199400434,0.0004725781356106353,0.0011053992469347417,0.0015647793214226228,0.0018578540191870451,0.0019948498624581565,0.001976971597647563,0.0018049217140185788,0.0014938490125259555,0.0010788125701770134,0.000603314432022405,9.606658511483019e-05,-0.00044802423307960693,-0.001063735011721603,-0.0017796901352191855,-0.0025644890981750246,-0.003289429876053382,-0.0037432766845675977,-0.0037075357696463663,-0.0030607308190823226,-0.0018557807950878315,-0.0003248599099782965,0.0011952874845845057,0.0023833108526002977,0.0030442422346856346,0.0031654454304228252,0.0028984931161171977,0.002479233640998846,0.0021223663793387007,0.0019362944109906526,0.0018946728766136515,0.0018745147815140437,0.0017377069327234576,0.0014103558955791923,0.000916221586870356,0.0003475337048784067,-0.00020565486621958303,-0.0007204339795461511,-0.001256091984381192,-0.001906114708680582,-0.0027142586305690377,-0.0036063657036236674,-0.0043833461939144554,-0.004787342636751937,-0.0046119297462860025,-0.003801672392080334,-0.002490130486787253,-0.0009556281095052524,0.00048520049476098314,0.001595222302614544,0.002290018144308714,0.0026350578930588175,0.0027766745536055536,0.0028504021596483377,0.002916588014942099,0.0029510285768729306,0.002884643690896074,0.002661745578759765,0.002282145678250294,0.0018059484867112125,0.0013217258748118555,0.0008978419222989849,0.0005442992690702948,0.0002055738199861028,-0.00021167487876181426,-0.000788749961063227,-0.0015447442301130948,-0.002407660115815583,-0.0032208325990990944,-0.0037861358712176396,-0.003931043186822544,-0.0035751983171391313,-0.002769300305905908,-0.0016876989409591778,-0.0005739153828721538,0.00034177612352473505,0.0009205749825413406,0.001157409364414606,0.00116947105697651,0.0011352828386496322,0.0012097417399922548,0.0014523329170608,0.0018018976052987352,0.0021110579476870104,0.0022239874770618785,0.0020576268322786027,0.001643423941996626,0.0011078832461430578,0.0006040917300067028,0.00023305564942403747,-2.494930139670872e-06,-0.00018943603089415816,-0.00044872695765387806,-0.0008631748257090964,-0.0014232497606860189,-0.0020159414069596832,-0.0024641775780709133,-0.0026028711883612976,-0.0023572257726066736,-0.0017812864065795176,-0.0010316911861963881,-0.00028958446029178034,0.0003216124525334157,0.0007717699228809022,0.0010965915255989158,0.0013369725421482322,0.0014960251729093104,0.0015443783650561174,0.001461393604664641,0.0012708539862679308,0.0010378975954335053,0.0008301563456573461,0.0006771516043066307,0.0005612392230422666,0.0004439027567192252,0.00030106479485959555,0.00013636309494386518,-3.64788982801375e-05,-0.0002232679479710752,-0.0004617003860203598,-0.0008005558410616891,-0.0012551015671847874,-0.0017677617001739423,-0.0022048660975674044,-0.002401744589858738,-0.0022385426229682964,-0.0017059502676010172,-0.0009206882348404975,-7.781429053711262e-05,0.000635599243262943,0.00111783150890664,0.0013797148329548741,0.0015108960564524496,0.0016088105029167755,0.0017128650815390887,0.001781314701355473,0.001723518170463811,0.0014682755152336175,0.0010263706640645759,0.0005061360110058388,6.706847816590096e-05,-0.0001656291634264007,-0.0001764655523215687,-7.842467490556493e-05,-5.901532531820726e-05,-0.00027878503157596996,-0.0007763878040514089,-0.0014340466569865901,-0.0020257481960829237,-0.0023239877662979773,-0.002207383464427402,-0.0017127030868134762,-0.0010090468201016437,-0.0003148913815084991,0.00019637314840351264,0.00045948360151727924,0.0005268719351370564,0.0005270745449120043,0.0005937406715544782,0.0007981405597144453,0.0011167562985882375,0.0014489497915654694,0.0016736737946751199,0.0017131094350515872,0.0015679101228259899,0.0013053955261703217,0.001009013545796323,0.0007200055313314837,0.0004082064311424501,-6.220895089967699e-06,-0.0005885202737845672,-0.0013200982015120783,-0.0020705070780955765,-0.0026355531200455157,-0.0028261836963639694,-0.002560027755627415,-0.0019043140310921536,-0.0010468122996975093,-0.00021177283056743155,0.00043372027277758683,0.0008356749178574886,0.0010473001188362027,0.0011714947935681937,0.001289010725506127,0.0014149975459778685,0.001506556211658378,0.0015096005067141683,0.0014072194142778255,0.0012328762045699755,0.001039762904181775,0.0008510816907570253,0.0006299298002381846,0.00029364236635522913,-0.00023166915385689895,-0.000945834486732303,-0.0017371692297600068,-0.0024013343562956763,-0.002718255401856241,-0.002555092245622035,-0.0019408737882809766,-0.001065725450975739,-0.00019681373849983035,0.00044685997482319127,0.0007906101879487,0.0009160977958872534,0.0009852976440912363,0.0011267890856593436,0.0013561856193923328,0.0015771750712838656,0.0016556230097436887,0.0015132574472193903,0.0011790063203256963,0.0007676920513940033,0.0004037266417613462,0.00014026367169849366,-7.551946454489042e-05,-0.00036842531597216816,-0.0008487261142510398,-0.0015200017071946167,-0.0022365566640705093,-0.002744831153083232,-0.002798642941067372,-0.0022911583553614557,-0.0013274077809035966,-0.00018890596655216996,0.0007952042635412489,0.0013983303947994092,0.0015834888583624615,0.001484567796198788,0.0013051397698496865,0.0012034885905039224,0.0012297434716654068,0.001337705529795629,0.0014437681896821398,0.001482098326649519,0.0014202906060594496,0.0012373452824365732,0.0008967879461261848,0.00034986715647466766,-0.00042324444166349113,-0.0013612601407340151,-0.002301590235659952,-0.0030192171339119833,-0.003313753634203628,-0.0030993218986688645,-0.0024449240159936606,-0.0015400865725568444,-0.0006053666354351778,0.0001996536102409135,0.000819399956985485,0.001279300671981966,0.0016233579103843284,0.0018617781030695903,0.0019651801053228828,0.0019034151519428382,0.0016916250839987238,0.0014007306157240544,0.0011187128593288362,0.0008899684886081493,0.0006798648248801504,0.00039486442421913506,-5.093866112285681e-05,-0.000664615866760882,-0.0013443498650847017,-0.0019114991078144172,-0.002188952402183844,-0.002083236895642993,-0.0016261954677184087,-0.0009557003788039395,-0.00024941002077584116,0.0003495602687035477,0.0007754825784137827,0.0010348462375222478,0.0011677521652063943,0.0012082551511833066,0.001168831205583632,0.0010499433721419932,0.0008559175708595906,0.0005986611260345627,0.0002875540739814811,-8.010408238842974e-05,-0.0005124560189031619,-0.0009985452327521585,-0.0014820164261958172,-0.0018568708896020826,-0.001998808854584786,-0.001822122890856546,-0.0013310075096394872,-0.0006319634125008862,0.00010525023814733961,0.0007197659764033505,0.0011261240831854087,0.0013397241815675419,0.0014497741822430007,0.0015572704828953087,0.0017124524388472697,0.001883082734732473,0.001966219647968101,0.001834174122318816,0.001391978008159303,0.0006233524639530005,-0.0003893760547128896,-0.0014761198990192923,-0.002417986539838074,-0.0030057430933822338,-0.003102663465875476,-0.002691109946899084,-0.0018828955748842664,-0.0008846095855832015,7.166219655817331e-05,0.0008042125577759719,0.0012317415128601861,0.0013784092198312601,0.0013387286579237927,0.001226374730504945,0.0011330507567964953,0.0011090572872426293,0.001159775366394876,0.0012466273166553327,0.001289713318514117,0.0011806615763130775,0.0008146126792215043,0.00013747852695909064,-0.000810917202971459,-0.0018826834656416123,-0.0028513819265039383,-0.003478586529111669,-0.003590765792862494,-0.0031342599239682313,-0.0021888714127704005,-0.000941212181791054,0.000367361581700213,0.001501627460883529,0.0022889759836982435,0.002659456840701754,0.0026571679067701227,0.0024153783800450715,0.0021001565274099106,0.0018427894644643564,0.0016903840407775225,0.0015986635860266228,0.0014705678965609243,0.0012183543487791864,0.000811718724977889,0.0002827931348213487,-0.0003115311521523482,-0.0009381352527960537,-0.001605803902270575,-0.0023333489708796396,-0.003087142514387706,-0.0037363902714701905,-0.004070864526897561,-0.003888259805354833,-0.003109431467284122,-0.0018526808882916427,-0.0004138782080797369,0.0008493159416252958,0.001674011560542336,0.002006306408540078,0.0020087490025808316,0.0019538988699109782,0.0020616928003725876,0.0023727165236612675,0.0027306218186982033,0.002883307223055829,0.002641284850429831,0.0019970488603031755,0.001133924924219228,0.00032166515224846455,-0.0002351618941446759,-0.000504565415947799,-0.0006302663883753985,-0.0008347132380302339,-0.0012814965518574424,-0.001973307817897071,-0.002736903437968637,-0.0032993964597283236,-0.0034153342811962337,-0.002981095773435784,-0.002081826514352274,-0.0009521029246871223,0.000124597721217731,0.0009257455323520965,0.0013605286837362843,0.0014791652308342139,0.0014276439768728568,0.0013732446435085215,0.0014315357651322315,0.0016214318826274416,0.0018639599680427884,0.0020240526703607883,0.001976926681310101,0.0016688707096800157,0.0011434674974974749,0.000519740679149987,-6.763136027958174e-05,-0.0005352853670917328,-0.0008883375587116779,-0.0012044149222751144,-0.0015702081658542468,-0.0020058985437525125,-0.002425005987381164,-0.0026609868332905444,-0.0025529042047294343,-0.002043050175850913,-0.0012263964400839435,-0.0003174830270279951,0.00044952534874348384,0.0009306270263433427,0.0011298481410773303,0.001176317092478148,0.001238535525978406,0.0014259760257084243,0.0017303691819932345,0.0020341671082935546,0.00217703629652238,0.002042323667835212,0.0016183825044389505,0.001005648873881384,0.00036844653956812686,-0.0001436341456350727,-0.0004662960968195896,-0.0006478164784061843,-0.0008177028843787182,-0.0011103593360943106,-0.0015813793172026116,-0.0021597729101999726,-0.0026631026046085556,-0.0028722102327021024,-0.0026327140346363246,-0.0019356651904901376,-0.0009369854426251152,9.7692024827836e-05,0.0009008344904175166,0.0013143485058962898,0.0013507427598649447,0.00117334970635403,0.0010057363993216557,0.0010176606960493354,0.0012466386997373,0.0015930062724241133,0.0018850133976259654,0.0019735290176496265,0.001804030689943377,0.0014311368873872342,0.000974801377168006,0.0005470184405949436,0.00018959437438142513,-0.00014460038495491852,-0.0005563676479874863,-0.0011271871913178918,-0.00184612291816989,-0.002579219984380208,-0.003106383789376014,-0.0032157125815311183,-0.002810171847365219,-0.0019679627500513073,-0.0009182124744687265,6.017265387960215e-05,0.0007631017136171652,0.0011406097364297027,0.0012889459044311794,0.001366559046571903,0.0014899313452123517,0.0016724772385659451,0.0018364474475248839,0.0018789178371957458,0.0017420170156015637,0.0014424723976618572,0.0010482752476942143,0.0006258516897112067,0.00019695432162088465,-0.00026583369743324423,-0.0008026133568968865,-0.0014123582676565981,-0.0020171111294161603,-0.0024709789389905333,-0.0026158783159759428,-0.0023576883551612473,-0.001721200774739888,-0.0008508367495996911,4.647939273482371e-05,0.0007865888594957328,0.0012755534700812576,0.001525039490726522,0.0016136903963149445,0.0016242446083652305,0.0015967990370893653,0.0015228961503161442,0.001375505528009543,0.0011467680705638127,0.0008630372784565859,0.0005656949256044326,0.0002731418807339767,-4.441827436095069e-05,-0.00045220909009770997,-0.0010008961128055358,-0.001668823014713444,-0.002336899617364316,-0.002819823724403545,-0.0029421196946351914,-0.0026179989617748835,-0.0018913960770352589,-0.0009176639319792015,9.795333164508153e-05,0.0009705668075099649,0.001583955792352043,0.0019052243193176592,0.0019725617957676456,0.0018700891524998208,0.0016995554410403164,0.0015514209968228174,0.0014767331665668632,0.0014673316319301641,0.0014566862205182263,0.0013472982591732703,0.001054273699957243,0.0005422349656943199,-0.00016280004596678772,-0.0009861690051131626,-0.0018253101381924927,-0.0025627384326447015,-0.0030716760555248804,-0.0032297381438702146,-0.00295341773899244,-0.0022450004558478556,-0.0012218335242675988,-9.778387832252099e-05,0.0008863263214418033,0.0015514453152229123,0.0018409500696298785,0.0018225932424914787,0.0016365529816579631,0.0014231705823140948,0.0012687489324035468,0.0011898933500321088,0.0011515943114267378,0.00109833055053276,0.0009780481854653324,0.0007509684793844037,0.00038835444772035416,-0.00012703388050416632,-0.00078937487959806,-0.001547669628241681,-0.0022869038442170616,-0.0028342826824204943,-0.0030052578626238533,-0.0026802446200055985,-0.0018756242422867876,-0.0007638348297734326,0.0003802940317872126,0.001286985901321753,0.0017983309326073363,0.001918940711039489,0.0017879821908976163,0.001594183061775909,0.0014824123966610077,0.00149742611312286,0.0015843003157131547,0.0016338701249175996,0.0015418740865812313,0.001250424471670636,0.0007570861900148545,9.886310968662407e-05,-0.000668407271807197,-0.0014784144085697964,-0.0022494998849641153,-0.002879660278635762,-0.0032560184552659337,-0.003282797780032067,-0.0029180649285281126,-0.002201193270877173,-0.001254326830937208,-0.00025174186944515486,0.0006335831024411134,0.0012843625235349565,0.0016702906099819738,0.0018423273856035104,0.0018937132055183356,0.0019075320923208198,0.0019173384867218258,0.0019008432095269905,0.0018085160895835767,0.0016075902542490067,0.0013107076920001407,0.0009673390885411088,0.0006221516326809181,0.00027090096610996517,-0.0001485259557710112,-0.0007128651145163442,-0.0014384835168177069,-0.0022244764071785834,-0.002861328786120919,-0.0031148106392742832,-0.0028442180732907423,-0.0020859443054196745,-0.0010495609248915483,-2.5281163425492747e-05,0.0007452755317791226,0.0011635218966719217,0.0012868244071172008,0.0012634355157273346,0.001235675337290368,0.0012684988865806802,0.0013374611549264244,0.0013705631916992628,0.0013073519691958121,0.0011337495499390126,0.0008735518758253475,0.000551006855249203,0.00015977327747135556,-0.000332393822765643,-0.0009416415075115402,-0.001617001028770312,-0.0022203779107717635,-0.002562459959881908,-0.002485191609287122,-0.0019485003310044226,-0.0010693557737334273,-8.427297577126095e-05,0.000749931491968006,0.0012652512519721435,0.0014432599778404602,0.0013976289626087403,0.0012933193704272618,0.001251802985892492,0.001296137319691147,0.0013621528112307101,0.0013591519181502332,0.0012327943506719894,0.0009856854881083153,0.000646751785873051,0.00022323495848370158,-0.00031450927104840847,-0.0009912443766340617,-0.0017552752096013377,-0.002439982550568227,-0.0028081242298559116,-0.0026699959825504105,-0.0020052151523765687,-0.001003138269128661,1.5483106741744513e-05,0.0007551764256539415,0.0010877771464877749,0.001096051094786484,0.0009979204417992745,0.0010030341232729536,0.0011898922827800246,0.0014727364770722917,0.0016688836771006862,0.0016168721204398281,0.0012698058227050195,0.0007101731315602765,8.578532297167805e-05,-0.0004838203609859007,-0.0009662138549474096,-0.001403314991150449,-0.0018406059490620069,-0.0022516355832140887,-0.0025145074028322017,-0.0024625740393324504,-0.001982299130539941,-0.0010988754792464288,5.260986826752679e-06,0.0010555523907516354,0.0018017467105010446,0.0021230783564434733,0.0020663063865651726,0.0018003786068593861,0.0015192224712533419,0.0013496731675200354,0.0013105615275626177,0.0013328646671415254,0.0013158495269891528,0.0011809731665483763,0.0008966693910112373,0.00047084791363182535,-7.205091883014716e-05,-0.000706815279414932,-0.0014031668852845466,-0.002106677317372134,-0.0027247041718224804,-0.003137319374778885,-0.0032367098644626733,-0.00297592369229633,-0.002396673740480326,-0.0016162552362567625,-0.0007786608068294995,3.0095148084389317e-06,0.000680988752831427,0.001266815106890295,0.0017920382142016748,0.002262652637641517,0.0026371618931424696,0.0028423679294518156,0.002816680002609324,0.0025531538315507244,0.002113857509003854,0.001603639093682613,0.0011158532865799564,0.0006813001484196399,0.0002527462142620446,-0.00026160958850347327,-0.0009314974314858529,-0.0017420696490015816,-0.0025725435887456573,-0.0032303747467165734,-0.0035247370593247075,-0.0033437461720517625,-0.00270141954006477,-0.0017371436634211535,-0.0006699099300769582,0.0002755476883002857,0.0009439851714806713,0.0012966057927412465,0.0014087545740332566,0.0014188035386816624,0.0014535296841238071,0.001567979063524948,0.0017290831829075164,0.0018469590269562916,0.001831302624011842,0.0016385044207080583,0.0012847965401877946,0.0008246851805507177,0.0003151871413351248,-0.00020909078654447093,-0.0007373246037698591,-0.0012645370711327887,-0.0017681712512584939,-0.0021931251116797537,-0.0024547475658677166,-0.0024630351445363305,-0.002161925334781411,-0.0015665282403858614,-0.0007761206517167961,5.068850778417301e-05,0.0007519269464799166,0.0012228291751077529,0.0014490117398511509,0.0014946703978948733,0.0014546107741884944,0.0014000783058595889,0.0013496816546027862,0.0012776212557162748,0.0011460507273014754,0.0009346487857157342,0.0006471060795942745,0.00029527458328711294,-0.00011895226400237299,-0.0006015214297000705,-0.0011388343502792531,-0.0016649832215132306,-0.0020558483524484167,-0.0021692523478726244,-0.0019176974168178397,-0.0013308846800462151,-0.0005633121113586468,0.00016692623266527677,0.0006781185998111458,0.0009071406453839811,0.0009267622601635985,0.0008900501939683196,0.0009368278862373989,0.0011168007012516438,0.0013696420029645899,0.0015656781016974862,0.0015765004280544302,0.0013335295396442641,0.00084775607296162,0.00019158189722221267,-0.0005359741464271339,-0.001237741243279437,-0.0018306760573171656,-0.002246774030367707,-0.002432980505877341,-0.0023559957582937646,-0.0020101897401733743,-0.0014233617803410098,-0.0006574851708445685,0.0001950373352770649,0.00101984382716994,0.0016970390838727215,0.002127109594167012,0.0022596069414297032,0.0021105750541456423,0.001757121848320469,0.0013093681214810893,0.0008719798522032975,0.000511073941602145,0.00023719285631029416,7.497737055816309e-06,-0.000254068624043856,-0.0006214422973232213,-0.0011226376524273182,-0.0017033406694027236,-0.0022214857339858765,-0.002490037349333549,-0.002359952198261521,-0.0018044193200005137,-0.0009532421477710396,-4.793198729362172e-05,0.0006655703063908547,0.0010490264912609694,0.0011258547380631645,0.001048424188564234,0.001001526742683358,0.001099767914647675,0.0013353409112953321,0.0015991537880805356,0.001754613409599838,0.0017153764976795887,0.0014811825907220903,0.0011158272996529175,0.000688696649507247,0.00022283835700474884,-0.00031388975731301333,-0.0009670991145379408,-0.0017297441580913155,-0.002496368809886072,-0.003074602353558934,-0.003258905702631635,-0.002932404232672303,-0.0021397018964392743,-0.001083863780784544,-4.2161688221765145e-05,0.0007560583648231224,0.0012218844331484031,0.0014199526493455673,0.00150060588381472,0.001596606648922772,0.0017469896323627004,0.0018894465980780627,0.0019179841246458461,0.0017624772695209946,0.0014360563375256257,0.00102120584673296,0.0006086305089285634,0.00023473665044553352,-0.0001372633105568722,-0.000579239736971258,-0.0011290782608965515,-0.0017370826767865496,-0.002263986555938685,-0.0025352927950580565,-0.0024244610391116004,-0.0019212133646364254,-0.0011475627969109586,-0.00031008092357427485,0.00038932148905575757,0.0008380231284899795,0.0010477657092880762,0.0011225876660860173,0.00118069905918067,0.0012783510507004502,0.0013816930379566797,0.0014011784155015376,0.0012614465800594365,0.0009559907327346813,0.00054806573125699,0.00011981755973364505,-0.0002884557688863503,-0.0006977968056463808,-0.0011483891787590459,-0.0016255611457856962,-0.0020159957076283652,-0.0021414825244980545,-0.0018617347653100188,-0.001180808035394864,-0.0002786465599542858,0.0005654810873569217,0.001117143683157254,0.0013085362984843266,0.0012594257211750463,0.0011844412173504305,0.0012485078405118748,0.0014645536981695065,0.0016961928115175504,0.001755750370741085,0.0015256031560388046,0.0010210398085433968,0.000360132547778065,-0.00032569849908535174,-0.000967604257319229,-0.0015659844609335035,-0.0021303050925137058,-0.0026082306625107698,-0.0028691876620160345,-0.002765620091061445,-0.0022341678193664705,-0.0013641667814488557,-0.00037865693318767503,0.0004682546758677482,0.0010159646229295697,0.0012661264499667477,0.0013543310060040482,0.0014466273354091083,0.0016297707806739743,0.0018642364512667267,0.002023770848163788,0.0019867204149467124,0.0017132285052071173,0.0012587827951762152,0.0007238734626406476,0.00018423623464738166,-0.0003451805777686276,-0.0008896119504086966,-0.0014580744117749227,-0.0019969765913845218,-0.0023902328021717127,-0.0025085367265160743,-0.0022771517345063596,-0.0017207313425867433,-0.0009601650547127584,-0.0001664865968554061,0.000500791956216624,0.0009417475419265242,0.0011359653157863216,0.0011359846421566575,0.001042571300325503,0.0009683250819881626,0.000995301272766592,0.0011381309042078674,0.0013309755887825473,0.0014525794649871838,0.001384009754661994,0.0010697954773791353,0.0005455435064510647,-8.540802143626144e-05,-0.0007089235561246444,-0.0012501177597320588,-0.0016837500595673434,-0.0020045672029628055,-0.0021881596565517247,-0.0021785502244431073,-0.0019160953752074402,-0.0013870825885549968,-0.0006589310849649365,0.00012669110273648377,0.0008040671853694587,0.001251579499955514,0.001440935880204182,0.001439906463543254,0.0013662734664873642,0.0013185837331627572,0.001323373632158721,0.0013287142642475808,0.001244914581338817,0.0010038507041895506,0.0005989250601086693,8.401440987929623e-05,-0.00046110231704642114,-0.000970520182483717,-0.0014095066647975363,-0.001761114902683417,-0.001997672776448465,-0.002064491029851385,-0.0018947588986559017,-0.0014511847531256397,-0.0007675690076167721,4.1039704991472465e-05,0.0008126708944921111,0.0014009636195344928,0.0017299544815115547,0.0018098482825186508,0.0017089430161603694,0.0015060224339059284,0.0012572078475212517,0.0009940409798443641,0.0007403214337770988,0.0005196589944942072,0.00033814625328191204,0.00015647098059072204,-0.00011435151471870286,-0.0005706475603489737,-0.0012413851320172435,-0.0020293701408001593,-0.002717540741486979,-0.003052116927641418,-0.0028633320883253892,-0.0021558761780277754,-0.0011154994445857181,-2.6504844714824024e-05,0.0008539938703525196,0.0013968885117839655,0.001627313955865693,0.0016720937083131572,0.0016678790400417617,0.0016863244194743716,0.001715120389711952,0.0016950143925843649,0.0015784676114423749,0.0013667123695762114,0.0011022198454689383,0.0008271017055717484,0.0005414906912066754,0.0001948029790512235,-0.0002805738243892739,-0.0009128111997159285,-0.0016469946527752303,-0.002343132913913549,-0.0028207268810065233,-0.0029292548011440028,-0.00261086872838188,-0.001926150110519895,-0.0010321142334792808,-0.00012426437202434906,0.000629957328358063,0.0011380204977896702,0.0013938500667486499,0.0014565069811478006,0.0014120473746747195,0.0013377386620977566,0.0012808105506559456,0.0012530055225188357,0.001235254535363465,0.0011869959498306806,0.0010582626870205573,0.0008043280252453442,0.0004013648379920222,-0.00014025079181946486,-0.0007690404534241314,-0.0013957183213405145,-0.0019089976100943604,-0.0022025343243079316,-0.0022063006516274924,-0.0019115062784948798,-0.0013780429953732546,-0.0007184252704952365,-6.143960211826897e-05,0.0004909691132414086,0.0008942000222417795,0.001163584121310195,0.0013481036041664558,0.0014912758329791885,0.001603035587999021,0.0016582189149239011,0.0016179337560687352,0.0014540279742511057,0.001157021545609789,0.0007249876032096282,0.00015125529106675624,-0.0005661054256559325,-0.001388330221800516,-0.002198581499320346,-0.0028036392228869503,-0.0029970853086436653,-0.0026616428919078563,-0.001849761712142282,-0.0007834556306381985,0.00023814551243121496,0.0009742078134816127,0.0013417239029349889,0.0014237267238087733,0.0013897476113304455,0.0013852022919950652,0.001458706986883245,0.0015628589227275093,0.0016112340247640094,0.0015402159314493811,0.0013309691955381078,0.0009856976576598491,0.0004917020224235706,-0.00018334045901553466,-0.0010479658524459605,-0.0020218190482890978,-0.0029034941186121322,-0.0034156852494400996,-0.0033245638430815017,-0.002573907331390509,-0.0013492513007657464,-1.7995569125828963e-05,0.0010347089151719,0.0015846401082897077,0.0016568399939333137,0.0014731859724063912,0.0012981660000965494,0.001284303506046365,0.0014110004617761622,0.0015408118242491965,0.0015378203487758518,0.0013596083608067634,0.0010651173574903804,0.0007464257850330579,0.0004440412934341817,0.00011034465272509138,-0.0003526520797494894,-0.0010070224010028381,-0.0018017606191316063,-0.0025573570190301634,-0.0030287111170611983,-0.003017344679550423,-0.002473716786099025,-0.0015329456512904714,-0.0004621653904104756,0.0004544651406745509,0.0010343680022969958,0.0012605021912504336,0.0012632851680538398,0.0012351681125908282,0.0013238940956392543,0.0015576292932725118,0.001836944203110854,0.0019945113591216365,0.0018891667719417833,0.0014830619874988873,0.0008595636563007743,0.00017320949670411308,-0.00043625709449805934,-0.0009113470393261108,-0.0012834842504471865,-0.001617254176347797,-0.0019337135226757288,-0.002169808427098812,-0.0022061495065814956,-0.0019459762582131074,-0.0013900307710480616,-0.00065458387963321,7.909509371924049e-05,0.0006486213375116192,0.0009750891592928961,0.0010767543564577978,0.0010379980022910658,0.0009634945718480441,0.0009431265843337129,0.0010322484751163648,0.0012374463030364621,0.0015024043336543571,0.0017040774347453777,0.0016775184236267654,0.001276657890126249,0.000453190349611577,-0.0006856883626409345,-0.0018803328391457342,-0.002796657258544149,-0.0031533273320093224,-0.002840363621601693,-0.00196863206463922,-0.0008220866853690548,0.0002642942259983598,0.0010385955234350891,0.0014124842425781831,0.0014564854565989093,0.0013268861718773073,0.0011738723715576428,0.0010797778727871456,0.001047974714769784,0.0010298983542150002,0.0009618347428037171,0.0007898043878118245,0.00047869603128389564,1.5006517948704622e-05,-0.0005865970713408745,-0.0012715241639328556,-0.0019375316219036633,-0.0024447029735477745,-0.0026507413964244127,-0.002463939681646107,-0.0018902186843222576,-0.0010461683309532783,-0.00012409020854471534,0.0006787585435030163,0.0012332332121392457,0.0015182125289912164,0.0016098308000928898,0.0016284891241646778,0.001671731798114317,0.00176588729441794,0.0018586864579214393,0.0018541161387754846,0.001668926363342975,0.0012787237853877855,0.0007282227319818854,0.00010269809372150161,-0.0005176645332577663,-0.0010889193311906615,-0.0016006245210877894,-0.0020453891169691504,-0.00238712823601811,-0.0025550951518881542,-0.002471870917659767,-0.0020986221432668637,-0.0014675371611698254,-0.0006790877002993118,0.00013462535444730027,0.0008568643000720883,0.0014153882468933583,0.0017814981656488476,0.0019503247478871552,0.001925830254038522,0.001724716853251387,0.0013909791628051557,0.0009980685732104031,0.0006237452843606226,0.0003081719726149316,2.6213657141000267e-05,-0.0002989273472506615,-0.0007405200234028705,-0.0013017241596594482,-0.001880260436242758,-0.002292822472543861,-0.0023542791037586184,-0.001972584938102574,-0.0012064644795090973,-0.0002505594121008627,0.0006464614412885866,0.0012865353526399148,0.0015938695901933238,0.0016206105998570427,0.0014934763640060454,0.0013387906537490261,0.0012276196260341717,0.0011634245013452567,0.0011073074464311525,0.0010164939722386228,0.0008689847526168022,0.0006610528006513284,0.00038562240449872517,1.4839867038704611e-05,-0.0004912540972586267,-0.0011462313620893587,-0.0018896083255062887,-0.0025658024172339486,-0.002958744584938353,-0.002880551687642001,-0.0022734644647224534,-0.0012641682458372024,-0.00012874272119413777,0.000822443482068586,0.001380563101681412,0.0015207515794379211,0.001387361613931314,0.0011945191416684307,0.0011025431091649393,0.0011423003748690275,0.0012270416813616833,0.0012341432376469824,0.0010946438164084347,0.0008276543679366806,0.0005010028332433667,0.00015692448186577581,-0.00023076200739746098,-0.0007257493690718299,-0.0013421690785205287,-0.0019702114160325044,-0.0023849215672154963,-0.0023534847893352064,-0.001780890537627037,-0.0007953400799673607,0.00029293318594325786,0.0011422942218092362,0.00154863113430337,0.0015304249180343064,0.0012850785176691667,0.0010538439996314155,0.0009839989617517382,0.0010680783310548568,0.0011833582959940255,0.0011909159702862989,0.001022797226179929,0.0007038803468689849,0.00030563364916456935,-0.0001237656725282719,-0.0005958434742165883,-0.0011559741109899138,-0.0018141231467371929,-0.0024845456002792576,-0.0029838296077419266,-0.0031000632467036854,-0.002699742137953864,-0.0018121049886872932,-0.0006393190320724137,0.0005190287580703128,0.0013901624309325886,0.0018361872372291256,0.001891437468244131,0.0017165363617957215,0.0015029775457876806,0.0013837678834581913,0.0013922279980897372,0.0014762243006488846,0.0015447225101791484,0.001515242481389565,0.001342348515230412,0.0010232857738174813,0.0005858795212016538,6.723887000971655e-05,-0.0005046576159831881,-0.0011129270309731553,-0.0017322134881431984,-0.0023007429745376604,-0.002710779172780481,-0.0028371722420173547,-0.002596421948572621,-0.0020016111265374775,-0.0011749165606818979,-0.0003041409336703919,0.0004349065426063366,0.0009473670367282428,0.001243181429426641,0.0014068503021876504,0.001534394404643655,0.0016744804485791596,0.0018047829119244786,0.0018525859901725368,0.0017436233543921642,0.0014489311918265847,0.001003119066155158,0.0004855482068498636,-2.2655824109715534e-05,-0.000479370103397424,-0.0008943868174396941,-0.0013042150287689083,-0.0017225423004254444,-0.0020994935403833336,-0.0023223453067834207,-0.002265721343972784,-0.0018650264016507668,-0.0011677570739829501,-0.00032852795893194026,0.0004520910780861392,0.0010111930149180963,0.0012846106315665808,0.0013166266200885937,0.001220193670443668,0.001114663210057635,0.001074198120416273,0.0011079490776027693,0.0011736175853004401,0.0012105090546327343,0.0011719090802606081,0.0010398022635300552,0.000815975979597489,0.0004988577949250727,6.733707283508204e-05,-0.0005083624314797782,-0.0012265002473508268,-0.002007374288433683,-0.002678299644696734,-0.003017194745263686,-0.002847633129380317,-0.0021394664269643775,-0.001053129016622183,0.00011071666273830621,0.0010400362893286208,0.001550530292792429,0.0016547410453831555,0.001522131328323551,0.0013599147443218882,0.00129286942023508,0.0013147095799283164,0.001330084010425683,0.001244854640213909,0.0010355597851774783,0.0007521246012961977,0.0004606525063181338,0.0001764416342913524,-0.00015810645439272726,-0.0006303838427026702,-0.0012762604424258663,-0.002016024156902692,-0.0026553171162910314,-0.0029600190587074494,-0.0027678099719064967,-0.002074133385547133,-0.001042879139485752,6.458594689288201e-05,0.0010012487671659756,0.001625279315386662,0.0019258125374841985,0.001982692413365784,0.0018973110105291102,0.0017405387922709127,0.0015417961715710141,0.001310284747098498,0.001059489987462575,0.0008106432879282349,0.0005729803481816186,0.0003207419340047621,-6.863760490474595e-06,-0.0004709160006707867,-0.0010778938523577975,-0.0017400429924627951,-0.0022848552116478318,-0.0025205232098682757,-0.002327364253895188,-0.0017241608607707207,-0.0008699683823258503,5.3077956551218e-07,0.0006728201911083624,0.0010316612500479415,0.0010913160973515658,0.0009722469894328188,0.0008410427988123186,0.0008389362578580028,0.001023325642035018,0.0013405674628719864,0.0016389984508262006,0.0017202591485038193,0.0014162174966495928,0.0006686455037572348,-0.00041938649835100207,-0.0015912927551960086,-0.002517153555265026,-0.0029238003461812215,-0.0027160577503882242,-0.002021656510350466,-0.001126768053685711,-0.0003316599006268212,0.00019340813661608368,0.0004698061415787674,0.0006581565246722156,0.0009310301456877745,0.0013533884096400145,0.0018427169333095675,0.0022256637347424072,0.00234635113906766,0.002152707335890255,0.0017075015704515297,0.0011251125605206656,0.00048673745060581123,-0.0001998127351383191,-0.0009649452489569461,-0.001795659864102842,-0.002575760576535544,-0.003103609387273741,-0.0031863175943250255,-0.0027510418099798155,-0.0018986294579607713,-0.0008630461488709734,9.770090132624198e-05,0.0008118723188302855,0.001243520405721364,0.0014628895575876462,0.001569377553921253,0.0016230573922244329,0.0016263047875422776,0.0015559724021037033,0.0014087158673939367,0.001215760824558688,0.001013289740804687,0.0007960392151392978,0.0005000786171592561,4.061572420627674e-05,-0.0006125280818346906,-0.0013729974604709029,-0.0020403392241590576,-0.0023810137011625486,-0.002250626127530885,-0.0016858861840442084,-0.000903665192572063,-0.00019691011306124744,0.00021732285897142363,0.00030810341610254966,0.00023232646796643225,0.0002276817218403275,0.00046337117837912047,0.0009389531259003146,0.0014892362874293107,0.0018864764834147616,0.0019722609877439825,0.0017363782231424193,0.0012972547164808125,0.000804005123880881,0.0003313546804073872,-0.00015801268096588147,-0.0007563503057000168,-0.0014986952720292932,-0.0022776301792763755,-0.0028543075704083286,-0.0029725032785535965,-0.0025098288387905444,-0.0015682697168078574,-0.00044035933672413076,0.000533613682890155,0.0011320216537072053,0.0013431138961807348,0.0013322711431231304,0.0013147169217484795,0.001418107599249408,0.001618037965479895,0.0017764717858148363,0.0017461056380694562,0.0014668459893686858,0.0009946556109910855,0.00045345717414728133,-4.8823481032417597e-05,-0.0004804943390204165,-0.0008842196403588512,-0.0013180339209312992,-0.0017815379357247786,-0.0021792803486248985,-0.002351069273649574,-0.002157627609929816,-0.0015732085442930412,-0.0007272529493043967,0.00013687093100429198,0.0007700586498757874,0.0010352521907662038,0.0009688692350911739,0.0007509296506366951,0.0006015942099505362,0.000663726656168252,0.0009363046601246787,0.0012902013969820739,0.0015486723759987446,0.0015803348843210659,0.0013513953674455749,0.0009143103712120708,0.0003521029003775621,-0.0002752859344677726,-0.0009420078554564469,-0.0016196467080752497,-0.0022281372458709267,-0.0026236419051323856,-0.0026477312305445136,-0.002215108204544184,-0.0013834447757455856,-0.0003547286627589273,0.0006010190696010252,0.0012610536160637615,0.0015426939152319728,0.0015254811801103535,0.001393367384240122,0.001329322028958225,0.0014186370585940328,0.0016117220711983947,0.0017643124953009013,0.0017293363863030865,0.0014449639027293531,0.0009663890823381712,0.00042413050910785136,-6.231250399743192e-05,-0.0004588859966746941,-0.0008311723917930778,-0.001288588776272145,-0.0018928969477982217,-0.0025877923991338174,-0.0031947526189511893,-0.0034827921578865465,-0.0032782784186238837,-0.0025581867139608068,-0.0014775386781083078,-0.0003144448298973177,0.0006431814687022258,0.001216606941479318,0.0014047226483194213,0.0013682911015448795,0.0013358286102294562,0.0014766989019523052,0.0018073171610065244,0.0021831881953069676,0.0023850124552832544,0.002253172857530034,0.0017930875623843653,0.00118617141074166,0.0006939305728626741,0.0005062421880553194,0.0006207728995760436,0.000826416050955263,0.0008070451407777911,0.00031439546805228733,-0.0006823528292558129,-0.0019540705927928,-0.0031035444509187097,-0.0037444055328137377,-0.0036714856533988883,-0.0029358994250431045,-0.0017972531034625412,-0.0005933830368896681,0.000397605324527647,0.0010403586755570546,0.001347669080107788,0.001425033433563417,0.0013928130595401375,0.0013254552165268376,0.001232160269285562,0.0010791957522289395,0.0008314550895866847,0.00048306015320876024,6.029337031560995e-05,-0.00039489732599059835,-0.0008377184957717376,-0.0012157145128410827,-0.0014566055807896244,-0.0014739943271448882,-0.0012051217191466075,-0.0006649914641138044,2.2477707970969306e-05,0.0006509358695253014,0.0010163130343662538,0.0010189421607682122,0.00072329927551213,0.00033480260351285225,0.00010031823536541971,0.00018442206003318855,0.0005882297990921063,0.0011530287453283491,0.0016427869207731312,0.0018567304089816316,0.0017101556944988437,0.0012451264749248573,0.0005772797975918866,-0.00017789840951937318,-0.0009492204300691336,-0.0017000350808349615,-0.0023801567092857135,-0.002883643503520805,-0.0030556819035388125,-0.002759931596202246,-0.0019725250348596986,-0.0008405538664760598,0.00034510217867887087,0.0012631115144356555,0.0017055772503050117,0.0016724311891185546,0.0013611932654842638,0.001056258939527763,0.000978812688107567,0.001178718934893665,0.0015228303987938037,0.0017782458262333512,0.0017377821992326087,0.001316994565824754,0.0005758229008245113,-0.0003329117355239988,-0.001243406888377334,-0.0020319648644115795,-0.002622561513616199,-0.002959567233049485,-0.0029869007171088634,-0.0026616879764360824,-0.001996165194867996,-0.0010913268430021573,-0.00012437500660795976,0.0007166094629651614,0.001315330336818226,0.0016726603377046699,0.0018818240595724792,0.0020490707061949862,0.002214819726935619,0.0023300165108186797,0.0023021925900444827,0.0020750957030128895,0.0016816370076445295,0.0012291496227036026,0.000824422726317171,0.0004900834609961798,0.00013380186103766805,-0.00039980187172650985,-0.0012183251768747186,-0.0022773124435276995,-0.0033507697777880653,-0.004105386773791761,-0.004248043066040213,-0.003670631581251289,-0.0025121443419111452,-0.001101116893396258,0.00019115495065203595,0.001106087633522356,0.0015808928688740567,0.001726160880758754,0.0017273274935842337,0.0017357322700384441,0.0018069676121950054,0.0019053140822882487,0.001953209793580533,0.0018868045530207513,0.0016860962047196726,0.0013697346118318264,0.0009664243055272531,0.00048724294168975843,-7.862434518356089e-05,-0.0007377440350254663,-0.0014510013655050235,-0.002107889661233832,-0.0025445908457178944,-0.0026090788846007146,-0.0022425761969882565,-0.0015273645395490506,-0.0006639927789452134,0.00011762913256894701,0.000664947510400079,0.0009635066988162473,0.001114110277203935,0.001242086818584282,0.0014000411860538532,0.0015307289219972458,0.0015147111634819903,0.0012663620725038621,0.0008065398353208305,0.0002578852475688901,-0.0002336959790502414,-0.0005933685656255331,-0.0008580266835824672,-0.0011325365793442071,-0.0014913246806416518,-0.001895016708084656,-0.0021840513794084354,-0.0021605816308428553,-0.0017100014751552737,-0.0008846316578109346,0.00010543875076726012,0.0009907060269353553,0.0015709585697187922,0.001799481426819073,0.0017788678750976794,0.00167960627053803,0.0016358107169839084,0.0016788616342839732,0.0017397960967896003,0.0017073047711973302,0.0014976556384319777,0.0010922735405588884,0.000526135683875959,-0.00015303247013638766,-0.0009140563676934524,-0.0017309277774823677,-0.0025384753344077863,-0.0031972079728244673,-0.0035122336618270537,-0.0033156877271957267,-0.002571658843932922,-0.0014346943510938088,-0.00021165963659061177,0.0007662759294319924,0.001295758749155914,0.0013905094090087555,0.0012537302504535368,0.0011485797308873951,0.0012440776056263747,0.0015289997596237507,0.0018420794323636713,0.001990657904177877,0.0018732079002868546,0.0015237002073351478,0.0010557342147032244,0.0005579375647930583,2.5679585653056022e-05,-0.0006160355699911559,-0.001414390076744841,-0.002290523805729302,-0.00302125390624285,-0.0033269205544234287,-0.003017083936764112,-0.002103728965967242,-0.0008113328470485359,0.0005211591183558548,0.0015868784988309877,0.002224639543084705,0.00244675453878248,0.0023826650670313223,0.00218469195555335,0.0019528569432637408,0.0017114933250502496,0.0014323808584206443,0.0010747443751065828,0.0006143748146120467,5.300320997519547e-05,-0.0005841660301532268,-0.0012514841307827108,-0.001883058947803334,-0.0023962663017591665,-0.002706893712524138,-0.0027562144492096815,-0.0025377042774642135,-0.00210518258125781,-0.001552726417692744,-0.0009757521747888803,-0.00043736320159726587,3.919286652915576e-05,0.0004515601086533664,0.0007935679654573419,0.001048987623042882,0.0012102467595285307,0.001304838179692967,0.0014022713337907828,0.001586216464202399,0.001901356189317917,0.0023058364948953386,0.002663904104969342,0.002793982922296147,0.002553112799888092,0.0019107435812801303,0.0009662150166786939,-0.00010095608933199246,-0.001114052062969297,-0.0019610772637683395,-0.00260119396236973,-0.003024840041043998,-0.0032097212646063507,-0.0031131190065162473,-0.00270777411461844,-0.0020309100597553113,-0.001203208063041155,-0.0003958132466220655,0.00023906174523200755,0.0006332252996023783,0.0008257759615141742,0.0009326285697267382,0.0010796733943255052,0.0013338906359728075,0.0016659974100685952,0.0019631195715911947,0.0020868905052073704,0.001948816544534743,0.0015614571490994754,0.0010325405228942426,0.0005012022875583507,5.398608571481362e-05,-0.0003245458880328312,-0.0007313161039242691,-0.0012638993960508004,-0.0019288868114473903,-0.0025983365225754375,-0.0030468387700669395,-0.0030554731973497606,-0.0025289372951575306,-0.001561073190905202,-0.00040929896484612167,0.0006129402180842336,0.0012718469329713405,0.0015080675600104866,0.0014445246434738675,0.0013081936381105653,0.0013103082320121856,0.0015460332189815948,0.0019584265974653793,0.0023756393964639543,0.0025955693458256154,0.002474158019416227,0.001977319877672052,0.0011783941661368126,0.0002124389958992356,-0.0007797872738476283,-0.0016850632558056133,-0.0024170253012590305,-0.002898945551941977,-0.0030597092988162494,-0.0028578862208966625,-0.002318899881357559,-0.0015519804967505726,-0.0007243103740501831,-1.3919212744141246e-06,0.0005117236326796853,0.0007953868826948041,0.0008990993537272896,0.0009028245676943007,0.0008811278015890401,0.0008826294441734155,0.0009217120740776856,0.0009754710947818291,0.0009862374906729706,0.0008769232684294148,0.000582757220055682,8.993953822532177e-05,-0.0005391269687000586,-0.0011719302618690528,-0.0016451523716784612,-0.0018205880502163692,-0.0016328062718995139,-0.0011097354441140456,-0.00036181289575086984,0.00045173534130592535,0.0011659890418042197,0.0016513864245526356,0.0018446985462115622,0.0017632821065515102,0.0014973546430723603,0.0011789906024955764,0.0009326277457067324,0.0008194692326980921,0.0007973579196839525,0.0007232348911669708,0.0004151481783429816,-0.00024086320557673707,-0.0011917606605416423,-0.0021927545899765623,-0.002891459389140614,-0.0029907438324434437,-0.0024041924368486726,-0.0013129391169826882,-8.649351770230636e-05,0.0008904294320662557,0.0013897125800440573,0.0014200971656032541,0.001181740618828703,0.0009300045950235946,0.0008267986046597391,0.0008574805780735949,0.0008527573405151478,0.0005991661696953107,-2.409470313064575e-05,-0.0009566274362513214,-0.0019634209540684076,-0.0027312453598215525,-0.003002883473764339,-0.0026812765078224462,-0.0018565454170841988,-0.000751945797915118,0.0003753661976787655,0.0013272939973564806,0.002012939511213432,0.0024419983437839183,0.002679552880083853,0.0027908842161265763,0.002803213430097585,0.0026997954031660405,0.0024451439635929245,0.0020236852693732493,0.0014655078263856652,0.0008392802317891443,0.000213532511235388,-0.00038849921334085295,-0.001006021339488536,-0.0017105953609372925,-0.002541012913905504,-0.003441507878701515,-0.004244389234551397,-0.0047154353848924595,-0.004645703826659863,-0.003946095181865323,-0.0026966233534834226,-0.0011250280957362793,0.00047308562643054344,0.0018315594626578148,0.0027851585292034227,0.003293664598893069,0.0034236024559433156,0.00330632735428678,0.003089114284410615,0.0028879369154670583,0.002748186528415163,0.0026248657517960673,0.0023975008074532582,0.0019251081385042446,0.0011224534902577188,1.7352648294815393e-05,-0.0012479729282897595,-0.0024751465859770604,-0.0034899174996445093,-0.00419171418878087,-0.004545555514928845,-0.004536325930615164,-0.0041348868617315255,-0.0033134736267582568,-0.002104000728154025,-0.0006517044855654137,0.0007895280343985169,0.0019378585349074944,0.0026036809613460186,0.0027784482795062465,0.0026333910748722426,0.002422802040771555,0.0023464700472804983,0.002451382002869642,0.002626485903510513,0.00268470305814432,0.002474468574158286,0.0019526176882654872,0.0011845681042374026,0.0002889177240472916,-0.0006247088676835267,-0.0014826911478191694,-0.0022330680941118277,-0.00281807222955395,-0.003168640828547842,-0.0032315914021674897,-0.003006320044507757,-0.0025547115378614076,-0.001968429293002938,-0.0013152010684507642,-0.0006074079645225145,0.0001776289135781131,0.0010357278631422115,0.0018770678263685086,0.0025195738135979405,0.002753640772470204,0.0024516081829416376,0.0016612512090420704,0.0006218879360826119,-0.0003211365358389527,-0.0008703278774279478,-0.0009194421107449012,-0.0006038672753609982,-0.00022215367249785937,-6.714402522824776e-05,-0.00026201186251942777,-0.0006968526654679958,-0.0011015322205973305,-0.0012077863361408055,-0.0009015798313076091,-0.00027778870304771765,0.00042638281955353886,0.0009686422437219944,0.001222273612627744,0.0012140282186961777,0.0010721839179090348,0.0009319212745604251,0.0008605344612297606,0.0008394573816421536,0.0007989425933580747,0.0006732675517463213,0.0004414800949779337,0.00013431265617708677,-0.00019118531883689045,-0.0004910481257624942,-0.0007621033751982987,-0.0010374796857512483,-0.0013480280659198876,-0.0016726136552066494,-0.0019151807924978853,-0.0019361240099492916,-0.0016302900396691527,-0.0010061140372323114,-0.00021012144601351845,0.0005287270835252553,0.0010079758698806436,0.0011500945579367905,0.0010321798960298855,0.0008320612898029428,0.0007256686868959238,0.0007944210438331573,0.0009889898862500532,0.0011612996499566148,0.0011434658155187515,0.0008354016668458271,0.00026308924418393337,-0.0004183737476721041,-0.0009824622987758046,-0.0012290530763290719,-0.001078514485844145,-0.0006130715481819961,-3.952903624867589e-05,0.0004102695211515258,0.0005888877813477415,0.0004941703218217622,0.00025099012868172205,2.8030531469447513e-05,-6.129726044907846e-05,-1.896712594412573e-05,4.669981316384299e-05,-9.30326648408762e-06,-0.0002778100280046462,-0.0007318167622555058,-0.0012237193860469525,-0.0015464896157846891,-0.0015288156191661834,-0.0011155829000885598,-0.0003929331698301245,0.0004514568739216959,0.0012070087146810204,0.0017156133283422266,0.001911901090332737,0.0018215078099520126,0.0015305777247099754,0.001144772945378946,0.0007505421954641848,0.0003867263832890537,3.572462351097343e-05,-0.0003563187043001765,-0.0008314705466738209,-0.001365916457826086,-0.001846394486201551,-0.0021041195916320465,-0.001997655726796996,-0.0014979670130191739,-0.0007199069047680511,0.00012349361267867398,0.00081685341311597,0.001230792823781652,0.0013561227335335594,0.0012765521541490592,0.0011084059235740747,0.000945262217033247,0.0008296418263782259,0.0007512642793226516,0.0006599057335383576,0.0004847784869815879,0.00016109444707783954,-0.00033566615537680705,-0.0009585603933437034,-0.001581892780147005,-0.0020331322492989014,-0.0021575034354206,-0.001885605368840497,-0.0012680682128993527,-0.00045766123472042663,0.00035200405137490254,0.0009991724914030803,0.0014023289138707516,0.001564960108227765,0.0015432676970842589,0.0014029779269035176,0.0011927910722185225,0.0009449099067948395,0.0006902441866267531,0.0004650953963524633,0.00029612169388440636,0.0001728311697825818,3.309848532692824e-05,-0.0002164733399360073,-0.0006459880414998993,-0.0012408595749441803,-0.0018733376276286646,-0.0023337400787913428,-0.0024150415169666315,-0.0020112029383517697,-0.0011778826526564722,-0.00012169659775502465,0.0008795488416422799,0.0015885452926328238,0.001899651581580258,0.0018679411950271573,0.0016648721444570123,0.0014832979595299305,0.001436464749014318,0.0014977409468527579,0.00151082930138509,0.0012700136061400528,0.0006365001859829236,-0.00036562761163425603,-0.001527401354525655,-0.0025272810095662854,-0.00306810485245044,-0.003010222921698797,-0.0024306559301061764,-0.0015776169426520066,-0.0007477625217050244,-0.00015473243884050076,0.00014290321892266146,0.00022621967695241288,0.00023745433026069892,0.0002942371617596864,0.00044544538633751237,0.0006819929037866239,0.0009779122181363252,0.0013207168349939269,0.0017034163612958304,0.0020842627777490352,0.0023524307261755,0.0023438816628967105,0.0019203733673054872,0.0010722984085052975,-2.7488496734707612e-05,-0.0010724893777491642,-0.0017607734005787483,-0.0019425846284829539,-0.0016847084227407886,-0.0012130849620393632,-0.0007751663990900144,-0.0005106711315134593,-0.0004049692767209145,-0.00034085687728646093,-0.00020437706903847443,2.6003932568353786e-05,0.0002600987646641452,0.00035355745883595735,0.00020263504288831475,-0.00018393524239374552,-0.0006792485273570819,-0.00109909587611978,-0.0012889953958203438,-0.0011855070185690026,-0.0008235887813502101,-0.00029998193374820853,0.00027409133993725875,0.000802969392697593,0.0012142733330949866,0.0014574904633260018,0.0015074107634893085,0.0013742795067153396,0.0011105446792012415,0.00080144678447716,0.0005346335795972308,0.0003583774452233927,0.0002510821426532191,0.00012631613874466426,-0.0001188123285395945,-0.0005323202857553078,-0.00105468475713127,-0.0015224770137606295,-0.001734709990980906,-0.0015489274841297492,-0.000954188620856281,-8.249432999989786e-05,0.0008422547219535664,0.0015860540088277275,0.001978668631077509,0.001956616209637219,0.0015712089662970395,0.0009654659243230369,0.0003237981323011887,-0.00019694492183527598,-0.0005331819677400326,-0.0007440520329858742,-0.0009781957505350723,-0.0013808799733284456,-0.001983987036306137,-0.002644972864036114,-0.003085101499353515,-0.0030215918699778507,-0.0023244140433318727,-0.0011030164655556314,0.0003338313129051529,0.0016226880358973467,0.0025072443398421935,0.0029247982685539796,0.002979886869940859,0.0028402365129663668,0.0026303078462553975,0.0023839135542913508,0.0020679166327611004,0.0016421199415973184,0.0011052550157839083,0.0004974729210930227,-0.00013274551431413846,-0.0007623637755384261,-0.001395757839327366,-0.002031306768191956,-0.002621120566358418,-0.0030613648961887257,-0.00322870253495394,-0.003043223832482426,-0.002517701697849612,-0.0017615111299316194,-0.0009363735045135634,-0.0001889048860291251,0.0004044656828866216,0.0008536019394946083,0.0012258528737496923,0.001588800361332683,0.001956321776033515,0.002269822791056292,0.0024277963222011723,0.0023473840433146913,0.0020201681550513348,0.0015269384323338341,0.0010015250411322526,0.0005644046776849008,0.0002632811552108208,5.250265392528757e-05,-0.00017815861415003778,-0.0005396822804180571,-0.001075951608569864,-0.0017250009037237336,-0.002329909042691247,-0.0026978641718642103,-0.0026830464248446604,-0.002255277016839574,-0.0015199431814470906,-0.0006766122487048177,6.530964568231634e-05,0.0005723374411336242,0.0008315210129296415,0.0009340258791023422,0.0010108829086899786,0.00115810011579374,0.0013901048489678818,0.0016409615894062712,0.0018051441635392827,0.0017902216795455186,0.001552574514502183,0.001102843562889162,0.0004891036495610049,-0.000221700043093629,-0.0009484331415758296,-0.0015893819115446084,-0.0020240708494853104,-0.002141272583115556,-0.0018899463390121066,-0.0013242774151412083,-0.0006063419067270315,4.9452650837985976e-05,0.00046866886402419355,0.0005964544108931469,0.0005176543059151614,0.00040383742905323314,0.00041609555189403796,0.0006168723716443315,0.0009365568545168574,0.0012085762508152302,0.0012511791766098167,0.000954307807423155,0.00033300595962428535,-0.000471488955844095,-0.0012385445329068394,-0.0017425272851347869,-0.0018290251389142126,-0.001468510299988183,-0.0007682502317066148,6.576236748949708e-05,0.0008060210501182763,0.001288057781025876,0.001462646774194827,0.0013916277844241661,0.0011951016114547602,0.0009836176395483201,0.0008110463810605115,0.0006640196781328868,0.00048075735095829964,0.00018306516756339181,-0.0002887529010597702,-0.0009407742715629681,-0.0016959388120156736,-0.002387299607578499,-0.0027948658459360813,-0.002728803046611783,-0.0021272352901823975,-0.0011122139591728704,4.063955084467944e-05,0.0010145678903021723,0.0015886143057406471,0.0017234245300400118,0.0015517577933366962,0.001287774425210349,0.0011130911712356976,0.0010999960797032796,0.0011987644829222542,0.0012768255392013007,0.0011798876318346277,0.0007921929660884471,8.657749716177069e-05,-0.0008430516280365044,-0.0017829545749765844,-0.0024520329816750874,-0.002602212406542153,-0.0021282859318755504,-0.001128215424923298,0.00012698290070334273,0.0013040366794095004,0.0021409826236178714,0.0025342129183257497,0.0025408690372443017,0.0023079328330537037,0.0019755864115893695,0.0016081627843349093,0.0011834928676234709,0.0006357139069356913,-8.234359587968709e-05,-0.0009569551928048135,-0.0019117569054455004,-0.002836817325101545,-0.003620532899861981,-0.0041618944477036825,-0.004363952068221188,-0.0041307433520317485,-0.003390961326358605,-0.0021487338684696078,-0.0005313377096267588,0.0012083628331466274,0.0027549767284665906,0.0038349589619223086,0.004305373338595225,0.004178102439562993,