4.262917384045702e-05,0.0002420213569020585,-5.799846517132168e-05,-0.0010275341347380507,-0.002395291251552606,-0.003598292739259018,-0.0040981890415165145,-0.0036644486004030197,-0.002463733702887702,-0.0009330210655060789,0.00045173128663714146,0.0013608193183065262,0.0016685608539289028,0.0014097138348401605,0.0007172581842203752,-0.00020454116539882564,-0.0010890603989946873,-0.0016535630707434218,-0.0017046330101719367,-0.0012519024212011912,-0.0005398841598889884,5.248253052703156e-05,0.00020239445703530007,-0.00018695042638121329,-0.0009354872639561404,-0.0016724037159838168,-0.001996617343012562,-0.0016259186143959686,-0.0004840403110737551,0.0012785352538359877,0.0033174062883687717,0.005177890263496078,0.006426919388441555,0.006800364319965452,0.006297305801279719,0.0051592329412338475,0.003734685051208518,0.0023050364226791485,0.000972784603573508,-0.00033108413575349063,-0.0017415422481843364,-0.003328637666835367,-0.005012286154272485,-0.0065551768838321735,-0.0076275962372892685,-0.00791891950760977,-0.00726276166131418,-0.005732098175259642,-0.003652740368672417,-0.0015015252133612992,0.0002890530500103128,0.0015296510485303429,0.002356513304305987,0.0031257984237113364,0.004159465426736446,0.005486868439507795,0.0067458727051640036,0.0073197726063591985,0.0066464712989618095,0.004535224101062821,0.0013227341291911837,-0.0022136519341685573,-0.00514746467321699,-0.006765423127194066,-0.006834679852389731,-0.005654537486667094,-0.0038764973182737594,-0.0021885283185296006,-0.0010193487374923907,-0.00039684671787609035,-1.029106675205782e-05,0.000572491761283754,0.0016476641081542508,0.0032010924182428627,0.004893623209503185,0.0062034514625895435,0.006651009011015291,0.00600134629931023,0.00436012838088166,0.0021328499787637263,-0.00012724598257622666,-0.0019188814116201213,-0.002963169197347526,-0.003281155072177526,-0.003151479567836457,-0.002968141335280781,-0.003056613185350645,-0.0035223267445931034,-0.004195466657404314,-0.004701934982946215,-0.0046374655316305325,-0.0037677578460617546,-0.002154238297141539,-0.00013749947640064476,0.0018120933530627664,0.003291521892892704,0.004101083526912119,0.004254880707276629,0.003885227737308616,0.0031266772306253435,0.0020677566263288313,0.000795614126975036,-0.0005212791365677926,-0.0016026195637816863,-0.002131507705409418,-0.0019070171974258996,-0.0009782732894216659,0.0003380705737950863,0.001585980506265019,0.0023775621200619345,0.0025596232652977517,0.0022455069557204142,0.00170582630100559,0.001197319704302609,0.0008362035985584214,0.0005797931328251499,0.00030390334180314645,-9.27053876790694e-05,-0.0006281230228685399,-0.0012478555935609035,-0.0018782647222470945,-0.002470334350675201,-0.002999791341635345,-0.0034320725544488787,-0.0036918761446452495,-0.003673191942663732,-0.0032915062366151073,-0.002543650060960933,-0.0015311745441631524,-0.0004268851924501803,0.0005975106947932228,0.0014399362253295625,0.002094952321889572,0.002629626097839978,0.0031273247877425378,0.0036290384276215296,0.004094382321052431,0.004393626165411202,0.004337939158480046,0.0037511573539509664,0.0025697872886193546,0.0009292750006435753,-0.000824057287370541,-0.002236125644542355,-0.002939940523001007,-0.0028458607688652045,-0.0022072681058732347,-0.0015008050171656537,-0.0011733403370302099,-0.0013980482803902068,-0.0019834526263712198,-0.0024888421035090947,-0.0024775869324339716,-0.001763386963411251,-0.0005146419244626587,0.0008337289888064171,0.0018043744187291938,0.0021096297821088473,0.0017668910976089513,0.001046036838207953,0.0002961578863717061,-0.0002374691006121728,-0.0005022873211380674,-0.0005979732588215552,-0.0006547381741151773,-0.0007229348653912649,-0.0007458552755185939,-0.0006216265821356191,-0.00029822077730944167,0.00017068992292369647,0.0006468669319608517,0.0009877705728589098,0.0011297726135950745,0.0011187936587841675,0.0010675458136176676,0.0010644509964123888,0.0010912021031542923,0.0010071495173163908,0.0006256120522691937,-0.0001477460375084263,-0.0011928024257154934,-0.0021563341290422124,-0.002577629836804293,-0.002116199345348891,-0.000767435650124004,0.001061141193863972,0.002678914321540572,0.0034054650754451613,0.002893779232773281,0.0013217964804264242,-0.0006541475891127233,-0.00217853784819573,-0.002586402824014469,-0.0017171711808118555,6.190892943313143e-06,0.0017767401976185992,0.0027814470089223206,0.0025659650738841847,0.0012096090911058706,-0.0007584292645067374,-0.002635243865103534,-0.003857128734447497,-0.004193531382883082,-0.0037492830565981627,-0.0028164646676575146,-0.0016924796338320248,-0.0005735388231276175,0.00044260945866815614,0.001293197899387425,0.0019053590392039488,0.002214338913590364,0.0022254279039759317,0.0020562415193037947,0.0019039107834598948,0.0019351356196247221,0.0021592657519199504,0.0023724955517061613,0.002231842973374032,0.0014425715169840282,-3.573608598003274e-05,-0.0018903383605369845,-0.003544054623085236,-0.004406053622843464,-0.004155445527165887,-0.002898898329579535,-0.0011146532153072655,0.0005795751145217969,0.001703228652279152,0.002094607685600515,0.0019258833611578681,0.0015690389052214224,0.0013917723307603578,0.001577577642322036,0.0020417829691945243,0.0024727444738005494,0.0024792321097571756,0.001782898983504728,0.00037172608011012227,-0.0014599348986007346,-0.003212158192565268,-0.00438006190347044,-0.004658912432346529,-0.004053978798378767,-0.0028476511266263714,-0.001452748049438163,-0.00023396648551647826,0.0006172587176366772,0.0011076558447412474,0.0013732494817526877,0.0015657073000745942,0.0017584150277475921,0.0019198407775716806,0.001960126788240734,0.0018124416376576699,0.0014902750659969524,0.0010800531608971254,0.0006748709245450036,0.00029910464240121644,-0.0001157824695408677,-0.0006766237922310151,-0.0014240883981788315,-0.0022497056720064026,-0.00290115440336403,-0.0030886418530931903,-0.0026364035776227797,-0.0015891161915856232,-0.00020914217673154294,0.001132661303181575,0.002110798074526542,0.0025671584583099923,0.0025530204102828763,0.002285528460832887,0.0020441861713859687,0.0020460544111882855,0.0023410015199279302,0.0027661753756553454,0.0029883648440313074,0.002636264754880731,0.001482010854285624,-0.00040920095757865724,-0.0026495316409376715,-0.004658608238115052,-0.0059040616136468195,-0.00612834610118256,-0.005435256268755133,-0.004191336097553073,-0.0028109006592369353,-0.0015597181980042995,-0.00048749216462342444,0.0004943958750567769,0.0014673050696461958,0.0024004228395546616,0.0031497718690157795,0.003544166086843159,0.0034864873911850947,0.0030025742055856245,0.0022186646650009115,0.0012994630323479388,0.0003965228084777746,-0.00036535608674802657,-0.0008743668909114455,-0.001024149608756391,-0.000738086161276513,-2.1969758268861918e-05,0.0009860665813280012,0.002008383874151621,0.0026891057627746223,0.0027173441551909296,0.0019681564548208693,0.0005919446862003342,-0.001009445344504501,-0.002333040246486844,-0.002992730010373636,-0.002894585661688772,-0.0022702258617618527,-0.0015465886443908334,-0.0011270578306221653,-0.0012074172858425737,-0.0017178238455814823,-0.002396745825568402,-0.002928081554022085,-0.003056484700253841,-0.0026379184544546193,-0.0016406587358791622,-0.00013869148410130183,0.0016812367724432572,0.003518885733640907,0.005003846326057086,0.0057949864562030304,0.005700680259049403,0.004756704244301957,0.0032144477792782314,0.0014411917726993894,-0.00021618663982543086,-0.0015346084212967469,-0.00244022519028661,-0.002960518417209743,-0.003148883661307361,-0.003034657544364952,-0.002624540254954672,-0.001942013176194529,-0.0010662012475314009,-0.00013549437987188476,0.0006910263479516187,0.0012908946722041716,0.0016192156422196206,0.0017110998768561155,0.0016485561882588293,0.0015137043787387028,0.001352155792649656,0.0011589743422400882,0.0008870388496529436,0.00047260031015868204,-0.00012709594394991238,-0.0008926271540502161,-0.0017154178415920384,-0.0024084384460117186,-0.0027669580241609674,-0.0026624496136458758,-0.002122604321088451,-0.0013442351326374729,-0.0006153432899760245,-0.00017484474684462147,-8.254830760106484e-05,-0.00017796126959852506,-0.00016424793764825934,0.00021773807580213473,0.0010195878185452567,0.002020769794199971,0.002815074256326758,0.0030075608557945713,0.002418044857290273,0.0011842242402036432,-0.0002871128333622973,-0.0014937325454247078,-0.0020495542669911257,-0.001833876598886739,-0.0010142901502152113,5.517211681032696e-05,0.000999666495753745,0.0015696145214288393,0.0017068873223651828,0.0015201499695420208,0.0012023972721388232,0.000939550298817331,0.0008455042499269023,0.0009331114672950691,0.0011129910801538896,0.0012124532769339428,0.0010176675013994368,0.0003459557659750825,-0.0008598754128598129,-0.002450594130862993,-0.00405610239969479,-0.005176578823042232,-0.005368507506822949,-0.0044518274773863225,-0.002629176683069713,-0.000435332435710614,0.0014780511354561161,0.0026195721747401413,0.0028517243089950226,0.002400793925082258,0.0016878867734412568,0.0010847533165259068,0.0007326407221273112,0.000517773115108573,0.00020378867526870954,-0.0003666079968943299,-0.001124175619117156,-0.0017692672361833968,-0.0019176465306182048,-0.0013159617876182445,-6.076761025058984e-06,0.0016551178385463662,0.003134719316450013,0.003951507327751202,0.003878864298639008,0.0030267074402369303,0.0017700495763920837,0.0005675622887138829,-0.00023654755535920083,-0.0005341673279376076,-0.000452949902863489,-0.00025431948770788463,-0.00019575553108003806,-0.0004269174050771197,-0.0009565358293482098,-0.0016833373893467066,-0.002455620105723311,-0.003121900594051694,-0.00355309172248342,-0.003640133922478068,-0.003287720584386131,-0.002428287475901234,-0.0010673408492589342,0.0006563946424836728,0.002439623146243802,0.0038580912230937823,0.004496670118350389,0.0041212124517345725,0.0028065251532934893,0.0009409079633601352,-0.0009144638866381167,-0.0022516924064985597,-0.0028125954088209183,-0.002652007281010155,-0.00204382692857745,-0.0013008717706454345,-0.0006231231534901979,-5.334846964868311e-05,0.00046178467055782706,0.000971429958743806,0.00145675647404595,0.00183912692573259,0.002040994070725163,0.0020467817258938608,0.0019162557531265513,0.0017392834816640544,0.0015626919609712893,0.0013405729711827693,0.0009480046567198169,0.00026260802009140055,-0.0007237499695375508,-0.0018297351710541135,-0.002709377645149489,-0.002995300241922197,-0.0025045656914801013,-0.0013906183791464143,-0.00012778034409722578,0.0007003778961908315,0.0007117183217983135,-4.497091784422323e-05,-0.0010937416721431628,-0.0017846233605565366,-0.0016534558810375756,-0.0006746960787177865,0.0007375191932208413,0.0019648978011342624,0.002503801302388077,0.002185702169012004,0.0012015259195064958,-4.322245821629161e-05,-0.0011329409531799473,-0.001794006553486974,-0.0019413656195613196,-0.0016366043612084445,-0.0010126192160093376,-0.00021470787620888113,0.0006233052287766892,0.001379750113577182,0.001946597013472004,0.0022471085873299705,0.002264790649976537,0.002061193313687578,0.0017575138039000536,0.0014721708178697735,0.0012375273107540128,0.000946244088499842,0.00037835087180735987,-0.0006785189154240018,-0.002265907137132469,-0.00414347121961116,-0.005813179954909474,-0.0066906560370253755,-0.006348219225516342,-0.004708641198188173,-0.002093989597323795,0.0008891657689998468,0.0035675604261987824,0.005421914217611103,0.006223208258126748,0.0060465773099931406,0.0051810290816581474,0.003990053449385748,0.0027845718043963564,0.0017508604490326736,0.0009451817759059402,0.0003366712291569509,-0.000138250709903516,-0.0005439332892860768,-0.0009458888005186023,-0.0014228396069492326,-0.0020566102242135084,-0.002884014573655621,-0.0038328852354062065,-0.004692460644203375,-0.005160115025639203,-0.00496107469812044,-0.003984809153487755,-0.00236129780939147,-0.00043033625986934015,0.001382955794859905,0.00272398198295244,0.0034226125988161393,0.003519185811402874,0.0032024842519359255,0.002700739108096616,0.002184037942660571,0.001722515678349917,0.0013083474676404765,0.0009125754936998697,0.0005321275957559462,0.00019671348774260178,-6.112521339170468e-05,-0.00024105945430572266,-0.00038135285945952043,-0.0005286082404625741,-0.0006952394741199814,-0.0008407972833544635,-0.000894737452104282,-0.0008054072201616278,-0.00057995587519099,-0.0002872241585912265,-2.2832300364492584e-05,0.00013830072236731684,0.00016996929884791827,8.733786586180917e-05,-8.450907655802733e-05,-0.0003363413627558246,-0.0006693367661197938,-0.001058190389819611,-0.0014111471700104807,-0.0015653375890000787,-0.0013379802279191015,-0.0006191009192982654,0.0005384789647367037,0.0018837241851068416,0.003019934281134236,0.0035411052526725033,0.003204310712645231,0.0020597780921287247,0.0004644921607592635,-0.0010470621524196065,-0.0019882905315912044,-0.0021372549122736875,-0.0016340831750919443,-0.0009026680386033403,-0.00042913972369790915,-0.0005073143323036818,-0.0010850976693627958,-0.0017973586632115844,-0.0021707997231412693,-0.001889555568226588,-0.0009745116366679993,0.00022280108838163004,0.0012075271993406515,0.0016065306794334274,0.0013665836899294647,0.0007782268078933064,0.000311983446972077,0.00035529882444548994,0.0009935979914746642,0.001955167062114195,0.002747903449878264,0.002909432424104507,0.0022349684639377423,0.0008704710398667574,-0.0007607818962648094,-0.0021460580430451254,-0.0028894686228382394,-0.002847783714603658,-0.0021495490966172044,-0.0011058199281643961,-6.538763158447903e-05,0.0007150781144245975,0.0011327041986516498,0.001221127585602283,0.0010854223897915252,0.0008357487570802273,0.0005494560257104669,0.00026203905797844587,-2.8423992530342008e-05,-0.0003524265896257269,-0.0007513040336967706,-0.001245321846022801,-0.0017973564713894908,-0.0022966911535135756,-0.0025838895944099867,-0.002513840114157863,-0.002025770505844727,-0.0011778062573316757,-0.00012099602908671031,0.0009741885323209837,0.001991628286998859,0.002892214366153072,0.0036683140833242344,0.004265675054707648,0.00454063689320264,0.004302627405948407,0.0034301874917154933,0.0019865767931035085,0.0002480290686320177,-0.0013907299769235853,-0.002587677800687724,-0.0032027454697253783,-0.0033387606128653237,-0.0032532111009360453,-0.0031941221345392627,-0.0032535465689932375,-0.003320205364529054,-0.0031569944546747065,-0.002557670593099743,-0.0014891239496754728,-0.00013321125615275422,0.001194690642417861,0.002195066104205102,0.002708303884678066,0.002747594113137142,0.0024419287548635682,0.0019447093888472434,0.0013704333310604888,0.0007875871646600575,0.0002525643979382876,-0.0001537758807785602,-0.00032008032704144756,-0.0001388626923635858,0.00043372440391224287,0.001322622615022775,0.002315221190666008,0.0031017043378519715,0.0033746995209548167,0.002956543181254742,0.0018939832796801867,0.00045831333356621606,-0.0009703880485101492,-0.0020862049464190676,-0.0028042863705943655,-0.0032765532396330558,-0.003758371028928673,-0.004406328903443215,-0.005135982695740416,-0.005631763014707456,-0.0055050521828826,-0.00450707696172549,-0.0026770187879395684,-0.00035069591225877285,0.001965953002418881,0.003789873668030058,0.004829941422530318,0.005063731559518112,0.004701860814335705,0.004068598216067951,0.0034564623481683336,0.0030148084499529385,0.0027132992241902165,0.002390269053884706,0.001862491902314409,0.0010460348782693313,2.8168381810191826e-05,-0.0009533309102604889,-0.0016244249120085414,-0.0018300152876595927,-0.0016423624104781591,-0.0013457841516713038,-0.0012833274264683519,-0.0016382959845614377,-0.002282264669859624,-0.002802630258787121,-0.0027220024121156743,-0.001795651767508138,-0.00020847283076019102,0.0014590775417225848,0.00249248674342875,0.0023943263163761597,0.0011357299785919584,-0.000823462970724771,-0.0027498851361935786,-0.003967624829912594,-0.004132904262892903,-0.0033237094395736962,-0.0019253472998591505,-0.00040166744306913463,0.0009131238431469746,0.001903152396970284,0.0026244170749409935,0.0031825546249315013,0.003622097501905025,0.003890147960096898,0.0038829128583053067,0.0035319122515222534,0.002866026294243403,0.0020066823285270147,0.0011026968498282464,0.0002548623667568959,-0.0005142578755568806,-0.0012271379764654557,-0.0018860450933887237,-0.0024292678418316284,-0.0027428390231621956,-0.0027203690984556493,-0.0023320751983390473,-0.0016599761313260582,-0.0008765546251849926,-0.00017549872261787353,0.0003097085720040399,0.0005544327651163762,0.0006302135764827367,0.0006375626406610786,0.0006247995505421542,0.0005437553708424393,0.00027240583865540703,-0.0003047077886629319,-0.001201491875135031,-0.002274322285307612,-0.003241378648517452,-0.003777878361894348,-0.0036490511544065123,-0.0028180006119436036,-0.0014701304208753585,6.582423856498409e-05,0.0014640396161149406,0.0025383876635636463,0.0032955637981436935,0.0038763445759591414,0.004419680906854181,0.004929728758011323,0.005229194965998706,0.005038021725086312,0.004142798548007901,0.002559484131276501,0.0005835476084486614,-0.0013173379999529135,-0.002715745835463348,-0.003420925606652336,-0.00354528582908319,-0.0034048995381482676,-0.0033151494909453736,-0.003400855781132321,-0.0035292662766134818,-0.0034022353397273495,-0.002750140775002858,-0.0015089021687307025,0.00012580449436007694,0.0017905875875790893,0.003120846296064062,0.003882083198172308,0.004000440374100911,0.0035108436811341916,0.002494970095647411,0.0010669745470755902,-0.0005960987386048134,-0.002232582752548997,-0.00353248642141277,-0.004229464582898172,-0.004195696378711023,-0.0034823530406402096,-0.0022883764661875057,-0.0008848743962316524,0.0004631896615374671,0.001552116108550734,0.0022679443978167995,0.0025950106211588947,0.002607713050827217,0.0024418426278755337,0.002243648648345589,0.002108189457734738,0.002033798266409863,0.001921530849040456,0.001630066800046886,0.0010655006709371917,0.0002597276663738068,-0.000612018607676022,-0.001297513243185102,-0.001593943284670362,-0.0014678553252143736,-0.0010931044718343475,-0.0007703549807741871,-0.0007620197174746501,-0.0011343943140467378,-0.0017025882889676394,-0.0021169286405445607,-0.002046943798287508,-0.0013621762411774668,-0.000210604155259688,0.0010473337284386825,0.0020107143155213,0.0024192956575101424,0.0022455233547944375,0.0016561969585106948,0.0008821927888013322,8.579532505552324e-05,-0.0006922600784634468,-0.0014816502968048523,-0.002273121183155707,-0.0029364239355358303,-0.003234799793763788,-0.0029408519396726157,-0.001985561985763114,-0.0005408771664243226,0.001026874738851044,0.0023124727630011582,0.0030454098568681197,0.003183150269928109,0.0028821122728444216,0.002379708390067083,0.0018634725954314807,0.0013952033408848631,0.000917288854772862,0.00032490911442635046,-0.0004389676275271807,-0.0013140566403648797,-0.0021130784630309578,-0.002578901605845966,-0.0024846101175693483,-0.0017329217094603526,-0.0004140126796191104,0.001197506680161956,0.0027020935701181155,0.0036759319061113417,0.0037954986602642257,0.002959680013312497,0.0013626834852320624,-0.0005381901315414481,-0.002183184932657686,-0.0031475633082242954,-0.0033346983509224483,-0.003003063194646201,-0.0025950983286450223,-0.0024629950040406957,-0.0026586891876871697,-0.0029160592301367303,-0.002828774971732655,-0.0021055862058173597,-0.0007472187703093166,0.0009480646849499709,0.002532509539850324,0.00361102410289332,0.0039896709002817145,0.0037155785402195477,0.0030188232076758118,0.002203485277460999,0.0015356987879186572,0.0011602967370434756,0.0010637306402006036,0.0010921389416684562,0.0010218959562040698,0.0006618032548977278,-5.177366452174603e-05,-0.0010102445797638135,-0.0019652041542717563,-0.0026298227301501634,-0.0028045028375741888,-0.0024642692861241455,-0.0017607411481499156,-0.0009372370227545513,-0.00020726217903316066,0.0003304837348986518,0.0006934098556517678,0.0009450252383891239,0.0011151698490468594,0.001172421271170254,0.0010627511468121122,0.000772894827650307,0.00035942868989678154,-8.265672401699549e-05,-0.00048497134139260554,-0.0008482642235158112,-0.0012237641473174445,-0.0016439010711021725,-0.0020557578663306015,-0.0023134093473701173,-0.002244765431624677,-0.0017542738179247952,-0.0008948191811091406,0.0001398786245850425,0.0011008941641586158,0.0017984177630963297,0.00217984401228633,0.002330723787371864,0.0024042714865262155,0.0025249026778484695,0.0027206148935889937,0.00291474075557599,0.0029689321742119345,0.0027437537905282863,0.0021458435492291237,0.0011526169849831363,-0.00017588894680358998,-0.0016893619628245303,-0.003151315438462466,-0.004274467085265099,-0.004797709182127945,-0.004585518793547656,-0.00370107470162224,-0.0024018111993931524,-0.0010438245672239957,5.9462032993556164e-05,0.0007436229076232187,0.0010060638127765984,0.0009338575535063888,0.0006137123551967738,9.518213548525276e-05,-0.000572191921037682,-0.001269011766099735,-0.0017710361876109428,-0.0017923978395581754,-0.0010976611919139984,0.0003701765835572679,0.0024089461170710407,0.004566393318104859,0.006248150169060207,0.00690074853485682,0.006216030499225663,0.0042807663708387695,0.001595624226271544,-0.00107328532629084,-0.0029738545011759013,-0.0036672442738994483,-0.0032059337085013034,-0.0020949624353578124,-0.0010474455558100912,-0.0006534660423794212,-0.0011239194720069482,-0.002224304210221822,-0.0034124895567961763,-0.004099646932105592,-0.0039084840518431125,-0.002818159842834155,-0.001145776770080866,0.0006094116218248102,0.0019758653510758843,0.002678062268469573,0.002700848950277949,0.002242803061342973,0.001598236202158785,0.0010266609994389001,0.0006603491289066776,0.000477232568353937,0.00034066103949384843,8.595018313029023e-05,-0.0003819757159412682,-0.001022144785233897,-0.0016556041742689358,-0.0020334372941039408,-0.00194361551351538,-0.0013030196440667434,-0.0001903122401293151,0.0011885612008607845,0.0025734858948354656,0.003719955805385128,0.0044386113593486275,0.004605369367489712,0.004162152091995233,0.0031265295926026703,0.0016097753860869449,-0.0001762605744648339,-0.001945112128331523,-0.0033980090637196025,-0.004301914291537483,-0.004550904435250863,-0.004186039912882409,-0.0033686090095402725,-0.0023214152054179885,-0.0012631680323197066,-0.00035867024377907956,0.00030352611194708846,0.000705786700617733,0.0008758324669627817,0.0008543408176984026,0.0006738308969646294,0.00036347188722066714,-2.3476247053386568e-05,-0.000386824119231846,-0.0005957281685112213,-0.0005529448548572424,-0.00026997604226636045,0.00011092172208685509,0.0003867715405347972,0.0004269999334819063,0.00028185628912879613,0.00018033706990997845,0.00040045479464492144,0.0010831527198295304,0.0021066914567146114,0.0031083888485492557,0.0036533074741044377,0.003458881722570134,0.002546422161998335,0.0012302657032004526,-4.894734800704812e-05,-0.0009484804397957309,-0.0013776459094431643,-0.0015031992942862785,-0.0016166953440772396,-0.001947165087672981,-0.0025220245121611584,-0.0031450184681858125,-0.0034965614446650843,-0.003301033049575018,-0.0024743748494636016,-0.0011771066641195693,0.0002529691450272001,0.0014518266439456856,0.002185004515065165,0.002429575124151483,0.002345472066053472,0.002157525760004154,0.0020135446708547987,0.001894024726073562,0.0016232132824987925,0.0009816122850592821,-0.0001323831653978428,-0.0015763942511588243,-0.002953107320269991,-0.0037462148475253844,-0.0035583403013407203,-0.0023364546723350227,-0.0004537890479792443,0.0014203239806528883,0.0026139984700731225,0.0027599083558930283,0.0019519371851473208,0.0006736073680639765,-0.0004509057613678452,-0.0009453480772803554,-0.0006712404524011834,0.00015094254306137413,0.0010735763946681262,0.001631305835385747,0.0015355669406936182,0.0007818330825679451,-0.00036159800072098884,-0.001470022537253428,-0.0021355081769145693,-0.002129091090607174,-0.0014866449835229012,-0.0004817533665039814,0.0005021340028968429,0.001140533905359569,0.001298456727910396,0.0010637541066274843,0.0006740560405893422,0.00038047526706874713,0.000319472974645167,0.00045496274727382783,0.0006129712724043522,0.0005837975101520357,0.0002363152290586946,-0.00041101868188756884,-0.0011915249419053235,-0.0018570923632125974,-0.002176755810982708,-0.00202550601053259,-0.0014298296066491988,-0.0005534520090691823,0.00037103426029212055,0.0011351506269992179,0.001628024069622337,0.0018545543030582094,0.0018941203588852343,0.0018310858463207397,0.0017017345469924196,0.0014847829763327209,0.001130140935445347,0.0005990619619424193,-0.00010838280434318165,-0.0009444350950297401,-0.0018158646810620262,-0.0025917150215807503,-0.003120918052002631,-0.0032666624373655123,-0.002953512322778032,-0.002207798200234623,-0.001166361852932638,-4.0600504996224536e-05,0.0009537786116522429,0.0016700939132613477,0.002071265180133069,0.002217569904347496,0.0022096828565341905,0.00211932798732713,0.001945897282178651,0.0016226385838734568,0.0010704160427424392,0.00027409427705591186,-0.0006561449828945892,-0.0014770187115803618,-0.0018819704809421769,-0.0016385428730427193,-0.0007365584354767502,0.0005402301673075767,0.0016868770128785678,0.002187626412641914,0.001768443133696984,0.000554957247701537,-0.0009606429168016694,-0.0021391897409916046,-0.002493569017891264,-0.0019151817588715062,-0.0007138428762197994,0.0005428277928257727,0.0013001763638983072,0.0012588488332398095,0.00048028791897489957,-0.0006727125729662504,-0.0017105425247837154,-0.002218187977861596,-0.0020019334322129508,-0.0011356839430430507,9.360192143233779e-05,0.0013049967646109606,0.0021552425366126154,0.0024395947970301908,0.002140300689980776,0.0014191661637975505,0.0005581288360329403,-0.00014236021360087322,-0.0004816765923777101,-0.0004476438548484891,-0.00022398193726421635,-9.459482403513294e-05,-0.0002805132296944203,-0.0007968343889991453,-0.0014205782413090379,-0.0018016741702215496,-0.0016604095120347734,-0.000955772878503628,7.690456858794109e-05,0.001042016249171717,0.0015856683865072552,0.0015695954807713889,0.0011246213524497147,0.0005613185660539575,0.00019112738814327222,0.00015401444367518454,0.0003424520070264577,0.0004628036336358221,0.00020614205671052745,-0.0005586336438749479,-0.001675158229034891,-0.002741144505694465,-0.003287972161735117,-0.0030054498742909065,-0.0018901573720783633,-0.0002395996012587983,0.0014950335829892636,0.0029060307281746113,0.003768197121247436,0.0040625428469813615,0.0039042682672301475,0.0034431529652979485,0.0027974139036586743,0.0020366900422995214,0.0011898007339798654,0.0002508153231410193,-0.0008138603360718865,-0.002032484212080523,-0.0033603590627991854,-0.00461385324249756,-0.00547051800670552,-0.0055730407748460845,-0.004703479576874983,-0.002932798966170478,-0.000649657631174238,0.0015646142998303613,0.0031619004661382175,0.0038433109883802144,0.0036562148050898265,0.002923901776079996,0.0020485927968016066,0.0012975940274232661,0.0006911135037925714,5.20506719437245e-05,-0.0008147967346948696,-0.0019225087639890759,-0.0030058036011943274,-0.003599899303376163,-0.0032673594584539233,-0.001856060203367863,0.00035681747403599096,0.002725775102170531,0.004486063906868063,0.005074231288300019,0.004366670034187951,0.002722877622275463,0.0008117105598485375,-0.0007000725391214995,-0.0014480132110498661,-0.001506177774571795,-0.0012846170189795515,-0.001245415617264769,-0.0016062096489639212,-0.002212106393995283,-0.002651161994048498,-0.0025317223933473436,-0.0017389595868756522,-0.0005102904111732087,0.0007057846729464753,0.0015052105658468341,0.0017358424913326014,0.0015408941696393415,0.0012324768485066262,0.001086843242649349,0.001183139668560134,0.001366735657968966,0.0013438599739897376,0.0008508188400905719,-0.0001864096958113816,-0.0015758558378708525,-0.0029022604886275514,-0.003674692478166743,-0.003521079128634647,-0.002350890541179187,-0.000418372657896551,0.0017435412562125975,0.0035002084343399302,0.004342790507564724,0.004082207257320229,0.0029279464309268097,0.0014048714483500392,0.00012544248453640657,-0.000492742748912003,-0.0004313117755289481,-8.442352373915873e-05,-5.32822244700126e-05,-0.0008086941206735246,-0.002392587950986713,-0.004329272981800484,-0.0058175032022283095,-0.006118228862477429,-0.004930451842015831,-0.002544541207968232,0.0003071539376527368,0.0028010277213685155,0.0043650726588670185,0.00483969934720954,0.004419854670708911,0.0034715771405889407,0.002352727662271299,0.00131285884771339,0.00047129129002262314,-0.0001598632415404768,-0.0006267879521961097,-0.0009636607137250877,-0.0011238955163640394,-0.0009657960561052276,-0.00033532864724400305,0.0007792889713831554,0.0021242437898882256,0.0032031869414615925,0.003478869895203217,0.0026593875835758413,0.0009001636896702992,-0.0012118984966702142,-0.002902912504432349,-0.003567001047295739,-0.003054359142890878,-0.001749737845229818,-0.0004004470830186676,0.0002296491565653705,-0.0002781587178049947,-0.0017889985987672506,-0.0036606468018529387,-0.005027875428635728,-0.005194198835971329,-0.003946018587212474,-0.001640058980174341,0.0009730463030081917,0.0030939021107045835,0.004211232174030097,0.004267737320437377,0.003593443684253818,0.002671968329249985,0.0018830753552559736,0.001354917882494396,0.0009797129562339809,0.0005529829916800263,-5.8868718588107535e-05,-0.000815494999400979,-0.0015106728876875522,-0.0018772440650730148,-0.0017269564611953276,-0.0010482406448672585,-1.0074202741021995e-05,0.0011255985549559486,0.002126984110299461,0.0028768528745593096,0.003373838177452587,0.0036630105372350984,0.003751599970167033,0.003568137305803059,0.002988552023152994,0.0019088045820923746,0.00031927154353811153,-0.0016572167361776026,-0.0037744251893647987,-0.005704902200294655,-0.007097473380874083,-0.007645414128568015,-0.007167983251485308,-0.005692204566982963,-0.00349437481842185,-0.001054542177588192,0.0010870918784556677,0.002521547919904193,0.003117240892145153,0.0030407808721696432,0.00263871146100744,0.00224518189921231,0.002020458512857374,0.0019025711175657042,0.0016871148869505729,0.001181112841645033,0.00034331564223476696,-0.000662585516097865,-0.0015268096520816169,-0.0019324149123236838,-0.001703457491272484,-0.0008887143420751228,0.00025822843506638526,0.001388772948381917,0.0022032479307972507,0.002563173796382849,0.002527493295544295,0.002303992693739565,0.0021385708927079993,0.002185001807728965,0.0024074685740561818,0.002565564609154967,0.0023079972076377945,0.0013529704183992608,-0.0003234434270135995,-0.0023980801542007137,-0.004284768218627226,-0.00537459343592851,-0.005316847083536098,-0.0041887796838282355,-0.0024598114363397843,-0.0007719432587262706,0.0003436340960418394,0.0006718296427064362,0.00035539213853420467,-0.00022272872856257914,-0.0006424952591448302,-0.0006390988299473949,-0.00020830861728990657,0.0004100176975534442,0.000859834502179282,0.0008555748053877491,0.000343829221305666,-0.0004451316962445404,-0.0010960156199747114,-0.001216818955926202,-0.0006466061273729921,0.00045497578597614966,0.0016873819897700142,0.0026095978059605574,0.0029464118137127377,0.0026921046968330182,0.0020707307569753463,0.001392647740532779,0.000893082642641123,0.0006324827923778786,0.0004951475975732137,0.0002727707563493372,-0.00021292241383549944,-0.0010029637893671209,-0.0019546832410668622,-0.00277991136372338,-0.0031596940146863435,-0.0028902151684701174,-0.0019897391571250945,-0.0007057581661277635,0.0005892984001884188,0.001561704069593075,0.0020519876809575806,0.0021141862051446752,0.001950199573178719,0.0017876453885030611,0.0017679571728412167,0.0018889736074774693,0.0020104337078055918,0.0019098795344219387,0.0013734794380346632,0.0003019287526310532,-0.0012062684713478825,-0.002845944492553528,-0.0042015622419849,-0.004918097282944064,-0.00485564614019784,-0.0041336952204595444,-0.0030393608329559,-0.0018648686791923347,-0.0007812269825394425,0.0001829245998347835,0.001069842730968281,0.0018989524741416658,0.002616345288672255,0.003104032928345748,0.0032236632719496467,0.0028662453059467036,0.002000632085659795,0.0007226293797825524,-0.0007114787261102664,-0.0019059932348933978,-0.0024323489789830816,-0.002002645541575117,-0.0006316931482745532,0.0013115159855697743,0.0032163337668097737,0.004470283074043851,0.004711777472079438,0.00396680992554274,0.0026001315108039966,0.0011112812955542909,-0.00011060454480566395,-0.0009404948648877307,-0.001505145749917816,-0.0020304768869804984,-0.002654329921346315,-0.003321785321440793,-0.0038206073389572175,-0.003924314498248352,-0.003545019874406959,-0.0027951963482665525,-0.0019175087411278091,-0.0011284511591358325,-0.0004812172674492454,0.0001539233008431911,0.0009679386617601314,0.0020239151999543476,0.0031302287773336424,0.003876468367827745,0.0038307464663240916,0.0027884802751212373,0.0009229846463479798,-0.0012538748967944483,-0.0030985976107890424,-0.004096355991937969,-0.0040447656827749656,-0.0030867099812839187,-0.0015998566921655356,-1.4105006174209081e-05,0.0013503570954069737,0.00235539022665504,0.0030134831266258395,0.0033956491045005087,0.0035486415447209445,0.0034721180835354548,0.0031553679858574444,0.0026276963296228365,0.001969484304305398,0.0012667027034695903,0.0005430071573841864,-0.0002687151574454522,-0.001273188365542118,-0.002494435750641178,-0.003768294101047815,-0.004736709590103663,-0.004983294274188523,-0.004255469243012443,-0.0026442325254551146,-0.000598426947459814,0.001255647461110314,0.0023956676063744873,0.0026264802599999847,0.0021233217387289236,0.0012858419959504853,0.0005033619592842059,-2.9496243945158944e-05,-0.00035423552251116286,-0.0006469031974623788,-0.0010529527861324142,-0.0015631931414193914,-0.002000440130080775,-0.002116855995849317,-0.001738341075379463,-0.00086954251170442,0.00029831007100573426,0.0014746483877066789,0.0023969846414897706,0.002928419684047009,0.003081081845492082,0.0029666519823933987,0.0027113481648911217,0.0023829254483195687,0.001962527471637115,0.0013684907786814054,0.0005176003993067754,-0.0006018768623929413,-0.0018750965202803417,-0.0030532955956136896,-0.0038146412751860533,-0.0038862469015436742,-0.003179977788389512,-0.0018677460080287565,-0.00033843509032704727,0.0009590027998197523,0.001710121535632312,0.0018613608175636082,0.0016086400673651362,0.001258429031370477,0.0010437132754470772,0.0009982316008861007,0.0009537539351517233,0.0006549785510485706,-7.342022279632071e-05,-0.0011948697162275747,-0.002431679566108548,-0.003358557192019037,-0.0035823854724579217,-0.0029270545665108696,-0.001531066428837733,0.00019831501564535905,0.0017580953979129221,0.0027628635060277613,0.0030876296376551125,0.0028706695529670105,0.0023882834891798353,0.0018831883867468785,0.0014446422326235661,0.0009973801717103506,0.0003901586271643201,-0.0004754343203943248,-0.0015468911613370794,-0.0026020771256930696,-0.0033200268359724096,-0.0034121495196609993,-0.0027560626424202243,-0.001467805580785513,0.00012770911053016363,0.0016199492476735233,0.002673682777199807,0.003151563466910494,0.003141595010617072,0.0028787988574534096,0.002599143156239011,0.002394890892504592,0.002144002041763324,0.001559543611081125,0.0003524258671157498,-0.0015612347290211897,-0.003917126497219297,-0.006119764234688931,-0.007441347193919677,-0.0073241306972749685,-0.0056411102496221775,-0.0027810296096844826,0.0004899811235694338,0.0033255639697941375,0.0051143719340177194,0.005670629864907171,0.005225541755372348,0.004244657918945728,0.003175677673855065,0.0022532058198826304,0.0014466364570405873,0.0005602805845815123,-0.000579713500382409,-0.001956244545074435,-0.003303224522032498,-0.004195865655093591,-0.004250111073279515,-0.0033308977469978423,-0.0016562135879831315,0.00026773833425922317,0.0018562019347771529,0.002695869461308241,0.0027074035617100675,0.002141425674189774,0.0014195529767202135,0.0009104862630561763,0.0007557141010603113,0.0008242224890096735,0.0008072361374664965,0.0003995997842242056,-0.0005198445067722398,-0.0017929393222351354,-0.00302005836488429,-0.0037225325871498667,-0.0035613575731294057,-0.0025073952809023196,-0.000871662452944064,0.0008276111197634435,0.0020951297702913796,0.002665420040784216,0.0025826427520786307,0.00212442545942756,0.001624875523624589,0.0012972314851802957,0.0011444353815192947,0.0009911173011170182,0.0006074363923690169,-0.0001440746004376073,-0.0012099202043076255,-0.002339012207520904,-0.003170501926287314,-0.003379318797692066,-0.002817459355969416,-0.001587511094971017,-1.1611146318444632e-05,0.001493140461154062,0.002574892048233327,0.0030660829637618133,0.003007219819610943,0.0025737739409364435,0.0019560846126101157,0.001262850731284708,0.0004985444334345288,-0.00038182969004686305,-0.0013823567475249776,-0.0023998482119143476,-0.0032235670108410486,-0.003603282585646026,-0.003350905422576796,-0.00242689074817036,-0.0009751585890031972,0.0007026111861202185,0.00221929056190331,0.0031999374061049248,0.003387474740832763,0.0027376436393915446,0.0014692968606883966,2.4513804305957e-05,-0.0010840696975224365,-0.0014959382503137205,-0.0011842536848047428,-0.0004777045958765881,0.00011432129392820504,0.0001853825015561691,-0.00034095267417521343,-0.0011756972234744536,-0.00183677314401344,-0.0019194053324837592,-0.0013043033056016674,-0.00019408856532652802,0.0010209194345214652,0.0019707433034064628,0.0024655078460498582,0.0025328907697496177,0.0023387922301792556,0.002056698600559254,0.0017638161046718897,0.0014125101667880754,0.0008800514172306721,6.428859019934688e-05,-0.0010214305322942606,-0.002197792448331062,-0.0031432289437356258,-0.003497223799348924,-0.003014524505188085,-0.0017082547406900754,9.20847323134437e-05,0.0018162497389101178,0.002852415102235469,0.002795176256828477,0.0016320609741909738,-0.00022612115214514384,-0.002100912492024805,-0.0033302959060429495,-0.003555147769433062,-0.0028696501851329477,-0.0017548439518222493,-0.0008209928957010053,-0.0004883448636576618,-0.0007764612083976765,-0.0013159711617532865,-0.0015691187549910948,-0.0011254420638931511,9.533790685286214e-05,0.0018306556761150047,0.0036284456197396833,0.0050536140690739285,0.005831997346865617,0.005885328111337299,0.00528786755287704,0.004202823444306987,0.0028306052395918016,0.001365993956602881,-4.152748694561405e-05,-0.0013072172835359472,-0.002386654055084166,-0.003216643871313693,-0.003674627021436028,-0.0036130440059194153,-0.0029694082391101026,-0.0018783862937459582,-0.0006858836360735818,0.0001791702667268925,0.00041617569590172857,1.6791981551030934e-05,-0.0007285295653590949,-0.0013914638150507993,-0.0016398858853146135,-0.0014139373453096603,-0.0009562299852186606,-0.0006892249218578834,-0.001000934201724596,-0.00203252491011116,-0.0035595920491390443,-0.0050285005276115196,-0.0057527935309721594,-0.005201973161907477,-0.0032549846491785133,-0.00028516021455824445,0.002984098286539083,0.005789869738627752,0.00764316145186796,0.008477082713885887,0.008561665744197212,0.008256771853182313,0.007762454010609758,0.007012412871069575,0.0057598660077677714,0.003791039791751472,0.0011337838836878952,-0.0018623420442929845,-0.004623610065599865,-0.00657720879887801,-0.007383173739425439,-0.007051239757461327,-0.005890914558393678,-0.004340529000923361,-0.00278243492668604,-0.0014401883442993263,-0.0003855635100466963,0.0003876286593323911,0.0008914259790721473,0.001114917186340254,0.001034818995793016,0.0006375018572818484,-6.584731933789473e-05,-0.001026677933694154,-0.002137868405998349,-0.0032095668587351026,-0.003970582227139267,-0.0041252085240106985,-0.0034644781945321586,-0.0019851917206902526,5.526938432213373e-05,0.0021990692311091363,0.003951672231651354,0.004973696848362234,0.005203138293475908,0.004845995531136342,0.0042441194306167326,0.0036924379125574647,0.003300181395796598,0.0029639989924803885,0.00246135781930432,0.0016109513297450524,0.0004127157176797089,-0.0009108636880453497,-0.002001785706162137,-0.0025439436770347238,-0.002438466915698553,-0.00187536992486003,-0.0012496848994210034,-0.0009578230059007941,-0.0011839207718398015,-0.0017970066692910474,-0.0024182280308481584,-0.002621769338875971,-0.002161277577387006,-0.0011037276287909426,0.00019462181561713835,0.0012516117568406892,0.0016743565752848364,0.0013212305973596744,0.00034443959326703157,-0.0008878142956892446,-0.0019392634680538289,-0.0024578070195641595,-0.0022808302349545295,-0.0014683914636397233,-0.0002636226658308497,0.0010002807339702668,0.002012981824616833,0.0025819597551591427,0.0026791065941621263,0.0024252233387090437,0.002019774276192949,0.0016438811588717975,0.001377517429784582,0.001168713609256885,0.0008707382108737874,0.0003314526758544313,-0.0005067530259473662,-0.0015449500920861224,-0.002536874848989374,-0.003171757981654204,-0.003199325356835017,-0.0025432010038295067,-0.001349606596926519,5.563081364785003e-05,0.0012874698205443105,0.002048269461181069,0.0022354071512613975,0.0019611397334469505,0.0014763817737384133,0.001036077855712734,0.0007726592158954773,0.0006403496032545019,0.0004582432593639814,3.1325273176190885e-05,-0.0007112561665610338,-0.001634229981991986,-0.002422104049615087,-0.0027131806146665906,-0.0022824632229091362,-0.0011781648960919736,0.000269990075471023,0.0015884415764302415,0.002378524368286619,0.0024995616134389225,0.002114341391922587,0.0015716778923314325,0.0011946231691296531,0.00109651718815622,0.0011278339218767025,0.000978237204359328,0.00037003482067377177,-0.0007666357232043136,-0.0022282559932867377,-0.003609070254379752,-0.0044666336486693615,-0.004500613137391417,-0.0036674277004199525,-0.002189376285042455,-0.00046446046499553696,0.001078357825554014,0.002117966945303708,0.0025238633267468335,0.0023617301903239786,0.001833663761365347,0.0011868649839167247,0.0006278778802008317,0.00026723127363803713,0.0001027499999821163,3.91755979990765e-05,-6.129202890110981e-05,-0.00030599256088377773,-0.0006959852317788015,-0.001082794063542543,-0.0011961029497489382,-0.0007550249561492641,0.00037334553900342086,0.002046352613598837,0.003829500662297903,0.005124867687007542,0.005403978464652025,0.004443999218579048,0.0024520344294158237,6.344122211112573e-06,-0.0021726039235950728,-0.003523522036421793,-0.0038763729601466517,-0.003495798122090855,-0.0029046609095802725,-0.002575459232068997,-0.0026620607678322157,-0.0029319324925810245,-0.0029419973863335897,-0.0023483911361784427,-0.0011544084593088251,0.0002590336215078661,0.0013385797461775597,0.0016739026818215937,0.001235976374300997,0.0004001309875426393,-0.0002586283838300588,-0.0002822046975188607,0.00041877023274344773,0.0015157209820644048,0.0024383016831735606,0.002674641339375427,0.002032596866406829,0.0007304657324600087,-0.0007159931713670181,-0.001738752581751214,-0.0019668399398840362,-0.0013641650887281187,-0.00020675422057057588,0.0010678524180721214,0.00205201498824261,0.002510979440996536,0.0024297741594127976,0.0019688597474117452,0.0013661838982858944,0.000829411388807222,0.0004542767255365787,0.0001951294784185481,-9.927300839180277e-05,-0.000594141004976931,-0.0013591140107281228,-0.0022963957395153627,-0.003151217011659506,-0.003608610705728281,-0.003431664161241221,-0.0025709731736121284,-0.0011912023143505893,0.0003917074366955333,0.001822138430681618,0.0028083696426901847,0.0031817316886284773,0.002911040268039989,0.0020932060634829552,0.0009327993502780297,-0.0002986640002103269,-0.0013368583803249007,-0.002016586815448617,-0.002329520445669361,-0.0023968255706887298,-0.0023602141345357287,-0.0022630205135978007,-0.002011463185596053,-0.0014509945554300287,-0.0005049974772844588,0.0007260540660188914,0.0019789968743770953,0.002948823641697894,0.003436756552806654,0.003433332874275524,0.0030928007712299997,0.0026248174150438003,0.002172949927325718,0.0017465589286822841,0.001236183711497235,0.0004989989598730038,-0.0005303448606480405,-0.0017593597912172658,-0.0029327036452461313,-0.0037157149727494888,-0.0038365741724233856,-0.003221248929539216,-0.0020484933757056608,-0.0006860240541566258,0.0004679694117960218,0.0011571078826646231,0.0013603331171935316,0.001258965679237316,0.0011034918777501773,0.0010616286001165895,0.0011327414817891544,0.0011677132749348478,0.0009711947781927116,0.00042355859938996375,-0.0004396240509465522,-0.0014227930680050353,-0.0022365955061130053,-0.002606012967643411,-0.0023795893959295982,-0.0015979201587600438,-0.0004896961528136203,0.0006118336824922874,0.001403162129522338,0.0017358464358367773,0.0016695632196573331,0.001422656968363598,0.001244026673414891,0.0012736108617454219,0.0014652540375612523,0.0016116967840075136,0.0014573127689315223,0.000840743117404267,-0.00020211507194243774,-0.0014234827854626483,-0.0024468959969187395,-0.0029164366608170266,-0.0026501841319354507,-0.0017286654318956222,-0.0004720514511825304,0.0006908483524417304,0.0014043628853885166,0.0015320877856690091,0.0011969565004885145,0.0006986734171728472,0.00035316603251097354,0.0003344032850204163,0.0005935788042928005,0.0008912415246307114,0.000925141037685373,0.0004930602445206442,-0.0003870936268923716,-0.001460654907859276,-0.0023374117269585734,-0.0026671923762976116,-0.0023045371387490654,-0.0013774379034249867,-0.0002236843680620893,0.0007698432134647069,0.0013385010173287745,0.001435996221865605,0.0012167446366619962,0.0009265133219442602,0.0007634617652286616,0.0007774114610040403,0.0008521349182902948,0.0007769780914584799,0.00037367527602251264,-0.00038430685730168337,-0.0013246271969474218,-0.0021338444246986198,-0.0024971216346445094,-0.0022471792115675475,-0.0014390734423707467,-0.00030807050281747464,0.0008612268763206633,0.0018707996155006344,0.0026659538947074917,0.0032855310307280407,0.003752478900811844,0.003990412264129286,0.003829236957122596,0.003097806088330802,0.0017411309129726498,-0.000114683170627482,-0.002187475725736334,-0.004130317442880269,-0.005628358812912019,-0.006453774415219614,-0.006477578652102561,-0.00567178296514431,-0.004127918507204059,-0.0020794338195017684,0.00011358461713504024,0.002046446159167908,0.0033987076625891267,0.0040436024331636,0.004070059001567702,0.0037000604302640243,0.003151655527408671,0.0025319499062552296,0.001821557382805134,0.0009516493538309133,-8.168318322729069e-05,-0.0011415977981984282,-0.0019663589643553955,-0.002277901359368042,-0.0019287216900111055,-0.0010038521175326134,0.00018784977489044513,0.001240134447718537,0.0018326537478312581,0.0018738241616666174,0.0015241842324228419,0.0010854230385855853,0.0008153247890181532,0.0007723929511203303,0.000780006134523719,0.000534656178574724,-0.00019844565479543586,-0.0014112191067638994,-0.002802024607968772,-0.0038865020362345683,-0.0042199870210763895,-0.0036171446805174927,-0.0022510021337874323,-0.0005764442024073072,0.0008804625244638978,0.0017522292146875168,0.0019585247970587663,0.0016798439684483648,0.0012151457137676317,0.0008188913203813462,0.0006021514556542696,0.000525232661008315,0.00045494797409138555,0.00024210376531991142,-0.00021044457674493922,-0.0008994155128298203,-0.0016980783722397752,-0.0023702521943978353,-0.0026320371651591032,-0.002253834167373829,-0.0011680096115473525,0.00046814365841599715,0.0022933446383047334,0.0038514716841004837,0.004752770183668118,0.004823601342890295,0.00417745797005912,0.0031642242041102385,0.00220556139185971,0.0015860478219583002,0.001307845166924898,0.001096670136360048,0.0005669070976061211,-0.000541846524766848,-0.0021916826282823982,-0.00403495731881964,-0.005565019785865656,-0.006336887279083163,-0.006138268326728248,-0.005039323311113804,-0.003329464216095238,-0.0014024898454408714,0.0003504856619945958,0.001617837147422024,0.0022211949150566946,0.002152025046035714,0.001577147782081188,0.000791241298997835,0.00011391663997297491,-0.00023462175190798815,-0.00021891654519251403,1.8286133686808105e-05,0.0002612582286973836,0.0003696490038223887,0.0003774364901400779,0.0004721177921183351,0.0008597783820315933,0.0016016333514455527,0.0025324110384280733,0.0033200098092720414,0.003634247234439457,0.003323179271902392,0.002492705847528972,0.0014461681602669031,0.0005227019860251429,-7.360788290646544e-05,-0.00036293728950354833,-0.0005544489702680146,-0.0009094072946724985,-0.001576722517465749,-0.002488690784452719,-0.0033743650347470367,-0.00388672151528269,-0.0037777816842133405,-0.003027688915472592,-0.0018583845523398768,-0.0006280817548269502,0.00033018196166918415,0.0008363074004800917,0.000897295576115586,0.0006505292145250939,0.0002703848066150669,-0.00010018295015826119,-0.00036683163238618527,-0.0004689379426528594,-0.0003698557721572924,-6.972732925306633e-05,0.0003755849746939568,0.0008590097584387942,0.0012600782819802679,0.001494514408739656,0.0015427395788267613,0.00144248054323628,0.0012578792620257526,0.0010491224191867816,0.0008583231208295574,0.0007122300723310451,0.0006318259954606222,0.0006358034949237052,0.0007292356819449392,0.0008799569845719245,0.000998279608129292,0.0009416161809084143,0.0005577961123348933,-0.00023944868014593481,-0.0013933594070307254,-0.002670291007336608,-0.003705827458802773,-0.004132414445420756,-0.0037407915570494533,-0.002593873857943033,-0.0010229828414765035,0.0005045703813512957,0.001584135464906661,0.0020369060946730834,0.0019564373305906834,0.0016222357603173242,0.001332908687319673,0.0012476618826933595,0.00131478290184633,0.0013183289645223308,0.0010142795677651577,0.0002839273892536891,-0.0007745001966021851,-0.001863173678374629,-0.002604225838978337,-0.0027048428001193807,-0.0020886571104958094,-0.0009304410682459952,0.00042067046777070633,0.0015881873819278249,0.002311393923189358,0.0025192892578700075,0.0023128740066817154,0.0018817750619648877,0.0014069020985900123,0.0009940326636777826,0.0006556918623460988,0.0003321112674078611,-6.81097944128182e-05,-0.0006214203676932033,-0.0013429630473813649,-0.0021495988357623347,-0.0028527809020317796,-0.0032039899323248297,-0.0029933708331158974,-0.002163035321383568,-0.0008705345752014332,0.0005465767330718306,0.0016999780806995594,0.0023109639475847915,0.0023184630752738277,0.0018805546382036184,0.001274455015523737,0.0007521143616481375,0.0004257078446380284,0.00023503058615425825,4.792730181720119e-06,-0.0004409494406335897,-0.0011612864394869688,-0.002031190183722732,-0.0027590072242358295,-0.0029902888698631145,-0.0024599551949659754,-0.0011259340250596261,0.0007803643868656054,0.00281374287953069,0.004459879470529764,0.005303962569823559,0.005159058743396318,0.0041116773452303315,0.0024719727801993333,0.0006466331622613523,-0.0010165836215914928,-0.0023424203448789197,-0.003339929166037589,-0.004104805625762155,-0.0046739694132545495,-0.004932432610185698,-0.004645632869454912,-0.003609448394143086,-0.001827831165219584,0.0003979730122447031,0.002535074156681457,0.0040145206830134545,0.004458695401509862,0.003830002110091728,0.0024384134011744014,0.0008177882598214806,-0.0004664912466756431,-0.0010053090656908402,-0.0006764328751186204,0.000310038395046204,0.0014660052231472791,0.0021818719299777044,0.0019583004549779907,0.0006404690503575417,-0.0014524303056116347,-0.003595472886325605,-0.004936695193382374,-0.004879895478327163,-0.0033796220357282455,-0.0009774293655095254,0.0014546393799264297,0.0031256121693772005,0.0036654103991414504,0.0032204111822296834,0.0022861607628238538,0.0014044926018469874,0.0009025602511193425,0.0007939400479896261,0.0008524469464526867,0.0007808174571890735,0.0003717779884389302,-0.00040666342086760637,-0.0014137777327488023,-0.002398928891717734,-0.003088307009810825,-0.0032697107571643376,-0.002858975182841399,-0.001932137165108739,-0.0007080914934841175,0.0005203637067923211,0.001484983645801537,0.0020290157049137857,0.002144093182521237,0.0019436722045550945,0.0015924307702222915,0.0012308264909076765,0.000928587502908832,0.0006771485775524191,0.0004102206880132721,3.900002913191506e-05,-0.0005029493075880588,-0.0012098742118240385,-0.0019680795303703234,-0.002564614956705469,-0.002757190003757371,-0.0023838875362425654,-0.0014561452127702368,-0.0001781848663565573,0.0011239200970715427,0.0021279815752766823,0.0026333636134952317,0.0026202869663116118,0.0022362072136257686,0.0017253239206327195,0.0013291119108552428,0.0011861443891797148,0.0012612076514920785,0.0013370243504812061,0.0010930329939366507,0.0002626402721458413,-0.0011895630774944588,-0.002966339094544522,-0.004496368915444814,-0.005162835046861048,-0.004605309149274537,-0.002928678986420192,-0.0006836214881444386,0.0013875664451753439,0.0026997079193847207,0.0030689269104321884,0.0027238259779688015,0.002103140207305218,0.0015818637153987066,0.001290031992367654,0.0011095984295954812,0.000817677347475836,0.00026481174001240974,-0.0005241853197516656,-0.0013738224927865948,-0.0020697355818789223,-0.0024736116026742284,-0.0025671634752733054,-0.0024091956029796643,-0.00205367826383811,-0.0015016709539384004,-0.0007271073646552518,0.0002493772454346152,0.0013085854815836461,0.002255784998470821,0.0029071812609537725,0.0031740635925765377,0.003082049161400673,0.002718487703966426,0.002159380457720585,0.0014396034989213396,0.0005891668492277479,-0.00030102598475532276,-0.001050579334003566,-0.0014419556918044514,-0.001336773135981927,-0.0007836308390028533,-3.783905385865822e-05,0.0005346989688066243,0.000620870981303711,9.941172614323776e-05,-0.0009132973787037589,-0.0021154204414689124,-0.0031259360610430293,-0.0035999897604969654,-0.003333149596729184,-0.00234253816219067,-0.0008949024095803151,0.0005577710708388347,0.0015410015792159054,0.0017599997623359907,0.0012385703682663302,0.00031225683072494143,-0.0005292531994431702,-0.0008708116383965086,-0.0005538870101922319,0.00027590097578872796,0.0012676146264693504,0.0020466827341538317,0.0023828305581339326,0.0022681343970497943,0.0018827327722609783,0.001479530103393421,0.0012493323363820263,0.001228022234961142,0.0012838824151670258,0.0011871972800074357,0.0007289921495273531,-0.00016510043123641995,-0.0013770503729407086,-0.0026207496525818643,-0.0035392679247261884,-0.0038364935257050228,-0.003391597674840115,-0.0023107288805665235,-0.0008929722239250812,0.0004789058704718747,0.0014793654197890788,0.0019523741639103005,0.001946236339637035,0.0016589560381816157,0.0013253253542991328,0.001102776708317011,0.0010085614668208951,0.0009311853669014106,0.0007025164117306732,0.00019264689947636436,-0.0006138328834077444,-0.0015885383196908756,-0.0024868711964132137,-0.0030253660544376695,-0.0029861354995563156,-0.00231124415428939,-0.0011437375387083149,0.00021317177121630312,0.0014092383815532325,0.0021813601156340356,0.002442647872584911,0.002286146773972791,0.0019117180345378524,0.0015221076817133444,0.0012393952238451919,0.0010709471077491577,0.0009257344800412922,0.0006651071985215332,0.0001694613007727673,-0.0005961565944250542,-0.0015376241227818097,-0.0024330308673309077,-0.0029962559065931657,-0.0029913526336261416,-0.002350030067349043,-0.00122738002408823,4.615416394626332e-05,0.0011024356748511317,0.0016941291194885256,0.0017902953780194548,0.0015614673789969963,0.0012692765125369221,0.0011245750857272958,0.0011865452845008736,0.0013455882191859582,0.0013878369426805893,0.0011041885944611082,0.0003948828789217333,-0.0006703574817579837,-0.0018571836661606259,-0.0028355875613878586,-0.003291539097296089,-0.0030429787727388425,-0.00211572458562864,-0.0007462722961344884,0.0006940823018588679,0.0018271390395234832,0.0023987131479380535,0.002361297782748924,0.0018759856231980385,0.001233252499248105,0.0007248112896633518,0.0005190521664936013,0.000592116523380483,0.0007446769832182737,0.0006992285378823382,0.00023829627445059244,-0.0006756995519024,-0.0018546534670917853,-0.0029409928303013077,-0.0035493520817038477,-0.003433410086503881,-0.002597982324657757,-0.0012977008466861762,7.94301982413731e-05,0.001183151163181809,0.0018375993294153597,0.002078135647032617,0.002083120677031276,0.002052003360076916,0.0020996090831654326,0.0022120585794506912,0.002267507532639351,0.0020967718932753242,0.0015567586776321918,0.0005996462930333239,-0.0006770310668992642,-0.002022449032261094,-0.0030903926247929352,-0.0035617835623773094,-0.0032864127848289265,-0.0023675304054416677,-0.001128870902273777,3.190141354181622e-05,0.0008262561050265691,0.001189425011384832,0.001263108091724335,0.001266313176537727,0.0013420254356877627,0.0014748372444577567,0.0015218707508024268,0.0013255375894459264,0.0008295460558818933,0.00012459371875018837,-0.0006007927903911775,-0.0011683879996477503,-0.0015059793029656538,-0.0016686863876687417,-0.0017721638027716636,-0.0018826001869453393,-0.0019410648605579074,-0.001781954100062634,-0.0012427925983807195,-0.00029512724069991276,0.0008954883816866715,0.0020271884858224336,0.0028033218850107367,0.0030689927801531413,0.002862928300182593,0.002364534560943898,0.0017788737332119161,0.0012294476735983497,0.0007130849626844642,0.00013201798839031903,-0.0006197002881442735,-0.001560117976601598,-0.002561551051583197,-0.003365446649692369,-0.0036750670753731996,-0.0032913074385892828,-0.0022249584342112797,-0.0007197253614082303,0.0008356538944368186,0.002063281577967961,0.0027364780283944375,0.002835025802116133,0.0025017557776636458,0.0019415877080288238,0.0013224449290849792,0.0007198735372315621,0.00011770772083730715,-0.000545099190803289,-0.001304096974562204,-0.002106403318391403,-0.0027891837313321942,-0.003122361586695911,-0.002908183382048405,-0.002092760666607191,-0.0008258877872645148,0.0005747450358501979,0.001746750876129206,0.0024330758400973574,0.0025801291820081243,0.0023334410225298776,0.001937261388485177,0.0015967737479003407,0.001380089890689424,0.0012119014167668533,0.0009551427424238587,0.0005231558249107887,-5.319746761168077e-05,-0.0006471630151490117,-0.001127716000475768,-0.0014520954067142127,-0.0016882599125617559,-0.00194587721863056,-0.0022623393485469577,-0.002529111197872173,-0.0025232582819986536,-0.0020378304246810074,-0.0010298278849655254,0.0003171248129403345,0.0016639181712643724,0.002676559250600892,0.0031719765485191728,0.0031624413512080277,0.002788051655063139,0.002200016464960269,0.0014783663097435696,0.0006311764640602678,-0.0003387786200999548,-0.0013582353078208532,-0.0022593369504836864,-0.0028310652615262965,-0.002918175556209473,-0.002505775035681559,-0.00173453434712125,-0.0008356722450256898,-2.624773097721203e-05,0.0005724669506847991,0.0009521374520011106,0.001174728196685518,0.001309907409123326,0.0013936595333247956,0.0014227007872892744,0.0013705392410620783,0.0012024323339705845,0.0008801983925759125,0.0003671825916203305,-0.00035082422892198495,-0.0012274488270761588,-0.002122303343999824,-0.002805913540075226,-0.0030229265516861998,-0.0025981796599849746,-0.0015355058296810601,-5.133954893142274e-05,0.001485993758867253,0.0026908489037400143,0.0033080463026001813,0.003305438589843572,0.002869839183373302,0.0023103159093578376,0.0019133716053514752,0.0018126361003017258,0.0019268190005361197,0.0019912851387629865,0.0016730978006011055,0.000727272843886891,-0.0008685294281931153,-0.0028635767642761515,-0.00480201540651999,-0.00618960225966538,-0.006684512176933542,-0.006217369007387672,-0.004982066246104354,-0.003313729016013671,-0.0015331439535668043,0.00015405938646823698,0.0016613292627507107,0.0029517526763517873,0.003961582761437425,0.0045789108219296696,0.00469364213959574,0.004278932960089308,0.003438508014344132,0.0023783458678475933,0.0013172736801902814,0.0003965882621111722,-0.00035065513188045497,-0.0009550009327327464,-0.0014313272755477465,-0.001730586734621928,-0.00176238604664188,-0.0014715913785105343,-0.0009085044484507143,-0.00023507107912608318,0.0003437512979200261,0.0006800159484803582,0.000749011871986306,0.0006409737381396103,0.000487675976283062,0.00037341741161130637,0.00028560646527508874,0.0001316282783392574,-0.0001933271715767941,-0.000731173204401758,-0.0014205527154648534,-0.002106650967398218,-0.002587791636613015,-0.00267427258065664,-0.002242579187654377,-0.0012795047498200356,8.814927306438841e-05,0.00159161602465617,0.002865793266239044,0.003552008677230907,0.003436238608467434,0.0025635821807601118,0.0012564585646521118,-6.270383337868887e-07,-0.0007721694264880043,-0.0008741212934530165,-0.0004559880650695156,8.485256466394674e-05,0.00030948306310837306,-4.5435940255964804e-05,-0.0009461444746126247,-0.00208496443280394,-0.00302537244876088,-0.003394517077981519,-0.0030343443281384314,-0.002047115336545845,-0.00072429349316745,0.0005943174057995227,0.0016531251171336267,0.002342149069262784,0.0026754795419097832,0.0027252841622734357,0.002564828216746232,0.0022488594822715154,0.0018212471362814941,0.0013213824516903761,0.0007741522406163277,0.0001757985599923323,-0.0004984753921519721,-0.001253204781267047,-0.0020163006223548863,-0.002609331423722697,-0.0027825021021247115,-0.002319674139081595,-0.0011730480652411093,0.0004447242254993199,0.0020779130008928438,0.003174561444479301,0.00331442513322383,0.002415224053238312,0.0008065164116480427,-0.0008881495136296663,-0.0020259555396909944,-0.002249323820640993,-0.0016590371658451414,-0.0007522464821950569,-0.0001490916350131437,-0.0002548153418655101,-0.0010437195499796298,-0.002080908881396796,-0.002762662650673922,-0.0026381061136789815,-0.0016380820382778606,-9.603267462868627e-05,0.0014369157361735778,0.002470991446133263,0.002797620972983994,0.0025423771749696926,0.0020436851362094464,0.001642739527401163,0.0015044284529621664,0.0015552000865854012,0.001552040803637433,0.0012315207958637968,0.0004594841257390239,-0.0006859204082145042,-0.0019286825636182995,-0.0028968436803675484,-0.003269688570182341,-0.0029106717862911686,-0.0019291039687510864,-0.0006399858356693686,0.0005639839880334469,0.001371065900690755,0.001665787472915889,0.0015482885440360383,0.0012539955526475156,0.0010192658617732716,0.0009619168899778635,0.0010324745711676928,0.0010533398475248053,0.000821746318960986,0.00022742320265026162,-0.0006671667905116647,-0.0016218628304588243,-0.002300663370930737,-0.002417003034008852,-0.0018834909580662683,-0.0008887374377997905,0.00015721489993694027,0.000806209497980887,0.0008027641980019711,0.0002342220799327764,-0.0004997086446044058,-0.0008971151839700987,-0.0006291147742744675,0.00028021914602409685,0.0014701715926451527,0.0024337821698489923,0.0027617056282054184,0.00230749960269346,0.0012099516472667453,-0.00020416562115472506,-0.0015621296445998644,-0.0025605003161391364,-0.003020799360440505,-0.002894220264489593,-0.002243156534794462,-0.0012199077859010176,-4.28746176366335e-05,0.001041782628055672,0.0018184380086158393,0.002165946931387953,0.002097451153906604,0.0017496542701783667,0.0013184264830153098,0.0009675403597537167,0.0007556799826891351,0.0006211993423106755,0.0004349866557362314,9.346836863385042e-05,-0.0004019269542879457,-0.0009281849039922351,-0.0013009892035607512,-0.0013785543471335313,-0.0011459163127595952,-0.0007259266739483587,-0.000309042801899095,-4.728875710910017e-05,1.9388909071946096e-05,-3.8728596074303224e-05,-0.00010783136126016953,-0.00011055496820957806,-4.7853539508346e-05,1.4103797968367663e-05,-8.605616227592462e-06,-0.00017032523512746723,-0.0004707180501841504,-0.000852858087870256,-0.0012148419058159855,-0.0014300997327621186,-0.0013801283046136702,-0.0009998737207287936,-0.0003191114704364827,0.0005293057327681152,0.0013523857467995417,0.001976744185661559,0.002321687706380888,0.0024212885515292096,0.002381605748785163,0.002300436283179386,0.0022004870902763533,0.002016502692825953,0.0016403059249252851,0.0009915462889463112,7.179799066517464e-05,-0.0010209923150737497,-0.002112892257176127,-0.0029927781180429346,-0.0034613307830664098,-0.0033906901874320074,-0.002785910392928511,-0.0018181854064199098,-0.0007933166532071876,-4.5736365513904514e-05,0.00020313050733280135,-5.082118637519473e-05,-0.0005898454540436685,-0.001078514522588732,-0.0012233079495908594,-0.0009042114814409767,-0.00021443167242965206,0.0006018125034118775,0.001270347652938774,0.0016026140000729916,0.0015589478697963701,0.0012486633198255175,0.0008816121083067665,0.0006908242912372405,0.0008434407832362944,0.0013631063832011039,0.002097616370000216,0.0027615772459401947,0.00305314356753958,0.0027984059223327058,0.00204725070738103,0.0010577822527265699,0.00016449990508425139,-0.0004023383959453216,-0.0006397978779222177,-0.0007581728662284116,-0.0010332247138867736,-0.001617065195268031,-0.0024329913299421164,-0.003226997288463651,-0.003739344734662895,-0.003869788463094834,-0.0037120674205446615,-0.0034341190194905856,-0.003105199165157624,-0.002617461394812128,-0.0017749486102254393,-0.00048539029828871083,0.001097884337259268,0.0026032431350187114,0.003629729162765303,0.003970551546281136,0.003719922489143021,0.0031942163623238607,0.002722360506029981,0.0024419176767586483,0.0022287415756468225,0.0018011481733438888,0.0009313719036252646,-0.0003670502790873197,-0.0017918619058063124,-0.0028773180516229926,-0.0032232946651698643,-0.002698740242170822,-0.0015057349068608268,-7.351573828341218e-05,0.0011494677812737741,0.0018851240177539873,0.0021006175317657555,0.0019502930977625427,0.001642685819294929,0.0013187530623429043,0.0010002466607311235,0.0006145789904851936,6.279346259542226e-05,-0.0007113334020336349,-0.0016782435965531682,-0.002713825937322697,-0.0036223171542428146,-0.00418470216886297,-0.0042228398884223625,-0.0036623007016559,-0.0025703752412513333,-0.0011484399850177022,0.00032575704292355824,0.0015863218205985248,0.0024612153996617122,0.002913380129076941,0.003027345697722595,0.0029539346710194675,0.002841138565892943,0.0027777307167349227,0.002764156658871918,0.0027137732866764743,0.002482397659761614,0.0019224705074095657,0.0009529898531558769,-0.00037515057356361185,-0.0018504000323323235,-0.003138908901752971,-0.00389589269791216,-0.003913170871888266,-0.0032299774653232354,-0.0021358635229209947,-0.001045716141018056,-0.00030265007607517243,-1.5123651897043207e-05,-2.1943634192776056e-05,-6.665063999097571e-06,0.00030447988418366755,0.0009753803808491015,0.0018177882578645816,0.0024923637592840654,0.0026869983958000727,0.002266460267581695,0.0013152709610488034,6.86052770094616e-05,-0.0012075172341417277,-0.0023077890626237874,-0.003108219217939227,-0.00353146466606525,-0.0035095721578917416,-0.002988632014603358,-0.001977704779441812,-0.0006030467315902366,0.0008818971096904572,0.0021556982102944357,0.0029416158302629195,0.0031256059489070294,0.002822173815758616,0.0023462234851101445,0.0020842350576153173,0.0023039283506946524,0.002983303330116557,0.003754499866781679,0.004023480200733275,0.003243457408186725,0.0012242449204947678,-0.0016892073071763662,-0.0046915638711274845,-0.00683729109090259,-0.00745380946704305,-0.006432027629028437,-0.0042449110749199145,-0.0016989213194242535,0.00043469177213562114,0.0017157471614685556,0.0021297471527748505,0.001975055759380638,0.0016396041427649375,0.0013968595868521973,0.0013112647392966345,0.0012694793408062441,0.0010922539824064937,0.000658713322482705,-1.305748641816434e-05,-0.0007570893028492958,-0.0013215790985387317,-0.0014767113891674035,-0.0011239537144966524,-0.00035559586766636606,0.0005713281648724006,0.0013434246034560757,0.0017320172301501277,0.0016928796998013302,0.0013685500006174664,0.0009908323293979784,0.0007384496475804081,0.0006306371183943733,0.000517027795921417,0.00017058338561082536,-0.0005659310037281163,-0.0016585728891744425,-0.0028528942904163497,-0.0037585640727948563,-0.004013665386245175,-0.0034523820169719034,-0.0021917125872389556,-0.0005868682349142898,0.0009293056503235405,0.0020417828149707066,0.0026771067965644436,0.0029861444370071276,0.0031995972137881194,0.003447977616805954,0.0036593289600831895,0.003597890480108076,0.003017448965041842,0.0018326064435172573,0.0002044936241969678,-0.0015049007320754534,-0.0028766588098333244,-0.0035963515720844933,-0.0035583403830105214,-0.0028802263706181374,-0.0018381470497201822,-0.0007583913736282446,9.273938134583213e-05,0.0005835864123384144,0.0007324847185187664,0.0006620226661412104,0.0005155344836070447,0.0003761738394331929,0.00022825376165071178,-1.9460141128021602e-05,-0.00046026060956286686,-0.0011054851191200548,-0.0018383612245565788,-0.002436374070464532,-0.002656436841715248,-0.0023424596989262752,-0.0015023899694696311,-0.0003177566261057994,0.0009182152499543254,0.0019066780950160638,0.0024499886212238624,0.002517385866503168,0.0022435254966134245,0.0018592542405469288,0.0015819649991449885,0.0015127482876285993,0.0015882140893114837,0.0016127170564505708,0.0013605427934435261,0.0007040284708728633,-0.00029249816911043906,-0.0013641332022645738,-0.0021395223207063474,-0.0023055642246893457,-0.0017666281091537482,-0.0007120749497339525,0.0004542471965648777,0.0012943543027213204,0.0015335859905154484,0.0011716456503205537,0.000455239046671486,-0.0002608513196825494,-0.0006831876021886599,-0.000697774472543426,-0.0003959574220483153,-1.5318776458936377e-05,0.00016804333358741116,-4.7078177949565116e-05,-0.0007040358057168704,-0.0016601719637921327,-0.002623736227971302,-0.0032489264900510354,-0.0032616323010332456,-0.0025700114167580734,-0.0013102458609217417,0.00019977717275845798,0.0015823330868854266,0.0025405313208053124,0.002952072068400344,0.002879340883187675,0.0025054715657354823,0.002039220764004657,0.00163478266298545,0.0013523665156973971,0.0011604887866121481,0.0009663654250512964,0.0006591207890874129,0.00015512190976298612,-0.0005625864067331034,-0.0014209843690943655,-0.0022625698356362476,-0.0028868498587991233,-0.0031188043707406567,-0.002876159687508488,-0.0022007271100106434,-0.0012355028289377644,-0.00016158211314884605,0.0008659623080695608,0.0017468491989039916,0.0024219083911602886,0.002842273766805365,0.002956676549448957,0.0027325573652492866,0.0021940866117614428,0.0014407611145747798,0.0006209072648260179,-0.00013083415302332532,-0.000750957732850362,-0.0012569079158097516,-0.0017000244706878896,-0.002095370299799882,-0.0023808946791840564,-0.0024385063632148853,-0.0021666277690355197,-0.001558596184009789,-0.0007366398300853096,8.254626026005284e-05,0.0006759375152880203,0.0009125544022709827,0.0008127057333940204,0.0005370007761884071,0.0003084115216813038,0.00030509805843954114,0.000576904618040345,0.0010243078722450534,0.0014442213212341572,0.0016150623754706782,0.0013823034040747065,0.0007161286639605483,-0.0002697621507568808,-0.0013393411442561229,-0.0021947942057741654,-0.0025697401721952633,-0.002330187127576366,-0.0015387830001404221,-0.00044035315164937675,0.0006377727526062217,0.0014261354816693988,0.0018194033040895392,0.0018899479798703375,0.0018062997511402445,0.0017131184667096245,0.0016497125065751653,0.0015511596922758912,0.0013155458701650797,0.0008795754556881214,0.00025184810107640223,-0.0005036642864277991,-0.0013018957746335628,-0.0020527560230259013,-0.0026527582558840764,-0.0029784775615931064,-0.0029121083951085475,-0.0024001426127056857,-0.0015090954936356669,-0.00043111626315124,0.0005794295761702051,0.0013093613483833614,0.0016707888933876905,0.0017183119082481288,0.0015958578264426895,0.0014519346082341386,0.0013726342357815511,0.0013590402984433754,0.001343527359629934,0.0012232870352428364,0.0008954889305210296,0.000292497258592689,-0.0005808807604575981,-0.0016175507842810571,-0.002608123416159492,-0.003289570790749371,-0.0034363390898158545,-0.002956381947537904,-0.0019412504029755059,-0.0006381564851065168,0.0006458911040750913,0.0016594563552761465,0.0022847279278735096,0.002547330977832566,0.0025668171571518804,0.0024831514211094727,0.002394601616597452,0.002324494602782423,0.002216986961964751,0.0019572511742504436,0.0014149556311253077,0.0005075411082287839,-0.0007346843879028342,-0.002134787136649831,-0.003397076589024795,-0.004199646143525827,-0.004317126111146473,-0.0037158883250536833,-0.002572155761050944,-0.0012014742941841633,6.520233302773267e-05,0.0009964998218299891,0.0015145137339001677,0.0016755384499087384,0.0016070590630479628,0.001444764539907687,0.0012951815581943612,0.0012201683608230262,0.0012262207934937849,0.001252977838672239,0.001176113832740855,0.0008464253377403502,0.00016799488188769593,-0.0008159186804419996,-0.0018841991193690704,-0.0026901760161162683,-0.0029004125128322305,-0.002357171052777226,-0.0011746934270941796,0.00029188023187674513,0.0015956333007635488,0.0023879937609313827,0.00255146216290011,0.002213659650484091,0.0016502522382872927,0.0011398761589307936,0.0008458681143367983,0.0007701873167149751,0.0007818471111284821,0.0006924285403090559,0.00034355930347987774,-0.00032244660437249226,-0.0012285133021231673,-0.002176643943534353,-0.0029096234399595064,-0.0032037090366030564,-0.0029584627623095625,-0.0022436269973134847,-0.0012760084916941868,-0.00033016829992431974,0.000378702593048864,0.0007828941128074431,0.0009753099036692904,0.001138803495675214,0.0014275399087432209,0.0018636546845745496,0.0023061076011950616,0.00251057159512456,0.0022505582234365286,0.0014383760592629761,0.00018652526492210058,-0.001218306353700293,-0.0024147182340151876,-0.0030944843170311338,-0.003105241333136257,-0.002489033244808717,-0.0014473514869515647,-0.00025464824889418576,0.0008380906894967424,0.0016693049767059112,0.002183083665505188,0.0024041376512990644,0.0023961300309909206,0.002224813670324525,0.0019343803858882513,0.001537248607345118,0.0010181983555298834,0.0003549720218219499,-0.00044876897394925154,-0.001333077737476993,-0.0021737211786990868,-0.0028079883963230724,-0.0030876219060499486,-0.002935536887735751,-0.0023787409465374277,-0.0015412311893300854,-0.0006009908278047493,0.000267842772457101,0.0009427907377749939,0.0013754791000063354,0.0015871018613687622,0.0016437836897306018,0.0016206600461484064,0.0015645159546505867,0.0014682559732529749,0.0012715504811107651,0.0008934440772845244,0.0002853855337784999,-0.0005214814382737852,-0.001400787417671314,-0.002157603182939378,-0.002587745974702511,-0.002547411286678469,-0.002008505567427021,-0.0010799696455197371,1.5384067043432235e-05,0.0010063664978625863,0.0016646755109045812,0.0018924416782883189,0.0017695073303500512,0.001528789610803243,0.0014509821991751655,0.0017092307947665184,0.002234341493742258,0.002685042589101528,0.00257445137684999,0.0015254279320813396,-0.0004615694996662708,-0.0028882421750935808,-0.004898526992166626,-0.00565597824660749,-0.004779934896139049,-0.0025905739639632375,6.422984299907057e-06,0.0019622622868328034,0.0026183827880383245,0.0020256484821941766,0.0008618393693651054,-2.255716546199489e-06,-2.511482224304049e-05,0.0007102162961738771,0.001597192842203199,0.001919827132192365,0.0013035142587291316,-7.84362056197481e-05,-0.001644603352723962,-0.002763947412070368,-0.003085642540173776,-0.002651346649372538,-0.0017716299357351695,-0.0007964427206499213,5.865051519735455e-05,0.0007467517945378551,0.001310178466050348,0.0017766719033990728,0.002111815394977237,0.002250551408794243,0.0021691948208394643,0.0019318286980623497,0.0016654534283792987,0.0014721137400118998,0.0013377844033856138,0.001110417495509477,0.0005801113564568119,-0.0003744806000089717,-0.0016617056999480922,-0.0029604786753357256,-0.0038383667349376474,-0.00394929185083413,-0.003204309900648699,-0.0018211237276825518,-0.00022694132318950384,0.0011291193513756812,0.0019540181964575565,0.002195361050124414,0.0020079428022278687,0.0016396715790278924,0.0013043253824828642,0.0010975415828132482,0.0009779797192962967,0.0008051179750528176,0.00041303533268395327,-0.0003015725338820572,-0.0013037191373792005,-0.0023918508055152396,-0.003246280140017367,-0.0035502455932861017,-0.003132361072971037,-0.0020545196463454323,-0.000593381933160198,0.000875143983994187,0.002023688871191874,0.0026777813355038068,0.00283703890616064,0.002625109350655715,0.0022117303930029152,0.0017475437172689767,0.0013279693866251993,0.0009807464781771149,0.0006682396718269107,0.0003058143172172004,-0.00019678729057959494,-0.0008757624552552768,-0.0016617028933323332,-0.002373104564078245,-0.0027751329733443565,-0.00268510715198646,-0.0020704467501501556,-0.0010799234865856821,1.610925812951889e-05,0.0009461535391400602,0.0015505473051591885,0.0018248423007986968,0.0018771330399810064,0.0018358574753345553,0.0017687854501963198,0.0016567385354071065,0.0014246765176526791,0.0009991028949338865,0.0003545669241179106,-0.00046946095530631246,-0.0013767430351860003,-0.0022333753643609734,-0.002890336115646957,-0.0032113613102426122,-0.003107091549718884,-0.002566159216076244,-0.0016670043603561398,-0.0005603828057070082,0.0005718470443190856,0.0015634079977018154,0.0022967960165739295,0.0027141465523305335,0.0028096157404015913,0.00261377890700808,0.0021782393821758983,0.0015623133353408038,0.0008216019096784167,2.584719463852997e-06,-0.0008495725303801265,-0.0016696082787991322,-0.002351247224514916,-0.0027497585879801426,-0.002722394144647891,-0.0021967864698710232,-0.001232781783336485,-3.6526223283031e-05,0.001094745179398571,0.001881072568871878,0.0021712315467406723,0.0019998634932923047,0.0015594196789001278,0.0011013025692505937,0.0008166887344943923,0.0007545161298272919,0.0008121258293490384,0.0007980970912267384,0.0005344585819793575,-5.022355111415676e-05,-0.0008785222503127949,-0.0017490189380829793,-0.0024142145693680428,-0.0026755548179074025,-0.002454829874955963,-0.0018138031265586261,-0.00091803225615047,3.384174410774846e-05,0.000879176119459988,0.0015261773161912805,0.0019432731725883572,0.0021198513535972707,0.002033042307464545,0.00164972180175983,0.0009652430978749288,4.900283683527355e-05,-0.0009432677534784754,-0.001808618858977958,-0.0023669943225367923,-0.002518621793431553,-0.002257435854567068,-0.0016466881155098667,-0.0007904957699638772,0.00017360938935397747,0.0010715331572862447,0.0017132820074278099,0.0019560219082570534,0.0017837643760182315,0.0013457718572754788,0.0009081840646374129,0.0007263741500431115,0.0009027123988266819,0.001314382070028622,0.00166150392632987,0.0016163960589294344,0.0009943550249300014,-0.00014579430552188392,-0.0015202658533792263,-0.002739366364065684,-0.0034598808809889244,-0.0034993109488829282,-0.002873661306983854,-0.001763809605668347,-0.00044280976003909135,0.0008018709053776769,0.001732469797733342,0.0022076006750318946,0.0022103159552387145,0.0018491583530139384,0.0013204384812579109,0.0008322103672367174,0.0005148132679247667,0.00036106313856049853,0.00023321618666783707,-5.777770857909378e-05,-0.000635238017273701,-0.0014611332330844717,-0.0023154243344914545,-0.0028696933020924045,-0.002827998292102656,-0.002071651985808452,-0.0007368693823300244,0.0008184831457220749,0.0021505290980019048,0.00290666760731872,0.002960434321219925,0.0024407947435547877,0.0016474604486975946,0.0009006913255108493,0.0004010989182562962,0.0001613105640447764,3.126474637449035e-05,-0.00020301542685073647,-0.000694171579229237,-0.0014365412482113728,-0.002242313236770749,-0.0028085226484306255,-0.0028520201808354267,-0.0022509112520431823,-0.0011187953345580472,0.00023199969126246468,0.001422165120020544,0.0021632655708689534,0.002361665206648504,0.002123990635963425,0.0016750525077197762,0.0012394609503001788,0.0009447867103064723,0.0007824150420833833,0.0006313792663250889,0.00032756616072659577,-0.00024917261263214714,-0.0010996392905064873,-0.0020709808671194926,-0.0028865251856706802,-0.0032421183963512756,-0.0029369447766664837,-0.0019776490230933473,-0.0005965294878469372,0.000834230452646871,0.001952727807724808,0.0025466281035436845,0.0026151260910318415,0.002331371572676193,0.0019334214093828486,0.0016013944692250027,0.0013774428635830063,0.0011601346093250537,0.0007711332141748988,6.339796441994525e-05,-0.0009763335114248286,-0.0021789103343151117,-0.0032282226740859704,-0.0037753603140829807,-0.0035855958431850613,-0.002649610004494603,-0.0012027197608765875,0.0003603442795640417,0.0016366388076240236,0.002363625325574502,0.002500780662488473,0.0022127163524683314,0.0017675586086146845,0.0014021588556450857,0.00121857456460446,0.0011568304969861863,0.0010475958161580109,0.0007096123681222577,4.253084949150897e-05,-0.0009207360366929585,-0.0020131551621325513,-0.0029772492836218165,-0.003539480173479092,-0.003497381753356524,-0.002794349513132401,-0.0015529988800165667,-4.771286809614157e-05,0.0013789507805800974,0.0024256797116425696,0.0029252947851071496,0.002885933623085325,0.002466492972687456,0.0018976700778318557,0.0013808128541188138,0.001006497591975017,0.0007287672014141232,0.0004087975189798616,-9.005133187052017e-05,-0.0008016055642675363,-0.0016047016955555353,-0.00225384789289914,-0.0024856416106700365,-0.0021509895023288264,-0.0013038745229973711,-0.00019573901812862783,0.0008270806923573399,0.0014732552689430876,0.001627611928544262,0.0013820392528647151,0.000962685958599137,0.0005950867197126908,0.00038070391691359006,0.0002501837697272525,1.6415337124618895e-05,-0.0005019428470692139,-0.0013516584802358929,-0.0023790780109801705,-0.00326565545856971,-0.0036547796835802756,-0.003314272483303383,-0.002257069335558555,-0.000756611596836898,0.0007593298323987533,0.0018923449163165326,0.002447681820320706,0.002511790464692604,0.0023908232678388182,0.0024364466509607242,0.0028429319116830866,0.0035175759784370556,0.004095557699569737,0.0041026838882214575,0.0031947927032635625,0.0013576282428694906,-0.0010372198653149014,-0.0033567282383107407,-0.004956571300008408,-0.005437849297875412,-0.0047896059334601795,-0.0033573662986904895,-0.001666131067630007,-0.00019352400767183315,0.0007978848333888321,0.0013021997896324915,0.0014885941768435261,0.00155769439742216,0.0016170428958190855,0.0016344903874274837,0.0014809300134477838,0.0010274638798137903,0.00023977722117864077,-0.0007776342974351953,-0.0018033415402229057,-0.0025712424433149243,-0.002861338894873075,-0.002577094848103822,-0.001784367509888283,-0.0006958924171748127,0.00039971576052289925,0.0012421707874940209,0.001693360912037968,0.001775770517480977,0.0016360924432648456,0.0014543063156371996,0.0013473265672055174,0.0013167277859104111,0.0012633533927972685,0.001054953043315527,0.0006071419267847508,-6.441192144846137e-05,-0.0008428666906275652,-0.0015537410367986789,-0.0020256597084283927,-0.002137712176115713,-0.001837164878510235,-0.0011335966697020067,-9.121685462562036e-05,0.0011626213436029278,0.0024184156067567717,0.003386806843160759,0.0037564879906923335,0.003309408139490317,0.002045259447561838,0.00023874432077141132,-0.001625734165583273,-0.003032745084939983,-0.0036489303037839293,-0.0034606313365268286,-0.0027563735125939585,-0.001954993095450237,-0.0013695420401517962,-0.0010414044608626407,-0.0007444289827941613,-0.00016047760618869344,0.0008752787133709606,0.0022063562070909026,0.0033732702951502,0.0038261580395690556,0.0032269609398630225,0.0016721641552794562,-0.0003054423229068219,-0.001980291116744352,-0.0027997071518913856,-0.002662581609352941,-0.0019423600953344799,-0.0012377368038301072,-0.0010031834561684454,-0.0012842039571489793,-0.0017104555080373995,-0.0017353080805755908,-0.0009656483384710398,0.0006089821587967666,0.0025970564602128847,0.004377410923035821,0.005357586274777906,0.005201259207192283,0.00394921419471015,0.0020065891115037112,2.0207801775255405e-06,-0.0014469550382415132,-0.0019877755172049414,-0.0016949216608532732,-0.0010393986612538058,-0.000648468256838319,-0.0009617722695906723,-0.0019708774960385967,-0.003201192450246845,-0.003963660977863352,-0.0037453170166376736,-0.002518734260549856,-0.0007863623380344616,0.000679220325883825,0.0012628128310688497,0.0008602485284689373,-5.193732610932493e-05,-0.0006823237938671162,-0.00038113789351203685,0.0009713094342381436,0.00286439706940977,0.004401576160090651,0.0047586156419491795,0.0036168612554257798,0.001349962141691026,-0.0011330518700708643,-0.002815268824345629,-0.0030594246312755195,-0.0019081838981114133,-3.9981569632060836e-05,0.0015971220083011864,0.0022743767002402202,0.0018248806622008183,0.0006584531899366019,-0.0005339359324569226,-0.001187292488758612,-0.0011371639116478944,-0.0006291137853477093,-0.0001079788172116472,4.9961168367025025e-05,-0.00029551565520723405,-0.0010392962467515817,-0.0019308873869164317,-0.002692262034231301,-0.003094006865502724,-0.0029891701324147417,-0.002334741908257691,-0.0012145781902255489,0.00015732402874713686,0.0014850441857437709,0.0024919066989932516,0.003029203926120016,0.0031272310003310523,0.0029527760265482704,0.0026965732884530053,0.0024595515934241904,0.0022055082370549656,0.0018031516665164952,0.001125177943637546,0.00014231065218546328,-0.001039113830007842,-0.002208925559938773,-0.0031285055010268686,-0.0036083434503905508,-0.003557673566171455,-0.002999066574846013,-0.0020556407145755754,-0.0009188100454568032,0.00019935795256294199,0.001121046990008319,0.001746828090680424,0.0020688240019028315,0.0021465621825777804,0.0020609855679520053,0.0018738555530511038,0.0016112229807157218,0.001269319967199377,0.000828612684326282,0.00026697986371109644,-0.00042396368139386523,-0.0012131886019078066,-0.0020035871867303827,-0.002629150052228441,-0.0028976055495485934,-0.0026716302534082917,-0.0019473962521198054,-0.0008791964782471382,0.0002732026740796419,0.0012495304251066899,0.0018880609185334355,0.00216627689366104,0.002169664771462609,0.00201811793228767,0.001797541428893643,0.0015300744216232456,0.0011860729737542119,0.0007183651597833845,9.651591321647589e-05,-0.0006696906903498734,-0.0015172513878625353,-0.002326217373205539,-0.0029308747264703023,-0.003154814389294193,-0.0028696620668841838,-0.002058456399729185,-0.0008508845945356569,0.0004971236285343962,0.0016817253827724247,0.002458074940276515,0.002726853532439368,0.0025568348115773895,0.002130933345932488,0.0016446717457529471,0.0012124830990159461,0.000830508445791617,0.0004093668099679942,-0.00014863757714871442,-0.0008722467992005895,-0.0016811863105943286,-0.0023992245361130343,-0.0028147216073249057,-0.0027662169354978096,-0.0022183249741665914,-0.0012905496046115915,-0.00021782571617978762,0.0007440705869191259,0.0014213267158685841,0.0017778264510295205,0.0018952562302941966,0.0018952071402529537,0.0018552897986051345,0.001769907738298796,0.0015715702991178555,0.001187992672181773,0.0005936556717756099,-0.00017044085951987802,-0.0010071200014413293,-0.0017861830284325057,-0.0023685363157209976,-0.002632915624173348,-0.0025096521858735026,-0.002013352419406478,-0.0012525706397753522,-0.000398498340381041,0.0003803423455753091,0.000983134356348048,0.001402227867891025,0.0016939210325185707,0.0019151652814937254,0.0020673204582643424,0.0020803258774397355,0.0018439642139973739,0.0012678242484686997,0.0003414571853720673,-0.0008301971904804532,-0.0020318179510475155,-0.0029879591183090467,-0.003448876682312215,-0.0032836111636679265,-0.002537691261742895,-0.001418253206694713,-0.0002027227705229006,0.0008852385757560326,0.001759811837680878,0.00246200428391334,0.003059808594637879,0.003532114168997421,0.0037292291226359905,0.00345328172759267,0.00261058622399973,0.0013221611250812792,-0.0001048954796454108,-0.0013445247458595173,-0.002244613187448526,-0.0028960753590165783,-0.00350863743800985,-0.004172992961344336,-0.004694075279206703,-0.004648116386111293,-0.0036563152366299667,-0.0016968166856169448,0.0007711701286625402,0.0029801421624068816,0.004235366797120733,0.004277266637173111,0.003407460808640998,0.002302588156774797,0.0016221208425879284,0.0016341042530738333,0.0020733424827248845,0.0023151129326596694,0.0017648454159256953,0.00023529851032845798,-0.0019107471213901,-0.00393137331718596,-0.005080449291148659,-0.004965668292891946,-0.0036999926853918943,-0.0017948560504773895,0.00011108457752283425,0.0015267538855374804,0.0022582951567794926,0.0023956676460286084,0.002185302128392176,0.001877240172295325,0.0016203169565294953,0.0014335605190282487,0.001239016850642059,0.000922197907011361,0.0003917253449697105,-0.0003756288702172644,-0.0013097605560546059,-0.002247774483381289,-0.002967173814114106,-0.0032508127593233777,-0.0029661985568737673,-0.002126937028750516,-0.0009041479262251994,0.00042436693851177483,0.0015685661415443667,0.0023224472549853784,0.0026199602690032656,0.00253085263869092,0.002207547229120277,0.0018143509842515162,0.0014698515654283087,0.001217648011361279,0.0010246732503698527,0.0008010625148195257,0.00043799572889349834,-0.00014070941956805872,-0.0009264628039301463,-0.0017968345422317432,-0.002532827914176714,-0.0028889012984671257,-0.0026949186562673483,-0.0019465779491341817,-0.0008377241859261809,0.0002906155938711837,0.0010726350821793017,0.0012650987891278988,0.0008570160322554568,8.856033120341843e-05,-0.0006405604319706021,-0.0009452479809345316,-0.0006386995152733009,0.00016491755061161999,0.0010902856499456024,0.001674442310166144,0.001590822071387334,0.0008098417660875803,-0.0003840239267260786,-0.0015220326422788406,-0.002158440738267724,-0.0020549649201270334,-0.0012627560051721278,-7.71461802685587e-05,0.001100913241914758,0.0019279098689768993,0.0022365914542993685,0.0020697539247409333,0.0016272175007198287,0.0011578849653153737,0.0008460258615844494,0.0007379399012361135,0.0007356431198979846,0.0006566660293209439,0.000332692690083139,-0.000296922835437358,-0.0011403752657708002,-0.001980526951224205,-0.002562993997649966,-0.002703088273854493,-0.0023596327454757293,-0.0016423048276478082,-0.0007553262410225582,8.850725233649722e-05,0.0007410099793053655,0.0011514515463669443,0.001355552112280843,0.001434762327763508,0.0014655266787388195,0.0014760762449765943,0.0014250507360219753,0.0012132976510524467,0.0007325447520296416,-6.218035250516742e-05,-0.0010898452992978396,-0.0021313362209730204,-0.0028900433326967717,-0.0031073324395611826,-0.0026787764362510937,-0.0017098898750171274,-0.0004795673213186214,0.0006716530206615362,0.001473138743236048,0.0018147260154729122,0.001762118458550968,0.0015015967200267522,0.00124713064520588,0.0011512827598554472,0.0012517385528750566,0.0014667098177318428,0.0016340601582520895,0.001576824612915017,0.0011732429898473938,0.0004105798863334039,-0.0005936287251912534,-0.0016127331995058128,-0.002374723009176734,-0.002654546346043378,-0.0023642472302832195,-0.0016000670073312033,-0.0006147828359093195,0.000283801720144951,0.0008649495776383765,0.0010693363670216723,0.00101103417699425,0.0008831601781259897,0.000822503258374566,0.0008173735798566482,0.0007186098119256038,0.0003487796087753242,-0.00035861008626668356,-0.0012776707172255089,-0.0021186801796014955,-0.002553015354386662,-0.0023662799159002773,-0.0015590591162008768,-0.0003482009343022071,0.0009226956279065327,0.0019119026813205692,0.0023885838581774272,0.00228829268842266,0.001712719980311782,0.0008876947292863094,9.23568164278056e-05,-0.0004305516523980973,-0.0005643815170867932,-0.0003725760903723887,-7.746672393275564e-05,4.797697392211876e-05,-0.00016598159833995066,-0.0006715912797443464,-0.0012076851271178774,-0.0014346840514515185,-0.0011272586945375545,-0.00030858661081654634,0.000755050167396249,0.001692152525919588,0.002209996986957883,0.002219530789475688,0.001841277372588273,0.0013042263330902224,0.0008033188175144341,0.0003935190797716053,-2.676523448392706e-05,-0.0006355165089267437,-0.001549893867170498,-0.0027040070051987017,-0.0038153905363210758,-0.004475843504297481,-0.004335331935734066,-0.0032867897644410643,-0.0015468345393557061,0.00042027465157643907,0.0020985616594078457,0.0031306213964636303,0.003434401323263192,0.003180433902228264,0.002664143465276209,0.0021555735728040408,0.0018013507107422935,0.001607221761762051,0.00148094267146843,0.001294313601479261,0.0009342796924880186,0.0003375302519863484,-0.0004833041656281254,-0.0014209905674171996,-0.0022784192341896857,-0.002816620018801826,-0.002845043122749697,-0.0023181005903321517,-0.0013812373085700525,-0.0003265972919501669,0.0005309353925105595,0.00099416351576883,0.001061350572725565,0.00089692464979783,0.0007147125147926,0.0006449084740710712,0.0006625064549462517,0.0006143423035292736,0.0003223766517927143,-0.0002998641630837949,-0.0011810136576759192,-0.0021053458226812055,-0.002793093406937115,-0.003006848333736571,-0.0026386930394116806,-0.001746543821971378,-0.0005305370962882041,0.0007379968630590065,0.0018076391212141886,0.002525514699894353,0.0028750743948824714,0.002957723742706778,0.002924104457324625,0.0028842677602643886,0.002839735622503352,0.002673768245787759,0.0022094192618316855,0.0013112155364400123,-1.6815500433428306e-05,-0.0015850841797340133,-0.003052053856454671,-0.004032491846274811,-0.004242196190756012,-0.0036191131363275276,-0.0023621744636498562,-0.000861170423904719,0.0004559966864260362,0.0012869014438179958,0.0015497458964513666,0.0013689534606417815,0.0009708573903098801,0.000554722315219378,0.00020892169248501707,-9.224863518744557e-05,-0.00042404813865655635,-0.000825891872236789,-0.001246495536596302,-0.0015496471676520146,-0.0015772258812255904,-0.0012356754224430704,-0.000558021593630482,0.00029558934555217093,0.001102787684746484,0.0016758969055053908,0.001938959823809076,0.0019448748838916626,0.0018265955775979992,0.001711315460568864,0.001643782641986214,0.0015581609359494332,0.0013132778439111283,0.0007754279962828176,-9.138618223780115e-05,-0.001174559501192435,-0.002231426780996334,-0.002973414969625954,-0.0031785817396793614,-0.002781075767832724,-0.0018979429639584342,-0.0007837204087020631,0.0002648409012315857,0.0010124881802830216,0.0013563903832509126,0.0013397537168994477,0.00110810012843906,0.0008305945875796894,0.0006212065577075924,0.0004927200114896951,0.00036218868177347334,0.00010594789158226061,-0.00035745601998652337,-0.0009929450482838655,-0.0016243897030783403,-0.0019866931918044277,-0.001844626218178812,-0.0011242287078270037,1.9604690112595647e-05,0.0012519974407838982,0.002211728029647383,0.002690376460142929,0.0027324266157903523,0.0025897521491698786,0.0025465701239936094,0.002711462531645368,0.002903385656785764,0.002715868351788454,0.001744711631185719,-0.00013828453894023236,-0.002626972305251227,-0.005048696992516958,-0.0066444034019893326,-0.006919813773987901,-0.005876333505946165,-0.0039922763689344085,-0.0019656020603945603,-0.00036603635320573937,0.0006063845837482322,0.0011301833527716037,0.0015590314679814828,0.00215187533850123,0.0029055452132845856,0.0035729967642083352,0.0038257332096381827,0.0034439525792882,0.002430600748832281,0.0010133403979329975,-0.00044004601535156034,-0.0015455994027837984,-0.0020258661333075736,-0.0017991170382851902,-0.0010060394594543238,4.3425639692347634e-05,0.0009905035601541529,0.0015669823581461683,0.0016893315599077934,0.0014623108701213143,0.0010926665913784913,0.0007605581242776865,0.0005182680759038082,0.0002701914887775468,-0.00015663098418496998,-0.0008911874816481097,-0.0019124109541000123,-0.003015280686555119,-0.0038691883197113637,-0.004144199362909318,-0.0036495393250940015,-0.0024231477897562206,-0.000732227352579529,0.001017671271009441,0.002428729523125093,0.003250999443439593,0.003455798383649741,0.0032099686502893216,0.0027651819705466997,0.0023192059537147174,0.0019211054926075752,0.0014688038444614945,0.0007967585330610264,-0.0001972072196864418,-0.0014557773311778123,-0.0027475971588675806,-0.003742481327039623,-0.004141435729893986,-0.0038017932309462165,-0.002800509122649491,-0.0014075678251009957,1.6773395967846277e-05,0.0011538363425073492,0.001831808936217384,0.002065345522276298,0.002019485181647113,0.0019160421791704027,0.0019203568008022303,0.0020545160988852365,0.0021770512573267876,0.002046484759885836,0.0014499608901080451,0.00034102454117650833,-0.0010868578215896384,-0.0024435516739314605,-0.0032963546887442687,-0.003363133747338155,-0.0026433864390593828,-0.0014167799419071796,-0.00011120845221382369,0.0008886859481396591,0.001395360730950026,0.0014638936955459199,0.0013182829123484455,0.001206932764430206,0.001265238336301569,0.001451906597630528,0.0015836872734988224,0.0014438024290404573,0.0009063191961017011,1.552990584354478e-05,-0.0010153360078773797,-0.0018824068880987435,-0.0023091534836078,-0.002153765577344315,-0.0014658514234568967,-0.00047597240155086424,0.00047531155015332244,0.0010471423926480502,0.001016896912456362,0.0003721280673589304,-0.0006615906533974288,-0.0016845353421979035,-0.0022748498608925116,-0.0021767783233280023,-0.0014337484222847526,-0.00038082905343201013,0.0005217037696497871,0.0009334663633007745,0.0008149180921518175,0.00043016954336312565,0.0001692172435824483,0.0003051925761761149,0.0008408492645782376,0.0015320042272653441,0.0020563244240334004,0.0022086344676479795,0.002001727200374954,0.0016240042547179616,0.0012964224450085044,0.0011244805196342442,0.0010328526185746376,0.0008155310216301484,0.00026861541335675767,-0.0006695899833036568,-0.0018478573452160993,-0.002940608925738033,-0.003580465240101168,-0.0035222520259409777,-0.0027588477616834715,-0.0015309317203401258,-0.00022408931330164322,0.0007969570003072616,0.0013358326819565573,0.0014238198833582646,0.001268381193859789,0.0011243737286893703,0.0011561400932305688,0.0013566920935845189,0.00155743085227551,0.001518176518103572,0.0010532751748568697,0.00013702277359245132,-0.0010578034333956058,-0.0022067262536150803,-0.0029494999100427286,-0.0030300392932894635,-0.0024027913250416937,-0.0012583668725165932,4.702953935135693e-05,0.0011316608237579365,0.001737178684994298,0.001818795315357673,0.0015360747378932813,0.001152622688392043,0.0008973085317234117,0.0008548972406633383,0.0009342035138181172,0.0009223516226642325,0.0005970503369265577,-0.0001511567582082457,-0.001236825407174331,-0.0023759546644233284,-0.0031740310888547707,-0.0032821019735075844,-0.002558810713748522,-0.0011589853121296329,0.000507117462071884,0.0019387574904074516,0.002760919013545997,0.0028844725914727387,0.0025255530729112585,0.002070585185805886,0.001855866536165541,0.0019781109496579525,0.0022369572545852257,0.0022404281772664065,0.001618955199923958,0.0002388089620711689,-0.001691752548361683,-0.0036755238534245957,-0.00511420786769534,-0.005546678417413249,-0.004833942683074556,-0.003211791913392579,-0.0011884941242482144,0.0006676607611415327,0.0019542838135381724,0.0025683357890953227,0.002685854990622606,0.002606759609715081,0.0025555524495443353,0.0025503648753392276,0.0024104473074649706,0.0018910170713058315,0.0008624106847934194,-0.0005712962047638616,-0.002081285559566588,-0.0032456865645936733,-0.0037344061726439994,-0.00345306224831749,-0.002575908887837744,-0.001454409477892357,-0.00044946757232151835,0.00022744535559320945,0.0005848414424417679,0.0008021019961343184,0.0010947683313125983,0.0015730814872552566,0.0021702476850078184,0.0026716354013058786,0.002819546179698014,0.002435209055596936,0.0015034653693964369,0.0001929772695852918,-0.0011871218630679296,-0.0022767315938668478,-0.0027753112281302256,-0.0025423482479552248,-0.0016532563537104215,-0.0003836137010883949,0.0008818366264107041,0.0017862251282896747,0.0021291221432682625,0.0019301699103024675,0.001397510611396478,0.0008147062222083981,0.000399899702528751,0.00020543373548849566,0.00010654270351294453,-0.00011603583156257323,-0.0006408124028851275,-0.001485436079818987,-0.002463764978588809,-0.003246065287750512,-0.003498062436111624,-0.0030344190292478524,-0.0019129369135016609,-0.0004232697885311879,0.0010254223911037063,0.002065756727198742,0.0025089338020120094,0.00239723724862168,0.00195271716063335,0.0014508769461108058,0.0010827815751209317,0.0008732295833391839,0.0006934862804620716,0.00035876326722946285,-0.00024229396782623027,-0.0010550874538150703,-0.0018544817015207753,-0.0023351460453483698,-0.0022542871032379575,-0.0015542852826294794,-0.00040053404905904364,0.0008860184421770673,0.001965263434563156,0.0026108334768693005,0.0027734297185336996,0.00255214064026121,0.002103816648216281,0.001549821258650835,0.0009310230048012172,0.00022613565833351978,-0.0005894518417498157,-0.0014855977774054405,-0.002354078956939334,-0.0030307741490270624,-0.0033505205576396403,-0.0032089112456969307,-0.0026054266783539985,-0.0016515751887760338,-0.0005410656804407688,0.0005073648515784774,0.0013136646056838169,0.001783661155189758,0.0019243748058001703,0.001825162803081175,0.0016130428240583288,0.001396404913808427,0.0012161268913976387,0.0010265865805998036,0.0007227124591836063,0.000207766968858323,-0.0005298737849589988,-0.0013743807709048947,-0.0021039058322680593,-0.0024724461607028253,-0.0023161268090185943,-0.001632487009566902,-0.0005917102435672036,0.0005284219285290067,0.0014527534288934765,0.0020100679364347613,0.0021791380922738255,0.0020651775872646133,0.0018267319779999187,0.001590934330729861,0.001393106626200176,0.001163188728903841,0.0007649231334171898,7.644128901227961e-05,-0.0009175976639255496,-0.0020667316561843296,-0.003070178674186438,-0.0035791326729159513,-0.003349378310353776,-0.0023697528044526713,-0.0008943970980466863,0.0006460919897826002,0.0018151204005234733,0.0023403772189824236,0.00220506333283072,0.0016238808337532234,0.0009239530524163572,0.00039167736173308505,0.00015486925370797203,0.00014697141014647155,0.00016174000964059828,-2.9811123549823397e-05,-0.0005517295740840773,-0.0013407618042748882,-0.002149145866768125,-0.002638118516941136,-0.0025263858498680934,-0.001727801961023382,-0.0004110562261915541,0.0010535452203336523,0.002241838805263283,0.0028515004244574972,0.002821748021728253,0.0023379591238713066,0.001718694403381605,0.0012428979002431118,0.0010072294287766595,0.0008892005061080988,0.0006367137620968744,3.628452349895635e-05,-0.00093312456018593,-0.0020493910327620164,-0.0029335127506525563,-0.0032305737492519613,-0.0027893509263123063,-0.001744297265458764,-0.00045645554993276125,0.0006546164033988669,0.0012993316655923615,0.0014309096720761644,0.001230337273131815,0.0009805183029558684,0.0009026177107710103,0.0010409302550160315,0.0012499249874733103,0.0012809336930370383,0.0009184788655519106,9.926914872392594e-05,-0.0010379318621434128,-0.0021897063046647613,-0.0029956269278257116,-0.0031737441674330414,-0.0026308848170820166,-0.0015018140387578816,-9.788158401427407e-05,0.001214159180481668,0.0021476366461292595,0.002583163229349126,0.0025728746633891246,0.002272472226948041,0.0018455601833103985,0.0013890050509847666,0.0009079296827569152,0.0003429515094343506,-0.00036651659402222,-0.00121062626821807,-0.002064244554244093,-0.0027013362511677883,-0.002877816659074648,-0.0024516630104155558,-0.001476040649025364,-0.00020476242014888057,0.001004249823615238,0.0018402847481911598,0.002164595621176026,0.002044366481964509,0.0016863012634983265,0.0013142524285365577,0.001057342813399426,0.0009002685458841227,0.0007123348507350744,0.0003360786581086292,-0.00030797642528610696,-0.0011514600150191148,-0.0019816251136134475,-0.0025241060974093127,-0.0025692992414619534,-0.0020779886396089207,-0.0012073305559450452,-0.00024035147873607837,0.0005431469403736297,0.0009843815445667353,0.0010929445601508597,0.0010077646799806369,0.0009015006698822581,0.0008814771616379325,0.0009347903412561687,0.0009402058402870623,0.000738945942910771,0.00023162196329719803,-0.0005439787925864796,-0.0013956950589492836,-0.0020389407925269576,-0.0022180008113798022,-0.0018293313567383476,-0.0009781327554755294,6.955754529230443e-05,0.0010157143796400603,0.0016645745085709738,0.0019837028375891573,0.002064694692639643,0.0020245352064334064,0.0019218216499793184,0.0017377803070128405,0.0014158598439732786,0.0009148750333288285,0.00023707223613404587,-0.0005719172544751765,-0.0014289772973624646,-0.0022108189335505856,-0.0027556714216087114,-0.002896010852690181,-0.00252919040286205,-0.0016929618142942583,-0.0005894334244917851,0.0004782773117639771,0.0012357839071090396,0.0015613680929472986,0.001527711248811253,0.00133503387089444,0.0011788920129790796,0.0011354779850550982,0.0011305861204075152,0.0010010777518816212,0.0006021516252466964,-0.00010430908887673775,-0.0010212290556709045,-0.0019483809503387582,-0.00264974971283864,-0.002929232012088389,-0.00269605859936679,-0.0020033156807446584,-0.0010402860618655924,-6.82900201741952e-05,0.0006822994401709959,0.0011057309930907059,0.0012524794061134431,0.0012787485421091047,0.0013437568795013773,0.0015153930862699945,0.0017352690542931782,0.0018555327146277108,0.0017218903295430274,0.0012611453933893842,0.0005366808558589748,-0.00025025134337999284,-0.0008194991055572084,-0.0009187576430545859,-0.00044308936634995273,0.000486579394844826,0.0015373409640674128,0.0022851545731370155,0.0023970177806655903,0.001782852529397228,0.000632540571142639,-0.0006824270110926835,-0.0017833820069259728,-0.0024366409930595126,-0.002612508656301748,-0.002447516912884702,-0.002158352539723182,-0.0019580741560100865,-0.0019916275498763586,-0.0022830970483341275,-0.002699321277119583,-0.0029638438378884902,-0.002754576997939017,-0.0018669885854081716,-0.00035821932541467996,0.0014291659396774748,0.0030022441205584324,0.003946464044595259,0.0041162836900532985,0.0036776721206039395,0.0029862879779063525,0.002383889752029336,0.002034272928681399,0.0018806935008251558,0.0017244396857558086,0.0013573383758630202,0.000668713649306174,-0.00031499064090330386,-0.0014501849022890863,-0.0025237942929864335,-0.0033055857585362726,-0.0036021461061012125,-0.0033141689917475115,-0.002483417203721792,-0.0013007541648902366,-5.4783622898473884e-05,0.0009675024700759646,0.001584434126860335,0.0017770338694967026,0.0016730913603221756,0.0014690162457162445,0.0013296839583266551,0.0013129889411485239,0.0013502431437026519,0.0012863261161500609,0.0009580548134831297,0.00027601489788839145,-0.0007227290585522124,-0.0018700249308255938,-0.0029109909446998245,-0.0035815206126809836,-0.003692060062505068,-0.0031883281259348565,-0.0021672636898415767,-0.0008429840782959853,0.0005223609303343008,0.0016935532662340754,0.002514027117465517,0.00292105563323483,0.0029318792605896402,0.002619071439158176,0.0020880081940893714,0.0014559103715411602,0.0008255740858397826,0.00025503915654193456,-0.00026062721226274854,-0.0007744630481020035,-0.0013349794700351905,-0.0019209049191925714,-0.0024082248384810837,-0.0026032806236161044,-0.002335530705280716,-0.0015611728325831723,-0.0004156257390541504,0.0008203399310867831,0.001827404035466124,0.0023752041438686853,0.0024102326419814667,0.0020652702412988174,0.0015872285916140965,0.0012147850404128457,0.0010599188657644935,0.0010500861827632678,0.000964844270119385,0.0005568665701480359,-0.00029841555863616717,-0.0015020322320028997,-0.002738760001871391,-0.003599098820982445,-0.0037616118596004683,-0.0031449706497990036,-0.0019499920301184104,-0.0005681248953241069,0.0005954843273692921,0.001291522211173702,0.0015053272277046547,0.001416964979569181,0.001278200463294651,0.0012769386228489318,0.0014532474920036314,0.0016958680255094157,0.0018073698828638648,0.0015999474759946703,0.0009808266088352348,4.0649138432439363e-08,-0.0011503897143159954,-0.0021860562131149034,-0.002819012553280402,-0.0028610521615210507,-0.0023006839581852898,-0.0013128580601095118,-0.00018730209448308323,0.0007943750419236225,0.0014692292022194906,0.0018315709433767578,0.001983448153412732,0.002036191380211311,0.0020307030725093844,0.0019253944562723443,0.0016489127459915233,0.0011691020756521156,0.000523967943558961,-0.00020317002497948058,-0.0009351428224647041,-0.001631002106881516,-0.002269725263968685,-0.002805708183758367,-0.0031403933499814622,-0.0031429763764666933,-0.0027148973581493014,-0.001858374631485544,-0.0007038274016023685,0.0005235852751705548,0.0015820650087720683,0.002296978656183487,0.0026122999618269985,0.0025902394384414618,0.0023637556265722745,0.002065970579873985,0.0017685943018893363,0.0014560369429540737,0.0010458102509411649,0.00044601917978059056,-0.00037532639436887256,-0.0013413721423610942,-0.0022646298235024765,-0.0029009679266301116,-0.0030419723818252845,-0.0026057878794507276,-0.0016816252541728073,-0.000502677343826143,0.000641978658517235,0.0015144153619638726,0.002003564416690093,0.0021381517720669473,0.0020384990395668325,0.0018375226221522471,0.0016120855031069913,0.0013556428744594365,0.0009990405935374352,0.00046229317480319396,-0.0002908773092473477,-0.001218775271245251,-0.0021974499657994406,-0.0030452678731311233,-0.00356971097200495,-0.0036250038610665374,-0.0031626766162553602,-0.002254336712798188,-0.0010740250621693315,0.0001545318253556893,0.0012239168173925363,0.0019968294369245476,0.0024325065111654334,0.002584216006383918,0.0025723857301549716,0.002536271540109118,0.0025687029060848963,0.002652485323962869,0.0026355073366520353,0.0022809792043689265,0.0013933902510630627,-3.5441272122851855e-05,-0.001749983388697411,-0.0032899859857732448,-0.004174056012049263,-0.004117134628691535,-0.003163946340395939,-0.0016659478731767834,-0.0001178528946922001,0.0010551832745830853,0.0016513764802739445,0.0017232286453992753,0.0014934323958299405,0.0012175653485718997,0.0010656553713087515,0.0010668073110477498,0.0011212199848618309,0.0010577443946927089,0.0007107278167377781,-3.944852372306934e-06,-0.0010325755490094113,-0.0021715582131327325,-0.0031204823154161055,-0.0035949718708713223,-0.00345279874110609,-0.0027630566731225064,-0.0017701138764647352,-0.0007662262291939738,5.2970961543999854e-05,0.0006636380037413298,0.001180079170515306,0.0017444496403414948,0.0024159017939702717,0.0031228400308600138,0.00369047328214364,0.003910909574019275,0.0036163511594451622,0.0027382423779731984,0.0013516193146576806,-0.00030535449949282306,-0.0018644860725631454,-0.0029330387477171536,-0.0032461004138335074,-0.0027897597968157915,-0.0018139307603218951,-0.0007131473729380119,0.0001609650218662537,0.0006466617227760495,0.0007995011832675168,0.0008010102766049455,0.0008190607158420109,0.000905433369691701,0.0009776410044874046,0.0008772512801498698,0.00046301777980686944,-0.00030550883447282126,-0.0013238392036415475,-0.002352911602599748,-0.00308608859543836,-0.0032573283940483064,-0.0027527457309493735,-0.0016741653113738896,-0.0003152023343069586,0.0009498550894691104,0.0018165156216613952,0.0021668231475473324,0.002094481122371091,0.0018288328931295172,0.001601695552338714,0.001528614693206125,0.0015629677470285596,0.0015383300248151552,0.001269073655175044,0.0006554028332252635,-0.0002558664790097266,-0.0012780806581377132,-0.002151509981129528,-0.0026389372521424415,-0.002610045677635754,-0.0020824238823596505,-0.0012075297046391376,-0.0002130653899798491,0.0006725199152116913,0.0012868371371154781,0.0015727328359775904,0.0015799710815375802,0.0014291704970635227,0.0012503911873485106,0.0011211535209014495,0.0010312179352734948,0.0008895951916787333,0.00057071407686284,-1.7131223245467017e-05,-0.0008647554395342619,-0.0018247365755240511,-0.002631710905797555,-0.0029908427458975105,-0.002707221208804994,-0.0017925374686280423,-0.0004836504405764814,0.000847730550488211,0.0018503857570272625,0.0023309670042560193,0.0023046925440461993,0.0019461462808937947,0.0014823067753213424,0.0010888617182697488,0.0008307912916836805,0.0006561511027619085,0.00043379913191192616,2.236864328070045e-05,-0.0006473189394267477,-0.0015080077204359568,-0.002349236079010242,-0.0028888624495798515,-0.002899880722082877,-0.002328345024015744,-0.001333219822843457,-0.0002198225256619843,0.0006993106990063773,0.0012400002529493546,0.0014069376973425386,0.0013535959152412413,0.001272093032150453,0.0012769903289849666,0.0013433731321703544,0.001326753300885571,0.0010508513548238847,0.00041908910261859205,-0.0005030896399882535,-0.001475769433797399,-0.0021558482889669902,-0.002231613531091799,-0.0015679371098591267,-0.0002941134437798679,0.0012175111279661517,0.0024861541211768138,0.0031165108939017203,0.002962406981524175,0.002179640721447485,0.0011393462374043515,0.00024325288227809917,-0.00026595707764217973,-0.0004026234609559944,-0.0003976484414050961,-0.0005481800354805644,-0.0010428946322552605,-0.0018551325222749763,-0.002753198005216732,-0.0034132844222728737,-0.003571494147815358,-0.0031387848832504397,-0.002227161089829624,-0.0010826749472470389,3.197604149240377e-05,0.0009397855423158508,0.0015869287830501825,0.0020098791777370824,0.002268896550631803,0.002396417932373149,0.0023865708005600533,0.002217659929980919,0.001880117792893596,0.0013886160715503922,0.0007778290722108516,9.635251701132705e-05,-0.0005897568677392148,-0.0011884793949657585,-0.001585605853165914,-0.0016737210689223105,-0.0013997258378383426,-0.0008048140307262306,-2.837097989416234e-05,0.0007343535794418874,0.001303905761380607,0.0015826645219925522,0.0015814074368349182,0.0013918169200938593,0.0011185580377356653,0.0008079380754540169,0.00041538793615007247,-0.00016407278712389227,-0.0010122174885215506,-0.002093751414194736,-0.0032088721557361004,-0.0040321519333886115,-0.004234170447796197,-0.003633236026734608,-0.0022992998315692786,-0.0005501614926494572,0.0011652531591130164,0.0024415723601804973,0.0030648142753149725,0.003065886857205758,0.0026644995484005007,0.0021435401607481685,0.0017215931447960668,0.0014799309114635003,0.0013627470092643936,0.001231534695512933,0.000937569921798601,0.00038384535188673726,-0.0004347102987990953,-0.0014142777479111658,-0.002353232783531982,-0.0030001734993078816,-0.003137660845028609,-0.002675722731888908,-0.0017083298451927229,-0.0004917185240090965,0.0006583162259005569,0.0015022995235680144,0.001970479889331055,0.002157897426042654,0.0022245312451843347,0.0022643840923084186,0.0022278061454566412,0.0019480127666578553,0.0012580163973865794,0.00012886789610441676,-0.001254470268444947,-0.002531532575469329,-0.0033107317606472743,-0.0033522117559442403,-0.0026930194536646038,-0.0016392975516067339,-0.0006174495421247626,4.190790264962593e-05,0.000266421731344748,0.0002543194338407045,0.000327649125732857,0.0007153827153511053,0.0013988609086225115,0.0021115644614233516,0.002488030427169624,0.0022678648013427323,0.0014358493190039564,0.00022706918929307762,-0.0009909708933946567,-0.0018826239741984814,-0.002266317664168711,-0.0021452813056572996,-0.0016552647387320573,-0.0009769239265644512,-0.00026338579924041353,0.00039060199770679047,0.0009406295060735937,0.0013663172948700044,0.0016496273862730711,0.0017703259765307275,0.0017153885240462968,0.0014881629759185208,0.0011055122052565664,0.0005860055591808836,-5.3736559782083075e-05,-0.0007801288525151879,-0.0015086853377759015,-0.002086606397906047,-0.002324672524726922,-0.002080288332361362,-0.0013497841854764447,-0.00030771925376759735,0.0007442955203001555,0.0015011337811000683,0.0017850891977283778,0.0016131427350708214,0.0011657784233609061,0.0006769818588671904,0.0003069315589617691,6.718252092579181e-05,-0.0001611294555567142,-0.0005277629320086137,-0.0010915923055633207,-0.0017507929321461755,-0.0022713138230251624,-0.0024027294991934194,-0.0020165148853810108,-0.0011848205494983817,-0.00015156726430511113,0.0007872542964735836,0.0014232532788295512,0.0017166887872451402,0.0017802801815340896,0.001784968994562872,0.0018465465574668736,0.0019552606046633475,0.001981797329315765,0.001751433903898781,0.001145315555243426,0.0001783481244440068,-0.0009815959236667618,-0.00206007932582778,-0.00276857886067946,-0.0029077011354238505,-0.002442140595729121,-0.001517025836048218,-0.0004063474747078931,0.0005875995074512327,0.0012420722671875964,0.0014830226120222288,0.0013870597174732472,0.0011187627571830096,0.0008356658675097107,0.0006082881710570743,0.0003956632575871222,8.985880302364829e-05,-0.0003930186024937632,-0.0010261115238685543,-0.001644230608399791,-0.002002405032882391,-0.0018977427386301,-0.0012880714973632487,-0.00033439151387833785,0.0006648076528223817,0.0014139627938300025,0.0017553681118169639,0.0017218903818082122,0.001482116847024012,0.0012178764072794867,0.0010120388207745248,0.0008133450518641174,0.0004942141242835662,-4.007263458283435e-05,-0.0007613238533877202,-0.0015025607662467251,-0.0020245329101498933,-0.0021258661621860074,-0.0017378778376268005,-0.0009585900838359941,-1.4815422440662962e-05,0.000824981688093964,0.001347459060704344,0.0014641265864082397,0.0012316127438482902,0.0008169880019535615,0.0004198949086468512,0.00017996652019146823,0.00010888042448041821,8.324446291509949e-05,-8.727623857491678e-05,-0.0005389584729111527,-0.0012395468350933842,-0.0019528240451260324,-0.002323831722171957,-0.0020573172262977413,-0.0010950506052357272,0.00031660632853791886,0.0017201881012456565,0.0026575563950037317,0.0028823763525384722,0.002458937191980844,0.0016984637145510727,0.0009751411384166088,0.0005264533297860588,0.0003447902084599136,0.00021318184620832065,-0.00014068040820411256,-0.0008598622835535715,-0.0018453549194392277,-0.0027784046375824746,-0.0032690262827773904,-0.0030529250110490117,-0.002131114143093546,-0.0007770100332795255,0.0005906758004841359,0.0015972380622999566,0.0020619472391528353,0.0020375123015072523,0.0017349458948948784,0.0013897667438331077,0.0011451661615988378,0.001004085337543458,0.0008581606906809398,0.0005656524537114933,3.7382095542655414e-05,-0.0007040798050517564,-0.0015126121267661022,-0.0021598138874634643,-0.0024188082758962726,-0.002161546520626108,-0.0014266615473354594,-0.00041910312069683923,0.0005678791831341091,0.0012754025145875754,0.001584674821010952,0.001550727560371144,0.001348683255506918,0.0011653895507693604,0.0010971405790055346,0.001106544296827486,0.0010554079647200865,0.0007891055149264482,0.00022535944032941926,-0.0005938900471425282,-0.0015047408214057913,-0.002271081562637589,-0.002662632833219976,-0.0025377426768523987,-0.0019039655934274243,-0.0009286413425094791,0.0001159007581939056,0.0009582296680189872,0.0014380223001002005,0.0015631695949486885,0.0014808968905328566,0.0013782256651762087,0.0013689455479432918,0.00143185406935818,0.0014325103462854134,0.0012095934200518769,0.00067149144665647,-0.0001490867315902834,-0.0011019103360642554,-0.001971775114171253,-0.0025470955307882325,-0.0026814212596914322,-0.0023351934304754085,-0.0015886187866988662,-0.000618576244034272,0.0003573407693884949,0.001149943456648562,0.0016512615749134513,0.001849190536718395,0.001803260201162472,0.0016001462837172144,0.0013121896380068282,0.000973180618591408,0.0005748913447950416,8.363166304606393e-05,-0.000525506452547467,-0.001226480372945314,-0.0019137945281647699,-0.002412499935164903,-0.0025356534256359194,-0.0021687703563607378,-0.0013378177452827641,-0.0002195160696533766,0.0009178220667191071,0.0018154471625189954,0.002316044564023908,0.002402232904707092,0.0021705359135203517,0.0017655220348593743,0.0013139801192479821,0.0008873517972717858,0.0004968017093801404,0.00010961198777918782,-0.00032443307696630307,-0.0008414426100558708,-0.0014310514183247106,-0.002015543311647966,-0.002457761638034695,-0.0026056921330348433,-0.0023589167723358207,-0.001722480295036078,-0.0008154348496966148,0.00017303600085382596,0.001055439736369269,0.0017070326234153767,0.0020886935029297486,0.0022292634046690704,0.002185469973866068,0.0020035172628096783,0.0016995940814516558,0.0012641536169744779,0.0006836494371125976,-3.246970487698347e-05,-0.0008316404739471619,-0.0016133117852317744,-0.0022430283090133494,-0.0025842593168187347,-0.002540334489006423,-0.0020916906778590434,-0.0013111666152281932,-0.0003480902967886203,0.0006120358592992788,0.0013934303429934693,0.0018651630683367585,0.0019622846164227855,0.0016979171145816397,0.0011649934028816374,0.0005151869857811229,-9.342524598005453e-05,-0.0005635022132041314,-0.0008991753156625854,-0.0011840957978610572,-0.001500459138696494,-0.0018391623350813187,-0.0020657901980770344,-0.0019742390070208345,-0.0014006190381859731,-0.000327680987962361,0.0010833712130771521,0.002546594561585667,0.003749761552468778,0.004440604146631654,0.004471492346577602,0.0038125665826947673,0.002556779906677597,0.0009203848003345265,-0.0007835471115766097,-0.002219828124108967,-0.0031405454308100727,-0.003474761298085438,-0.0033374774596764555,-0.002941824344076302,-0.0024670211605944464,-0.0019700669041631705,-0.001397451932347805,-0.0006787434834160729,0.00017286640972542138,0.0010262081645083067,0.001685821119759922,0.0019960762881656643,0.0019284045705724954,0.0015972615993840858,0.0011937759207785747,0.000873257562441443,0.000658853923345769,0.0004175759062333309,-6.845061958898934e-05,-0.0009594151709880019,-0.0022104896462518345,-0.0035046229200230263,-0.004326628081166532,-0.004173072485397658,-0.0028110011851276316,-0.00045091068193257205,0.0022755901316229574,0.004547939279859673,0.005697916114285054,0.005492503102500138,0.004214335475333935,0.0024986970285866454,0.0010125132776044464,0.00014264905020006883,-0.00014704328861092023,-0.0002247706088242831,-0.0005287022033389945,-0.0012859196249346487,-0.002367642104135535,-0.003354743923820686,-0.003769450169132873,-0.0033395483807957616,-0.0021491339076989834,-0.0005991977524633816,0.0007907278313052966,0.0016257444479065,