137.14254949059887,151.75719372927838,151.9525450145605,151.21074733966648,162.0481170700069,162.0123276561233,162.3227968959493,165.12598557289044,165.26659384977316,165.29179446241756,166.25456161889844,165.89629222508773,166.2130315210493,164.91133557800225,165.1851280340312,165.51222672741713,163.1114232209738,163.4005954080176,162.67929958250576,161.48053557154276,162.22105348003063,162.02188139880354,161.0731144278607,161.5297359907337,161.96777910210568,161.37620201704323,161.47680111914198,161.21454855327886,161.0577027341027,161.57075788061704,160.95656792163342,159.5911104203901,159.08425050379785,158.92933121881407,158.67480963240695,158.36061904210567,158.90572704329256,159.06242236024843,159.02555551246752,158.49493431950384,158.23922172991718,158.478374836173,158.5518986363812,158.4601165438197,158.18960079993846,158.6045345877998,158.81998063891578,158.73418651407363,158.40576411126972,158.45421570519005,158.4348195329087,158.41673091750192,159.00271107668473,159.54378365722314,158.49301374092946,158.92072295698716,158.7146950629235,159.08621226268286,158.60458541497232,159.17233586596532,158.57490897823223,158.00276635801282,157.95506307273493,158.80288554519785,157.91934803451582,158.2497213360495,157.78431822528208,158.3490580545944,158.13625014404795,158.25972979197053,158.10033713891656,158.2775027819347,158.0461055372597,157.9050369067197,158.33348704941972,158.5030207411398,158.2941221667307,158.15886383646594,158.09807080121197,157.8489010989011,158.79647651652112,158.12678585071433,158.66090098400983,158.9659712064054,158.21671625848782,158.43336654149743,158.35249203852203,158.23534830166955,157.42764685727337,157.59549192811454,157.76706383950665,158.1323951202723,158.00057158099304,157.24517031492192,157.40617541200984,158.30583601040232,157.5438270434288,157.4825902656877,158.0831745063658,158.59141591568658,158.16068441064638,158.45436144210205,158.01124876491602,158.03922313861122,158.13275514473733,158.1724937295736,158.25295436409925,158.6587592635037,158.82615343450175,158.75896672771674,159.2928533046749,159.24737671522465,159.2138850468726,158.52868836855131,158.7858859431623,159.17713236138215,159.48509037878497,159.3133555734499,158.94123719223123,158.78778759713546,159.01528584530723,158.9712023864158,158.90555789312626,158.8740865439798,158.885502313664,159.20728194492452,158.77861342292127,158.78135995104788,159.06995364517488,158.56837280366693,159.1177960248638,159.34254461715602,158.74230783931506,158.4324375761267,158.9056531557393,158.50407432792628,158.6831562046028,158.86511574604629,158.64154685176004,158.62077248636902,158.3448905803996,158.49142530487805,158.75981647868477,158.5375219482403,158.71170964660936,158.58709505094058,158.7392765746152,158.58139623504306,158.963689929599,158.0915198906772,158.65192843245717,159.20630295594833,158.47913652630777,158.7386441713108,158.59198626216372,158.4941827198169,158.7674774361328,158.34771197078626,158.25445766642588,158.6071919377004,158.66707424248213,158.64223445744437,158.6374378585086,158.21950291173448,158.53808016475344,158.057948405753,159.16186125081583,158.2794353300267,158.78783809706502,158.52909809337476,158.56185882713214,158.05522990255787,158.1774728416238,158.51451964647816,158.81191222570533,158.76447669977082,158.54171280210758,158.271838729383,158.3894620204799,157.71137592324678,158.05616087471805,157.93617670621447,157.4134557038835,158.07987916794127,157.47256132344552,158.26864529947218,157.9101938043644,157.69310580723624,158.11312753113776,158.70640159656125,157.9081694863588,158.17706666666666,158.26887224938875,158.565574084723,158.54943497414288,158.02363255193444,157.9228221139202,158.44483577061482,157.800958867623,157.45408919812934,157.63006615466503,157.52063069908814,158.1115828934282,157.81456247859018,157.64413284693723,158.04914652308398,158.1259971754647,158.18583020745618,158.49217464508476,157.74187169639123,158.03504958047293,157.50832290600235,157.90373617994663,157.7664058939693,157.35815347267004,158.07333257064408,157.9378003203417,158.0680386392272,157.56763018953924,157.75141715807496,157.92559523809524,157.5380965035496,158.05656557940569,158.8587538005619,158.07098105134475,157.83974676785783,158.11503647404805,158.16766100657793,158.46689668391795,157.8927401538813,158.19194856880452,157.69803772147077,158.23379107217994,157.933432403597,158.39534794604538,158.07086914995224,158.08267626119576,157.98363664168832,158.06282262073185,158.09514154552411,157.755190047321,157.8197813916289,157.39680309818513,158.302734375,157.62175021887253,158.36862865239536,158.19655925514388,157.828506097561,158.40819690986467,157.7525710367944,158.29727453682437,157.8802803416185,157.6702294755392,157.2279862174579,157.19784296477607,156.91710812149853,157.4392645087148,157.7008209298757,158.01691787142417,158.2664309324314,157.61501682986537,157.72601063219489,157.89445869873242,157.8773617445292,157.99650886211924,158.01144129616833,157.85338807459135,157.78259702408346,157.7362553158883,157.72646788287597,157.8271548085041,157.69995017056996,157.73718685359688,157.67261859146294,157.93267607794996,157.83937128617978,157.55676254589963,157.62326488470805,157.79296320454284,157.697653014266,157.31558630178873,157.6102564102564,157.50443662510517,157.3464822013873,157.3874589475292,157.9297066953317,158.1591092961436,157.50287026406428,158.15657499422232,157.82546098471724,157.86911939782632,157.75618374558303,158.04379477698174,157.53530289694234,157.89548337497598,158.11942828524099,157.7964975613503,157.69750957854407,157.85282467407606,157.30505884151,157.89887036040884,157.7353751914242,158.46179966044141,157.6692819963258,158.45121904248353,157.78102357676826,157.98940621041723,157.68040881947636,157.90730283123966,157.937012413051,158.5674035711525,158.4009328502043,158.33747499615325,158.0634371395617,158.04425832725036,158.40757324275293,158.37476416002465,158.37618570216705,158.4359725541593,157.93448844251927,158.42963105303613,158.30568256041803,158.2749453331799,158.37105253060128,158.42059986942664,158.72011571841853,158.27432473910375,158.19573568958893,158.39654643131234,157.9911233547597,159.1084136756108,158.5955466676922,158.51912799415587,158.49813368222573,158.3652611753853,158.4244449565952,158.22292114145444,158.7633425883079,158.61564495038843,158.54977654492217,158.51409127609674,158.29454866306057,158.4752353506244,158.27101404774697,158.43448566933967,158.45965329446958,158.90369885685692,158.357598929459,158.59965497412307,158.3835148818656,158.599938593798,158.55047101171786,158.65148142462388,158.78305983628607,159.02908432528218,158.3599372224774,158.35742127789666,158.95071560480147,158.49821791285018,158.2883358183278,159.00785582255082,158.9117929788134,158.77522178271056,158.40867965036037,158.21025248661056,159.10529361833474,158.44940590264468,158.68756715272448,158.5207148347425,158.38587414731356,158.69767620806402,158.38254492397482,158.26428269961247,158.76916564039408,158.43412427645953,158.46495470597267,158.7993691822448,157.94236861188503,157.9023738645905,158.45323354442525,158.6782401170176,158.40019168104274,157.9258507050889,158.18542106272778,158.14230430284684,158.16652591170825,158.21033820138356,158.5097631426921,158.20864330086664,158.62271641100747,158.6407897775383,158.43201720694424,158.61485186610236,157.79676409982446,158.32095307524077,158.80345505726294,158.16879736660798,158.2094894986969,158.27759017651573,159.24265245433128,158.78258200652215,158.85440436402752,158.63518340695217,158.155153277967,158.28967370441458,158.588479581635,158.74651746092997,158.47754255196526,158.4155454755132,158.3868004305043,158.32087920518623,158.22198374980837,158.4388718342287,158.17660787389525,158.3476525010557,158.53184198367472,158.45970252507783,158.51161986709178,157.9643894238117,158.09669152801683,158.3672537508154,158.20987512449244,157.8990342405619,158.04010398746033,158.12719902095762,158.68646318463493,158.49371516432828,158.06181859913545,158.35823872353484,158.9483297933964,158.1876003977664,158.23411908770856,158.04244670283487,158.60631433399908,158.6771541623449,158.5160348734493,158.32093648052196,158.10710729876695,157.81971475547738,158.35156520069137,157.95784193597794,157.96660922841278,158.31353033854668,158.2994046475898,158.06776283009467,157.8397404084749,157.96249139710943,158.42644119907763,157.92698327656805,158.60262782722614,158.38127836320282,158.65439365958756,158.97946659461962,158.79084916933277,158.27448344726938,158.34103824297344,158.18779234721265,158.35454126325496,158.66314409132983,158.37754669747738,158.29579198399878,158.40898426983577,158.01151896790049,157.97687351384522,157.8455586624277,157.58643083623028,158.0070292694169,158.26064157927206,158.43996602578952,158.5038513644281,158.25548825186158,157.8871469740634,157.6719020006912,157.40143917936155,158.046204238921,157.69765117441278,157.5819159147629,157.85306012402265,158.23187398656475,157.84936094856792,157.32741972564946,157.70225951730242,157.96485217123498,158.31078003782468,157.91256053501422,157.9077662437524,157.9949074074074,158.27553306551297,157.63945003456487,158.09196376951243,158.14961237320168,157.7124240793419,158.08954245846664,158.2756221981759,158.38326810555276,158.15165657422764,158.13719300946954,158.10008485035482,157.78646414151126,158.32689639222943,158.24152035500674,158.26391673091751,158.24874623871614,158.1427910205971,158.3997370659655,158.06174600115628,157.802079736004,158.17031039136302,158.47676752083976,158.30433610597657,158.7497579677032,158.42569211166455,158.23262011432104,158.48932391212017,158.5162348944056,158.32108257727202,158.07676930765388,158.70708984072985,158.23835574218901,158.5872782780075,158.17915158980676,158.33113298591005,158.44782742918886,158.76090574801626,158.35220440881764,158.29853564547207,158.097103787355,158.31326369348187,157.99677394577157,158.25977029214522,158.85454967682006,158.52859404564236,158.46155330066748,158.53401688316694,158.5475612107191,159.02712035384496,158.7893271461717,158.7196659191091,158.48451182347722,158.68253968253967,158.2982982982983,158.7789457412274,158.60228854182773,158.22601500865883,158.0678598922248,158.336222504719,158.53225744030343,158.6640748907199,158.4954046957059,158.15356208647484,158.28966207374336,158.37864152692993,158.00787734399017,158.0311117947929,158.24258417443562,158.38218279984574,158.2787486016279,158.70966368667519,158.31329296980448,158.42043305415106,157.9528134862597,158.1163104178702,157.86389305059353,158.25445430003856,158.3137073452863,157.96177805121894,157.93793474501365,158.28494851721877,158.3856146166596,158.18130278838368,158.36263312239544,158.51372004168113,158.32641189613992,158.0855255578171,157.7796675093848,158.09618567414648,158.28949494172406,158.80184385125753,158.52962167139898,158.83562487964568,158.53520910209102,158.57953757225434,158.34320027714693,158.6940817430271,158.37588516009853,158.6255882126051,158.73149295338393,158.71762478751353,158.76232489745377,158.61512585546922,158.3755009247842,158.7403954037219,158.35813541706764,158.289372500769,158.63303212851406,158.19529955692545,158.16360216498407,158.4318278406676,158.2396703762178,158.40821442344773,158.27759815242493,158.0159834018519,157.96116616731965,158.16766628219915,158.04375432925423,158.2725450129159,158.39837743867105,158.7610468937256,158.1703678001388,158.27218752409593,158.2090604414654,158.16866028708134,158.39105735044058,158.09510274630304,158.29384069157146,158.26453230472518,158.85364058869095,158.0440786184084,158.2893500693054,158.46585601235282,158.14553574866207,158.2943492357573,158.52305197312535,158.39588074208353,157.99064989033823,158.03797808956372,158.2850364541141,158.55638371823588,158.10261941448383,158.18782058698756,158.08326269553825,158.06392570900124,157.93699272993038,158.1366562584326,158.5015277509186,158.42130095134968,158.30014652579626,158.45194684796044,158.23214767428416,158.81228907250087,158.40500019320686,158.4787611986407,158.25208172706246,158.36209291557338,158.2183859270118,158.0452952278242,157.98325183844761,158.1287624773577,158.0230446658716,158.05865803368405,157.59619076875816,158.02411495049887,157.86403576383537,158.0497573750289,157.92585309427415,158.1319998458396,158.16380041644175,158.44006802984038,158.1978433949138,158.064926552801,158.07865818392133,157.8230373724196,158.27999536751082,158.0955865362397,158.65452645430972,157.85914139667167,157.90295147573786,157.96951641423848,158.544637669933,158.73329200728372,158.3749082338395,158.1999228692634,158.298601748777,158.0341857335128,158.276740237691,158.18242307692307,158.06308626787637,158.25640630418866,158.17579284035298,158.16107537649734,158.0271820736919,158.54249855184398,158.36566646096884,158.04480706469573,158.38796257075745,158.1656986807185,157.84536675097723,157.919483406147,158.18399660977772,157.73055406544563,158.81810441580558,158.14989425110556,158.0445938160169,158.21403846153845,157.99197789122175,158.34052951589317,158.23240004608826,158.46361954678588,158.0461727258782,158.30034655371583,158.12666103387357,158.1684995770207,158.11123906034086,158.4721106304079,157.64096284107,157.7796428297693,157.9755141264655,158.0946579554189,157.81697318007662,158.11737775554957,157.9147500766636,157.90890967643,157.84409654272667,158.1753251750943,158.2128977644388,157.76702343959795,158.09232484811199,158.11594091398678,157.7364950350803,157.7524528591139,157.8391686160218,158.26073419181242,157.90412430462305,158.30116440468845,158.0160955746773,157.98426466073073,157.76431582981985,158.17041912019397,158.36792816402036,158.48146716654426,158.57040102092114,158.46148205326128,158.22701847779965,158.25121480910144,158.11473136915077,158.2967232074017,158.2299822407536,158.53708854891053,157.58454883044294,158.474054325567,158.36790523594553,158.3570270896041,158.4026139255147,157.63788876972575,158.34374396788016,157.97825752919485,157.46401406566525,157.6786275035423,157.9263598647818,157.8631587021554,157.63914326219395,158.08102386451117,157.8493240129052,157.7812787841572,157.96563269704433,157.7266799631789,158.06301274891192,158.19273957852639,158.3290118455068,157.81979490724737,158.0178317512778,157.72725530773357,157.95888935892012,158.0268889486421,158.15751789976133,158.00682264965502,158.05730108064455,158.5764455617869,157.9440578261371,158.08337182448037,158.1181517389966,157.7526152431314,158.28828655151142,158.05791580081583,157.8800430338892,158.139458793641,158.71948624705018,158.0741878503955,158.3731924574866,158.216921657569,157.7447280799112,158.22839981518558,157.8795508546026,157.80808274276959,158.31456647398844,158.17148347425058,158.409176861035,157.826215191328,158.540103442952,158.34236870475897,157.56761919315403,158.06651816575774,157.99367840312632,157.93715271124736,157.9901475944029,158.25921082993617,157.8232794916941,157.8378347360367,158.01404343488605,158.12593247712067,158.01414079311405,158.38712039463542,158.23640135218193,157.98468859127365,158.1781737193764,157.9498966546735,158.15526376410966,158.05257898378045,158.46616107175853,158.32750201853204,158.46050096339113,157.9372818289923,158.0351173132955,158.04948556511056,158.14483394833948,158.30288906009244,158.09302682580497,158.21151261472295,157.93579386653394,158.08274458608508,158.40182964329642,158.37932096389252,158.3469348511653,158.31416592945882,158.21494031574895,157.99290562564713,158.36773870893282,158.24624486189543,158.134857801691,158.71957917536938,158.0262511513663,158.07152450021104,158.24217969410498,158.15422713660448,158.19347167350696,158.0598519995399,157.9588804422944,158.1244868991445,158.07087520135,158.5758954389482,158.13988563533792,158.0447062435243,158.0791976681752,157.7483347370033,158.1399754092062,157.88139499155017,157.95393953363296,158.35194286591923,158.60392006149115,158.01285681487718,158.1756207847946,157.98826273130447,158.2643519052563,157.78222069018346,157.90905603927735,158.19145088684544,157.8446721154215,157.76238268530932,157.71368929063888,158.1001918649271,157.92288509495492,157.97548436600806,158.13789250626084,157.91624404487476,158.15788053949905,158.40905581718522,158.30703953712631,158.70758945822706,157.8802473403234,157.80915942474815,158.10481324605314,158.1008704359883,158.31398987752578,158.42244976816073,157.94996343481776,157.95632935744518,158.44020375873114,158.2759231450464,158.26669492505107,158.5073623188406,158.12191559689447,158.64329633783208,158.40711141996758,158.32361068467915,158.47562192874693,158.44277594285276,157.92632831695332,158.0799784673357,158.15937995283932,158.30059972915458,157.91663138447328,157.89979203573904,157.94216626236957,157.6062014908169,157.74761721752498,157.95455421500984,158.17430025445293,157.91945277073245,157.810087651853,157.80750269604067,158.17752644175096,157.95954424727665,157.851,157.71922428330524,157.8430875576037,157.9754300701998,157.6667305995627,158.3324700425203,158.61494877367278,158.03113666177947,157.9805787830912,157.674364097441,158.22588989267237,157.3613078601784,158.37340202990626,158.07228636521606,158.07468159011964,157.60810706868702,157.83492149222639,157.85876229034125,157.8309772350834,158.22171437424953,157.4328369665336,157.76367006487487,157.5337715757506,157.5520893510495,158.19053510671202,157.61628712109555,157.31380961501628,158.18365373457627,157.614163848755,157.81974100053958,157.39374185136896,157.60766984322163,157.95503145867912,157.78726355125784,157.67513744185152,157.73077663547804,157.92060309258474,157.52095900411112,158.12148194030428,157.69118891881493,157.54565000383937,157.84826789838337,157.90045475566518,158.34276753910484,158.09631290098167,158.14968534033434,157.86564514261454,158.36330182832353,157.69793548883166,158.13696618357488,158.04949768160742,157.5557132990561,157.41804879917262,157.809867026402,158.08623222016078,157.53582267296684,157.96357615894038,158.5784287099903,157.92873368498056,158.4446767324816,157.9955670341531,158.09009946796206,157.94320323014804,157.87733128244568,157.94171991685272,158.20475418692598,157.79566836911025,158.22778937601484,158.11364601428295,158.16819548292608,158.12413713316107,158.4166988939593,157.82460057747835,157.7458083371789,157.74616655778024,157.93080985236867,158.31390846433825,158.25711747209024,158.24706883875712,158.39393586910163,158.08618558294057,157.85781316103225,158.2488488178617,157.98169530797452,158.4112178493957,158.41804103755322,157.63996309679405,157.9354427937488,157.41285423936802,157.89647602541882,158.1180443003782,158.00766475368795,158.13595306106694,157.53871524448707,158.04538250415555,157.8288187764525,157.77530987758874,158.213106514595,157.67946943483275,157.74295612009237,157.56584559812472,158.14618709478233,158.3514475925066,157.9527422585118,157.85877054544054,157.90488114959356,158.05019917237112,158.0758447576752,157.98122590593678,157.95126938807007,157.4086946503322,157.7232961108972,157.51679864688245,157.91275348908937,158.17973969798788,157.68833115535398,158.58300065888918,157.84546049843996,158.08271199536412,157.63099489306148,158.1542713567839,158.3572176340584,157.76971353765595,157.36020556876582,157.55464092010615,157.7321394184479,157.9579186916609,157.53440595960373,157.89024531135672,157.6070191641653,157.8408863583904,157.7000230662771,157.38790622721865,158.19751322547012,157.92723284719284,157.89120824203283,158.01837412182505,158.2906954269589,158.24658116356332,157.6741848868431,157.41166334813906,157.75647429493583,157.26201757737869,157.88077737156053,157.80118352290194,157.7879812495197,157.85984251968503,157.62377906308652,157.9054469918449,158.15345810227973,157.81135334305674,157.4086231301886,157.73118939016445,157.73482550773602,157.94216719218642,157.75546505820432,157.49770238186414,157.94518125552608,158.03987210108636,157.8542259478582,158.13092029264536,157.72958988118052,158.0503779303994,157.89064659806482,157.87199877069648,158.43768574626577,157.44117534529593,157.5636106004902,157.58330461420638,157.71540820237638,157.81401225114854,157.40890114519897,157.51163680906447,158.26867395656862,157.64303797468355,157.93568600315228,157.69411990040223,157.5924976076555,157.7723907790265,157.6427476234284,157.899377593361,157.70283851169927,157.79996927921354,157.2974925464414,157.74363594540714,157.47840595274624,157.77511704658838,157.41012677620745,157.9609179469408,158.07985683497537,157.67544969892225,157.43675390266299,157.6354853550069,157.28721614802356,157.22063703986268,157.8785725261217,157.7089102834567,157.83153612955218,157.34209620020664,157.53887420009963,157.53298597808597,157.31626552199907,157.4120508695319,157.20585313670054,157.3231322443671,157.21053436866464,157.48686884177434,157.2531669792185,157.71874037573144,157.35955056179776,157.31070526073972,157.32137237594503,157.20506338810372,157.97530245819527,157.1754432997587,157.41312770936432,157.46738045897612,157.43397022713322,156.78951176784219,157.59357713583282,156.83802978235968,157.35803509847497,157.08410786001147,157.47830760961375,157.46552717495678,157.4210283783265,157.2816701781268,157.67990447209274,157.0836517884439,157.398122605364,157.2399969339261,157.43613467961762,157.10309278350516,157.80366139763856,157.70709558257659,157.17726507499233,157.36697704717017,157.62716030417081,157.38123324396784,157.53996243339594,157.1130604288499,157.19570707070707,157.36799204010563,157.47417264255859,157.0077975689932,157.08804863128918,156.81491355015615,157.41994478951,157.23710078408874,156.96268428691468,157.6912811045729,157.84573299942207,157.7096687211094,157.52974134622764,157.32536891199632,157.3273173161666,157.1772751585543,157.76734521106707,157.47286493965717,157.66357977251766,157.1180181213442,157.19434358876362,157.00613871201435,157.18420548941546,157.02195028680688,157.234956361966,157.3842558896763,157.51738830032244,157.44256951102588,157.4458029896512,157.44974720392216,157.5643378119002,157.03467480450124,157.60214269257352,157.2693724106184,157.43784365747683,157.62741861179362,157.4426267192828,157.45896166685853,157.3152777246105,157.25763088353568,157.36980146691755,157.70618814740652,157.37101048507893,157.7124595718466,157.7021243901502,157.59297504798465,157.97598674067223,157.86491383630826,157.6073951773921,157.77850150312187,157.2018190191112,157.40102966036577,158.10011596443758,157.6634200800739,157.29676802447887,158.14213787761426,157.535784332577,157.32889332463245,158.15244420418566,156.9360790017607,157.59420010783333,157.06658228819086,157.57940824750222,157.62606985889428,157.5986809117908,157.3529049634475,157.7683812171764,157.69731106053007,157.3141858141858,157.49287145499383,157.19046338277107,157.63847519098695,157.43495309856988,157.45808117796707,157.2581029643585,157.76012340917856,157.53790210866555,157.41708272524772,157.46299861389187,157.39730976172174,157.28569784393463,157.5790607331051,157.84839717625275,157.94888931813793,157.56799106799107,157.9642250694659,157.53118743261973,158.11484658783522,157.6598568790397,158.0372490620044,157.58992999461498,157.96658425403695,157.68955292849165,157.8309804829129,157.88567684242986,157.83010570172056,157.9350519044495,157.6736902927581,157.45966380104392,157.81752951161175,157.50253475689377,157.74671330821866,157.74556645508753,157.6442178179719,157.60422832980973,157.8172192060375,157.5411316983163,157.812358123966,157.85261617833905,157.27449625791596,157.61866912414084,157.9102860667746,157.9159404642554,157.67636098198165,157.62840773637868,157.85877554161695,157.4824319140775,157.85716483347434,157.83646638219352,157.70526234805354,157.74672606474903,157.43962646867465,157.85729098659704,157.74120352625528,157.7298824071939,157.36396272532843,157.4440411142104,157.7310011136285,157.93051614387608,158.35843766802367,158.4132056606676,158.18398002305034,157.5797994488671,157.87569273399015,157.5947004608295,157.71165526255092,157.78870750912233,157.5528424119293,157.8584938300081,157.79140090678553,157.77339220579765,157.23306025572313,157.9664871104271,157.51480219064763,157.58759683976376,157.64086021505378,157.26078813591712,157.80447549226577,158.0158711859196,157.83947105404783,157.46488974113134,157.69441456668716,157.62338161281647,157.42657878602085,157.43768915450332,157.1014896867838,157.16347293937656,157.57357173003876,157.3231193503907,157.1843635250918,156.9199436061576,157.38801624396598,157.14703856749313,157.20514486660042,157.20950373634795,157.5729879314321,157.22517798361784,157.04325193294036,157.03127509080483,157.21310595899598,157.00546970624234,156.99494640122512,157.1474010564189,157.42002610765567,157.3019910231327,157.44230990894073,157.09180277703402,157.20497820601057,156.9659559834938,157.16026621787026,157.1779573392563,157.45791375201784,157.37326994594181,156.59204112718965,156.83315532499236,157.2772493671857,157.02910952362762,157.64426437267176,157.41271361790174,157.7287920212561,157.22303368638399,157.48455546602202,157.0079691908793,157.0022531123501,157.42434589119927,157.46388719046163,157.3260003066074,157.36636130169802,157.45338544660305,157.28979357798164,157.5405228506526,157.61029270356553,157.17567773959527,157.28034593601714,156.97033898305085,157.39705826023672,156.72806583107928,157.13393027972296,156.98315829673479,157.17283809087087,157.62720915936683,157.44033884012418,156.87210500209852,157.58421921172814,157.51573339465716,157.1404213021371,157.38602476139368,157.4552808127276,157.19660277745896,157.28582933844677,157.26856705567246,157.4001760698155,157.39284756027445,157.3630018790505,157.39911792905082,157.28044619925635,157.07900677200902,157.2066052520928,157.25532973552265,157.39526418636729,157.32023914459816,156.91391689581422,157.1435775960877,157.51693028255528,157.23786370597244,157.08741058107952,156.9724675920615,157.45870008071645,157.34425410969428,156.92404338195982,157.06504282655246,157.38527357838998,157.18586005830903,157.42863183792718,157.29990800367986,157.15961685823754,157.02256127872738,156.73624904507258,157.46194983071715,156.740541776203,157.38908335577182,156.9222962622549,156.99907978988534,156.73019697838976,157.22468111264791,156.94811862978005,156.4704872372086,156.85628260202517,157.22685167390551,157.24523516753766,157.12777499903814,156.38631691159674,156.7957943031925,156.92453552959202,157.1103082481359,157.381953266351,157.36573754127312,156.97215519552645,157.6886905451876,156.79715302491104,156.98666922045584,157.21350729086723,157.462604944928,156.9177804158848,156.8420670134639,156.77473684210526,157.19412599210153,156.82750841235853,156.97245705979114,156.5881993973836,157.0702586866677,157.1378357636224,157.38751775227422,157.29659226247648,157.4127130709146,157.30855518420344,157.43004107327934,156.9300103207064,157.58621485441748,157.23804406233208,157.49462613235067,157.49632988739864,157.52530963920302,157.255673976384,156.91451588271227,157.2646449930992,156.99748110831234,157.4665975581663,157.5423533479313,157.67903846153845,157.24966519992347,156.6415474741327,156.86965974977113,157.36591814837524,157.2540302508137,157.131041069723,157.20757459831677,157.54709811146938,157.63648233486944,157.5586847254729,157.49618262037214,157.93760364043038,157.38118584341964,157.47241829062452,157.18086490623804,157.07609111060154,157.53018332438444,157.71107864995773,157.24764530209052,157.3973121984838,157.54734295807097,157.72763618190905,157.53172413793104,157.54259883542753,157.6787427562651,157.36415765128638,157.52894242203382,157.62174245319068,158.13887076344375,158.00679619106128,157.72369428702712,157.62447289733956,157.13947548982236,157.8697624356116,156.9862329341774,157.2642835319279,157.3018195747941,157.3251519669687,157.73556639649675,157.31445723243988,157.43501112560423,157.51024251508514,157.39922495491695,157.77592037506724,157.64892677494913,157.3393744742678,157.31627532845596,157.26467326884105,157.58002457568543,157.22736133939833,157.65918163672654,157.3139049515567,157.15107227352516,156.79843720221078,157.47878462364767,156.96762013729978,157.22200986200832,157.1376570795615,157.49498007357448,157.74246037851978,157.13760592411634,157.49616387908546,157.31208900443494,157.24517263793828,157.18534927242868,157.53169068056408,157.8095274683058,157.38383606682723,157.09801678108315,157.55388980483878,157.40316039179675,157.29785447048943,157.44080508150302,157.13751526251525,157.06022995507502,156.95665728841914,157.47776035491643,157.51009714679108,156.8462884754404,157.01844386979008,157.5009371533489,157.11624543239952,157.4651367374259,157.0717962405155,157.42014845423935,157.5610101939143,157.66253739357214,157.32870795107033,156.85040897850484,156.9502567027952,157.36402536868647,157.18099132495126,157.7789162637194,157.8315206948234,157.2212842354559,157.29796900053447,157.46983071573234,157.5961774168837,157.39889186090943,157.2189037647328,157.3632057452823,157.44694828508136,157.20685714285713,157.55458933496783,157.01346916971917,157.81097467382963,157.26446880849602,156.8928639318709,156.8275048517828,156.86750057029883,157.25184987413226,157.17949011525837,157.2413687748243,157.38105069970177,156.97310252996004,157.2498280736609,157.5253302699598,157.13661702940053,157.3155231889613,157.73305442542411,157.5447375473793,157.2633127053251,157.7048368522073,157.44958063651336,157.72051932088806,157.48336272329985,157.51833001683758,157.500977573318,157.61562092005224,157.63586726650516,156.79467144381766,157.3085895670797,157.230088834431,157.14122998127127,157.0742084558683,157.17195696289772,156.85849883734227,157.3465373111435,157.44643268566162,157.12790208452859,157.3991012444308,157.11272504873668,156.98850223461554,156.82343726119518,157.0551434034417,157.27312758462244,156.8698703279939,156.89461429825565,157.1930846781922,157.43932346723045,157.02961799302656,156.98398835516738,156.7279150593897,156.7971180674999,156.77802862171885,156.82923936333026,156.9569476866557,157.1579814545176,156.59073770803977,157.14193202283786,156.78573614937253,157.18426819422552,157.2126450026888,157.1143032253122,156.85458998201509,156.57434724604536,156.54563151265316,156.95811338076658,156.8513105031567,156.9205414499847,157.4725858616972,157.09951335402536,157.34895233709418,156.9632890556215,156.92688336520075,156.433536121673,156.52831194547048,156.5700403932627,156.5703339432754,157.0450157076086,156.74293461655972,156.86124474990456,156.5966425028615,156.69320091673032,157.041131598114,156.4262344974511,156.7359733445674,156.92624048356862,156.9518802148817,157.54928768382354,156.96085598964282,157.43431748466259,157.37657948304337,156.94420650095603,157.07335019544723,156.51016431027895,157.26225914387908,156.87906834436072,156.8724380544509,157.3287465887689,156.74417715225457,157.3384136977887,156.71787624140566,156.3184410646388,156.42332317073172,156.4038622686067,156.65723330409244,156.80386318521911,156.76404236607655,156.76664886719047,156.5947842000915,156.56668445935642,157.0530308835926,156.71483092893672,157.35517056753864,157.3118460245933,157.32212402922835,157.3587356321839,156.92062099481234,157.34820331695332,156.8178733462961,157.01215224701926,156.85693006912882,157.43489963854495,157.0212554095975,156.60507730482917,156.92264707008076,156.78530253865242,156.82474581454017,157.1742188400784,156.70761417443103,156.984,156.73139232767844,156.61442795559455,156.97516004139993,157.0017238737358,156.70265920760212,156.81193698010503,156.8217324645458,156.82949714679637,156.69865584191783,157.21297901020606,156.81548555423396,156.79259486864342,156.80095223467978,157.03350922466586,157.00858385619154,156.87084148727985,157.02269143494482,156.9854525862069,157.47616118117503,157.49004830917875,157.3721343110768,157.41555632796508,157.2519939891342,157.19590012330457,157.22040360471385,156.90560030686612,156.7272762123826,157.04843731980165,157.3813987578598,156.9582531742978,157.00984653255895,156.89412670903138,157.39355861429013,156.85950508344524,157.31857655640897,156.74621835867194,157.05365046376477,157.48652925737224,156.87154028981064,157.02932585133368,157.0717850287908,156.85853284811338,156.8377654486321,157.29549300107675,157.12778842468379,157.4239883058932,157.14772248400567,157.103856770434,157.05595370405857,157.14923709596832,157.29454056132258,157.58163737280296,157.55010350379513,157.71239345772864,157.57089165867689,157.7279827632642,157.37643810400368,157.66468819856624,157.42686636122127,157.38826558057326,157.31060343832928,156.74265830529214,157.32886241352804,157.510331294009,157.03173570170736,157.0302437152178,156.93542329360366,157.36793793447785,157.0686548855752,157.21979286536248,157.5197254251668,157.0402210623273,156.91401139884482,157.2715684392398,157.25362819626815,157.42085402949445,157.29859057567495,157.52797135486853,157.51045557823392,157.78725864261764,158.11449168636875,157.75375642164627,156.7637253402661,157.16557282671272,157.39096297436686,157.01574440305671,157.09611467660736,157.26645888645197,157.17884711394447,156.82455737830293,157.21589861751153,157.2660666897427,157.15779950723746,157.10235312211628,157.24792403506075,157.2811501597444,156.9902424032884,156.87589838195166,157.2765587576296,156.5305268813078,156.9033225657591,157.0780889367595,156.5831098168442,156.99741880802867,156.86371674611718,157.31558582262807,156.68348535580958,156.89185025419812,157.2089055669465,156.676566767976,156.60894090560245,157.01802879975293,157.012079811663,156.48681082739054,156.50825322660947,157.02351580570547,156.81442307692308,156.82200746929504,156.7776709113992,157.23898763523957,156.71108553893365,156.79829960760176,157.00943287259847,156.58548368544152,156.90285999846236,156.5652307220604,156.59664509210677,156.47992959093867,156.90966330095597,156.76842509111836,157.07838233030628,156.86523107630893,157.0489145052834,157.33656146307587,156.47714067278287,156.7359662576687,156.56330254130094,156.48712454562846,156.52250803858522,156.8942954956341,156.78677597303096,156.3555411486538,156.82782015408793,156.6079323797139,157.3387984451372,156.99169422440974,157.2998652031581,157.29100284768722,157.4543806180317,156.76108732222053,156.66129278728607,156.95938171218165,156.6724592292709,157.33516589135365,157.03251503197885,157.06507309212293,156.8727780113919,156.4711219549388,156.72616454583667,156.85837353549277,157.15818970480979,156.98740332337852,156.86824078680493,156.94352553794317,156.89439902193016,156.8924949290061,157.1793513720975,157.0164995023352,157.22654032072433,157.10408038042644,157.2512871743641,157.3105186211142,157.3330512386521,157.5196565399869,156.8197293256144,157.02114537444933,157.38852131097093,157.1994011056511,157.42819752896347,156.95929875709683,156.7523831400023,156.83983297578916,156.90343454454953,156.59724718027147,156.8703604499885,157.27989224552627,156.76296523438998,156.5190129295549,156.75321896611013,156.62614608801957,156.77986459090388,156.80514748187642,157.15753293137217,156.94161843063594,156.79723873441995,157.09718807621388,157.01596806387226,156.6588500822463,156.79384249674104,156.73341744083802,156.64565457804218,156.96649583110226,157.24152770306617,157.14798773476429,157.09232655250355,157.6691549946129,157.30777777777777,157.3944535948213,158.02931320057007,157.98154355951144,157.75534533148746,157.92424885254755,157.78967230159037,158.27239615623063,158.12251847838706,158.43766011955594,158.4407588454376,158.27222329908898,158.35349306040163,158.72289859582247,158.7435198879116,158.41185810549143,158.16668600827822,158.47262794932394,158.83329447423642,158.3102714827133,158.49352506861496,158.08757040351824,158.7699767261443,158.3760670555062,158.1675463266171,158.45384168763306,158.02766661536094,157.9967234600262,157.94932029113875,157.89500595901734,158.4357002048626,158.1314744108913,158.4974474009901,158.53690079764579,158.11157343196177,158.35586350652358,158.17949806949807,157.59501820272084,158.20250433442496,158.35211921811495,158.15764325074178,158.24122739217808,157.85264251096237,158.18747106927944,158.06428598974202,158.0803853564547,158.42679284800062,158.4411491763978,158.2762373170165,158.1757367424974,157.93194925028834,157.87755102040816,158.55780257244692,158.23024917906125,158.90705003501674,157.76205688772563,158.23168377981935,158.10673507174818,158.44760983162377,158.31688422357362,158.2926347583643,157.9358697329835,157.69776133780294,157.40144359978498,158.0837196723845,158.13483928364212,157.74228115483945,157.67808350971714,157.8085671400531,157.93627375251043,157.58553846153845,157.8524830351635,158.21028416779433,157.70307443365695,157.35976544534722,157.82178523231156,157.41800766283524,157.62011388119421,157.5610393603936,157.439176208407,157.81230709876544,157.32009677791007,157.30846248273747,157.62511524277812,157.54362699876998,157.64299446324208,157.64209270095472,157.781682271799,158.13947734652854,157.97902205768935,157.4070976405141,157.69296523044935,157.80385417471228,157.7765300609709,157.69595504753107,158.03527051014896,157.7166333128079,157.45218626434797,157.6402521040698,157.86934905769454,157.78589323569088,157.63036367134885,157.84922497019116,158.0101646440442,157.70656979202707,157.71086188354585,157.90629203982013,157.7063065827835,157.5846366145354,158.22541189180848,157.49170529864756,158.04566139606632,157.74104365856468,157.752302732576,158.70694595013163,157.7996466838204,158.08474706971006,157.5537244055165,157.78105190364593,158.07013827369718,158.07028963179786,158.10515170183274,157.74355630561521,157.98256394500345,158.2276457217706,158.40101796868976,157.63887291546865,157.7661281037725,158.3798318031016,158.13817581827252,157.92942487225787,157.5012996941896,157.92178556336677,157.70967988972276,157.9532541421597,157.84832085971982,158.12062795798224,158.22996072996074,157.93598801935335,157.69212200168596,157.78410834868018,158.4284667874629,158.2648033924441,158.5653618764249,158.33921689532912,158.50312114673244,158.4830904804236,158.1111837299604,158.29128343274965,157.54920792836919,158.30466640956422,158.11668781969925,158.31340230062534,158.00878071324038,157.9912452482433,158.03128848522167,158.31745419479267,158.0217608997073,158.09211943974142,158.34222513897467,157.73749664146163,157.96964567383526,157.86307692307693,158.27077623808236,157.8682039022133,157.88908138908138,157.7687983675355,158.22758194186767,157.78675282714056,157.3464440274214,157.92525524947024,157.89134040501446,158.120621065235,157.9967982100837,157.5911489427262,158.3204229443433,158.3540666150271,157.782285119346,157.74110580625288,157.4594314650708,157.78538918460234,157.6337773329227,157.48094799108858,157.19155869048532,157.4373534273961,157.18997199524304,157.49315226148002,157.79159268123215,157.88911150497034,157.49041159063833,158.05774946921443,157.49239631336405,157.92109730689097,157.7961052955665,157.77755109896455,158.07379488963625,157.31152504695106,157.58603846153846,158.0934286818709,157.57511357511356,157.92327858740072,157.51737525947567,157.67087681466364,157.7967743180152,157.62703514106462,157.6799615014437,158.06027174544187,157.98718394132408,157.92977712542006,157.8350038550501,157.6964656964657,157.80153964588143,158.33474051123162,158.2873127105192,158.55286163888564,158.30970772037418,158.00355280942267,158.53933586779425,157.9236605939221,157.9238551239478,157.9656091811894,158.10641833146568,157.95833333333334,158.40771317829459,158.02515553151204,158.33377221856483,157.89027027027026,157.6461136311217,157.680826459024,157.8282703516424,157.9417449456879,157.11678552258263,158.34381917744378,157.55827842638615,157.61481996600216,157.37521707251187,157.50378524526843,157.89255620704384,157.56633601983881,157.36791650560494,157.88362720403023,158.08360178536773,157.77216363425657,157.3857395584955,157.97019483531776,157.52358980274542,158.0621913580247,157.96237035894669,158.03931090299457,158.67718427785098,158.62124201973302,158.39618644067798,157.62004964674432,158.4101941747573,158.46930077180048,158.5987844283736,158.94371192844474,158.82312794015579,158.9540668749277,158.33357686687688,158.34652008980413,158.17975526641882,158.1277698836361,158.72438394199992,158.86311494341365,158.77250692520775,158.48013359437982,158.76867683302527,158.89729750568642,158.34001760361258,158.7862958979874,158.7666000614817,158.68043653690967,158.90322952710497,159.09760780248052,158.69894656196132,159.22193573215316,159.22384156892906,158.85900042192475,158.93306677943946,158.81285944329423,159.34900646950092,159.4275203205054,158.77900425434058,158.77002899435374,159.50541780742682,158.7457322894787,158.5564451561249,158.9587640707558,158.90771587210415,158.995282657053,158.63438803229138,158.20989819651504,158.1691568836713,158.35539243797072,158.95063009067158,158.2393286286477,158.95883302583024,158.4728572520835,158.49477311889717,158.43606983229552,158.69623759329076,158.51376076260763,158.01732777416518,157.85195797516715,158.23608283068884,158.43997226822788,158.04215250076712,158.00624114561396,158.1265268495045,158.45089956466464,157.9337008115143,158.23117082533588,157.99449288664525,157.9611119608443,158.4018278867939,157.9007507852601,158.19618528610354,157.97606006052015,157.94669525924792,158.14222716465986,157.69111850916465,157.79212815697696,157.76318308888293,157.8271709113225,157.6595304660871,157.83418337999004,157.41182993041218,158.06817657463662,158.17898219025273,158.48991499227202,158.01324732173714,157.73795030818115,158.09988854298783,158.00734474139588,157.80483864764028,157.4106574659766,157.96528098537337,157.45577268729207,157.30397705544934,157.45532257446237,157.74262703739214,157.0381464121032,157.41500114863314,157.59457176858996,157.45853153291392,157.20750973059606,157.34835720303286,157.2540886284423,157.37020835731553,157.2117665118778,157.25198389879242,157.5759815242494,158.08120137786895,158.0814811951606,157.41487114490917,157.97435897435898,157.7556618696709,157.80843503784953,157.6670139290813,157.8343323407711,157.98961522067657,156.9659217234638,157.51842704434068,157.69773105021065,157.84614788705116,157.3068978805395,157.8040794209854,157.72919326755658,158.16095212208288,157.936911086122,158.52694470477977,158.57091631913318,158.8053457519665,159.16028680014105,159.16769967048486,158.6059351815697,158.5562056322646,158.9656862745098,158.77365353776352,158.54149904308088,159.0985710920939,158.94528124264534,158.74483810417644,158.70993232406212,158.79578428688748,158.05365039956553,158.4471161340608,158.36221668354233,158.6602211023868,158.76438441720666,158.50969604744625,158.45113016367887,159.00262477473947,159.20840355896993,158.6167218865718,158.58437914100864,158.20611991301647,158.8985031461289,158.78972637495608,158.47086546700942,158.35400225479142,158.58626726317837,158.46951954872594,158.00797862039585,158.78056683322924,158.60075586378866,158.35190718249194,158.39334577114428,158.87992348830855,158.42755399883245,158.21237977040025,158.65015924803853,158.97523135547087,158.75460574797347,158.82377589819197,159.1310732698016,158.32556967911952,158.1794921496414,158.2472093023256,157.90052901880526,158.02446282269284,158.40420497304007,158.328164974029,158.41055036988266,158.28287639405204,158.4232601370977,157.99482325671238,158.24476039205052,158.1815579794229,158.17539033745302,158.34840085287846,157.99957469842252,157.9652342237708,157.8348921697457,158.00792914055853,158.01170043779783,157.3895599322973,158.20870812655087,158.06354864959118,158.18354823675625,158.24303206997084,158.38118946672373,158.1374495811356,158.349533437014,158.21228029242494,158.03463656814833,157.70981953085752,158.04474021186604,158.16570918406956,158.14235262157024,157.7931488291078,158.0566250097027,157.8921136134974,158.58587868149016,157.72974957489566,157.74186181536675,158.07282043319617,157.83739585351677,157.51877698951265,158.0074609466076,157.5731179471325,157.92537950848313,157.4926197836167,157.70626909540937,157.8160015497869,157.77577279752705,158.20139914496696,158.0032225500854,157.8527920746101,157.59934299516908,157.79400487974905,157.70271835662984,157.55771755076827,157.7017028999498,157.49650889171778,157.4073262607626,157.69223634888124,157.68944626664094,157.90772499034375,158.30106733941395,157.71282427424336,157.83207080466877,158.0421081122883,157.7143683926229,157.55850450034617,157.85024508857927,157.92001854642402,157.9584924584346,157.72075442588806,157.65569600739943,158.18939951217624,158.04512209279827,157.7563034929447,157.81816777382974,157.90581835018133,157.92567698072392,157.36869345192454,157.83627038907954,157.76771805352047,157.9564026389907,158.21478274315757,158.19464513387166,157.69141558141328,158.25302044609666,157.91143000424333,157.90230638691762,157.82495373226402,157.72662976629766,158.11683543325347,158.14253621504378,157.96788000308476,158.6031320432113,158.03265400648448,157.87874585933287,157.9654906199336,158.08484450960722,157.75169204737733,158.20375024163928,158.01604010025062,157.73684615088973,157.89101426918626,157.9466908221871,157.27209453516386,158.14944791907962,157.30373724196147,157.6695244319711,157.75097306254577,157.69196462898884,157.60130744087675,157.92956823438703,157.8689971479226,157.57864757726205,157.35203710091602,157.60822202548212,157.4741399214962,157.61149859350314,157.56268524577544,157.95754297855902,157.3635489947334,157.2327099573749,157.5618020793223,157.59800792216282,157.93728007424306,157.06831250479183,157.29286704668002,157.13220443113312,157.36333243669063,157.44650285010013,157.25733937903473,157.90703692260158,157.06643880333345,158.04171346682676,157.34070677097384,157.18949473198492,157.37163202463432,157.43871812649257,157.0474816268421,157.56226342217073,157.0166762728146,157.29944134078212,157.65365759505886,157.57989491577808,157.4294570658452,157.44433733081402,157.42181482052072,156.87419985434474,157.49530082428166,157.19497097158677,157.4852833391197,157.03659192136385,157.24163397184398,157.43287491814016,157.33062653940885,157.86778715823715,157.4347021399653,157.55396960111102,157.34702527743528,157.55661506389222,158.0259397328363,157.52293967714527,157.5288376220053,157.92404572757218,157.71211945827062,158.18007469073368,157.99145531518235,157.73206572045666,157.75353472919724,157.50528060437867,157.78918228279386,157.45978825794032,157.49587382384698,157.31037670441415,157.77751593587018,157.7804302406562,158.15758187963792,157.69144048492336,157.57567212608157,157.7704042124826,158.15194086458453,157.9727160778881,158.32949835367035,158.42208850931678,158.10407625542467,157.58220473048578,157.54173429167633,157.71877783371414,157.3216599814872,157.4264790903835,158.04519006982156,157.4577233574105,157.30116677577112,157.23688069146473,158.01094593021,157.17969985725858,157.5353781805507,156.90070048495113,157.13278504961582,156.81011586281227,157.2811170418504,156.9385053490341,156.94830446356235,156.85343299684055,156.90852342786684,156.91211758805602,156.65515652006914,157.08554128581898,157.38485047777476,157.06926490449547,156.9272664199815,156.61894323950162,157.1114372899687,157.34117281794542,156.89874199274524,156.83039291217258,156.79867222479544,157.0051299853429,156.8867568296536,157.05596885479704,156.54395393474087,156.86221230082364,157.11872251793565,157.5147912955936,157.29160723235282,156.89817021603753,157.06902661684836,156.9455361940585,156.63489201733861,157.36422205933414,157.003078343851,156.88103574314187,157.13359543632438,156.7423525337643,156.8390084550346,156.69806030343767,157.28994631339074,156.96792184314782,156.32154169051708,157.16903529775237,157.10359995369834,156.8659885177051,156.78551671148674,156.28414610824248,156.72913537454266,156.8782437442076,156.19624808575804,156.3910618822353,156.4133194829178,156.63945081147605,157.09300621070093,156.69941128939166,156.52654662973222,156.93753384389262,156.924899660389,156.7463002114165,156.7669341151057,156.8430093414653,156.41945638820638,156.56950259266372,156.9155804087929,156.6314576531592,156.4348226270374,156.46311757947146,156.7058462011216,156.6743596636074,156.74965405904058,156.44625282426378,156.98511824649106,156.7814716821964,156.52103894116746,156.60481033955338,157.0225697119088,156.57459453241825,156.48795134638922,156.8630152759653,156.89613832853027,156.57208677289307,156.6533507130808,156.67503353132784,156.4817635577328,157.44078210131767,156.70172883045194,156.62793013635667,156.26724597911425,156.48342878961435,157.0015001153935,156.8587319243604,157.03504394887344,156.68249712753735,156.91287022491284,156.81704471560263,156.78035830245616,157.36233885819522,157.29610738255033,157.39007119344714,156.95356202541305,157.60410512181085,157.23839364181728,157.7439024390244,157.8587160891754,157.68087870105063,157.7951338570666,157.94318743582917,158.05379614492642,157.99757143399233,158.389232059788,158.30072670547503,158.6486641221374,158.03955552184465,158.77823228075542,158.4948559670782,158.42490689366878,157.9959066100667,158.5331939163498,158.18062041994153,157.93605025163657,158.3963943404838,157.94352575286354,158.26665905544772,158.1651613886666,157.81989675852122,158.06254526050998,157.8413827198053,157.91806153963472,158.29342741007747,157.97299367937177,157.72773750476918,157.34925783187697,158.03889422153964,158.07591240875914,157.851860375911,157.6047544309612,157.44830755092664,157.4316139639812,157.4722020279319,157.43239625167337,157.84830446637736,157.66703637128543,157.85824315477336,157.50201064685382,158.08567134268537,157.27324760560157,157.85454196274247,157.7830348220463,157.7943605700895,157.31213894946248,157.60542053208619,157.74073076923077,157.70315263360246,157.7784966112138,157.64329888987055,157.76031880486678,157.95886770652803,157.1427806463951,157.42705336248898,157.75527816304515,157.16960563057032,157.4671560902487,157.28502897493956,157.16895588629146,156.97562094000764,157.8879888914603,157.52655241315708,157.261008100119,156.77050307498376,157.13788610408523,157.51883924104223,157.7491512345679,157.46695849172522,157.39715821812595,157.48204457103267,157.6348405484517,157.1009795668478,157.34274750575594,157.32198701448385,157.58710472595618,157.13898057879788,157.1761721752498,157.3500019247796,157.20757610612682,156.8202165512492,157.0759105038953,157.30131674920344,157.23849050803167,157.1794517392306,157.1215053763441,157.30875451957843,156.8010806253832,157.28979135331096,156.85955831608007,157.3469387755102,157.5145016970071,157.25249961544378,156.82312324983698,156.66342211151562,156.93443504996156,156.8135807676086,156.7768493675738,157.34397163120568,157.14420412561577,157.5033186694451,156.83534876578756,156.61210195958358,156.81168532433676,157.0379064845103,157.02741674998077,157.11496504570945,156.89887597345302,157.1830052771465,157.09935047465314,157.36974465787242,156.9830892809101,157.25474098057353,157.35713735162633,156.7262879889765,156.75857974567182,157.1844880677444,157.06504626963098,156.95230975656509,157.45183441996838,157.3401339595042,157.06656679726512,157.1763553233181,157.4076854953602,157.3876764093468,156.90295649509804,157.135014779838,156.9079702932394,157.1545283525934,156.8746697300402,156.72293942403178,157.1718521932857,157.18730560995277,156.9794565175731,156.76542123981795,156.950527200489,157.09094051230846,157.42803803071712,157.64957199043727,157.1260594439118,157.5115911891559,157.29475747559383,157.60993453985367,157.27356640129227,157.65566183276766,157.13773809067567,156.85033234013292,157.02301447499426,157.04380959675257,157.07792207792207,156.89708915883566,157.10410675255952,156.9230886850153,157.13673148467763,157.5793669042692,157.75734335455172,156.96659922891934,157.96047095155376,157.11397157414856,157.48460709612868,156.5157441293077,157.21085217658822,157.1331952276825,157.1022164176238,156.93528937363186,156.83342908575588,157.2991262173294,157.14974248597125,157.29980761831473,156.5545218850084,156.52125587257936,156.97951654432958,157.06653086324852,157.28794703006506,157.05393042475495,156.8568852396117,156.38528435747799,157.0147713321056,156.708272692455,157.02516546098198,157.2929534077782,156.8826755647605,156.83198528002453,157.29541687545773,157.21814753530612,157.25799121928677,157.22775896567646,156.82954894139306,156.79343910477505,157.18542179802955,156.7344061302682,157.2619267822736,156.64709707029755,157.01814137230085,156.8826530612245,156.75637198622275,157.01089165867688,157.07618388683886,156.77347431329733,157.28256937228187,157.38320351661912,157.19582355882014,156.83581404247178,157.1671734862774,157.18589202058214,157.0079490034945,157.00824481343713,157.42288422999846,157.26906779661016,156.85760306807288,157.03363314883148,157.33809432146293,156.93609181284305,157.12738314883148,157.17869085597877,157.20534236557484,157.02569617822164,157.12279151943463,156.91521130004222,157.280422464634,156.97192133364064,156.9332898572963,157.02795591567144,157.11667499327467,157.03860188208182,157.50005789493997,156.8895700819986,157.22048002465615,157.04829785599017,157.10837153754287,157.68200270635995,157.46193304535637,156.36135479441606,156.8196715020339,157.56728395061728,156.8007446645171,157.267717445759,157.2752636034788,156.99324894514768,157.38678298463677,156.68170502853204,157.24143901500577,156.7841605392157,157.1297548605241,157.59435346825273,156.9155291411043,157.3742719382835,157.27030763912893,157.10246438197922,157.33724644932835,157.34077782056218,157.37583298023958,157.46572277304116,157.2310088849571,157.22687588938888,157.88070447067932,157.45771086662808,157.9051550387597,157.22058088093866,157.76076517967783,157.7181213246673,157.32599899811183,157.67673529298156,157.65374507227332,158.54635453063125,158.29393786993694,157.54094006236286,157.25909702209415,157.7617725326854,157.0176980958231,157.65385359062608,157.4050754775108,157.69662964826065,157.73923658205774,156.93747357903231,157.55765588155708,157.61829018150857,157.47202878365832,157.13872609500308,157.53011163904662,157.68279152765925,157.32830568124686,157.29062041257822,157.2911470599591,157.28124396368554,157.1452526887938,157.48968054211036,157.10254730432771,157.05455806426755,157.3982523295828,157.3399450953099,157.42138437741687,157.15549814929057,157.36901081916537,157.24988411619282,157.104678002616,157.40392262846996,157.8949596147872,157.01199815413014,156.97377427417806,157.3362005785921,157.17373339511894,157.35024266235266,157.31780853606816,157.2840291430554,157.8746798106031,156.94909328415554,157.83090796501278,157.2283082141618,157.44875602700097,157.3446334220371,157.35025654874426,157.15003650055712,156.6804652230469,157.17956013534297,156.96806716246263,156.9251724137931,157.0839738662567,156.97394874155924,157.23875086531805,157.9288950853956,157.38927208970753,156.97991628585692,157.37178254011005,157.39376683339745,157.26879402594403,157.3512689963743,157.48452495663904,157.66332123832316,157.0762116735101,156.69612984726103,157.14771462562842,156.97046866610415,157.04283796740174,157.4603345925526,157.31107435473325,157.54897344859523,157.39744526951637,157.13789392774788,157.1832225339123,157.34916718075263,157.39769008662176,157.37636854279106,157.3501213826057,157.54396388749566,157.61656109995366,157.14939916807887,157.18433498673434,157.49791441371852,157.66934611222754,158.04483817072696,157.27123340388687,157.11298935802375,156.9178875508169,157.40487203206908,156.80313695485845,156.82307338041142,156.65427139523317,157.2512617020457,157.0890872023695,157.2058223266202,157.1063919744782,157.12723566291012,157.015445498905,156.68927982829328,157.39309413580247,157.3879410175249,157.31000578369,156.94468346650277,157.40198386661007,157.53847343592915,156.8614550488349,157.4920720860082,157.11759034285936,156.93362337812343,156.8307053303592,156.94970004614675,156.95703606658446,156.89831226880395,157.13040293040294,156.9344085607606,157.35123759508824,156.91945844070926,157.19002201027146,157.42536128007438,156.3644555214724,156.7083205403746,156.3708419362239,157.09239297813366,156.64546258215782,156.89180151439444,157.02195731590078,157.26348114956735,156.90940230150483,156.64531094241238,157.08907116451016,156.95890042291427,157.18190582700242,156.70348056333705,156.92243735324686,156.81930350553506,156.91566914283516,156.83240244982858,157.36563486563486,157.37131449631448,157.62325993907376,157.2091858359342,156.97990684783863,157.7575874883865,157.24454654260452,156.97484300959277,157.113367500289,157.45963692545385,157.09466271597339,157.57882125603865,156.7918855696591,157.54370433370704,157.29330040135844,157.11301804748527,157.4307680420337,157.42798227018693,157.1843870470316,157.34610339506173,157.01880552243972,156.93902720147534,156.8106894831754,157.30945956364198,156.91654172913545,157.65729512628408,157.31101161758463,157.24732301055388,157.5086926286509,157.17383436645747,157.28268837532312,157.24007561436673,156.90461905311335,157.17433982600662,157.24785271347687,157.34762657617708,156.9202781619794,156.8389488647278,157.1230923385232,157.27243602115257,157.0609465178915,156.76569037656904,156.76193766313526,157.0307046268829,156.9543428132206,157.0669646297295,157.18540623796687,156.85411476101038,156.640385793019,156.75132396960626,157.00130995954538,156.50080379698386,157.27403067910276,156.49712995560998,156.38587830080368,156.96063416323545,156.5666564511186,156.5733992412921,156.6468917881811,156.94149120443436,156.92003386438853,156.7276600644864,156.90037695207323,156.50613931071416,156.60092780738412,156.48131985913335,156.94751169388852,156.59139209540555,156.73862591911765,156.6541327524934,156.19032012195123,156.48220572478186,156.18619007697583,156.55843956969488,156.35354577410973,156.3397861779305,156.91626297577855,156.59942539743344,156.9691892932794,156.68312425672306,156.74267300905325,156.59253725625408,156.43878213699048,156.37238669311765,156.59748259239421,156.60568716751501,156.7375818620505,156.50290253589978,156.34935481407956,156.37797437461867,156.5943973094856,155.84721114781487,156.13931523022433,156.6148935356856,156.63635668692427,156.49622108557907,156.5042173962826,156.72976690867407,156.55700026769665,156.7670200145421,156.3850293915566,156.48153246157375,156.38713003628033,156.45756556311645,156.6022966507177,156.73824013472654,156.40635259983202,156.652067381317,156.2879752869837,156.69737799043062,156.63086914995225,156.56288659793813,156.36141407978033,156.26002212304994,156.28248932275778,156.1405881008608,156.64853476345527,156.87829754601228,156.57147224026593,156.39603013730064,156.5735900962861,156.80208771460252,156.00920397063857,156.80470759897094,156.28260206028233,156.29946932386517,156.73578761875575,157.0570407928094,156.65726672805403,156.55892501150132,156.58659517426273,156.94962449451185,156.47985291864563,155.65398488818013,156.3985979160282,156.54981592268751,155.9178134265947,156.28558324415226,156.4296875,156.29166666666666,155.84442921852994,156.46989934555475,156.39306114625265,156.4830797531905,156.1826827591475,156.04286803966437,156.19658348301294,156.52877132451601,155.8924489484913,155.92900469232822,156.39633912843686,156.00206177694628,156.20580464831335,156.61806169093074,156.1587938546205,156.51768538034105,156.23307925077566,156.39982391670495,156.4030553641167,156.16708705954292,156.5945862929545,156.79385914411822,156.88340376488668,156.66832573988285,156.36996644295303,156.63462127008415,156.52586074980871,156.51582399145886,157.18263840896876,157.25758509163714,157.51144094001236,157.43717196665636,157.15993836671802,157.41955335371753,157.12091087735521,157.136449608214,157.0850063581365,156.74524276323376,157.38437475863134,157.065412635393,156.921021263506,157.0864477887687,156.77992545056296,156.64691187209348,157.29457903481318,157.46726731371564,157.15479039604725,157.34859726408533,157.173660077833,157.56363495566654,157.22596951572447,157.28071056188455,157.18427243626826,156.77792737344205,157.31341957906932,156.8892733564014,157.30766852195424,157.04639155396293,156.7713068181818,156.85655061226058,156.4056131227775,157.4013587061412,157.08270185021348,156.90910490856592,156.99926970826766,157.08775305981064,157.80653539034034,156.838985005767,156.8230047670306,157.5402627511592,156.37008867145695,157.1894473329482,157.19196049687525,157.07745041401887,157.35408022130014,157.29962762486085,156.72505356596267,157.105091383812,156.76807102131406,157.37480757389162,157.68952819332566,157.45732924021488,156.9436199510404,157.5671814225748,157.64017140210007,157.34390657519464,156.62578495941185,157.32085953474018,156.80881337731074,157.473279195669,157.30740411726083,157.14108491292959,157.15032931479413,157.03742451632755,157.16440201701374,157.07381337025924,156.91781558431583,156.54234621435972,157.2349581258925,156.67450618707247,156.1395384321953,156.48605470845146,156.84359989240286,156.2633246792914,156.71816612315365,156.5203186640622,157.4003017641597,156.33751866171573,156.65904900906438,156.49407114624506,156.64289278722507,156.31991736169562,156.56651077206163,156.47722392638036,156.51579068254028,156.47205634665443,156.39986232743126,156.7062003911193,157.1177513196933,156.93449680941032,157.29392282215204,157.40361631583005,156.54879822412738,156.95311778290994,157.38272368726317,156.48295389324662,156.29913289277664,157.17529988043353,156.4034772640428,157.0655183020609,156.69595707990035,156.70625047992013,156.92206442674055,157.22136610548213,156.84049032752347,157.26063317009215,156.73787413660781,157.06994838610277,156.94183951232603,157.0442943231106,157.23074849838287,157.1189079335864,157.01463507833398,157.08893982808024,157.06031441717792,156.6765830529214,157.0071371014159,156.21817072240447,156.777155569193,156.46007183249273,156.86874232186733,156.74303559796144,157.43371212121212,157.29715672676838,157.03492576352028,156.83688134030126,157.05604458965982,156.87571554804256,157.42395708717632,157.04319205450975,157.020285846012,157.29396133405223,157.22515025427646,156.75647807421038,157.43051161355044,157.29949512467724,157.11995851578706,157.10863295520093,156.69831887618025,156.88499865338002,156.5476528614747,156.28559932556715,156.55230965152626,156.26243891176358,156.5430781129157,156.20363874648268,156.0080971659919,155.8496744616096,155.8805780346821,156.31358196816544,156.70175642666047,157.2310386426431,156.51954422556972,156.91849214335474,156.77741325408158,156.33357700742565,156.69572266831378,156.24974069378817,156.64146801709862,156.8822870820786,156.67867590454196,156.50674196150743,156.1551189245088,157.25542047390428,156.5950934399754,156.9644317568089,157.17712162841994,156.5161401757955,157.28003718336043,156.91799807507218,156.61967137768585,157.6296110317123,157.52617005730107,157.80974522537755,157.83002876318312,157.97073021224426,157.8716852989431,158.55351928692178,158.4295397105001,158.31189158236305,158.5344979167463,158.45986571036167,158.6922664008282,158.49340794113138,158.24752020221362,158.33885946734208,157.89652799021107,158.17194622131996,157.94048754434823,158.11369202510332,158.0897224880383,158.17844265439203,158.2425150851301,158.41585412667945,158.05778663396688,158.74274019153538,158.94718988512835,158.55604832543202,158.26526717557252,157.91138177236456,158.38121716455115,157.7281831734261,157.36809675947057,157.5395752158301,157.4202582913037,158.01655400215085,157.54661519055082,157.69205741626794,157.60092656405544,157.4382073853893,158.06194690265488,157.7914436458174,158.13707451701933,158.10719631548648,158.0172149375048,157.96171222911403,158.14262163094736,157.65971824533273,157.94674647022714,157.4887295472749,157.60816029979733,157.77155552150765,157.19932200807497,157.82767493663107,157.43396010526718,157.93492441101986,157.355464876821,157.4660249799473,157.47929175111858,157.2082284755586,157.61654279365567,157.39986981160973,157.24926383418105,157.05913793761692,156.9291534371294,157.02583505312236,157.6578977776066,157.18276060664235,157.50512563588717,157.11085955487337,157.35666000921802,157.29916269780304,156.78815472318934,157.13161023123826,156.91102003294137,157.04578193241898,156.91593360361048,157.03496047279145,156.85554662687025,157.0110147374885,156.6169097102614,156.67769575029644,156.48279676533414,156.77046542807892,156.5589843600627,156.45752158300863,157.08802059320732,156.31085513769168,156.4781827220926,157.1278528268483,156.9799241408375,156.74043528064146,156.81773098344397,156.78483339716584,156.9552747463144,156.61340837736427,156.35722194647016,156.97907209356006,156.6748419237402,156.2376808275125,156.28534341236207,156.72677050563954,156.12596117244004,156.45745087544918,156.20928366762178,156.07628378635965,156.6382236867313,156.73133527518013,156.5691109917926,156.2020012985525,156.61966270601764,157.09271370316227,156.46619067618647,156.82843438219493,156.68304066720228,156.61681778185851,156.66105263157894,156.6589564487194,157.13531898539586,156.69435838592466,156.9692095058932,156.85782735357253,156.5435372330264,156.60678925035361,156.73979572319345,156.7018840468714,156.30517326827038,156.89480145789372,156.44662051027044,156.0943295631974,157.20838148062552,156.90403807769079,156.8713962148259,156.49967551059362,156.78467139298715,156.4659281894576,156.71452094661868,157.19598860486602,156.79474107861552,157.00583627706956,157.22549321824908,157.31529972699659,157.339027393044,156.95325957968075,157.27116625691457,157.10912226906862,156.64751440235017,156.59458841463416,156.60351078038542,156.95349816289038,157.11773055086695,157.31181804210848,156.94712678858366,157.59205706574127,157.31574497521234,157.0283185162477,156.90519291247986,156.9930448816477,157.1095327676892,156.84595350262362,156.7582682590721,156.33951253003775,156.5572656100821,156.46093809778867,157.20580424156114,156.7757881848791,157.5279397567098,156.85030651340998,157.290496344748,157.25397985080366,157.12142664768572,156.79361066421512,156.79838276998544,156.6540579821005,157.141736522341,156.3539596391989,156.55767025911487,157.03767848208443,156.3933549742219,157.32253217230485,156.84149103612424,157.02351856121743,156.86297063108657,157.3218195836546,156.8659781941032,157.20756024328278,156.621938150643,157.4063245364315,157.081610820311,157.89033872209393,157.70559096843562,157.04299180013794,156.64378747946984,156.80265168882775,156.58938547486034,156.73907213730223,156.67699487414887,156.6423689335217,157.03438747313479,156.99183563954156,156.5357211115783,156.84790772532187,157.0034950263087,156.59030010718115,156.77363260303355,156.86300164505147,156.59533906399236,156.47228796091304,156.43553249131912,156.74987547415608,156.51816341342297,156.54168893639766,156.91684222622285,157.07522667896112,157.12205887997544,156.38002969279378,156.88816874400766,156.70554917719096,156.7726124885216,156.83491162826363,156.8750670446709,156.6838117106774,156.8132292742645,156.8808208668968,156.7088017129311,156.20201058604013,157.09512466863882,157.2164853331283,156.96580966999232,157.36823466009702,156.86731998621903,156.90402702598948,156.65713410665748,156.97568844336905,157.33265227447956,156.75954461821527,156.92479097951983,156.68860943909826,157.23194765204002,156.9867404588954,157.0298788694482,156.4202815611766,156.58697318007663,156.87586365730078,156.43101273081774,156.65971556714072,156.2558680079256,157.2598670304754,156.66383889334708,156.95161661930726,157.08238003838773,156.61835157266395,157.26828232933278,156.68224799969374,156.62193301435406,156.8116788321168,157.26941766293868,156.69519392917368,156.38560539318956,157.0586042579356,157.21751532205218,156.69783509903272,156.65186092816663,156.48925676708976,156.32685404414573,156.99127527096624,156.6600651216242,156.873272950568,157.04141511247838,157.04098423683197,157.00444597754014,157.16127674231697,157.58838898067393,157.3577310505956,157.16674340085942,156.92523042796498,156.8699778066886,157.14866787128523,156.59804333702755,156.95481939272963,156.6756829240259,156.85313772179123,156.5176146578434,156.58573235711273,156.61109622085232,156.70218464246088,156.52501242022396,156.72935323383084,156.85943713673907,156.65689609049565,156.57911597574463,157.2571395625937,156.63432550309895,156.8363141970817,156.78257210618926,156.40667302192566,156.6360058086212,156.7661311965648,156.8507165300023,156.8361458692075,156.88997123681688,156.55224051648395,156.83198651909157,156.91129186970034,157.15131351205815,156.5642131785905,156.48355137326908,156.7471339040049,156.62835073228558,156.73546979094877,156.95535645914694,156.60388371738136,156.7849634980698,156.77672727272727,157.13405463474524,156.6036655211913,156.8755599800896,156.44600045665575,157.078813201978,156.82088467130941,156.46249380928796,156.6613728334733,156.57500095154722,156.99071836766004,156.41397706054948,156.23315333130515,156.56124823560828,156.771017826337,156.43195514532002,156.98586898087706,156.01599726412584,156.9231535015507,156.98108792389135,156.66840131629294,157.01809260962895,157.4910403954584,156.8166896235078,156.40283655495824,156.641990430622,156.32006096399314,156.60200259879232,156.12005181544558,156.6328973535261,156.53654903758022,156.1727078891258,156.5489895897122,156.19986253245762,156.519266827383,156.2619857126485,156.413457129757,156.46420791133193,156.66409754975268,156.5100252544578,156.257793398533,156.2429535832793,156.46499980884658,156.91667306658474,156.56551645076235,156.15113619033093,156.6042128603104,156.54530521812208,156.47391520054956,156.4602793040293,156.5386961494472,156.4834325851275,157.1820972259525,156.79011825940526,156.57044056398303,156.57551566080977,156.88859507932858,156.42564729244634,156.96905793489515,157.006577429033,156.9251752806406,156.67097910127842,156.87788159607874,156.7916107511215,156.79271096803862,156.47673085740487,156.7894555346948,156.6458915916491,157.14991737442836,156.80665695222027,156.78452700114897,156.5932261636565,156.3523039365273,156.65004207144497,156.37149291903654,157.22998342392353,156.95488548739786,156.93301984172496,157.30785131876124,157.1035208572522,157.39977698311992,156.87506216288588,157.02528876779616,156.78130640144389,156.8746882553812,157.07083798023305,156.83128834355827,156.48737277110277,156.90603382013836,156.92957800560612,156.53910678719166,156.5508899521531,156.57589678802495,157.0697003500404,156.43853947619957,156.67870271098178,156.37420783385508,156.87479375311767,156.72244757385582,156.83908619696678,156.63695901953275,157.00897119975357,157.0900280736838,157.18126539408868,156.83087867717745,157.33249613601237,156.5810914386449,156.601234283962,156.55461379151646,156.7422755781292,156.83947388662412,157.34476234603653,156.80361747161825,156.7207729839794,157.10171384556133,156.30369210797602,156.48170825042095,156.26276339439366,156.31922635005745,156.65253004669677,156.61990187059183,156.76140068269856,156.27593052109182,156.73897030614594,156.51609318721742,156.6984724034697,156.37608928298425,156.6565245750681,156.4562564553766,156.22011856951616,156.49635512584408,156.3088967154123,156.3743106617647,156.62258572361094,156.47507084322586,156.62729578114192,156.68105303612606,156.3846389111901,156.491337677271,156.53920856432805,156.03564613388292,156.68019193857967,156.48678869571876,156.7020664800828,156.16027794746486,156.0996758817922,156.22475383558506,156.5149948293692,156.55293757649937,156.65556492411469,156.59069678407351,156.97352138657237,156.80520825343254,156.3040385497935,157.005567714933,156.44162455979176,156.51813115505,157.15172307455092,156.54909758335882,156.74688876124833,156.79096630593293,156.63126888795378,156.60199119280108,156.75175025823484,156.67206152433425,156.57647778074968,156.6833556789887,156.14717642130915,156.64073620570903,156.56167316662842,156.6527060623446,156.4885548603693,156.75610129293855,157.0738721443655,156.58750430160975,156.54189880180112,156.99013776430408,156.64248803827752,156.8026073619632,156.77981265532404,156.3927644634407,156.79621961506018,156.3519224900824,156.7865142769772,156.60730506469218,156.29299702811858,156.77541660296592,156.57955022717726,156.4494729605866,156.40740035058303,156.66557176686274,156.87813757424794,156.2444850840096,156.68630597585206,156.54229976330458,156.69830715732354,156.62748546956254,156.84001227135022,156.17433045068384,156.8608458913302,156.3796317518527,156.329680400168,156.2176681409181,156.29419404125287,156.33285038889736,156.40816638046175,156.3203787126823,157.06224529027298,156.63758286393073,156.1788602380226,156.73186434182793,155.9979065961253,156.76658344536202,155.93066818960594,156.15553267749561,156.1477571553794,155.73032768189768,156.3678847774458,156.6608007377238,156.00450691314643,156.03748474679682,156.18222459974783,156.5186747449958,156.64502995851896,156.5370214071971,156.60018410555386,156.16357800619005,156.15316827528326,156.09122485591053,156.1666475994356,156.55084486581544,156.36125554366112,156.4618767207097,156.43366624574293,156.20425677995195,156.75188805827105,156.50690169387832,156.75125502969917,156.07932086989697,156.6202696491497,156.2672483067386,156.8365144590806,156.62583706424826,156.46007328803725,156.3800122436486,156.4632774845077,156.5019138023425,156.48439770554492,156.67731800766285,156.46871771323615,156.85965653693955,156.45733083425773,156.6536190768287,156.43614577750554,156.74785341919656,156.58378936894877,156.2619620422347,156.6620361487394,156.48872899843087,155.98694029850745,156.38246218648285,156.46978042995946,156.46200956937798,156.6478495653173,156.93375345834613,156.47428637024566,156.41047116414256,156.4939966350566,156.60112531577738,156.596622529265,156.21521208422337,156.43830535693803,156.5060991931475,156.85216029338733,157.44371903682938,157.2274908811672,157.03027163904235,157.0805596125759,156.7228869458506,156.18497791990254,156.93810800459593,156.74726158559938,157.14410362853627,156.65290806754223,156.37168580475335,156.34361166234163,156.72038768004904,156.68551750526115,156.4891827841908,156.07107563664007,156.6488131699847,156.92533364012885,157.29076703998768,156.7174295774648,156.48847855943842,157.05167968599685,156.6201562260683,156.7911438548022,157.0448473649767,156.5500824165293,157.21113251155623,156.53356836296751,156.48387590375273,156.4948817237281,156.1606945239458,156.38945597736745,155.85105409629827,156.67888394227816,156.17885806007797,156.2562015059435,156.70502905075224,156.67737226277373,156.4555687430606,155.95081654456655,155.62984768488624,156.36057232487855,156.16323956581562,156.75965384615384,156.3937980346423,156.33853628677454,156.66158805695207,156.29536849351743,156.23337026706912,155.930598407801,156.3188117295766,156.29401650618982,156.300980918078,156.36342051851568,156.38820065764318,156.65422771672772,156.57308558128886,156.9703629958646,156.79989278603156,156.25020017539177,157.07618570988606,156.38941774668348,156.66872246696036,156.66405890474,156.23047844514872,156.56009035567976,156.60288767186245,156.3878790193233,156.9809059126359,156.88636101610237,156.11424106121828,156.6068137498566,156.34564885496184,156.6323055683387,156.30854919314845,156.68359375,156.5343919383159,156.43402140672782,156.48855603530626,155.81517037261895,156.15050689839165,155.73276418136976,156.3189595905584,156.84332398909413,156.61359975454477,156.67064466615503,156.48351480420249,157.0525586230796,156.80502034236585,156.1011612411955,156.8881715471524,156.8350622406639,156.13936113440573,156.26754436176302,156.67736739155447,156.52446161496385,156.37965014131845,156.58597042372233,156.6602905661824,156.12630094163396,156.63233376792698,156.48974986613632,156.5352781287087,156.44503098462243,156.17974218720116,156.86059743954482,156.69619091326297,156.93371226668714,156.58106141828765,156.42874617737004,156.58676200672988,157.09830064352047,156.36910674715367,156.7202834705995,156.5087337079081,156.38819081083145,156.45666398806108,156.65039871185402,157.05819272014452,156.63619266935328,156.7528693716172,156.5140394560429,156.2796299128307,156.45033950972493,156.3932872051684,156.34017415320878,156.8537759463935,156.89004812319538,156.56756653117571,156.52510942179222,156.50713354299302,156.33067668020539,156.22170803533865,156.75971256196442,156.5955379771139,156.63754618226602,156.0160391048652,155.85968590378897,156.30244145490784,156.49321423094617,156.76111025680456,156.75911593700667,156.42095179707258,156.51950042142366,157.1668266461893,156.9508410283919,157.0988465974625,157.26421714153525,156.56130393096836,156.710407239819,156.9304213969598,156.81111837299605,156.92113163972286,157.04691709645138,156.8948097418337,156.86988804678182,157.0218076923077,156.6871952390094,156.95783155707744,157.2709218762074,156.6778835085565,157.1089345621409,156.35786695229714,156.6705679201842,156.20590820499103,156.54524210848913,156.9042353031525,156.7672460201492,156.49472108112258,156.59011360147375,156.82050986272927,157.03071948261925,156.9203999230917,156.98553178390026,156.82924021488873,156.7750911533295,156.76409842988215,156.43481254781943,156.85706045223813,157.0047701481054,156.99019381633596,156.95502767527674,156.80395621279047,156.7501438379809,156.91201535508637,156.82141074376992,156.67350067062657,156.42759067851557,156.83546442422147,156.53210060870563,156.7690861658866,157.1859570868261,156.40532996864724,156.86521471921333,156.74692044974864,157.07511737089203,156.56779336245881,157.01114870059973,156.87922686750693,156.85005771450557,156.5555768420246,156.94270112290417,157.14670369941751,156.41790987682657,156.30987475179472,156.98089857411892,156.1814534617148,156.1056284319707,156.56980308022375,156.83059899335305,156.70725797146045,156.15385495746386,156.43778519114997,156.15857951936323,156.51211085946795,156.9028382177379,156.62074261797795,156.54140957344882,156.43784302437152,156.65845705297886,156.2154770101752,156.40026794258372,156.5296849215182,156.51168224299064,156.27610572148805,156.9065204847086,156.38128037347414,156.90950330616639,156.88418828049953,156.28753200106988,156.78553874510405,156.7027690419575,156.278974046267,156.9586678446587,156.52615102695273,156.56403602503434,156.73818460360016,156.73779274452778,156.58326021439743,156.7666373273124,156.50352797589534,156.7540501299098,156.89328638138252,157.2564495138942,157.47561488735033,157.0832951245606,156.97864700714314,156.84440205988938,156.5571554061796,156.808500038323,156.85748254966634,156.8194083473475,156.67104306220097,156.658144156539,157.01053922507953,156.81614830703234,156.783569816805,156.78826676858398,156.86907725897268,156.6210804395268,156.78548145875675,156.2944385108331,156.42120168388826,156.22971323978035,156.1949210706932,156.6574272588055,156.6477759095078,156.65781620628968,156.33630986452968,156.57375919117646,156.8083972392638,156.5906381352694,157.26347789279254,156.46725474472066,156.7154891824622,156.78974378614376,156.4366648850882,156.69815077146905,156.79781734635267,156.72177373072657,156.61275391148004,157.04453752449757,156.63142572588677,156.78400460299196,156.56825494101426,156.35875878936105,156.64995970372644,156.05520793590233,155.8411726681623,156.11265455655627,156.20339565051506,156.65718672039915,156.19387716150703,156.556458101843,156.18738539119803,156.08594852240228,156.08692997519557,156.26696244167368,155.9840821468107,156.5473962727203,155.93337392032268,156.5690885376707,155.94126838935895,156.143919743668,156.84955003461272,156.3323901655642,156.38907601622904,156.13212296895261,156.80224167050514,156.20322654637204,156.46967084339195,156.70012282183157,156.46489919277707,156.9172119159418,156.23413516609392,156.4963299946479,156.34425978987585,156.29653853509276,156.56497890295358,156.56477120428872,155.95759166286322,156.37735272782805,157.0078510972387,157.0188801834512,156.95223149353134,156.66292951710415,156.34205415286186,156.05661238776443,156.06767634379887,156.27619193387923,156.06026573266837,156.71780106721948,156.16615702163443,155.97649613348062,156.06189223201008,156.6571801166002,156.16954264335345,155.44633131618758,156.35304015296367,156.3144461849998,156.36498131625106,156.11047176282295,156.50063211125158,155.898160115563,155.82015374077176,156.19986274210768,156.25228079551093,156.02063231760803,156.14147811820368,155.94935312024353,155.91484499961916,155.82391900121803,155.82224844862375,156.0290781761437,155.88091521681196,156.06140484534512,156.53953720021454,155.84679041870706,156.39376911314986,156.27936798717656,157.0425924502191,155.70092676997874,156.13399465852729,155.89068148091778,156.18514285714286,156.3061950286807,156.48636433277156,156.27299147260143,156.21836228287842,155.8060693531847,155.89179118664688,156.0607355409736,156.0848415425735,155.8462182316238,155.7237037318827,156.34695282910593,156.02105383821788,155.8506763192989,155.647877681424,155.952748386111,156.21008339071227,156.08133440452963,156.0340726577438,156.2881880733945,155.59198846824975,156.2452000305974,156.1745989304813,156.1123192552745,155.9916927063486,155.67281158538904,156.32597720492618,155.8325533614884,155.89394054878048,156.3391633816832,156.30212196520742,156.01526921026579,156.19128708334924,156.2663990825688,156.16664121554555,156.28024771589128,156.43445635528332,156.0301679808022,156.27731285108334,155.85924938083446,155.96823283241392,156.46172697683323,156.02288390511364,156.2582935674747,156.09316888770095,155.81986986796545,155.60043212918387,156.01805851874428,155.98370144706777,156.46403331168582,156.58155049459398,156.4364478114478,156.28601395934245,156.52870264064293,157.08675060644566,156.50943612908165,156.60492361882154,156.1490099009901,156.4523162847634,156.5541099035665,156.8914294483235,156.0877573543403,156.19772891818772,156.35672313797315,156.1374985705028,156.14280815393408,156.61968594408273,156.11970891911457,156.45502847750467,156.5203761755486,156.65356049004595,156.1436245190293,156.22296033291337,156.27881608055534,156.32894033157612,156.37105333486045,156.2388367300206,156.46668195894026,156.69104849530382,156.1338363629435,156.3885725205427,156.51504939878993,156.29851031321618,156.6556623645207,156.29294126644234,156.6356726044226,156.31419305608546,155.69897009082962,155.9993901974236,156.25888655060265,156.1636203732028,156.2162811999084,156.22793641111662,156.20204642638973,156.0439573008006,156.63179884242402,156.23251193887296,156.4666487874028,156.5052728458028,156.34099162812035,155.91092096718745,156.21916181428134,157.11402424897676,156.25587537319146,156.3219715828578,156.5435684647303,155.97281508915276,156.0088485449483,156.09785266697233,155.9382546232615,156.09187535844006,155.89134831889479,156.3436890232238,156.5615502686109,156.5739683512778,156.9443823903247,155.76886523474624,156.10238894825218,156.33021139951833,156.51283820035258,156.48080088817426,156.4616267503252,156.46802814746826,156.79837035898225,155.93662106025383,156.223617898595,156.38409229828852,156.35005164696432,156.71854495222746,156.6024211776424,157.18609856817568,156.00799330085263,156.2934026450577,155.9519391634981,156.7513983602789,156.24278956203267,156.11938421674353,156.13820580273742,156.5250325845281,156.58517156862746,156.54155988218645,156.67410118571047,157.09963198650618,156.72674862553453,156.97701589733768,156.67743044940386,156.64881088934771,156.24291744305435,156.30278413424867,156.247667288723,156.60329472919773,156.69719819337058,156.50872293212947,155.75402996396738,156.2739084050903,156.15462702456088,156.6729161098171,156.3288756810302,156.322830145546,156.74040121207472,156.0580431807815,156.08561539631827,156.17380716840424,156.33980323367908,156.09744330053564,156.665824432449,156.52473545478855,156.460042865891,156.49821804943477,156.37121038564337,156.59941061655633,156.4154046198562,156.52039800995024,156.3147865271519,156.32010975191494,156.1921625433614,156.61618678832957,156.42755980861244,156.2111568986569,155.88210454234192,155.92125684723067,155.7048117392788,156.16625329110542,156.11399260135008,156.40098118125024,156.2259199755183,155.8242151782993,155.8512617214302,156.35301094192363,156.02394043528065,156.4872060857538,156.15696763593292,156.30149848618404,156.14476801956738,156.32156382693853,155.97825091575092,156.47521675746182,156.0466608117912,155.72066316830177,155.8355606320198,156.15890672782874,156.1161282941154,156.10830283623056,155.8945646799285,155.90746382330542,155.97202557661566,156.2101733663555,156.30141992462597,156.44098080212888,156.96213247912138,156.94710202838985,157.12979104023142,156.80818394977686,156.77517006802722,157.2392080863353,156.68040185821656,156.6638468220099,156.87498582819998,157.20320449540588,157.30761663324378,157.3622282814512,157.52262984179976,157.5815594763802,157.84383436632572,157.4731296899871,157.65183305559765,157.77185994461516,157.71207524271844,157.87911337154137,158.0312286300433,157.5444141276338,158.2471713208122,157.55816592895243,158.11813865147198,157.68313271254448,158.01677443895016,157.50013232013913,158.1990721375062,158.0264116575592,158.04708910591265,158.45664849310918,158.06455862977603,158.2704291150209,158.27508787844428,157.81992250686528,158.25302480338777,157.97693991545893,157.96513692162418,157.43504588536183,158.49362428842505,157.42512131813564,157.79716392512762,157.94469487480586,157.9700174361307,158.00037863011624,158.37732978318752,158.05815893236274,158.056687535572,157.66254677401065,157.51347974252178,158.0106419368325,157.76650362112767,157.77407519479536,157.89275813617894,157.90858683680833,157.56663891621886,158.0076510220395,157.59426555922175,157.28558452863035,157.77188308722788,157.83390423993302,157.34922983534412,157.3956356736243,157.4307569660618,157.3205678065814,157.7962228157192,157.78691717264292,157.22114142412036,157.22945218480695,156.97541945990986,157.41822750114207,156.8838548374877,157.5714340227429,157.58260537860005,157.01785036080517,157.00114064104025,157.30998702983138,156.94190414753538,157.2947564972182,157.47523958611737,157.334947199878,157.39929086126043,157.6346477151154,157.2740498133902,157.45996261397016,156.88028997608836,157.6159517170251,157.30688656966558,157.10180711432375,157.46809893344548,157.70889518847687,157.22428124761686,157.61671128107074,157.26759865914977,157.31129413559063,157.2765819403099,157.20241944687487,157.5292858235204,157.60804193128777,157.72080732258436,157.52328777582653,157.45314471420377,157.3060159256296,158.02666768841718,157.74742878990634,157.33372740446953,157.77433797642738,158.13064497563596,157.77916363775492,157.95653504744413,158.16470949420523,157.87219310661413,158.08347072581572,158.03622910596533,158.62839063163176,158.13193777607069,158.3682527451358,158.22838625053046,158.12806026365348,158.77211765160592,158.19761996161228,158.74575223972815,158.49336053269698,158.12057828360506,158.2050719618256,158.24689172023557,158.20310513541625,158.12862862862863,158.45034517335802,158.17265438285406,158.08095421315892,157.94130726471153,158.051907105506,157.8122190201729,157.89536805689025,157.9948413920542,157.64780986809214,157.5344065777846,157.49859965470938,157.50615616195145,157.79498570655954,157.3610982569798,156.76446692726296,156.7349781290768,156.75165626316394,156.9652748434679,157.08604954367667,156.8083177105253,156.91821703939544,156.89170118116274,156.94004373010088,156.94306473935106,156.4690719675208,156.76559197632864,156.28585133734987,156.12807995387277,155.7185435550776,155.0382058531367,155.55836313987925,156.12675567217164,155.9968100234444,155.9431150374496,156.1559315516247,156.52324461734005,156.12049765762998,156.19765481299817,156.5849092939953,156.2694744116405,155.7745521219298,156.1383693690234,156.34839627720945,156.38967081987386,156.53373808791883,156.12332604274587,156.26659500134372,155.98094910854044,155.89584688995214,156.45623893464708,156.42824741475417,155.92122789558294,155.73787705231004,156.20000767636446,156.70166834015603,156.49333128339163,156.70858990147784,156.1119733924612,156.42753179102192,156.63550145906927,156.06307234432234,155.93854365230652,155.93674687345575,156.1829142660918,156.56463339966325,156.5352625527022,156.40789171828402,156.32871113148445,156.72421988806255,156.80375158233917,157.12575565053328,156.57205876711802,156.82637075718014,156.61911900369003,156.81123819758963,156.86194833153928,156.2576295787021,156.5158334611256,156.67132867132867,156.09649591571875,156.53277182235834,156.3245650927165,156.2780433701763,156.56926090964967,156.4102868522845,156.24734521755798,156.49492123117022,156.20518614983914,155.8086906803888,156.29363803399173,156.30364047008382,156.32470165238678,156.56114969876052,156.17407790417099,156.50681460436903,156.263613387455,156.11701070336392,156.79834328645734,156.19743687834736,156.2818578649104,156.33614121070568,156.49551414768806,156.26771984852542,156.56275179373057,155.8923194206213,156.1242022394619,156.5125776516604,155.99384979753992,156.29176551618582,156.28258203005214,156.30406803033785,156.9893998381066,156.49131884557895,156.8265620190828,156.7328017872275,156.6510635024424,156.03797226572945,156.96829615932816,156.62618617695648,155.8532407584023,156.92886288397875,156.46009874842116,157.04573852680292,157.0829161210814,156.86820929426713,156.45053429851777,156.56887353674918,156.28306282222647,157.20481788398536,157.26248840086606,156.5214469490419,156.75872650556195,157.46104247104248,157.3673012318029,157.03056903056904,157.223275428483,156.86968259477806,156.60215841202543,156.61002892960462,156.7619231661127,156.79796730687482,156.8014975491142,157.53990262901655,157.0114006514658,156.58689942839487,156.93138392511798,156.59578241258336,156.42134809858885,156.46856944765426,156.38315846320012,156.69641958583318,156.83163028332558,156.6820150003866,156.219356328919,156.64607067001353,156.37231953801734,156.60388933904386,156.92631578947368,156.55864626796478,156.28175306169607,156.8123961513196,156.51211712579465,156.73240958740206,156.9648410304015,156.67828739093505,156.46547747193603,156.60461883061714,156.65754375144553,156.64326807984864,156.93306492199295,156.76110875188203,156.8748358185892,156.55615467570482,156.54432138308957,156.7842864860693,156.67389712964746,156.53890279114532,156.69757753433112,157.1460195828012,157.04064096609383,156.7413460797163,156.89696408594685,157.03268933539414,156.61935905820798,156.8636328576938,156.59734462189724,156.64110948680465,156.19310952709435,156.92097945311292,156.48595333128645,156.7108981021673,156.40948986240466,156.25649363069508,156.60492735798294,157.17383581743763,157.28143851508122,156.2057944355024,156.8859993835722,156.62232797328932,156.56301617178198,157.02699888147492,156.92571869573607,156.5450426234544,156.7465010765918,156.9116143170197,156.8052562721256,156.59290404331298,156.97567838421216,156.43754305396095,156.71427472992195,156.94875052943667,156.43615307922386,156.416995215311,156.69089444614912,156.71836171191902,156.46413550508527,156.23880710853481,156.88116264782676,156.0947147490937,157.02447754300889,156.7579742370802,156.84462886122637,156.6157943137405,156.99838436682566,156.28710527320632,156.2985600490196,156.84893387729966,157.10378086419752,156.54892116659641,156.8178600284714,156.81720223205696,156.1934113865932,156.2601859290715,156.336859390514,156.5595584853595,156.3415044552373,156.71203867106576,156.59915757227648,156.09331194377603,155.7725143749286,156.4076978995294,156.50630920876003,156.29817638495135,155.75180006857403,156.1341682257264,156.24928344861848,156.33372917065697,156.66653855023446,155.82276887871853,156.71681279803107,156.42690394182932,156.3063725490196,156.76106535293664,156.4502262443439,156.32955068241068,156.25039219437537,156.17783298299256,155.9115594370924,156.30611385475288,156.01644034177602,156.26702371843916,156.17281167615482,156.74290220820188,156.02701672827038,156.48641293932775,156.3575038284839,155.98574803749713,156.23940597083302,156.3087481838342,156.46201562260683,156.60587332053743,156.30117944397642,156.89368732470126,156.65906560712503,156.6174599524795,156.53715620930055,156.60726464615502,156.72481006829867,156.52213916043704,156.2128780934922,156.25696914075942,156.16269311462904,156.46461160953913,156.37208500861573,156.3349670699954,156.6501864595748,156.67281389273091,156.1567848410758,156.62582400735857,156.9040615976901,156.35276778194626,157.158665895508,156.72177791448786,157.05562622874984,157.02278246790794,156.93098933261447,157.01364635133572,156.72745429405438,156.65500269168655,156.38283133682881,156.96373316871794,156.8916621798323,156.56401795649003,156.42783762027062,157.01961011387763,156.4254675045984,157.01997532006786,156.71982179206515,156.30753050063106,156.78263544430345,156.63931656747937,156.7299312146947,156.5327145815755,156.68693745672743,156.93163151197317,156.90559993825016,156.94568368964318,156.94788487541047,157.38383094222567,156.83917812451722,156.3311179408375,157.12354493248486,156.9255249470237,156.98619169180785,157.09512015788863,156.32501915708812,157.030557382122,157.00127679331425,156.19894305518324,156.71169921799762,156.54129464285714,156.35179353252937,156.08638051843627,156.24848438339345,156.29000499942313,156.03366139470762,156.69654003236496,156.68254642319422,156.45294908741596,156.18742800092159,156.1500172433613,156.69393261891912,156.22219232838805,156.08874060438717,156.34268668206312,156.00099704720634,156.9155698358625,156.71227542601588,156.557682697113,156.3554453161052,156.81282080969473,156.30399846212995,156.46687406383225,156.99609676920699,156.39829335793357,156.4433762737935,156.06077687027877,156.6109036306934,156.59851601245626,156.70374648646566,156.79746639888768,156.5485061714154,156.70173548312619,157.09517942399506,156.94313069558197,157.65384167862544,157.20418726823237,157.15313225058006,156.40851831937937,157.01487750212536,156.9362260654725,156.44523388893157,156.55354675264854,156.7120255600893,156.63447931087526,156.0870478591345,156.5355593935905,156.8863995072564,156.3673594600813,156.47034952720034,156.75890073515262,156.95384081443777,156.81880539499036,156.76086038025736,156.76554030676968,156.7860826726195,156.4637141650996,156.81578947368422,156.5899070589139,156.98213320984794,156.48037110872565,156.93698788228505,156.53258573677945,156.7652190622598,156.37037320574163,156.54424693822705,156.24940663042645,156.92875298467226,156.2765965597824,156.83450690676824,156.46350910834133,156.81996770721204,156.39283934526776,156.4713209288021,156.7016160061562,156.236123853211,156.7600061517167,156.6208622016936,156.67403846153846,156.93704432357367,156.9637675567217,156.49240647468184,156.53701640477928,157.1714086902737,157.13051712143465,156.7142307248162,156.67134939573552,156.7632177702364,156.5570851759277,156.1362506215813,156.49224389494702,156.7426668719686,156.09117354359643,156.4309536617229,156.74219532875972,156.37476965601965,156.08600046051117,156.50736057193373,156.55818874312314,156.63237448908768,156.7987236511313,156.39370866020613,156.35384910731426,156.5820642325635,156.34422197455902,156.5791481981114,156.92410886878528,156.20387828619607,156.23234065386532,156.3411250766401,156.53321274630542,157.5193428105337,156.97989483451903,156.15978119501185,156.71908079602755,157.08805757610745,157.48330824746247,156.76581183436502,156.94418676561534,156.88674512830409,156.396633229563,156.22925386889904,157.15191540457838,156.52971725331795,156.79706450366936,156.82881735371313,157.2464548624564,156.47188894016304,156.96292000154662,157.16866909541895,156.7634989200864,156.84807439993827,156.80079466111175,156.72419373482833,156.5272615337258,156.54435841134097,156.34228342821973,156.18522356553444,156.71357577625395,156.42869198312238,156.51246590603512,156.73622942604942,156.50254413692082,157.2423339011925,156.76596236890808,156.8815292029936,156.76287027381917,156.93541779392442,156.48153709907203,156.74760617760617,156.69496818970504,156.6916111132519,156.78652378382546,156.73557451078776,156.66211380862606,156.70065827462756,156.88953063031843,156.84678817771956,156.60862380385075,156.73282177836046,156.9204505998997,157.0865013135528,156.90012335209312,156.78996647786383,156.88368854678373,156.69127904736214,156.99176875217375,156.6610300065483,156.84243243243245,156.76376129082067,156.65893719806763,156.82476418741302,156.23088450011528,156.63141235959392,156.56783842121493,156.82552123552122,156.11750249596804,156.8505996131528,156.6201026749527,156.53850005777898,156.70339473989108,156.72813658838072,156.6231397948955,155.99005452730205,156.00295494665747,156.78938813421573,156.36315343752406,156.2612508654512,156.35516285516286,156.3348712033833,156.48235021796998,156.88333591811414,156.3034413657559,157.10149763327385,156.30797645157566,156.42189848537404,156.41579170031923,156.77165141511256,156.34224701808387,156.72778207109738,156.44569317219614,156.7432938361187,156.6907638272415,156.64139896772207,156.67121650279546,156.7242601726264,156.47515300819893,156.15514728444307,157.4216989197171,156.33651220919054,156.74986497955405,156.8993783543766,156.45745295000577,156.7164052890529,156.79196827352533,156.83227323541882,157.14580350578493,156.76085699973027,156.56028586797817,156.9384425502372,156.4560540872772,157.0867112330461,156.65119950710462,156.844816310829,156.67648753505168,156.9353997237993,157.54596412556054,157.101360701107,157.08744221879815,157.05380976191393,156.72472622478386,156.69235194845044,156.9587732141481,156.25941086457536,157.01222333616101,156.59382431914077,156.80383639578687,156.79419788664745,156.17271513070025,156.71055457543915,156.72034482758622,156.55517690304794,156.57639632746748,156.71594391664112,156.8154211878379,156.4400809098542,157.02194212811744,156.48427697016066,156.6802189808966,156.84858857011,156.66927322907082,156.48470012239903,156.8,156.7808472163441,156.85063086628713,156.86696930060782,156.40950520833334,156.97794343682753,156.51914453259744,157.0495247623812,156.80738035748607,156.15866101112002,156.47192088013188,156.3604020177316,156.15671812901255,156.7184014154935,156.27632132879177,157.12713172312678,156.87739773515136,156.5554106910039,156.4690790733295,156.85122533908753,156.7111401955501,156.17515204834947,156.68477968058497,156.60385488400723,156.52001382913338,156.44561215096655,156.2208776901279,156.39801797649227,156.34107101815675,156.3569019698015,156.1971023357162,156.37437195566295,156.40353365016097,156.35700891661244,156.22517771153406,155.96356568466786,156.46946199502202,156.3722043504902,156.65076687116564,156.4304858904162,156.7196161228407,156.4623664151377,156.58125,156.6122448979592,157.17916554093173,156.77153471982842,157.41265939468428,157.2545908567038,156.80992240950962,156.33848502194238,156.5268911738848,156.46864711737234,156.64841321616333,156.08993396190402,157.130659268678,156.3869231650063,156.55638693833697,156.54759255706887,156.9988445094943,156.6866531035277,156.79543186180422,156.21469768152477,157.03368623676613,156.27181644359464,156.88121398386477,156.33169110907426,156.48795779493844,156.63673297305584,156.80654453278026,156.78663130381304,156.65349229471747,157.1854565083282,156.40910479682248,156.72287907869483,156.93924586379376,156.90945048193234,156.693314902277,156.351078089694,157.0226599469088,156.55823216269005,156.49501801180347,156.65013064863203,156.73043711862456,156.61355177838314,156.85566335566335,156.7372243141474,156.65660754050526,156.61631791130736,156.6959685803396,156.3577637373157,156.56812586551777,156.72776622776624,156.8093220338983,156.70168326770133,156.41717696899673,156.38640285287013,156.6627862154036,157.3350919388626,156.62356521069256,156.05490045941806,156.63397460561754,156.47508855690745,156.57827562273462,156.51944455129438,156.24780053017787,156.57754732256447,156.88825779529384,156.61976497784627,156.88823165545503,156.6840643444046,156.54523782058678,156.6247882334822,156.5586650242513,156.80163473030805,156.76132417624817,156.78530681467777,156.65268585501,156.96786279887212,156.69102054979373,156.7407878017789,156.76412293217138,156.69608069608068,156.5444132682477,156.94131963223364,156.2817461835712,156.5530093658836,156.87074934605323,156.5189164300514,156.49512737875997,156.8848943064342,156.86977943723778,156.67314501231527,156.62547565053617,156.68929985774156,156.53348188558914,156.49842634528287,156.40914671577656,156.4580919866508,156.92497783260728,156.33199249128452,156.61733558437572,156.61676531631946,156.49911992041018,156.34832752212728,156.79267917563826,156.54273553433796,157.08190468852334,156.74119319273174,156.38833129022373,156.70957957381455,156.4020760715517,156.4492964766323,156.92767888038756,156.54488692606412,157.18859312672598,157.01421238124425,156.7391087590121,156.9312134727776,156.59734921244717,156.64375263581644,156.4655754044315,157.18186032138442,156.64903255528256,156.30931183370907,157.02140212864416,156.57321147421374,156.6492445739704,156.74934645548208,156.58387690890953,156.7218382861092,156.5029560810811,156.74156482975943,156.81064907165873,156.80653227667923,156.8110859293973,156.88441728167282,156.57616020830142,156.69414108901407,156.74148850420298,156.79604706606167,156.64265450084343,156.72645205900432,157.0489383838773,156.4830651340996,156.43350055527898,156.39578624784525,156.0701761087978,156.7367794004612,156.30680467701745,156.1888697647734,156.31318534367477,156.90956689124158,156.42704980842913,156.25807684955075,156.38326885509633,156.67679175638264,156.6829258917589,156.48559497356524,156.48925410872315,156.85565899823035,156.6974502726365,156.49475907083894,156.83052020454457,157.08745364647714,156.97546557453057,156.51384627186255,157.02602760854478,156.73126754065586,156.13619674137536,156.42094180704441,156.43663964515142,156.27365523569216,156.8224776991695,156.61967880743813,156.29664686721594,156.4427691247943,156.60600015345662,156.55913607242874,156.5673117455451,156.2806863344543,156.07732313575525,156.37799372561022,157.0157225433526,156.60225047044818,156.166596662721,156.17770048161455,156.63072196620584,156.30120297880467,156.36327437016618,156.15263903241856,156.50576650446376,156.86601470758094,156.57663533474008,156.59108534572118,156.38872926483546,156.35973951350317,156.72168197716877,156.95501557153293,156.2637127578304,156.2233830845771,156.73117619996933,156.76774119183924,156.3738597163664,156.6836080058392,156.58458942200744,156.6268468192605,156.9098357502789,156.46914763145793,156.53013431293766,156.6589471262605,156.6785275602641,156.6335942295887,156.41893237343953,156.36484213745126,156.68424897158894,157.06885789149197,156.3935047050723,156.09548392030896,156.69429494079657,156.88261555632528,156.51046698872787,156.47715229245065,156.37801742334113,156.49385419067374,156.75558804293465,156.56015384615384,156.1372519025584,156.33679690195927,156.54771688620914,156.99165088322832,156.64779026793963,156.27786288778245,156.38608928913584,156.43217508158955,156.54754349072834,157.27195991520523,157.41006357574818,156.975579645847,156.36238408557466,156.4743545346108,156.6084641796227,156.45686839577328,156.1560943844327,156.88907323095918,156.39667832839953,156.94245494624488,156.44279449103638,156.38635315813738,156.3516648104766,156.68077988001846,156.83285791380771,156.14623779437105,156.59717260189774,156.9545892974266,156.2713567839196,156.78645049218298,156.65103565103564,156.20889637484208,156.70359534991147,156.13586665647222,156.86010003847633,156.8170952693064,156.39259685462218,156.40037572365142,157.04977602718566,157.20772087265976,156.4637079731028,156.24663883249704,156.26980900513922,156.51797235023042,156.4169254956095,156.3055811454015,156.42488974113135,156.45780129606197,156.13089306247605,156.8437596183441,156.7613693249644,156.5911935199048,156.56492534449006,156.34156709558823,156.42923931787698,156.37973521083646,156.33568012244118,156.61968044246427,156.72035364212954,156.7233838112076,156.84798767571732,155.96491094244632,156.34218899750815,156.5920896152223,156.63409204314283,156.51207451701933,156.3163573751674,156.5130882014278,156.83367935409458,156.63437019969277,156.75096094710946,156.35672671521655,156.11252864782276,156.61565945675977,156.94055512721664,156.89865073245952,155.96478631172897,156.3093797856049,156.3171216639902,156.28301886792454,156.68102619331512,156.31317080650106,156.929273463095,156.29098439237643,156.1228292121909,156.145224246135,156.26005752636624,156.62662250125177,156.0586184437378,156.65444097342743,156.55985834167373,156.18232065405135,156.45016917871425,156.5623581894397,156.33938998156117,156.27840516247983,156.0733652924257,156.00249051687805,156.82796943736977,156.52735246595367,156.3473445371688,156.42604618990893,156.3039607000307,156.0591727307545,156.46900508239642,156.12533077660595,156.37732014112595,156.38230210853786,156.2129519573636,156.10361999616933,156.70839435751176,156.70004239411108,156.30455488132728,156.12805204745504,156.64148764148763,156.34407078290178,156.39907058913894,156.39103424473674,156.3547878881033,156.52779057270075,156.05674653215638,156.43017145487323,156.1917603855864,156.56110748935845,156.70683086395996,156.61038612113302,156.28359066702424,156.41277282508455,156.81938292053465,156.34394660119688,156.52236857263546,156.5094875931474,156.43043311613644,156.77564942573036,156.73684615384616,156.69426825049013,156.50287620800736,157.06618072428554,156.5738202204047,156.24521380259085,156.46020960497523,156.9912422839506,156.52367784306946,156.66195939982347,156.41209800918836,156.20538681948423,156.2107835649916,157.10079790309524,156.7223459824858,156.69970385754394,156.4054520358868,156.76116131513172,156.41215414641613,156.42502879078694,156.70040781779008,156.71177443551178,157.06767294626312,157.05558774674546,156.89223772450475,156.38370580131638,156.6084867586578,156.58196437502406,156.7994532994533,156.5275596612779,156.80677129526086,156.2363712983182,156.26747708708825,156.61099577085736,156.42024363063445,156.83308931185945,155.8674832112332,156.80719774491254,156.08700647187226,156.3748749903839,156.48927005614954,156.37061268472905,156.73522148479702,156.35733763490418,156.22354431351476,156.24368779063064,156.551797121527,156.17727499711904,156.36580211335254,156.74816361246423,156.63604076590488,156.54792147806003,156.27884430423575,155.99053422242662,156.5211354046797,157.21968528232028,156.9558738593046,156.64688667257116,156.67581528024053,157.14480916621505,157.08153078202994,156.90700730491247,156.33141387385314,156.39605328828657,156.39354962564792,156.79331611610067,156.61567811307665,156.21159453652547,156.75614461550333,156.5611519089546,156.35723328346185,156.04540581929555,156.50204223181257,156.36509582517186,156.5133433168222,156.66802632085273,156.0327818627451,157.05293320425943,156.69671057699716,156.61266874350986,156.13742533312913,156.2595343850513,156.4496811861412,156.0293093552707,156.68138047916185,156.53692153692154,156.62171419774467,157.1111068111455,156.46155911915906,156.69754275150208,156.56719519704433,156.5012667946257,156.83872957138453,156.62815174647235,156.55022892539725,156.47442680776015,156.6439603503919,156.6502343810036,156.2382430723238,156.62961825024965,156.35116492949112,156.96950067476382,156.59747340936144,156.42092541436463,156.4630375570645,156.39622062938403,156.34428303116255,156.7120879966155,156.2940049064704,156.362994783676,156.55837817063798,156.66735966735968,156.71184874273172,156.4310484025989,156.4381659422241,156.54719373055204,156.44697785296833,156.11827833352498,156.50319574926846,156.5394407907388,156.51590228163172,156.2128026356114,156.10509785897582,155.97558735746537,156.05403336904945,156.22466487935657,156.63903321402455,156.14721414357876,156.73913545556027,156.75455280483578,156.68328129216297,156.69833436150523,156.27182417919607,156.28305872412335,156.40258590833878,156.27530721966207,156.58702348864074,156.47369838765536,156.37691360873913,156.14431408634306,156.33895699627223,156.67405209617755,155.97418613558023,156.09763574357206,156.34526638558836,156.31685410509346,156.18150475022986,156.67362662762926,156.06031843233313,156.2793841675922,156.5175118219215,156.7465194985001,156.64184615384616,156.6252982375125,156.78679949228817,157.04741112828438,156.02790946627925,157.1089429640199,156.8651819830947,156.51514104778354,156.4225697638761,156.07998624221347,156.77079325998307,156.96371899553228,156.45914337206182,156.30346146490726,156.44090229025204,156.44627592287347,156.55503548820258,156.50506406813474,156.83535809325465,156.86644046884638,156.55485881357237,155.73978035387432,156.59096843560403,157.1790739022882,156.96657413832986,156.35716746411484,156.69656738243668,156.66105408834045,156.67224401877067,156.21699701538225,156.99448770333822,156.5809063351368,156.91286739180745,156.6177204499213,156.20236822001527,156.61334969136985,156.62264223425916,156.15765128636417,156.50573170264155,156.68525789068514,156.6091503267974,156.54758615396423,156.74116200430373,156.6265518699312,156.50276158330777,156.7156662688176,156.880651621351,157.16783379115566,156.54359368988074,156.98540230775188,157.06711279591522,157.13045999226904,157.11016459160467,157.2111166788729,156.9812540898418,156.95391669556506,156.69228401000578,156.59606953311282,156.55628247065616,156.50757400999615,156.8233230531997,156.6776493256262,156.4771495560595,157.0178474851271,157.038916827853,157.25618360859116,157.06287749728978,156.9293667362561,156.75056101524413,156.52754507199938,157.24890235847224,156.6876332209433,157.38163424124514,156.96285824941904,157.05952196181903,157.23674087889032,157.3046128756698,156.44428169448406,157.09232083236276,157.20684039087948,157.0135265700483,157.2012775842044,156.26180784885955,156.7423709147167,156.85081973566915,156.6126366199359,156.61276612186546,156.7704721362229,156.4472863140865,156.65050458183507,156.58015827060413,156.41015068018035,157.17758714385528,157.06547803217822,156.99510200933318,157.25990815420832,157.5027313935919,157.95175115386107,157.35290942042957,157.61059587294227,157.5730610354013,157.6880327046936,157.77328403050612,157.34291415633754,158.14687234207068,157.58689381994384,157.9888679172605,158.12449737086297,158.17846522226085,157.92751115213045,158.2230867003043,158.03420314361477,157.75343672219032,158.0658167575455,158.61004904800527,158.34677388326728,157.94370670850714,157.86359288310695,157.48973909063167,158.0652932826946,157.73256479749588,158.0931650813133,157.7344561564314,157.59913825974223,157.0612268166616,158.1263182114507,157.69254587155964,157.44059519267455,158.2044737044737,157.11802754737082,157.62825762504306,157.67844820976768,157.44975181366934,157.38820432609774,157.91492548778615,157.74458874458875,157.37593554299679,157.93756727664154,157.6349777845871,157.36055746468116,157.35906040268458,157.55450164461104,157.20308257161435,157.0615537164868,157.45321894986787,157.69294113141063,158.0242698005589,158.21927229415607,157.41037699778238,157.367816091954,157.13667086722418,157.07650586303043,157.4051608450596,157.24581690086916,157.326438366659,157.43512124002456,157.32245195442863,157.77852994345938,157.3144861425231,157.4929442441905,157.6583230958231,158.10741055559848,157.61203614689484,157.69042384974352,157.8399180454616,158.08520595629471,157.89846403210868,158.1405183116077,157.70437702640112,158.22842738025983,158.4953660436137,157.94183436532506,157.9886130369108,157.94918864490143,157.69647267675208,158.09788688626477,157.94645968022917,158.2866591448469,157.62624700332535,157.93298388662396,157.32376100046318,157.73196835737554,158.04763753542727,157.36279051810672,157.3392298482098,157.66117336849044,157.40931863727454,158.06534499514092,157.61813399350146,157.83476677514335,157.5763754546158,157.77224268269043,157.83164748285083,157.6369584575477,157.2535559678417,157.05218601414822,157.20530262039114,157.21292171824766,157.31460935681588,156.5807346875843,157.26547545538747,157.61972374411607,157.3761615851317,157.81526629494329,158.1512831364703,158.0208636398438,158.01207904896603,158.83299334128787,158.79463598583962,159.0428103946102,158.61126468555634,159.1990885567528,158.49078887020335,159.14657365297157,158.78532441574416,158.42266380236305,158.75034631368325,158.1866574754902,158.2026861559654,158.41325843561233,157.98572251007485,157.76078461420582,157.74681748466259,158.11672373331282,158.05592307692308,157.70172407172754,157.46142022748234,157.2617372245934,157.15116547426726,156.6385325316892,157.21474334233886,156.91362292122747,156.99207234943236,157.2409294426432,156.65656759348033,156.58827588850977,156.62922899884924,156.7032270457165,156.6378648233487,156.6397236614853,157.14868309260834,157.0114871636728,157.15169167856178,156.8055427251732,157.01581424053074,157.08811846824264,156.89264321916755,157.19611021069693,156.9289254293288,156.63350805371695,156.94917666974453,157.11111539202466,157.55410887455088,157.2949862770111,157.1341345968643,157.01397067313243,157.08900684668052,157.28530703444025,157.18666666666667,157.1513538532747,156.71519545785858,156.8934105553851,157.2902157164869,157.3815571081175,156.36048069195147,156.6604250430787,157.21923032474285,156.66986637997235,157.0562022204295,156.54275448186232,156.8876732312181,156.95583269378358,156.87860738577413,157.03824842234877,157.33127698951265,157.187555384319,157.217392979617,157.53817914831131,157.10952106174264,157.03191693905018,157.56222677859878,157.01126013604397,156.91723873441995,156.78685381193435,156.92622919309576,157.1946711843524,157.22209391839877,156.98939807167827,157.0771979711036,156.7616911990187,156.99569396386005,156.94912846502342,156.9519865009971,157.16154052912492,157.43449496115085,156.99839061961146,157.15327124295735,157.42599653379548,157.27299566734405,157.62287385515276,157.3558261003149,157.3966903983067,157.1790636790637,157.08443880493712,157.38783768160621,157.01508620689654,157.54250918229266,157.01561958988958,157.12037644154742,157.1138358484755,157.24213242941335,156.82143954524506,156.97932836394375,156.89925459156228,157.2138866412361,156.72894180910313,156.4961273006135,156.8216004002925,156.61631072428204,156.87748904436071,156.96228157955508,156.91575374170654,156.69276042468073,156.75023119605424,156.7239372567156,156.7317551208639,156.71136757068666,156.96587057010785,156.83221657424522,156.69462274666563,156.94533302426208,156.9276341181011,156.72313843078462,156.88170468557337,156.5642475289412,156.7248634510347,156.79266931043776,156.7805460356579,157.1363794234554,156.79410294852573,157.16039665084693,156.9449816990946,156.90576641773808,156.69600645731637,156.2827923691555,156.90726381977396,156.8077056443845,156.40249233128836,156.80620035474666,156.83489000385953,156.98560790214916,156.21870332784437,156.49756135028227,156.72202763557985,156.63758311873005,157.06662561102345,157.32963262788635,157.2503091667955,156.93225806451613,156.5374980848782,156.81403062208338,156.84076089053517,156.64188981224993,156.5502228711958,157.00727188334042,157.00922032329,157.31405470230956,157.38768073807032,157.25115180610942,156.95444375867922,157.06188434349286,156.8745332050048,156.861776389371,156.77693521690597,156.96379098045253,156.87406152543025,156.8402325850052,156.5668227527443,156.17660997515765,156.98454780162615,156.801393325892,156.83687861271676,156.99506724729278,156.68978775761303,156.65633035268834,156.99136202375445,156.6052147239264,156.8428857561051,157.2707207902454,156.53985118134398,156.87791907514452,156.96977863330125,156.9469009461286,156.81255543130374,156.65526265152974,156.68063856861914,157.31169284467714,156.9954744130275,157.23521880819368,156.9124584332225,156.90806239864082,156.54986512524084,156.72599830076464,156.11756585758656,155.9668168626852,156.35323801513877,156.83125551421227,156.96474432910418,156.63902850784638,156.91917249865415,156.36120683053832,156.4346441588337,156.29619263065067,156.53081533850764,156.17366346485016,156.3148750526195,156.5966776643904,156.46729294478527,156.42127383181142,156.76029948166635,156.42622575225295,156.6040180967717,156.85532323038558,157.04847037065576,156.4585343441305,156.40493874425727,156.75444990026085,157.21157254025735,157.00322716969535,156.91461071401122,156.2581457458985,156.3742537884586,157.0302774148928,157.10137397529152,156.35194676049875,156.36073652442985,156.85721421709894,156.80419446361475,156.30982319768327,157.057785467128,156.3674668905767,156.38178627293885,156.83177105253088,156.55395380850413,156.68352639828726,156.27318763326227,156.85001148457238,156.46318199160626,156.95546776111388,156.58861583218496,156.16219303255284,157.0962743665654,157.09237271853988,156.66423833441968,156.68064231786303,156.89794039811298,156.89085195263098,156.69404643322352,156.74062152737864,156.4084211329974,156.8462926698153,156.52038479157125,156.73022722932976,156.81838007422428,156.51795891825728,156.45704139300443,156.72487808624197,156.79049551964462,156.85149994253095,156.708674367016,156.34057695235197,156.745540840542,156.52439723357915,156.55881227519706,156.75172097292335,156.27103195789795,156.24627777353592,156.78877015588495,156.88847996933103,156.04612342674628,156.96715076071922,156.7503254959026,156.5577261932123,156.5454998466728,156.55925642008432,156.7639320369731,156.91664747870135,156.89960055308035,157.0322357551773,156.7541134506961,156.29739336492892,156.37895139686185,156.67400543707163,156.55844603655032,156.36204591466444,156.7178346879313,156.34756190767348,156.37132029246257,156.4642158929735,156.43085758039817,156.25503535257022,156.6055446911308,156.5672734240276,156.56467470619864,156.28299429184386,156.76111817026683,156.76889316650625,156.41240791896868,156.6940742732056,157.1326105409368,156.5896835151329,156.72460366322917,156.77539798508036,156.80753395667398,156.32380112699812,156.43625215558535,156.7577947791319,155.99507595999694,156.8250500076935,156.32682740145427,156.84588394062078,156.8552991485919,156.18663761801017,156.81952947518386,156.6410817871,156.55860138787716,156.6628036378986,156.87210643697608,157.19949826321883,157.22765514047546,156.4452834527962,156.65928829452002,156.85825832756365,156.4515647144444,156.86295626754875,156.60783261802575,157.03795761079,157.32327053736876,156.82819773033276,156.64395131876992,156.78182097934376,157.23549184761612,156.78724059600353,156.76658202523853,157.40962223254374,156.53274254804927,156.7760184473482,156.89219874533347,157.18477967539226,157.0761233683724,156.74498578344733,156.68035303146584,156.83990460437744,157.1774143782783,156.85407231135335,156.82885648503455,157.14536851823357,156.66503330525993,157.09895913646878,157.06689490690874,157.48698640716714,157.2294543063774,156.94658514074757,157.0473968376398,156.9499248294206,157.2869108735091,157.54738232095696,157.49791086350976,156.90862885526164,157.14774837511607,157.85254065831452,157.42409918636187,156.97234009721473,156.41311927660064,156.9536951144094,156.87463331789408,156.85376286077607,156.65849805417486,157.09188645680254,156.95935898917523,156.92215106859038,157.05181327160494,156.91523725089618,156.99285217525693,156.7630291591233,156.5580778981332,156.92068938926587,157.40227527763804,157.06443398410372,157.13404732446645,156.72717818349895,156.81185259347683,156.47252451451644,156.75141395098302,156.97673522841075,156.65924361681704,157.02718439114676,157.6261317031649,157.4958604489969,157.5481298871384,157.79129158134683,157.50508227532507,158.0594834232845,157.50616624031156,157.6863577273075,157.8999846837188,158.21111068423681,158.3314757878555,158.17934969936042,158.44267982422326,158.19210171450587,157.79960850541184,157.85141238612877,158.24218900119135,157.8720618635633,157.80241056055098,157.9474372284385,157.739824298922,157.72826379025759,157.66099350724193,157.40310789604624,157.31800604923617,157.652162203755,157.15030121637696,157.07436624033085,157.08043419891834,157.5281405292962,157.5424874468907,157.0256173906364,156.9416749750748,157.33663861024635,156.9707528365532,156.66115892139987,157.080222734255,156.72995490330965,157.05848020581345,157.01802009048387,157.03265415755342,157.3289123645757,157.04468436623506,157.0113243761996,156.92779035414188,156.48590824148584,157.28047606208835,157.24766121270451,157.04155624687945,156.88080079772953,157.09933571401143,157.13994999038277,157.01985559566788,157.59187142636378,156.99121494610043,157.375991987056,156.91443378119,156.93732697631498,156.53656020782395,157.23801640164785,157.0196741469413,157.3984942084942,157.0239935402007,