158.15906791176386,158.3102011286355,166.18129079042785,166.39765724915708,166.41702758480366,169.89867313537528,169.98875680740176,170.03861354255102,171.45801975540923,171.5816930002648,171.71414269308914,172.09822932986492,172.23434128462063,172.01401717472777,171.67503975499147,171.77208397216654,171.5353853397287,171.52811994708216,171.50396872060207,171.5002942388042,171.31655225019068,171.345762015208,171.22948225848984,171.4758432888264,171.75501655095644,171.7813461482111,171.67592863410354,171.5308270237086,171.43745250482257,171.4156774457634,171.47991469222004,171.43345696679418,171.5410745031663,171.42185585059818,171.5154530862396,171.51274870179122,171.38277539842088,171.38692383893712,171.41095651161436,171.36682276971408,171.119489188797,171.31538707520568,171.2783268414627,171.2505880644693,171.28078946603495,171.16293911176862,171.2167310316792,171.33031950460796,171.27123566139102,171.42921061041866,171.3822768622664,171.32343023255814,171.42610543475098,171.3375420875421,171.56464664105252,171.49895257492,171.58847329355262,171.75517050261078,171.71222497450094,171.66858823186888,171.81693917402583,171.53019587298814,171.67195736377667,171.59847669990407,171.74381728251382,171.43122935141716,171.68621300572158,171.4818002666203,171.43097301527493,171.46732896947228,171.4463147525785,171.48522117476432,171.27140170692897,171.32438776988843,171.33204666821453,171.34043850733266,171.37811928071346,171.48002326257634,171.39057954148726,171.40045373898374,171.35550512104282,171.35525779201865,171.5398057119519,171.5050160396617,171.47070477522362,171.48192455466295,171.4548732263317,171.46660657691973,171.40014536996657,171.33464909734718,171.40123959727637,171.45977178785586,171.56913267534281,171.41560370435087,171.33979847399382,171.35590156286446,171.3066697761194,171.27283878504673,171.24386400116737,171.4585074975885,171.37314828341854,171.36576239476145,171.20084072863148,171.31276670368854,171.4091587417703,171.2285564089834,171.43329335712406,171.41410863591182,171.58979889245117,171.83602744505174,171.90064223649415,171.77587157827514,171.58225089355767,171.55523281145614,171.4330678911881,171.29827160493826,171.39489742546638,171.52543556033856,171.45390854385303,171.47337071795914,171.5136133573797,171.6040496901638,171.42968409427766,171.69883415913728,171.48704814017114,171.5868420286903,171.74946067284708,171.8111276353775,171.6934430054836,171.74424171653774,171.82415526715772,171.78646897437395,171.71376483971648,171.6812866349771,171.71236590485074,171.60492998833138,171.52137075641997,171.4418516686549,171.49443148688047,171.32426613912082,171.4156177156177,171.3801544514061,171.29209722020084,171.4779503920254,171.29498413437744,171.49489289674895,171.42325296638583,171.42443523437043,171.64335807375372,171.5283217089328,171.51557123695108,171.7754768233198,171.47743766826642,171.55962496337534,171.4925180447157,171.40984664105798,171.40137513589752,171.41563180507328,171.29950866456795,171.1256064214519,171.10712920770249,171.13579919962336,171.14031062477937,171.06174255794798,170.96687030075188,171.10126172759624,170.95070836517547,171.0598700267592,171.06542440630145,171.11262055986828,171.00830301607792,171.1537828463935,171.22045694819687,171.2407091614724,171.31166730390282,171.23250205858133,171.55267896678967,171.6923122377829,171.66688328951645,171.76711234692067,171.78590016560207,171.83770438484964,171.91084273155138,171.92109705891065,171.68309047379776,171.61346574451736,171.50478497164463,171.490757146232,171.43259688090737,171.54946547752644,171.34634894420196,171.56751733293996,171.38755162241887,171.47029133091294,171.4404965500973,171.37835686702238,171.26712933011822,171.26766696087086,171.3993282658653,171.38638037171216,171.46753361641896,171.40932841328413,171.39600365986837,171.409080174755,171.35912563792442,171.50630705149035,171.46917919484892,171.4844026940801,171.64789398958825,171.62724692526018,171.54840995659492,171.33713138707677,171.3516791595349,171.24049698972968,171.27651660516605,171.1642553442778,171.13700165133287,171.11282096636302,171.15877511284185,171.326703118073,171.2352298562107,171.07741764237474,171.16213663863067,171.33760481870792,171.1653487548684,171.39516057553107,171.3788988657845,171.5057705965909,171.35015940488842,171.49756097560976,171.3572482587652,171.39125935125224,171.37713003159976,171.26765711590613,171.3713113786591,171.33284206803043,171.06033315674847,171.22819186456618,171.41874523152768,171.61495316124865,171.6238804216956,171.53949762309995,171.51646416622646,171.3867708394525,171.2970541541718,171.2589889954687,171.27644839983498,171.23540167512093,171.3773289632976,171.21401515151516,171.3237137788291,171.32112476370511,171.4668048563814,171.37720725250674,171.47800360936068,171.60532157338622,171.72437188907324,171.63374485596708,171.70034368333728,171.46541940060294,171.60816326530613,171.56289196544788,171.43401412821802,171.22239938583283,171.43323872035953,171.32021043920318,171.2359457623113,171.21448180181244,171.1317813466922,171.21784165019034,171.1937479744262,171.13826934975398,171.25764449419665,171.1998233735649,171.26522136145394,171.30943340691684,171.2484603824734,171.1725447479981,171.24673067860508,171.39991145218417,171.45392310189146,171.42318250243514,171.35428284795373,171.45808489285082,171.73434406123474,171.6779635976835,171.4664465149192,171.54642003717143,171.24764484220444,171.1980465991998,171.3533362792753,171.194209039548,171.26904299747073,171.16828802351213,171.09947121034077,171.17576345413397,171.08540559584276,170.82965521278464,170.74137426900586,170.94273411640646,170.9433486709065,170.89708590301933,170.94268560550594,170.95582082565318,170.97594028977022,170.99479166666666,171.25875623349955,171.13333137933057,171.29355454411981,171.30479713463683,171.1360596104201,171.35146013279277,171.14555793299527,171.16209008586583,171.16375949107325,171.17217202534616,171.0980920840538,171.25239213384208,171.1752553116563,170.76524640056186,171.351830092239,171.41652475189383,171.53213352514607,171.59234227615997,171.34970588235294,171.1602385218694,171.50202929239455,171.52452941176472,171.51858266791922,171.65699588477366,171.65419271521236,171.82501100836635,171.71310033425203,171.90384671811273,171.91226113247424,171.87334759797167,171.90730205278592,171.73351294365702,171.94617887608828,171.84650985676205,171.73080640909225,172.14336033814723,171.82473924762687,171.84567846996455,171.85531865042174,171.9012096183698,172.0086360841945,172.05065292498682,172.03101138059156,172.11762814892745,172.3150292397661,172.3804500292227,172.40374831881178,172.49271887244868,172.5345917471466,172.65590011137814,172.77725021249157,172.70397259872948,172.72266939850724,172.60946606917963,172.6524461610487,172.73419573870288,172.7436857970675,172.7063076247622,172.69544722588202,172.35604750036651,172.55292634295097,172.42232582688248,172.61736655221998,172.67992596727282,172.64449857658556,172.61210183610018,172.68644937952885,172.68124871636886,172.66004162635946,172.944997503891,172.86673120361408,172.81436143731514,172.86654955350608,172.64138213044367,172.7785703844467,172.76314404351132,172.47537491976425,172.34214052668375,172.40217802754563,172.33473059121474,172.35425943711982,172.35406420069265,172.30793844721762,172.31925975499752,172.2828723497077,172.25282009535994,172.4104978638068,172.50528368897557,172.4027668788328,172.42875410503066,172.5102135831927,172.5751767067105,172.66216884287667,172.62203991388841,172.4040952657566,172.50633610416787,172.32073007950785,172.51983965607388,172.2553296400499,172.194172223833,172.23157528083365,172.19767441860466,172.32939194096627,172.2239993033584,172.2736465870456,172.39334108752544,172.38621552426395,172.32180333110483,172.27499346291293,172.4831509719474,172.67090930273199,172.6491406932712,172.6028577248785,172.7874192233801,172.63674655047205,172.7832074375363,172.87739274406715,172.59771147161067,172.50387686610347,172.47730363084045,172.30684971098265,172.29548674357417,172.2706266809335,172.25670520231213,172.21299962428833,172.23713724129956,172.3452149992761,172.32111606884163,172.33346860687575,172.22322901890396,172.30367342205213,172.21720036064335,172.2668973941368,172.16125751808698,172.5172725417602,172.44533776107664,172.2858971003112,172.40872069346676,172.45048165070864,172.43213578665424,172.47368727442077,172.61205942324497,172.53894289539554,172.46936934315067,172.44837019790455,172.3196747495281,172.29509672921628,172.44988087628568,172.05219684674242,172.1779215879741,172.17519456382854,172.1141075830071,172.1973313995649,171.9076798331982,172.25203228428754,172.33734904784023,172.16316049096133,172.5108319520777,172.3779527559055,172.3122511262898,172.48869580378937,172.54987346190768,172.3892118112067,172.52495927391203,172.49141213054725,172.5551189124676,172.6495148742752,172.63025675399993,172.62548802517335,172.72699162801553,172.74078832116788,172.7305693430657,172.87807658579362,172.67862559794656,172.66753254334247,172.61562709786637,172.55420948155069,172.34667171834926,172.35397404112587,172.33627957177444,172.25821486832905,172.42687770120313,172.36713072410473,172.43175576979257,172.36322175120597,172.51746022461396,172.24109124897768,172.25078799906606,172.18256862001576,172.21163557813003,172.22794010333052,172.28167738164817,172.35432586736934,172.359394223446,172.35412150682524,172.27193856615276,172.3319627595524,172.64884287097058,172.72806013094925,172.73969223540468,172.82636032436244,172.6487439400617,172.65625091774103,172.53921079653807,172.5500514176583,172.23420204978038,172.4278129766514,172.45030527180933,172.27752387648678,172.30293522563997,172.24230160126694,172.33303034745637,172.27107321789575,172.35841589963064,172.18732047599508,172.49476217025148,172.50092356407777,172.4961272151156,172.42332474226805,172.5460043450179,172.59172777940745,172.4177923638175,172.7087310211154,172.67265627293813,172.74035861258085,172.90898404208423,172.73968496532268,172.84377573832217,172.90068835676885,172.7976232497941,172.8253986935797,172.7554916010807,172.67945519124078,172.58366089762393,172.58031103286385,172.5570430391639,172.51187505504507,172.47389428579814,172.47954899139677,172.26887207460848,172.43569499882602,172.43401768144037,172.47774742222614,172.57659855945906,172.46818808483178,172.54654610574525,172.64008917832732,172.6214719071485,172.66183022628678,172.86087491936902,172.58510202888382,172.8019645676197,172.64814165497896,172.98905472636815,172.7075378058037,172.98836053108732,172.74703718839396,172.95720174233344,172.84387865339133,172.6513416659383,172.69129687363423,172.74387969223596,172.50209217179054,172.53946870726526,172.67180129287752,172.41912577847623,172.56778402306549,172.461361652604,172.6299880490862,172.5117897065673,172.50262008733625,172.37287543655412,172.56191170042254,172.6346776310034,172.3246813711226,172.61213820497093,172.6045867009016,172.45795019995913,172.6647572843908,172.78666705668988,172.69483938915218,172.589076342797,172.54602088268842,172.54591985960806,172.5528964306612,172.5829579359972,172.311806609833,172.32141604303087,172.23714711120195,172.39480838375866,172.53712798924164,172.53535471786466,172.29077268879354,172.48552904412838,172.40922888331096,172.44945199473915,172.50048201922235,172.4000817446647,172.47663251306304,172.50381166574175,172.44715162138476,172.42352494672,172.5652161206418,172.36754783116695,172.22224816155014,172.31832524981007,172.11911987860395,172.01728006527378,171.8936937985624,172.0717551472087,171.8705012946961,171.7878198804619,171.88373511472554,171.8015382382818,171.7359255932547,171.7557094829585,171.86839816800975,171.98863965687127,171.72035587394205,171.86091757971727,171.8526181944284,171.7610627127445,172.00907226026408,172.0261796746323,171.94243254941566,172.0637075114795,171.91945766623397,171.85229108956602,171.64380365270497,171.45164730637305,171.44346070656093,171.680358476475,171.63943467769735,171.52720277913352,171.43043752870923,171.54177556940576,171.47862928706843,171.0901726161509,171.21559304557042,171.11097431786297,171.14669569452005,171.02337023370234,171.14057581134452,171.07032545901734,171.11806250536128,171.09803080968305,171.20397597254004,171.340886981402,171.44892812105928,171.38970967187768,171.51754561860838,171.52747347043848,171.5934245164244,171.42815492353867,171.43704465586697,171.3335999314462,171.1926516385246,171.25651067722478,171.15586790081133,171.14625228519196,171.14227375274868,171.2280756917448,171.15995429877177,171.0248681020961,171.1743213541518,171.2870976034734,171.2401198459124,171.38275655473453,171.34771819737594,171.56429509507223,171.43174231833615,171.56001256209672,171.5871221851186,171.58030999343475,171.6428979219,171.79106780581193,171.76754285714287,171.66524082470698,171.86639421565545,171.75550855934384,171.87289420244258,171.68762863023096,171.56030639076255,171.63583616771945,171.47275842375785,171.32498429199748,171.4532,171.40926232786697,171.51924176578225,171.53171359153924,171.54784572719217,171.54467550274222,171.4134683977743,171.58347612519992,171.7376857142857,171.62399406426573,171.57421819322101,171.69844985583373,171.59278879015721,171.73898285746884,171.90701924724428,171.82473814891978,171.85355970894565,172.20188263568997,172.223460326554,172.30093854941018,172.08225926562412,171.9928698241796,172.08691912966202,172.08376558246167,172.1145208936817,172.04305822320327,172.07501576563664,172.0750286368843,172.16385783892233,172.0911799249477,172.0996302559546,172.12823084417445,172.25741181872974,172.3070719246886,172.2147793421845,172.28120697567692,172.48139641708772,172.4276531022212,172.3827454581982,172.46634491079894,172.47508324721554,172.47724597318327,172.4737250172295,172.449793317258,172.3627338459773,172.45622093357065,172.38155780048214,172.3859467837768,172.34587113816468,172.36941102145133,172.27574531577287,172.20645753283247,172.2979560199805,172.2855216343395,172.28540698674928,172.27465879114578,172.40295679632553,172.30648121594493,172.24954112653435,172.3491813150575,172.51899279336186,172.72141994131522,172.47797028282943,172.58000344471236,172.60837735415708,172.62705094681186,172.6409961795881,172.68946990374945,172.72744252873562,172.564550856946,172.5529935391242,172.55284319356693,172.14303325688073,172.1645137214376,172.14659731003565,172.00221169036334,171.62099083619702,171.74135312491046,171.50057244261262,171.70716332378223,171.67971571043734,171.51051291586808,171.66160675927253,171.7283063176585,171.75491402248863,171.84647326670293,171.84004925967295,171.93262868436884,172.05780147944262,171.90814632470804,172.10250451846113,172.20554391804643,172.13996158367019,172.11116842919785,172.1354124863842,171.98090739945613,172.1961633308482,172.01008769415947,171.95246559633028,172.0177911474001,171.98876436699246,171.8231927193635,171.82735978896662,171.85854650663154,171.84436867891012,171.74652320723402,171.8814020807658,171.8308617234469,171.71136292099465,171.97629761256485,171.91955668833586,171.89487855178734,172.0729546041123,172.13374226094933,172.04289889958736,171.9966794526822,172.02044907778668,172.18534556925724,172.3992307029882,172.3588713149812,172.39261639080922,172.4816803537587,172.26070875623603,172.2623863212554,172.1794614723575,171.97341372380131,171.8008490376617,171.93282574342766,171.71439635143275,171.77487376635298,171.8016699664285,171.72439003411796,171.78684527565832,171.75321358889016,171.8151250860684,171.85374461979913,171.78351490825688,171.57398615798203,171.865494392014,171.88482276012388,171.9481783468749,171.95773435482482,171.88553733226289,171.87846286205908,171.80433225409013,172.00723431130504,171.92934844841406,171.96348733233978,171.97913860790325,172.2038614912356,172.0841293061412,171.9208760965541,171.90526496607404,171.8876600865255,171.7893003408082,171.79325366119278,171.65054410080182,171.71264104473337,171.817286997446,171.67379418920854,171.67943542615018,171.74571657784654,171.86019161264414,171.7116089846436,171.82108790925497,171.64835039167477,171.7458718484389,171.7846100897697,171.59671914881415,171.55008469466856,172.00095144735326,172.01051324264216,171.85344180947436,172.16195573557067,172.06123629631773,171.83968121047616,172.05406265366926,171.82424784893456,171.68761018467674,171.8180896957063,171.80041676313962,171.74171802216242,171.6859957816879,171.7099468269564,171.46662046662047,171.62450501488567,171.45885272391504,171.49587349223754,171.61186357466715,171.7281068759558,171.60613486320523,171.8234223300971,171.96227287171044,171.81812415304327,171.90661815661815,171.78551869253164,171.91945266910054,172.149668646183,172.49954009772924,172.2228632110671,172.38436987837488,172.27952257693414,172.33519488744315,172.1909976718117,171.80870984366948,171.72297606778884,171.8637614678899,171.56767196978367,171.6663517421054,171.61395069152135,171.51067417335886,171.537585486594,171.41215116113,171.44144710521803,171.54689152493927,171.33032733084102,171.44432386120235,171.46225660937588,171.3318489338015,171.55132895112888,171.43814065042972,171.57061243144423,171.60688550840672,171.45493488690883,171.77083214019817,171.730809944783,171.71306038426349,171.816481221933,171.75473208669297,171.57038516405134,171.55320242036763,171.48263264548905,171.34355233916463,171.3996291012839,171.25464243945575,171.2632104257564,171.32267267695644,171.08890661955377,171.14299957271044,171.32831308117977,171.1789836691652,171.27625349381097,171.26646518788846,171.28583233601185,171.39461602076025,171.37454027084817,171.33852428624397,171.30591589451177,171.2940891334721,171.3402064795802,171.3169375534645,171.54280089025852,171.6008734372324,171.57175073506323,171.50914277563828,171.40560337456535,171.4459536582582,171.31629247140046,171.2877184978186,171.35040831477357,171.12785922080886,171.10650246586277,170.8957147735033,170.84179826433348,171.1015075090479,171.1196454527318,171.13807352522085,171.03568075117371,171.03071410289223,171.1490209471767,171.06101550277344,171.15455140798952,171.35578347578348,171.37266248574687,171.27947498789968,171.40850287798483,171.38893638850888,171.52031963470318,171.3353757587848,171.4368353528154,171.65456621004566,171.45758603974795,171.48421623472998,171.39494096845948,171.17016005012246,171.2719215753327,171.18846646732166,171.15068024300504,171.06765845873232,171.11644869931902,171.09993442249024,171.20467969753176,171.10830839390053,171.17121022014373,171.27246038080037,171.12590840434325,171.12941008834426,171.2654056829853,171.37526049844413,171.25525670978402,171.48950490531598,171.63022067429844,171.4740007982211,171.7258963005285,171.48673172401985,171.51784083124002,171.58829577585468,171.45072070786355,171.37084807670357,171.35291097355736,171.33735042979126,171.28863564961586,171.29097705741353,171.2842255531763,171.28718725008568,171.17483734733477,171.29816147082335,171.20883167299402,171.16125349620413,171.2897471028144,171.23839415641854,171.2630452158027,171.26020830360966,171.32874875160508,171.374125174965,171.37160232983098,171.4972427783651,171.40911817636473,171.60513363475076,171.6929789425498,171.66433126483457,171.62566080868694,171.52755005855636,171.5306507387614,171.423315159992,171.48245789609126,171.40159460463522,171.27973606032907,171.25852710963835,171.36389602970578,171.2430456388873,171.10753823328008,171.0880255576473,171.32292172720258,171.34243325138644,171.32528778314148,171.26798710008848,171.40817901234567,171.4479636716742,171.32672674385444,171.4385303277049,171.41186382589822,171.41099095500329,171.62947296215845,171.61028675987077,171.61951707386768,171.6483984341515,171.69422290826972,171.30665867853475,171.54121146256364,171.45099551518268,171.44629232747536,171.334056461051,171.40231920484405,171.30415548832696,171.36679900602667,171.43463846813376,171.27130588604524,171.26464893798757,171.37455880678584,171.45886779545066,171.60428616271437,171.52884861954013,171.51287315028654,171.64301400336538,171.6378125623699,171.81549384124088,171.7122979099541,171.87964920299376,171.84977303223226,171.93038607721545,171.98562610733268,171.8170115598687,171.9029015307288,171.851642549305,171.89954872615104,171.68543622820286,171.67611590558383,171.7079560062848,171.67928896001828,171.74005661510307,171.84213688909236,171.88128991608673,171.68432039806686,172.1905035640377,172.14144604605755,172.23458633661662,172.25515219453308,172.222681715057,172.21109133704576,172.27149827784157,172.436203826047,172.40748184088886,172.46171507289634,172.50192396048703,172.41954451583294,172.25887917443026,172.31546012974337,172.15064056633517,172.1721922679821,172.22875685610086,172.26028262867646,172.3162444712505,172.1902245706737,172.2738597548724,172.32695123001406,172.20377488382766,172.21598693072713,172.20499455868034,172.37256812125727,172.39081217401272,172.42522935779817,172.3057974335472,172.38018353885863,172.38290858011067,172.43764328289777,172.5166432523868,172.46884051736498,172.49582484432838,172.49490542751357,172.27202867383514,172.34029610926203,172.26723396940002,172.15573065902578,172.20352789330275,172.03436229311035,172.13727569798772,172.1049916900682,172.13748531139836,172.1203701051305,172.13739145387328,172.20038408621875,172.28338155670784,172.18879275769208,172.2260680209736,172.19906108662047,172.30836007334403,172.32537091138227,172.42146341463413,172.42886231322953,172.51179590081696,172.61257356107365,172.4210752564911,172.40163323782235,172.47709103412706,172.35607602557118,172.39338530322138,172.26197360510722,172.21913571408115,172.11464147702875,171.8900191444981,172.0212936462507,171.8106796116505,171.88144506688008,171.86632743489324,171.94873113854595,172.04308026774987,171.98076263434714,172.14365842490844,172.14467549555218,172.02334552520287,172.13736483780536,171.86173184357543,172.00878895103298,171.89697833523374,171.87178024360327,171.9695751354434,171.97958718211882,172.15624375624375,171.9829576220468,171.95073414112616,171.759617301176,171.79705606013152,171.80377476656798,171.7641729815965,171.62497865801606,171.63546321332007,171.51508859751414,171.54762378771935,171.72622133599202,171.5323626436128,171.63855079058126,171.62170463271053,171.57534246575344,171.75607881100166,171.82785321832208,171.79237444871248,171.64790654046217,171.69920341394027,171.8514121398474,171.77853666865875,171.89807084033853,171.95852455745276,172.05955639183486,171.93353465713227,171.84593470457523,171.70132900765532,171.784668830799,171.6224788780474,171.7292990907277,171.607300475499,171.7564424173318,171.64371547354634,171.47319294251565,171.69115634621963,171.72891944317664,171.68598620846868,171.67643119710485,171.73720545444172,171.78983543906682,171.8031945236737,171.95766893915624,171.85412509265066,171.7599806367105,171.87395604708834,171.97100373869117,171.9758365903061,171.9998288257446,171.80128205128204,171.79575377600457,171.7124914559125,171.71460302995786,171.58757930073114,171.6097200091054,171.8423422139906,171.77246702936736,171.69895868897234,171.7702218430034,171.85952929793106,171.75943865231102,171.61305334846764,171.86758808975344,171.8319229895502,171.89394154571534,171.88910666098565,171.8946890088043,171.92884948711392,171.9839970438589,172.20645987478656,171.9697486152535,171.96851109784865,171.93471337579618,171.8787646323446,171.71241514471555,171.80081323930847,171.64758984840742,171.8455610532901,171.72304764069202,171.49230594836627,171.63371054198927,171.80565732299564,171.6173269852066,171.6429340740321,171.73856802450925,171.82110430144138,171.8231321472149,171.6803629661137,172.0241128298453,171.89966792495673,171.90884315117106,172.11458066717856,172.051243427597,171.93556715655677,172.28107292348872,171.92743950925822,171.77053229240596,171.92013642177065,171.85078652961553,171.61697299750398,171.6300153226264,171.69450755424288,171.65032939572922,171.62523417541868,171.6662027833002,171.68704545454545,171.7695390212016,171.5094109297374,171.70694554961918,171.8963518581657,171.84132128034568,171.76182768217186,171.75461778914465,171.7037163314013,171.74070074735016,171.7640161648358,171.83289200193616,171.85120437332725,171.89288054471382,171.99968651144232,171.95769471824968,171.85460608824536,171.67633400757813,171.74572746952262,171.42156890620114,171.551717269442,171.54168684307973,171.453621744699,171.39006971119647,171.56722198490672,171.47022844300304,171.35135135135135,171.43987819108062,171.5646268189196,171.5146020721849,171.54193842385578,171.6164430390565,171.81811183028714,171.61341262163546,171.67901058863714,171.7601241669989,171.88291806830492,171.90007410363108,171.85399566803466,172.0639833409402,171.98477808500328,171.84009349257474,171.99486623695168,171.76370165588395,171.73398916452808,171.67492304184245,171.6743914258024,171.6564317482039,171.79419818586342,171.75409695898765,171.73496894055964,171.68014119790482,171.8420482717351,171.83470509497906,171.89963545226703,171.8945315835919,171.69981254260395,172.08514214094455,171.9961018637075,172.1627827474218,172.17939148766453,172.3156394321227,172.23451340035885,172.31418225364965,172.25427447851362,172.02969141425643,172.09858873841767,172.03365891163824,171.8629271070615,171.79529800193544,171.98049448199163,171.74687108886107,171.87030337558753,171.97978040781405,171.95719866548805,171.865003417635,171.8108623832308,171.94396146281676,171.93870397811466,171.86876939280936,171.93758368230635,172.06387646371692,171.9294231480691,172.0596466229695,172.00509434499247,172.23247916904464,172.23416927899686,172.0905126962866,171.9704785492641,172.14639851661676,172.07836033774532,172.01485896814305,171.81954330618984,171.97366543981283,171.86828976252244,171.74846975088968,171.77687245377624,171.85806672174581,171.60118336462423,171.73823345284845,171.6413188813974,171.90848443380088,171.87996011964108,171.96954314720813,171.97109628869507,171.81605989012553,172.0670448390867,172.07357344511934,172.01844513498875,171.98075991220819,172.06295240809348,171.98415728736288,172.0112891270882,171.84235260609512,171.81701376029173,171.90584480351086,171.63171078849984,171.65106346630222,171.66397880100297,171.52352756981412,171.54127761329994,171.53165097157813,171.7348562628337,171.5808040544388,171.5538128718226,171.75532187740447,171.33335226949953,171.5475330584388,171.6010353851405,171.6194851372493,171.6958278786499,171.65310997980717,171.90951038195334,171.78794344399876,171.90699131425316,171.90385437142123,171.87062708149497,171.8211548870467,171.72249715585892,171.67610206173825,171.5598531420765,171.69092048659581,171.5363354302468,171.60995555049007,171.56168165774793,171.4608727831706,171.49869087597472,171.5179948220433,171.59302921578677,171.4752587873962,171.53816186088835,171.43585516966976,171.56565627843494,171.66292038923348,171.6453896676239,171.75576928549071,171.72660273738725,171.75414215477306,171.94028406341616,171.92649655408098,171.94437640625446,171.78443812233286,171.6288905943549,171.68531687336443,171.67305668534374,171.8363765845321,171.77725563909775,171.61323249267863,171.81945868945868,171.73855092276145,171.6666002674938,171.79763397947548,171.64935582036915,171.71674722775091,171.65900753590216,171.85129328742565,171.8772169556182,171.83807084933846,171.97135372173813,171.84628729061797,171.99607027935187,172.0014801320733,171.97402264838104,171.8603592064441,171.74540331303012,171.97629359471165,171.57571107890774,171.7425415622865,171.53547873550147,171.65105632801615,171.73285291101743,171.7060950266177,171.671926532469,171.68278117446326,171.66193739160104,171.7304192025482,171.58857954545454,171.713164852034,171.74780258853647,171.87588248690503,171.81266010132634,171.9021624547708,171.90398746795785,172.02229571762558,172.03063145285495,172.0931560020549,172.1663051544038,171.869883707673,172.2618045414197,172.20813417670797,172.2738497679482,172.04642846926222,172.17943357864894,172.10169540065297,172.09034214441013,172.08966839289292,172.10595571829052,172.12526812526812,172.06378054007715,172.25336996651498,172.26860674736028,172.1889403556928,172.12350233050242,172.28479019978246,172.26483378154145,172.32753540266057,172.34471019053612,172.45930765703807,172.41851342839146,172.5586761716625,172.40365134779373,172.32812321080957,172.27382485051353,172.28268086080587,172.2225050042894,172.1740747096848,172.21425505736931,171.92020170365515,171.97286357676302,172.0012247920702,172.0199772014819,172.04472633979475,172.0364066598244,172.0847819891707,172.08783032583597,172.01321749038598,172.02300355871887,172.34668721109398,172.06276580562294,172.22493929438653,172.23239275718285,172.25296905332877,172.08966166485993,172.25167909914543,172.21990681188007,172.05805954385866,171.91159937223568,172.08002284735113,172.17092697432378,172.20121271057977,171.99454332485786,171.98766137324347,171.98589256646773,172.03939437223255,171.979505623109,172.07711648904254,172.38387281581208,172.2537830029463,172.08523262115983,172.22264409489281,172.18146817248459,172.23797836819725,172.25476360519926,172.15928673323822,172.22816837055228,172.10074733299103,172.15657560446462,172.13772916785652,172.16246002740976,171.99957178337948,172.01261955745895,171.9914319986291,171.92607714930188,171.7799920173338,171.93797475583986,171.86675220986598,171.7888768590803,171.72886330607244,172.01473696235792,172.0966903680859,171.97645211930927,172.05102885356317,172.06256067614643,172.00885183175808,171.95375096233354,172.08457015641054,172.20054905773685,172.04310344827587,172.25608710562415,172.29985985184337,172.56451103648212,172.05708734535273,172.02474597556798,171.95158802696218,171.93574446220597,171.95621227650608,172.16727998858937,172.10759186931608,172.03945830363506,172.0255855034475,172.01748440926048,172.04785370438944,171.98679041166088,172.06915680473372,172.0972846815051,172.15055508112724,172.29879160966712,172.40370349235334,172.35597857061438,172.27198882745253,172.36986340434026,172.50544749301238,172.5005705482969,172.35835710211066,172.41147929331848,172.33303879371775,172.25690978065546,172.2670319947484,172.09464926776454,172.1716958530603,172.00019950408984,171.98255664814022,171.92571282080496,172.04381560931083,171.96532170741438,171.98640522130702,172.06143753565317,172.032658877173,172.14032083119255,172.19469885018117,172.17733006106957,172.15476360316146,172.1057988368115,172.11580027944908,172.1282789689781,172.20462196861627,172.2808905380334,172.0357010570704,172.25198446690652,172.0719746676556,172.0348007308439,171.8234590406745,171.94005994005994,171.81194123341496,171.8978829034467,171.8722567405803,171.82229875896618,171.88064166856623,172.04100019958372,171.88112863732132,171.90917117630306,172.06057325203716,172.07951401762543,172.03618130537592,172.03102496228618,172.16149440027357,172.1076923076923,172.1109623001738,172.36412903961892,172.17611012939633,172.2597695247875,171.84950365503315,171.9769401582873,171.83571936815142,171.96550446161302,171.6640104729922,171.65640295959022,171.84792639854163,171.6511932189891,171.53691179813595,171.65239151453108,171.7085989073526,171.79283356102005,171.6930470638419,171.7920662474033,171.94487427466152,171.8864444887156,171.86997582136254,171.9516230068337,171.7550423271405,171.90905211652253,172.04298932384341,171.9716497779802,172.05709076405904,172.00225019938475,171.77130835276057,171.901836821871,171.85660592255124,171.66691301876065,171.589714448075,171.7178029226133,171.55843602703163,171.58353208404316,171.67704633917663,171.67455553975253,171.79208258681,171.69746490081283,171.70803977272726,171.7231031543052,171.806172032622,171.87865430553975,171.85169503566252,171.87779924974424,171.94341876937958,171.96143117385859,172.00406712172924,172.0464765482696,172.03427270139483,172.00526420624306,172.00703242889276,172.05209074606472,171.86710103280507,171.86173752310535,171.68528943477767,171.71864869476198,171.69045520457195,171.69641943734015,171.71111300688165,171.8263576912141,171.72751037108597,171.7499289732371,171.85175915128417,171.70478950059655,171.8516316253663,171.8730763760489,171.9627574826448,171.93701839688362,172.07665832290363,172.07635390876234,172.10273329730651,172.4157357802348,172.04628418718372,172.05269886363635,172.1987137531658,172.06889780585675,171.97691017146758,171.88871834228704,171.93440618691537,172.04084767458397,172.06699462564336,171.95748366941208,171.94627840909092,171.93676708594793,172.07925321815236,171.97861585210006,172.0084078966056,172.0647277684683,172.21806711943395,172.11451942740285,172.23495824100902,172.231526532935,172.3192832764505,172.40336589116382,172.3880465394134,172.45920168545723,172.49338956006383,172.3663115314494,172.16782262649232,172.15974849924606,172.18036425725668,172.04472307517344,172.29644302570827,171.96313770072473,172.07486843976676,172.0206502261285,172.0222588623248,172.10140387846343,172.02058514116743,172.1224141365279,172.0087552232866,172.10460655318423,172.07317003864515,172.19537092325626,172.29573777954818,172.13194306332926,172.33356102003643,172.37868525896414,172.39428327645052,172.6370159453303,172.64727490175977,172.38692167784473,172.39940819984636,172.2285763010545,172.32816941444003,172.40290184921764,172.23780557134737,172.33184456076467,172.3145862951379,172.08924920490685,172.20661931818182,172.14981539335417,172.28287079162877,172.34880018196293,172.22833191247514,172.15878694948464,172.357134732412,172.26124385601045,172.35778093883357,172.36992921511214,172.49059288987561,172.59908805927614,172.57571615695656,172.80896953098255,172.61704733154866,172.6421856304484,172.52285795616282,172.52052063455898,172.46729690480936,172.45228192125805,172.35481116771496,172.25899382874044,172.41962046956917,172.3816337000513,172.36712500355853,172.32621066408694,172.2917081496231,172.55660431162312,172.38441403249212,172.28485693156608,172.44030169346806,172.49111920756005,172.46680521550988,172.53604193971165,172.55038428693425,172.7131619449353,172.67782081221165,172.62616449673797,172.52290967044226,172.47100541156365,172.37871068734879,172.4419949300749,172.4087813773257,172.27445513002903,172.30919442072303,172.36536105967812,172.2339444317923,172.32199481939028,172.21686952565125,172.37076349563188,172.54506107804892,172.46425215682925,172.40368251799995,172.500028462458,172.56343804289008,172.51893000598238,172.48090668337272,172.51744268830984,172.72325806819478,172.34772843577642,172.38436361566485,172.25386935245248,172.3082892717039,172.1650554449815,172.12467650655518,172.19968123861565,172.12934785700065,172.1641102985117,172.28959134273103,172.04337821714677,172.15855912205384,172.13417930406578,172.14383561643837,171.99537234193568,172.1467728177424,172.26053290822136,172.15731423048496,172.05700570909195,172.06138281849442,172.36650064038707,172.28702229299364,172.3113108273371,172.39221880692168,172.26667046133704,172.26867624058013,172.12733369327384,172.2235371092083,172.07717891864235,171.8074574730923,172.0140252055418,171.8043743786394,171.84519173370478,171.94720532211292,171.90451704545455,171.82778692713953,171.88313386587828,171.91054322180847,171.92099207363844,171.99681646343197,171.9756915816109,172.03230301134587,172.09733959311424,172.04097474977252,172.06833641667853,172.14127991349628,172.30909350057013,172.07278417982644,172.02493595217763,171.98209150698972,171.87087693357597,171.80528935020618,171.78571428571428,171.55346644323893,171.45313743321586,171.66634366004504,171.45776450511946,171.36686474652413,171.42001650024181,171.35742709340005,171.48619727929878,171.332196937413,171.4763409634438,171.53792966082403,171.45258608433565,171.52121487885339,171.6339422912754,171.5462586388328,171.60778400523486,171.62179085785849,171.63054425445958,171.43590982744408,171.56260139462074,171.51630806010928,171.33977986974205,171.23410297918264,171.264395598146,171.29214537595269,171.28492667954984,171.2349781138082,171.2202262520607,171.4226073593443,171.39209605371724,171.43309799009282,171.43038839095178,171.33914601883197,171.31412570713817,171.309397919154,171.47371117879814,171.19454478227482,171.23062009978617,171.09843024415258,171.1292842885657,171.15518077790145,171.0843001657427,171.0610593147629,170.9607500715717,170.85164536695544,170.64855755498428,170.66684790384892,170.52271103107225,170.84139808050423,170.64457917465037,170.82660863090976,170.75890379609234,170.82372143634385,170.76353496353497,170.89011458867796,171.2687979539642,171.56118299445473,171.5110523923173,171.43893162271863,171.6002219250576,171.63644905047974,171.4880989620361,171.4597622703748,171.39587482219062,171.39517873406194,171.2768179877615,171.12218146663255,171.0396191558903,170.73120418253112,170.7535757954901,170.7438975817923,170.4459156130132,170.35226594686745,170.38969898524772,170.37485428335845,170.5137264942676,170.627745533174,170.72742527231875,170.91483367953788,171.04352157577136,171.1373698287145,171.31621375263487,171.45051311288483,171.46094039244724,171.53115557835926,171.6440876162227,171.40694464209477,171.47920645326798,171.53445277532285,171.44336772501853,171.4685702898138,171.43858252040613,171.5386518771331,171.52921930124046,171.5187185536826,171.47177694406548,171.45843399175786,171.5905097660137,171.67087959009393,171.6569282849259,171.7338016952045,171.7383140345387,171.97476619525548,172.00376293508938,172.00419197536146,171.95228599914543,172.0745796523226,172.0061244836918,171.98797412441937,172.07514401414477,172.01936403821475,171.92636742143387,171.77840747280288,171.79089044607758,171.69755055539733,171.7901860769954,171.67372676288895,171.6480020506394,171.7239464692483,171.65284575981786,171.67254623044096,171.8683213176417,171.73981681647513,171.8167482636912,171.82600649165764,171.8754341019072,171.81683407791024,171.77180654338548,171.80315319161045,171.89711664482306,171.8014234875445,171.70465215535637,171.63099032441662,171.58912765049095,171.44603702755737,171.37232046397907,171.5536085705331,171.34614727976327,171.46753764267214,171.3600182071634,171.51438982037632,171.46359029833752,171.40596989443134,171.5931281846907,171.5230073133946,171.6847587875338,171.59983505389187,171.57496377532175,171.82092698629748,171.95695827034427,171.8953475112606,171.93614474996437,171.9520635734427,172.0120970042796,171.7337377534746,171.70854686254413,171.68816254416961,171.70260180673108,171.47749310433076,171.58302971649778,171.603579762108,171.47145294284903,171.56084023567587,171.40057964425753,171.43684464777925,171.53957100591717,171.52488983653163,171.5846674439105,171.70654030054644,171.59031588524635,171.6549341824695,171.6356761059934,171.5929306716715,171.69443417422713,171.75022060288634,171.79948190953343,171.62909556313994,171.72620640569394,171.564896797153,171.64808749394777,171.62861699703805,171.52544978364838,171.55098553036345,171.36335712863684,171.439355554923,171.47402153478038,171.53099715099714,171.52650780982785,171.46879361914256,171.52946543121882,171.44689395881397,171.53845058387924,171.67564252503067,171.50680872884735,171.56672275618172,171.6216216216216,171.49574061939086,171.60051876977454,171.9918466599914,172.03250844933265,171.8990736505032,171.52731206057328,171.3409414309295,171.27238593696666,171.30483641536273,171.2165452890305,171.21907443752312,171.22473763544838,171.27775248933145,171.0780149897797,171.5840009122787,171.50304964943282,171.63890711005902,171.8700262977361,171.90518471992235,171.73984296930763,171.86464404068107,171.8494445555016,171.96155824854236,171.8369577625571,171.966283787645,171.7800142755175,171.8827126975508,171.88549290942362,171.7539621348411,171.32969127898704,171.27894856752292,171.16850577327796,171.32169824761363,171.25358047891575,171.20686120996442,171.32783099555252,171.17976376832218,171.1654623044097,171.27978817299206,171.36743006893408,171.35476068521996,171.25886201991466,171.41638448624192,171.3697105944623,171.51167160100204,171.55793612353628,171.55737518156704,171.61574614749196,171.6405764903586,171.6330654354765,171.49189019697272,171.5369267166434,171.33591525230665,171.29069072487692,171.29027117775945,171.3957935535353,171.19534539660862,171.17574412384042,171.34222893110422,171.27013408489196,171.3403885597083,171.3811083266887,171.34842620524788,171.15326497571505,171.42049299178348,171.48812807461542,171.4998435321897,171.68065719411146,171.74618233618233,171.53057047838323,171.54057513439713,171.7432255493567,171.78430088545966,171.67837637956538,171.74085044572925,171.62237384506042,171.61199761071765,171.5795237959776,171.5642688511534,171.54033381671357,171.4899491057974,171.59918084077592,171.57490615402116,171.64153092607359,171.6265173266623,171.5229216995879,171.69854635450744,171.75081817923106,171.77126266651487,171.85493098050378,171.95772843723313,171.896565461116,172.03126781438831,171.95952604745221,172.14222602251675,172.2455559677005,172.18475842792768,172.15764531232156,171.95073372275252,172.05361218899796,171.93295882285844,171.9812822780837,172.07165304839722,171.82014593546916,171.96243260974984,171.94069173961392,172.20201673950925,171.88092795257637,172.05410186902554,172.26434613625972,172.08040172330166,172.09432401597263,172.0757225598448,172.0800548164221,172.13778830783284,172.18758211001312,172.10743117957495,172.06072805139186,172.11618873529076,171.98843881133854,171.8592022792023,171.87129333941607,171.79110984470722,171.6938833651463,171.67196971853033,171.8140336876906,171.6887901825119,171.71978350662297,171.6785551504102,171.7870842714241,171.72251025524156,171.80442762427796,171.82577613215608,171.80903607602139,172.039248660358,171.82273076594655,171.91584313502122,172.050434534834,172.04160018235697,172.0832834203246,172.06309337134712,172.08074551889484,172.10217416115043,171.81007431874485,171.74903155975846,171.7754735792622,171.7636503460651,171.66292806513138,171.73283594840106,171.8992051508504,171.76283256423403,171.73273973771796,171.79573656648452,171.65897661732535,171.73773010498763,171.77634946817588,171.73055595051898,171.85548343013323,171.81106593500326,171.82781475792228,171.93224970821828,171.96809662166012,171.8579483966509,171.83415912067886,171.6928701490839,171.62623389184424,171.73717948717947,171.62995243384887,171.64019928825624,171.6092953010572,171.49127551165637,171.57965899063504,171.62702887408167,171.55976220275343,171.75298509589354,171.72478656801366,171.70679600603077,171.76889154432683,171.69521453552844,171.88367788598438,171.90545620230094,172.01438623479476,172.00313354603463,172.1055047179224,172.06419429320715,171.95469559769919,172.16132621907724,171.90814814814814,171.9388319088319,171.74035697002478,171.7654946619217,171.76287339971552,171.77294741040396,171.72902968718867,171.7006373051098,171.59820260508502,171.64762934099377,171.8052835345024,171.78261859366552,171.99618157467302,171.81445323618146,172.0078022666439,172.0121579681672,172.06718500797447,172.10279867761056,172.15301558360161,172.0971158500128,172.10411863490165,172.4056746496161,172.02427294974675,172.06254630421154,172.0581262821974,171.8802834941508,171.81568906605924,171.7551740826145,171.67979608111187,171.71218804245754,171.6787504271557,171.57632762251694,171.59561146369924,171.540426742532,171.60633909010727,171.68837672499643,171.69756847559933,171.83742803397365,171.87227369921595,171.76453670482374,171.87028644719965,172.05470422052906,172.27553790324885,172.0642159940636,171.82276821343063,171.9821892393321,171.96317337063576,171.74485667065596,171.9050406968442,171.81108448856182,171.65459879796052,171.76758575461207,171.7371692518248,171.7185807922485,171.7102976783934,171.74740504163339,171.78624148642103,171.82537555941963,171.96825713715313,171.94314457522302,172.02295801962126,171.9052055731259,171.99318583566173,172.08372305235542,172.05989271243507,171.91328623518686,171.87782779645565,172.06829782986853,171.973624180211,171.90917899176426,171.71933170148574,171.91052391539822,171.81238605287146,171.94542138113832,171.8469579583001,171.9180407233376,171.75623576309795,171.74990757330147,172.11915135981775,171.98506103633724,171.77656520874186,171.8248058928927,171.88961869828543,171.9160292319504,172.13635327635328,172.20903987004473,171.969645244801,171.94617660446062,171.90783331435728,171.78921610470906,171.73256343156217,171.66365444728615,171.46156030785835,171.52131771928828,171.72079658605975,171.64434206410147,171.69720854793275,171.49809691529853,171.50365025708035,171.6130911778081,171.64957216362964,171.68281863163284,171.60856338668864,171.72794536141149,171.70017927776672,171.69184805804525,171.71911358916736,171.76784646487656,171.71253378859012,171.67161927532518,171.53019790718835,171.60724344931577,171.54569525111035,171.38553805923485,171.422913880907,171.41681838871187,171.412286941923,171.44730033266043,171.5179541125295,171.34224128138135,171.40328809131694,171.46912984209928,171.36225430410983,171.64096296506835,171.61895430405272,171.74215087370365,171.62756173715584,172.01426821974766,171.7465809900202,171.91151097571392,171.87982588409344,171.99578719649313,171.96347018962473,171.76015693856084,171.87629277187384,171.81832426426598,171.66200108105033,171.5505132360886,171.516713091922,171.6518101092896,171.57144483013715,171.63234582657446,171.51035952820806,171.599567838053,171.64247525878739,171.72972204045635,171.83017418032787,171.82102628285358,171.82144178501295,171.92137809187278,172.01698731651703,171.98282931829831,172.0820578594841,172.2358417820934,172.09095832620716,172.03194460275847,172.0553163582447,171.94162892060507,171.90116527536398,171.94144978763433,171.8878573869461,171.9478109679626,171.97464170726843,171.80992488049168,171.8421247402431,171.8669890484995,171.91184086963946,172.00541033088444,171.89926317885693,171.97562917673824,172.02929132066888,172.0650411130395,172.10315789473685,172.22495085610097,172.24165812549825,172.26303654787657,172.37795499857592,172.29814018398793,172.1885943683626,172.02736842105264,172.10929941380684,172.08811638765516,171.96720472888484,171.74786215517486,171.85693986586335,172.00551920341394,171.98102742063944,171.91129421792868,172.03308959512904,171.9971851009383,172.16158024972268,172.2146292870357,172.22029076218385,172.2705825436125,172.29933115127366,172.33623757865664,172.19580817860805,172.2723520537417,172.43264270854115,172.35962665756077,172.3688435916415,172.28749928843854,172.14731152204837,172.25328891166922,172.0696999857813,172.10216216216216,172.12575037696664,172.31606867834122,172.18531916711768,172.07084910762575,172.06853334092915,172.1396633725401,172.1133885615054,172.09665300546447,172.1355546062936,172.3674248902571,172.19009816474605,172.31933323835304,172.32502992646639,172.4134352189781,172.54744921250855,172.3282851286723,172.5988476568071,172.68080733106854,172.6934527204289,172.5673194788905,172.40534001309385,172.42128350471415,172.296875,172.52084759297284,172.30143499800695,172.24131356535102,172.30187873612297,172.33244128113878,172.37897136344208,172.44910640481146,172.4234398608775,172.44919267415986,172.35684588221892,172.47333466351225,172.3842694070426,172.54731406726955,172.57027081014752,172.4844070695553,172.6097484366523,172.53632655389794,172.64008903601393,172.52655586281608,172.6936911218955,172.66335361151573,172.74340808455935,172.5186886555581,172.57531470327976,172.36093055080397,172.5185090047664,172.42937885361954,172.47856632871625,172.498042465636,172.531748755792,172.27034510318842,172.27520054811728,172.51658374792703,172.3687939210421,172.60543789353176,172.4776866119672,172.6605722460658,172.7024058128558,172.5587436769455,172.5235621521336,172.73725759395916,172.62117532782904,172.60686739416101,172.6290271861868,172.54293628808864,172.5365233538066,172.44097073518915,172.45984296930763,172.36787283830833,172.47915773835032,172.51904775513702,172.5481593689265,172.52812392820397,172.2210229538076,172.33292498789208,172.44982314011867,172.33973609963238,172.35559859857008,172.52854617007927,172.49148480958493,172.532848173516,172.39790740107196,172.5087168659229,172.4691611724748,172.60176435321324,172.56551252067766,172.63494330353316,172.51850476897596,172.50239808153478,172.3387515327801,172.3367649575087,172.33030164794434,172.21082929609577,172.34610443372256,172.40339496470722,172.227123576911,172.17667018334237,172.20863986313088,172.23999087487167,172.35028796259337,172.1458095781072,172.3061567855819,172.3096630623948,172.4257705479452,172.4457312376986,172.5410921755017,172.26241762003937,172.56916702386056,172.65875828950377,172.63860310928212,172.5022977022977,172.51968458945203,172.39188803199087,172.2326509665279,172.4538966600057,172.17221937467966,172.0955176245975,172.08576231586744,172.12813934262664,172.1062022574393,172.13231312872247,172.19660263352904,172.06870533299167,172.11669704910562,172.2588845507139,172.1876174745116,172.16265763329443,172.4442257217848,172.35392601466017,172.43183375199817,172.49298711686234,172.42578158458244,172.5821061962085,172.59842789767043,172.58031858609547,172.28543312701447,172.54847748391708,172.40993966429326,172.40826422647984,172.37514295516925,172.40076674391327,172.347806176479,172.22029341950983,172.34415677299384,172.24409066224598,172.47062866962622,172.2944104353796,172.28107118333716,172.3041725055052,172.34833323803534,172.38315403982605,172.35283018867923,172.6257521058965,172.555275301671,172.63069778109053,172.55637268929206,172.55266546484677,172.6043594076705,172.43534926260432,172.5277618775043,172.3486498071153,172.3936127630375,172.22792079773708,172.27616461846242,172.29958866544789,172.33672506931146,172.33691213843122,172.24814391776127,172.23824200913242,172.24277142857142,172.25784260554335,172.3642490005711,172.487142122407,172.3881734859949,172.2710424270073,172.34141189232395,172.2785818275242,172.39740185581726,172.48267291375026,172.46234470941025,172.3902515633477,172.2556753365275,172.17404567095247,172.08151167098924,172.0784084426697,171.9555257984558,171.84467291316605,172.09981178349398,171.87013689273417,172.05515963511974,172.08982548192083,172.02072642262516,171.93596493724564,171.9723819828028,172.13834543642318,172.0274296456648,172.09863247863248,172.06002619739166,172.0727252034371,172.35428734484233,172.1164373807286,172.23746506189036,172.29402206448302,172.14125081841215,172.10377358490567,172.1198198711737,171.85173277186593,172.03859529103244,171.85201729926592,171.74517165856017,171.93681811707734,171.8182749494892,171.77371639880528,171.78107400876044,171.77275959159294,171.77527003979534,171.7141517476556,171.68576704545455,171.88252189739507,171.9163965193653,171.8289855072464,171.9214710315993,171.97793511331002,172.09112648390126,172.09719216311652,171.9713960762013,172.11551812439538,172.1028733997155,172.07086748633878,171.86441545152212,171.72965528990858,171.75826082011034,171.79374466875177,171.5936656724897,171.66093114530304,171.8192867105001,171.72047109695038,171.5581547382184,171.56450742623463,171.7647811984294,171.753582395087,171.63773509858515,171.56130534806442,171.54512420156138,171.63518081872675,171.49553026648127,171.66622140116527,171.841627543036,171.94424977922114,171.79540478289306,171.85332271279017,171.81319244681154,171.7452542903492,171.5408116864662,171.6177064089811,171.61861972872296,171.63366702690405,171.46503506430824,171.64954811572784,171.67970061754747,171.64317832545962,171.6511925405805,171.57995341967734,171.86875871290792,171.75561430439478,171.78159481287682,171.80821294505745,171.68685003125532,171.7950619388567,172.05152731517066,172.08330009686057,172.07637761640325,171.96189717925387,171.8522539935194,171.8540339098771,171.77479321224524,171.8393146825284,171.67892986097291,171.68075250788598,171.62134901693375,171.66137927113536,171.73943100995731,171.60733371233655,171.7660767129524,171.62347959531658,171.66517907902218,171.72356035831083,171.67731484113,171.79830450614475,171.80162749672795,171.68773973575793,171.78951108584423,171.91113892365456,171.88622022625205,171.97148548662494,171.87722738511383,172.2110680275988,172.02708167217222,171.86495799515876,171.9606876104681,171.8512897898753,171.72045150834495,171.6408448702277,171.66390714346676,171.7058856980381,171.6543655644955,171.79269749189558,171.71816010916535,171.8547487623058,171.76568360040915,171.61537368974234,171.7441318556408,171.92973865512727,171.87610317143995,172.01262467939583,171.9238895216401,171.95297466552805,172.04987041098232,172.05539724153653,172.16172068759087,172.21006414825374,171.985754985755,172.04699478469036,172.05592152165855,171.80792778426402,171.86563336942277,171.93385813296825,172.00390970577322,171.94195461284068,171.86735624323245,171.87414801083702,171.9045108711139,171.8901528110389,171.92869153817654,171.99128155450452,172.12552074416482,172.11638717773215,172.12007536827682,172.26441539164193,172.26255421136727,172.31017632097848,172.51205905072527,172.56872729353205,172.4838783509284,172.3056127114769,172.21726717295724,172.37239151563662,172.40081711951086,172.5055482468684,172.39160899159182,172.34377142857142,172.30657913515057,172.42047631300568,172.30242579908676,172.39423461516483,172.52559268780348,172.52864040225123,172.476193196424,172.59898854252978,172.54987994511777,172.48515502214602,172.60138301520175,172.56126007661084,172.5939742160478,172.63629341420153,172.74547223255414,172.58724985706118,172.72035256410257,172.94272014700394,172.64331884223773,172.52160608573797,172.400108577633,172.31035074178888,172.29217401246214,172.37408424908426,172.48302901951806,172.31945279184913,172.41981172565738,172.10991397788,172.11515376700584,171.98961759574408,171.9270375235593,171.99059220496983,171.9055588933711,171.99461534055106,172.10292812777286,172.1841706025476,172.25536910829848,172.3323212648946,172.4068831131616,172.45308786898389,172.45144281743416,172.6126053793657,172.46489090231384,172.39761659218516,172.2873266872923,172.34665558072192,172.23905386443687,172.28506333467072,172.0365689778413,172.13547537981745,172.08338339197346,172.01639391165025,172.1010161728925,172.0087506076811,172.2173514674302,172.09960797779496,172.1733291334975,172.25391643039208,172.2556800275048,172.2055218238057,172.2636254226603,172.35018071252367,172.38683599461055,172.41225051617343,172.56592886056325,172.3496615808191,172.24349942726232,172.2645407139992,172.30576168237687,172.0061430326581,172.12462449575145,172.04936082592158,171.96413363436312,172.13696043937185,172.08303073624018,172.0580232092837,172.01769683801245,172.04925995771188,172.09967128769472,172.15701912357432,172.30095112588094,172.18567138567138,172.12796615015154,172.18480528015087,172.43102412224226,172.26124399176013,172.41101221990098,172.4361778261243,172.26593796497653,172.20089668170655,172.32466826813086,172.08053691275168,172.09010656229466,172.13752467034695,172.0444241420659,172.18799634348397,172.17265220993687,172.0309334246497,172.07632629777524,172.13015909285653,172.1623056070766,172.11489726027398,172.26670093965097,172.31991319741877,172.11930214658344,172.23864673664994,172.33869263500586,172.21337743057535,172.3714840515149,172.34545454545454,172.34803068761943,172.21144193474788,172.19928673323824,172.33758926021136,172.06167702217408,171.90021945449882,171.85364464692483,171.94394254609708,171.72116260532908,171.94012488238818,171.89730438251553,171.92954616677588,171.86276017197687,172.0677709984604,172.00484620428176,172.0872142734994,172.13474368478074,172.20564079165004,172.14843638644203,172.09923664122138,172.27408718490395,172.13252153082757,172.3383083157354,172.19310246544106,172.13641157189682,172.00204982206407,172.1861638447067,172.0363387822521,172.0282591991804,171.9095513130566,171.79187990446945,171.7825258728534,171.7838560177419,171.85092160655364,171.76667519981797,171.8123703135215,171.79861880808252,171.89986918439314,171.83741939149456,171.9239800995025,172.05832645745014,172.2687507124131,172.09065816805622,172.05137619901518,172.16601217915886,172.18959922577707,172.09422639362913,172.15001422475106,171.95661315527775,171.96930211385813,172.0259138102688,171.89697555979174,171.80811356718158,171.82265364798315,171.88273819693603,171.75576600403835,171.90294553327257,171.85529311326124,171.86090396766664,171.9104112085659,171.8879241630608,171.80208718400775,171.76359553117095,172.0868376068376,172.0145777575309,171.91582242458736,172.13301040034193,172.26658494169968,172.11456731043126,172.18500683838613,172.02433540160527,172.00578018223234,172.05734879348168,171.84213070928843,171.99455933458668,171.90820045558087,172.03180846515605,171.9126423690205,171.84257994764994,171.903725205612,171.84385221422679,171.967746526987,172.08088779987463,171.94622982551024,171.98926629274266,172.34036367782022,172.2284052682593,172.3228860687295,172.09500768486367,172.20859927057214,172.19898584166594,172.21942814831692,172.1191900205058,172.24180713613416,172.1027680378574,172.13715817388578,171.9108896797153,171.90782806717905,172.06570279750193,171.9444254543383,171.9395717052056,171.93776169994587,171.88358778625954,171.94391938055114,171.9267868843119,171.95557580590045,172.00313381385146,172.07553833884015,172.23445208018478,172.2197285119489,172.3661770589244,172.14296304744525,172.06989461691825,172.26762491444217,172.34619666048238,172.39765948337376,172.2033086138049,172.16783555707607,172.21344979163098,172.07392618789572,171.96887026426066,171.91010595875585,171.99464005702066,171.93168215242548,171.91451603714464,172.0676661726143,171.99196787148594,171.97588062761625,172.05959265061958,172.02427419584603,172.05817529472066,172.25289322159512,172.12943388700532,172.28629308377083,172.2066754075932,172.2878161443928,172.30356531660013,172.25288568415652,172.40163700661648,172.4889637645984,172.47376089130125,172.19936699837473,172.08250740487583,172.26688726608853,172.19574893009985,172.07503282150807,172.09531691447162,172.227158376215,172.1047115933752,172.19372714808043,172.0938436509975,172.13638441320992,172.22776349614395,172.20202135556443,172.21833461967242,172.31889234989856,172.35889658329995,172.42385866613304,172.31660143416278,172.3585806599188,172.42175081479786,172.5553108734199,172.639939312398,172.3678256149473,172.52810693228002,172.36240670307987,172.3759220081194,172.37134770427124,172.26306764596612,172.10102827763495,172.2350618131868,172.2555361888162,172.3239895883985,172.21196180456286,172.26525070036018,172.23934163904445,172.33456165909675,172.5168121333524,172.51226274868512,172.3503255654558,172.5613969852121,172.5662605811027,172.4627074585083,172.56474254510107,172.70555412481758,172.52953622691143,172.62002405636062,172.52939493634673,172.23096251035034,172.43118977496925,172.38356673335238,172.21521410003714,172.31137793024587,172.43632514091155,172.2851016382194,172.27667476074848,172.36573372594987,172.3236756386079,172.42069892473117,172.40095499513924,172.47855917667238,172.36263171421228,172.5502960272288,172.64613799616518,172.6249892756027,172.8461295961941,172.8122815061035,172.74803691179,172.72304518495173,172.65881476386977,172.5742293711898,172.49316478865182,172.5028492883938,172.46153625844886,172.33812887910076,172.29383493062508,172.3824320457797,172.35110183782547,172.3683834048641,172.33271391406274,172.39288677787633,172.43033958380974,172.40937428506064,172.39390299702586,172.462471742925,172.52398798455155,172.71623828763,172.6572476643549,172.72181312856364,172.63023862041308,172.74290958102722,172.84798072510327,172.87394019248396,172.77431171655886,172.85694221508828,172.64083478858322,172.71679614712036,172.6218932539228,172.50624176831013,172.63476887740453,172.55887244780914,172.57795189713565,172.47474689534516,172.50536554573625,172.5039722373591,172.70420269455056,172.47763335341884,172.45818286041845,172.65137114142138,172.57893377711466,172.68870199207763,172.76991734588452,172.88350657554702,172.7333963940723,172.85492019749685,172.79002210293655,172.79390145859654,172.93740300051732,172.9279077126665,172.7568638713383,172.65321885947282,172.56232424677188,172.59601090543836,172.40555268743188,172.5348516614492,172.5125710349578,172.48506862688797,172.58432904411765,172.61236165013656,172.6151102930603,172.48645932052497,172.552823576722,172.73651971357089,172.63673985515575,172.64052982415814,172.63080108114326,172.7459697117733,172.79598585271876,172.80568407138136,172.870041708615,172.91465869227673,172.7202401470757,172.67294495966004,172.67050810437982,172.40426446565215,173.00792598570442,172.9958224091734,172.71617541337167,172.84946050927925,172.7047550639276,172.85149483497827,172.84546343708647,173.06252878857669,172.98031088082902,172.91345739020392,173.0104238654688,173.1520359903103,173.07758521418702,173.1273914669582,173.13083681405732,173.05124366651313,173.26151984092678,173.16178843051395,173.10420985947937,173.12930984861566,172.98671077232848,172.76083208826572,172.8239388013344,172.7607902822847,172.77174881448485,172.5194771542913,172.47627401357414,172.4365261886966,172.44856510873,172.37951530465745,172.55436469168438,172.43639859939154,172.60881313058727,172.66684874795158,172.68410613160088,172.81235612338858,172.73046279517933,172.73646531152065,172.77408035894044,172.83698779926334,172.81319218709547,172.87233981281497,172.85484568168064,172.70850598526704,172.56733919641317,172.48715003589376,172.48595473345588,172.3685827495119,172.43334098868922,172.41227818296676,172.37047673750718,172.23985324466867,172.23950773114547,172.4292027779372,172.40653253350936,172.46405191225452,172.42288600040172,172.3643190873391,172.41290378105455,172.62778336445913,172.5805794022223,172.64130778291724,172.76661968184564,172.75928322834872,172.83110868189402,172.56089016511126,172.7327682804195,172.37771793623057,172.13016009148086,172.0658567957696,172.0421561062048,171.963262391087,171.93921893761794,172.05102245102245,171.95952088276493,171.94170403587444,171.840186301683,171.8042901560316,171.89795161474382,172.0580534514792,171.9010565391205,172.15172413793104,172.0179096803679,172.13344203209473,172.19118194043088,172.1588940039459,172.47296405725595,172.45955945620375,172.40338060449793,172.51664707063176,172.43556612422645,172.25840281956502,172.12898886694714,172.32032324621733,172.26934762669111,172.0337017523766,171.97827082736902,171.9726278417225,172.13280958798063,172.17869544006658,172.16143755202802,172.254014305001,172.19641010913267,172.19439820926362,172.17155399977045,172.16915308698646,172.3543474512959,172.269722875667,172.4319912636147,172.35322140909744,172.41127294665174,172.30785129898092,172.45211863187873,172.27336206896553,172.27275077559463,172.27634337574312,172.32531227566403,172.24746025368765,172.23475067424113,172.2099888120715,172.27267251763897,172.14577543477637,172.33379274700664,172.1570049001347,172.31162724014337,172.09922440685727,172.29998280900807,172.1395342183566,172.41738132797934,172.36405054586092,172.49772108356026,172.4083510059036,172.49092421070742,172.51668577981653,172.38997677685714,172.38129620079079,172.43059896206668,172.2277343861757,172.3087569488223,172.0525171002547,172.23507163323782,172.12824916981563,172.23212289702215,172.02161853016872,172.22698385434558,172.19519743251763,172.25841022408162,172.11987173981504,172.20816268079622,172.26390518993503,172.27090377672073,172.25286434463794,172.21123737012337,172.40182897113206,172.45046439628484,172.38150570953118,172.32423530759536,172.52820821854914,172.4692431284788,172.28040036709876,172.23439337022913,172.13630241022554,172.24409132629646,172.15005017921146,172.1086482766531,172.1584112954141,172.0509402591446,171.95239868251468,171.95505038937242,172.1587087517934,171.87821779343128,172.0448749176147,172.0302865329513,172.26185354100335,172.19881246055877,172.38987334501277,172.21131080345114,172.35113342898134,172.30032993831588,172.3966368227732,172.47748342470078,172.467935469055,172.3818354048856,172.36248601187916,172.13585554600172,172.1523036318779,172.51198338765033,172.41411113673047,172.42501153668667,172.62353723020024,172.51053695150117,172.4112947420034,172.44666551286488,172.43184177142197,172.60189436599381,172.09045485871812,172.1014705037624,172.25619882200834,172.2143206326384,172.32666724132977,172.33062151440234,172.31072845397574,172.45768223546003,172.62683383772878,172.35749417551125,172.30583628458726,172.23475557091035,172.3715158677543,172.17933796202934,172.29105789458518,172.07768918568837,171.99703452048485,172.19014551217404,172.03278641335635,171.9193061189264,172.29068426817318,172.09938120592892,172.08728811120383,172.24798294144767,172.11011579008007,172.3062559432902,172.1958050017287,172.3426964671954,172.46276963894337,172.31775970467785,172.21244239631338,172.37552183802148,172.31019278983314,172.33463057453372,172.12248949761178,172.2585337750252,172.18247188425806,172.30312715964064,172.30588777774577,172.07697839657106,172.08706539258577,172.12345785771936,172.02796175776075,171.92617835677106,171.99427173287276,172.00579217336175,172.179961342065,172.15699117086965,172.03684165009082,172.01398339291893,172.26355469539848,172.24670264654102,172.20969836917305,172.0181047654741,171.9906038334054,171.9475429692006,171.88836672913362,171.73979900365708,172.08039012003692,171.91461516287114,171.76176352012902,171.85533485167355,171.8107936873632,171.98052378345673,171.89414407926952,171.80048920863308,171.97189425790475,171.99525056849257,172.16468551644547,171.8835007338763,172.16804177244404,172.03760870817254,172.22004099425504,172.11273125468273,172.12985664426432,172.127764481993,172.05632382598674,171.8661655434595,171.9129283040599,171.8311815280214,171.65158695964382,171.8040157638869,171.7704253299974,171.75768732921043,171.72611867424897,171.62372229240842,171.78804425923263,171.78281348727668,171.87493534111155,171.89359014840542,171.95163094930717,171.91098740279492,172.11856232416605,171.94972740315637,172.13721658668354,172.1718866731797,172.21178806803465,172.05025573242918,172.2219539536087,172.09378144495875,172.14150074807227,172.10585358837912,171.92446756531487,172.05626708878975,171.80002297926123,172.00440072482527,172.05893530648086,171.99720983748023,171.87760670994427,171.7979050078921,171.9017095244936,171.9561143842506,172.06056949113582,172.10890007189073,171.94681705987028,172.18634468880265,172.14724984194493,172.1476776270407,172.15932769239626,172.24928036845137,172.3052883230601,172.15579710144928,172.32834659287442,172.16236364159687,172.19928620769053,172.06390685640363,172.10556003223206,171.92883604721288,172.0442961514123,172.2111107914497,172.29299179738092,172.14730642149115,171.94771710450843,172.16545689284177,172.23241537578886,172.2839924238076,172.3480245779258,172.3709584792971,172.43573685722492,172.49636734342246,172.60851454999857,172.6758273381295,172.5875805338242,172.57053399592107,172.46685812751292,172.51671121073656,172.3710047627245,172.53952887101408,172.4025824964132,172.30174070144247,172.3348073278585,172.25182764255612,172.32865668215987,172.2947063546685,172.29688978070803,172.27849298964935,172.38565730191982,172.244210043568,172.42925191540647,172.3430784679386,172.45791709725572,172.4438257075607,172.52952495835487,172.53111985524313,172.5538280262099,172.46606594541853,172.62565399873512,172.5235182632667,172.37413872301332,172.56825305535585,172.4358871314981,172.29855671286333,172.3079440728087,172.31587265099708,172.14590267416503,172.25650376155747,172.1342949729001,172.19278870976996,172.2140748172567,172.27357489170038,172.10526165038812,172.12738890003152,172.2745610008034,172.2235611407586,172.30547500789527,172.18263163932545,172.26734945635022,172.24163536798648,172.40862004648628,172.45719788432794,172.47799591825003,172.49931018624972,172.394512282718,172.37678663681763,172.38967338269904,172.35941937519723,172.3802113242219,172.1570008878197,172.24578140667526,172.24566730642528,172.26355145542058,172.34268439452117,172.32779928315412,172.43148387096775,172.36427506308786,172.32520138749535,172.28281120123822,172.40858117991223,172.3794951144732,172.49159736162892,172.4138019938123,172.39244027646333,172.58139468091218,172.60573445841226,172.5740772630733,172.69959202436362,172.60119423551703,172.57872364868746,172.53812122953175,172.44445082555634,172.4798206278027,172.2499282557539,172.342077287746,172.31852234564712,172.46055051143546,172.49430281406458,172.25725521715418,172.3541792287593,172.32267049533382,172.31314958369222,172.53997182855665,172.66100963612828,172.65095479121132,172.66602383282483,172.66901753072915,172.59492032445493,172.8300037475857,172.8168636494667,172.67872260776917,172.68010946276826,172.61885033661315,172.4664635022856,172.51669590727371,172.44434865074575,172.39338847722442,172.3751005169443,172.59309451877428,172.34696104045247,172.39054647790255,172.3696164005972,172.39929957515213,172.2960382983603,172.5792861658716,172.2435338647703,172.67024151811387,172.4107839761249,172.62404003796703,172.6994623501337,172.7059347863592,172.77188741150061,172.58000172448482,172.45843503230438,172.48737758120566,172.38356400390512,172.3464309290778,172.4253857869479,172.23200183786577,172.45838727309342,172.09519575505522,172.25341147404407,172.25256207836946,172.17532635202983,172.25191080972357,172.2459519981626,172.19234963269054,172.24722516993145,172.33363973228393,172.4866745249116,172.45625879851755,172.6082503883551,172.57681026053947,172.59151567443197,172.6382525612985,172.54281442291102,172.59850926672038,172.47029888099416,172.09970472723103,172.3240059756378,172.2215909090909,172.10536585365853,172.02318108790453,172.13377753525373,172.16542670841352,172.24862037249943,172.07906068783373,172.32994018863585,172.32874468329692,172.23827990348155,172.2262629161883,172.16202255574368,172.40205741214334,172.49121596365623,172.39371640461064,172.51920864964345,172.45068076061355,172.53005260283422,172.5023707577804,172.5510280373832,172.468599172604,172.46314549268658,172.25287818322758,172.4242432952945,172.45938947550133,172.32451929985916,172.31712923059243,172.2540804597701,172.27737226277372,172.3777566922568,172.38204250668662,172.35287693280452,172.29358536094912,172.43000431096422,172.37234684205993,172.33355365250875,172.5140745852382,172.42864535418585,172.54708739259132,172.4520441607728,172.6667722338986,172.5941545365629,172.71089228642998,172.67796658986174,172.45267821184052,172.6422996054034,172.58672426205902,172.49962557603686,172.39713166685866,172.43537571588914,172.26992524439333,172.41185108404596,172.34071751201128,172.3781280561468,172.35867126833477,172.28491812697501,172.45351610771044,172.47398229070836,172.53697091851424,172.62666436105826,172.56107034958998,172.6444092675205,172.64241918305075,172.64109943876818,172.76136003457714,172.7803204980401,172.59313401053208,172.61206921371607,172.49404316546762,172.50300658860087,172.42654246449314,172.4724060539794,172.46249892114272,172.4011905446598,172.4897865239657,172.34260989563867,172.62198422295157,172.4890588607413,172.51591752221552,172.39841392983362,172.67052355870248,172.55334138486313,172.6864640883978,172.70897048236142,172.6740606479084,172.70490529103574,172.70276491066548,172.74487360156454,172.6849374190764,172.48864485712642,172.4870254892382,172.5249748092702,172.38667777809707,172.44790708371664,172.39162568659592,172.39744142590197,172.41340123137118,172.35704844549164,172.34266317636568,172.3485236192174,172.2526088831393,172.41267694786512,172.2900833572866,172.29579971864143,172.5438793426014,172.39824762999137,172.57388850495278,172.53179124230394,172.55464166570803,172.75279410070286,172.7630380913963,172.77541725519586,172.76637076320037,172.59684146937838,172.5421988263721,172.54063940092166,172.37717128724262,172.47543531443372,172.2978650038792,172.3108710020403,172.46784954276183,172.31988513998564,172.1711311230928,172.25373605254856,172.36874317567955,172.38935461644465,172.48169435025002,172.51521682903697,172.53211536251868,172.63938574797263,172.47979885057472,172.5302568817884,172.6481529394854,172.6210813920046,172.76387130194544,172.87171877251117,172.67880985267035,172.62855499640546,172.60800852092808,172.57621749272818,172.71671371780837,172.5071175912346,172.5444470032817,172.25627693191612,172.26396989111385,172.53174694630098,172.43457997698505,172.58596855019871,172.51514017615565,172.4300296155726,172.48703501408613,172.5407458563536,172.52684090974438,172.6993488532903,172.70521646455626,172.81649365628604,172.97181351335757,172.75295337981905,172.80379327241806,172.77854671280278,172.8107476635514,172.7668531226573,172.81485216990376,172.6214559166403,172.6586678175802,172.38809482808105,172.64872635271118,172.66983140571955,172.58064516129033,172.63204346826126,172.6217908218942,172.6483668016892,172.65728643216082,172.61365985300873,172.76001380222561,172.7973995339873,172.82989438544993,172.89705078405984,172.90277817763064,172.85458052628547,172.9742984602101,172.867589103357,172.8866213804617,172.72086471569023,172.70217959394654,172.6890331475843,172.59582531798213,172.59722022801023,172.51430375025106,172.52891327453966,172.49418821571047,172.48106680446702,172.39611283109735,172.5306907941979,172.345296107321,172.7004568571675,172.55526866913388,172.4911536145442,172.43844523373053,172.6699040285041,172.68816895750237,172.63634014699127,172.873748993443,172.79862128392935,172.75560151671837,172.934878904677,172.71177872878192,172.6634988084642,172.79000316173722,172.5180262931282,172.3592249706211,172.30557863671527,172.5326139983356,172.38742044607534,172.3218887807113,172.23662439527095,172.33007538192552,172.39718875502007,172.3845668930342,172.4654658100046,172.3533321872672,172.4180999885334,172.41521321992153,172.51964577422405,172.52443323493165,172.52832406398716,172.72480252764612,172.6966904905422,172.83471667767597,172.6350421469121,172.8760853314933,172.62521886391687,172.69540625897216,172.49935502364914,172.5489358040273,172.43022889391813,172.43356081894822,172.55846577543176,172.37224101358711,172.39891758776702,172.51145519713262,172.38211755256592,172.43466291973732,172.52983917288915,172.45304517536306,172.56766150575933,172.49997127592349,172.6538782318599,172.5510526921307,172.58063588800093,172.60192778017552,172.64921872751864,172.71549716848247,172.6968720324595,172.72410516312956,172.5650461432309,172.5423592339104,172.49876323055685,172.46225546605294,172.53323732718894,172.30423402174537,172.48671751331128,172.39894658070457,172.38516450303675,172.4734612724758,172.58073719703737,172.53654604600283,172.4558523331704,172.61342046174218,172.5719057766515,172.72012098516493,172.44592728946157,172.55935081004864,172.6537885335638,172.73734259285942,172.65055312283937,172.66309235558631,172.7195779398622,172.70392897293246,172.5015394354444,172.5461170641779,172.50038856748122,172.4109691528545,172.55388824884793,172.53314527503525,172.40048327244483,172.63494440924018,172.4739430543572,172.56733672677078,172.65155000862714,172.51900370593813,172.57077573075043,172.57006122273,172.59797161408952,172.6916863105847,172.63594059690345,172.59603277274687,172.5803540636855,172.49519161762595,172.61361021629085,172.39632011022448,172.3075862465171,172.32163994713554,172.1463365654943,172.4105341800523,172.37032461936226,172.21654040404042,172.3629965817367,172.4632156502255,172.24220678569378,172.28965794306703,172.50624730719517,172.295992426633,172.40926984856756,172.71565835275166,172.63793153008135,172.55196483971045,172.4863350288818,172.37666475315729,172.39938560477736,172.36967328525043,172.32545585068198,172.40306019730218,172.22715127136905,172.2745655608215,172.2960248340088,172.13432278808062,172.22732359608597,171.94526805723152,171.97640804597702,172.06275524877768,172.04084154858737,172.13160922846788,172.0159291526496,172.33545635320903,172.28557841950544,172.360175231288,172.2794075269437,172.27176324813416,172.39685425685425,172.21481118195194,172.26709364722174,172.0422344501743,172.10444105017436,172.23670926241093,171.96564236961092,172.0290590405904,172.04194514865176,172.25578109682255,171.97182855167645,172.1367513977751,172.0594030882692,172.0772910662824,172.0548785757497,172.03882488479263,172.1265965114603,172.02092507843307,172.18453290289108,172.32797093928386,172.37478366216683,172.32545659136156,172.23693017888056,172.47218852885115,172.64320605832876,172.51366815003178,172.40113744623113,172.38011375119092,172.2241782343944,172.2713968189822,172.00455278930383,172.19179584884964,172.17093251675524,172.22814677731833,172.01811991459402,172.22792992987215,172.24085040006932,172.16970623881804,172.2388184679352,172.23947725240168,172.25298873808836,172.47300540759377,172.29032351242057,172.5399225254394,172.43980102380195,172.57699878422972,172.5964064579596,172.5693954295632,172.4964573874317,172.45475577662742,172.42465397173982,172.31308694772733,172.28257416019179,172.26150204929863,172.36791771402156,172.3067620999163,172.14927569688925,172.28382514292315,172.4650907409548,172.336470995871,172.44344283609257,172.4622518852388,172.33636363636364,172.47382864405802,172.61319201778957,172.50679869511245,172.67841855622396,172.50764340413235,172.62483739484867,172.83460279764836,172.62795810912456,172.52574995664992,172.57304800462694,172.52664005553626,172.28197137580793,172.46700610408772,172.30538610540924,172.4342242276987,172.3860988232573,172.4204804995808,172.4165052753288,172.35540794223826,172.4646963656324,172.43427019844594,172.48030381794027,172.36831317301306,172.53547697463455,172.5417545888134,172.5618425615536,172.59189165726193,172.5127062228654,172.87704490080057,172.66645424789272,172.7661332405636,172.76607593468108,172.73093208050577,172.6078885638991,172.5774011299435,172.38896922720963,172.54409549194577,172.48294236895453,172.42921660587112,172.40801367481748,172.58125779233958,172.3426974427293,172.5692254174397,172.45470322804582,172.43695752806389,172.48477135336825,172.48291512488436,172.46528560284304,172.54829290856003,172.53323123157833,172.57552542568877,172.5627567849083,172.69638310185186,172.67489497320005,172.87991652415872,172.7048225923244,172.63279485843321,172.59559950270332,172.58811611820207,172.48915022104077,172.6126978615042,172.29060199220442,172.32539865957938,172.48037145254145,172.54461289202638,172.5244753220437,172.46683260013893,172.4037888647867,172.4658275462963,172.47582954841323,172.3978818218647,172.557074187757,172.49690214244353,172.71380949620269,172.72040638606677,172.5284498726557,172.62531139563177,172.6747686863706,172.7056180426716,172.60852791878173,172.64227948636193,172.50901670188438,172.5602570039361,172.66548662294701,172.62825677438053,172.58114879935115,172.498972414392,172.50947716206818,172.3950224280133,172.56240592798426,172.4920841654366,172.58989495615938,172.49949385394072,172.68961129106896,172.548004626952,172.66123062687947,172.5842680388529,172.64715922240222,172.7726983207875,172.50208188757807,172.61467491901897,172.80813380485824,172.6066990347379,172.52119304729456,172.5344130723483,172.39476950610512,172.4580713997347,172.3724608868528,172.38518283721868,172.40336764409076,172.3779609244424,172.50536394047757,172.32530016411852,172.32779138452673,172.5157475772958,172.33647146887776,172.4077297749085,172.41603988357684,172.4222408026756,172.57923576063448,172.6008484603619,172.6957764369641,172.67301147834112,172.7195452709331,172.69303989154577,172.57708591342416,172.55874214561595,172.34725179856116,172.45119949313136,172.39938918981215,172.2483803161623,172.32499927906105,172.2237701850839,172.45708761399052,172.35307175598928,172.26116502058798,172.3841275332238,172.31289403229985,172.35390424581328,172.40808918848847,172.2747151570952,172.36817252598544,172.49029672135876,172.25039564929645,172.49416846652267,172.5107461826563,172.62997171390637,172.68291838559847,172.5477583970016,172.3904756420592,172.31365430604777,172.28162724365438,171.95940078783173,172.05607395887333,172.1979250720461,172.09628519553877,172.05095046082948,172.3606679888477,172.39922959726334,172.3377182904412,172.25282238372927,172.49971244536462,172.379191449013,172.44416032179285,172.52658671958127,172.5471442957848,172.51205477875598,172.49222187077666,172.63771662156717,172.73355035722517,172.78139588496342,172.5744515460356,172.6815341645311,172.50847116352654,172.58585858585857,172.69739986754587,172.53799453316068,172.63978107446349,172.55515891294334,172.41076772559853,172.44535904446684,172.43847836095765,172.37308622078967,172.61397440332064,172.55199723526192,172.5744932043308,172.64753011700964,172.8657297858833,172.78270023939317,172.76373594695878,172.88678482766585,172.77172095704813,173.03619817997978,172.63850008640054,172.78685356638113,172.67912682870636,172.63874963987323,172.56841075231682,172.5649619903248,172.45397766520838,172.50398756226068,172.5444524391999,172.623937534215,172.59606691428408,172.6328818443804,172.44654214752353,172.4948465480509,172.4601836129738,172.55473002159826,172.60516158764906,172.6530694552473,172.86976462443752,172.6342995447473,172.66328880700138,172.89772366636853,172.8700354763347,172.75425439861553,172.6962809322156,172.6799573314882,172.54919118070347,172.4220539980427,172.42713726843863,172.64731988472622,172.569270683194,172.44988190563973,172.46817514465843,172.41700020156065,172.3077985611511,172.41945892996054,172.49008816919266,172.5306798858691,172.58213945980225,172.64001152239666,172.72455124326504,172.68343459356734,172.65618255589766,172.74593583657028,172.9081500273878,172.9467542570663,172.92742353551063,172.6283733241268,172.5372889643073,172.4497742501366,172.398936628826,172.58136252340486,172.46765882725467,172.5081193136013,172.31484197509562,172.29750308881418,172.3570894234089,172.55327479487548,172.25320927026794,172.46310037388554,172.47489148868894,172.53125718886588,172.55923380022435,172.46499669644652,172.5852985160474,172.63200276084206,172.5996953235032,172.7965935899649,172.62775254412693,172.67636833788248,172.93729306423288,172.63543583256669,172.7160291281697,172.64216222439697,172.51391684398183,172.47301569055693,172.49555740863215,172.4633431085044,172.47435750014373,172.54651162790697,172.40034462952326,172.38261069448035,172.35145614337412,172.58340291975006,172.50269134452088,172.51388049825954,172.66192601122788,172.45936934088363,172.60165640996146,172.65229273344457,172.7910353171631,172.8630192268888,172.72541054451167,172.68944671541252,172.72691931117893,172.68325270674958,172.61388217696467,172.5122441940676,172.58947428998934,172.51217268833895,172.46607975142413,172.57908530614597,172.47931222864372,172.64850301126702,172.31934705138522,172.42943409247758,172.49283783006385,172.60820713238886,172.61830260849558,172.69588741474084,172.86000345741616,172.5339940078359,172.47988588553974,172.5522637539987,172.54970878265382,172.52204504166787,172.32919379934305,172.37314163881527,172.375979714154,172.1765281736777,172.2207380966089,172.18034815134513,172.41788721024102,172.3105454126591,171.98771068423923,172.23264907135874,172.16532919147468,172.19566718453305,172.18357307249713,172.16770650642593,172.3571613720803,172.46656876295785,172.26087456516115,172.57091432685385,172.2682023149611,172.50138121546962,172.56606706000863,172.67238051338194,172.41279387643522,172.35626726519337,172.28698777857656,172.1736218888314,172.26014038317703,172.17878107734808,172.25297978925548,172.3027509722022,172.17719151874334,172.11362328845934,172.1712141686553,172.10338885697874,172.17166173385823,172.19385967431575,172.30275071139087,172.39720553143778,172.32692528735632,172.43627634189116,172.36640211640213,172.33053599655122,172.32947129344794,172.40841099988495,172.43948934701976,172.51966259788117,172.45211433835172,172.38863132432976,172.34854628591148,172.4214902186421,172.3948753343111,172.16041367423153,172.1724742179196,172.09418895240285,172.22536708715268,172.3455988041166,172.2176249173922,172.23146951552224,172.33240432134238,172.26823448236206,172.48833995508724,172.4933241252302,172.40398608035431,172.29824057037717,172.3650830191937,172.36863151232703,172.50673963133642,172.56994146313332,172.4816607600772,172.40976945244958,172.32548025690505,172.34987464338204,172.32909022837887,172.2005758710049,172.30457949308754,172.21465561885034,172.20206642491223,172.26374132619273,172.42640062281941,172.30492020510457,172.3106322833737,172.0713195264568,172.27438197709637,172.3221844184303,172.3378140594802,172.4383253560925,172.56961367442398,172.52631123170627,172.60964126855757,172.53537395321976,172.72254652641314,172.5859086715867,172.52452775775055,172.3644062914098,172.45652738126137,172.238770753604,172.1430709023941,172.04459020166277,172.35323956652064,172.26789931455562,172.40705746795334,172.2663346957573,172.30690250215704,172.4167266653227,172.33581745986075,172.5079978096089,172.60374419476736,172.56299008302582,172.44492453047587,172.6355218369584,172.56851664984865,172.67240981240982,172.63303123015643,172.59583549633732,172.6073954334209,172.38027032479323,172.62809011451813,172.39062409957933,172.41725499236378,172.33919004550953,172.10013512347987,172.28665188980685,172.25991658277002,172.25989415554534,172.40886699507388,172.3165179856115,172.42685105157014,172.30801748432737,172.49435613913846,172.50290898617513,172.3744782521086,172.6386733958183,172.71148192979422,172.58423662361625,172.5331219371577,172.63471517527674,172.72157270286655,172.53423039243935,172.57502523431867,172.44480912074624,172.33307433307434,172.33642010813298,172.3582106748855,172.29414474062986,172.19916009894726,172.31959504156,172.29099692325389,172.47721511694897,172.32713369937045,172.3764062724788,172.37268831430296,172.50797305854584,172.68695576956347,172.55119380202183,172.30298498878471,172.54730235504118,172.45576801244025,172.58471253099592,172.76640503260808,172.69232988976742,172.43531241897847,172.45371197924175,172.33669325807102,172.45965347248247,172.27508919323282,172.27824484625128,172.08372441194254,172.23598871032775,172.1985374560949,172.22541007194243,172.31315167924419,172.2334600103645,172.31467665274377,172.4515003891499,172.48474107374426,172.317786606783,172.47704677098642,172.3882539225565,172.5422947228867,172.5839753022303,172.45966510072918,172.61563762261974,172.6689545782264,172.61024473206308,172.7673801419258,172.76928404467145,172.7610325930199,172.66057900043208,172.81275061301025,172.59084360954247,172.656272535841,172.5571498544962,172.70747259088287,172.57032916354413,172.53255699997118,172.60598460607108,172.5262763627982,172.52497621998674,172.4692966025992,172.45603112840467,172.4217020295203,172.4152222190177,172.44608239095314,172.436185254653,172.45945789747444,172.55279754672222,172.34171362519868,172.43743671343844,172.3926795420377,172.51050772882533,172.1268203883495,172.26251879264484,172.17732650640747,172.0921315173072,172.0115132054731,172.12805813717827,171.9982359235374,172.14064762787464,171.93122977346277,172.00240224595527,172.04098645362973,171.9843831337845,172.06703506538594,172.08266064867055,171.96722638074044,172.18872669460904,172.23566344540245,172.4021338900003,172.19408818505545,172.28406426400346,172.41868552219776,172.33409571234185,172.20942468921655,172.3764579896385,172.02592678138353,172.15023677523678,172.10887946209564,172.2113278427973,172.01480604941122,171.95308535178776,171.91214716143355,171.9615884101469,171.9605699616372,171.85424657534247,171.9878031198639,172.1547454104607,171.90077193386716,172.00409339867397,171.92614684186262,172.13099013897698,172.0337804702149,172.283447039778,171.99058125468056,172.13264245713296,172.18357725458438,172.19059198147343,172.40759147847822,172.26319005907516,172.28560612678723,172.11034222080073,172.09060754189943,172.15346736596737,172.04538304689777,172.07795573675014,171.8309809970026,171.92169533956277,172.17549938850388,172.0413843035042,172.18860448300796,172.28298284689478,172.48275862068965,172.3466516112221,172.46595054722334,171.98596299071886,172.1519743678559,172.37013062073748,172.23233664280767,172.31452522040757,172.34960784881196,172.19164186006185,172.19641047908524,172.05939993062782,171.76449861367837,171.9973638470452,171.99782910732893,172.03188162390688,171.85731231014032,171.9591931236072,171.90703393999016,171.98452801761604,171.86646807033782,171.71221047767574,171.99187884743216,171.91168913652243,171.98867182984625,172.09288811795315,172.1067514818563,172.06240421040457,172.15107601527248,172.21490999594837,172.3036391534698,172.1240745025451,171.9897929678464,171.91948809798936,171.91435753705684,171.83166459878234,171.71080028839222,171.7173417903993,171.79740956556856,171.96511896511896,171.8378892733564,171.54014325576043,171.75508616218085,171.85028525327033,171.85588260731686,171.77179487179487,171.83395812907318,171.81732210817668,172.10989201362824,171.79510227600116,172.02519458057077,171.98543577320183,172.06757029560202,172.00325714121004,171.89630653194,171.82376140714513,171.7773493698567,171.7599378703331,171.57651991614256,171.55307054061038,171.698591954023,171.78900586813944,171.75911548194156,171.70824348026107,171.73104418477791,171.9105889796388,171.62447293692452,171.83114009883923,171.9025217816373,171.83966244725738,171.79378839198577,172.00834100322135,171.8635932515161,172.01247413198436,171.95791986654012,171.9497684053051,171.91618488796848,171.8222509702458,171.77899582793842,171.69542840713052,171.65135477190358,171.71409268629256,171.61105201115552,171.7279737584163,171.7112108655617,171.5369550212815,171.67897082075606,171.6340643232834,171.7270634943468,171.75772572941244,171.69150221506243,171.96213410237922,171.65558660022467,171.77473811791188,171.65692756301064,171.4843028624192,171.57333063770795,171.7702859127214,171.6744548736462,171.62900427894067,171.73767977544347,171.6940468962327,171.5398989169675,171.52175796251913,171.41661376882683,171.40099809611723,171.6623894572568,171.57083886611628,171.62724624304133,171.62516594516595,171.77250569673194,171.69447569594692,171.89780600461893,171.67290339320206,171.92700034638034,171.78678973175656,171.86581386618926,171.93888471105456,172.0440886984715,172.04538354737937,172.0169275731358,172.06156608363258,171.87076620484194,171.85142130071426,171.71526472544315,171.7822031689019,171.67447374508444,171.8536408890947,171.62390493538035,171.64147561363438,171.62310381692623,171.87867391807453,171.8112961622013,171.85533134535768,171.73917194687962,171.86681918220782,171.9800435097897,172.01687494563484,171.96129761697688,172.091157173547,172.14823522582142,172.15682003020797,172.27642229080533,172.2073223884934,172.12176414189838,172.00740138739732,171.95718059627833,171.93493577662443,171.97767001568036,171.78980485400297,172.00168560551018,171.82513708764907,172.01432889612278,171.86180088187515,171.81350706765167,171.75531452104056,171.87107922862452,172.13212156463575,171.9583502877405,171.86745939675174,172.16998810663418,172.2014344619316,172.18915151867122,172.1804165696998,172.09245777518927,171.97367731415426,172.30362361192286,172.4184556887979,172.35082379795733,172.20679977782325,172.0667231952282,172.13463562989824,172.15051341310007,172.05180892167195,172.18261633011414,172.18004916018026,172.04480752930172,172.08323834575478,172.06183306534132,172.08798760161412,172.0998100803506,172.17541400157714,172.14364592462752,172.40602515355366,172.2523987830564,172.30364728284752,172.28124176306926,172.24636025426955,172.38196340997857,172.5021605573356,172.383610311821,172.22067892171256,172.38386006173747,172.16630961115186,172.3187907632646,172.37637596501014,172.06168935734152,172.1850841691595,172.27866737052025,172.252096159484,172.21802197802197,172.22921064977714,172.1816555728235,172.24382444405327,172.4148776834748,172.44812511002874,172.37184867783876,172.372928095755,172.48270597216512,172.61826202029113,172.61455882352942,172.60885424327108,172.48793888644042,172.59381334273377,172.4276194110912,172.4224550283182,172.50752265595213,172.56056014827453,172.52414298271316,172.65783690333168,172.36117763888078,172.41736588218097,172.33084221281564,172.26293543215274,172.30179878137665,172.35926239313744,172.2752507581059,172.3723677302689,172.3649946015349,172.3318549210703,172.24146882109315,172.36730943143033,172.4254101710749,172.3951900064211,172.39584063558826,172.49385239917058,172.56378251973106,172.49419709416202,172.4494509987151,172.4563623082542,172.36980944877294,172.2711815058522,172.2086642809345,172.15001455604076,172.0833672106394,171.80566907225457,171.88371485010458,172.11206468750913,171.98146201903427,172.0439095550693,172.08047855266997,172.0450137290413,172.11763846266257,172.10441790521799,172.07664212248713,172.35016638449414,172.33395533267245,172.45235180975695,172.58286745865362,172.41100361347478,172.21115606936416,172.44037678060621,172.60738410022515,172.78921384646478,172.68761536686662,172.58328526935057,172.64920227344854,172.4868815592204,172.1389808074123,172.17844487338309,172.110615136505,172.00449412306983,172.0905529953917,172.03011093502377,171.89172011158723,172.03626838605683,171.8409045197253,172.0493589375036,172.1719628312493,172.22637015781922,172.3472202269789,172.40741593073096,172.30668007470192,172.48191418951973,172.4968624064479,172.499006021493,172.54034328573488,172.59040664954256,172.54279038910843,172.4639014681704,172.4188581314879,172.36913679843263,172.36150478165686,172.1870068536543,172.20706343262086,172.1575644162948,172.33608847161824,172.1136049723757,172.0563242527975,172.25392941447407,172.01767444533854,172.06763243367539,172.0772838440512,172.13811852704256,172.16470926885435,172.2533075836624,172.2973479388873,171.97642719229992,172.13211194460473,171.89356000576285,172.08806883806884,172.13315036833743,171.78123376998096,171.77872254568513,171.52205712969362,171.52127353330647,171.2806871391227,171.0963679137021,171.07700246545497,170.99934072863817,171.25687045917928,171.23824982762582,171.10126545955407,171.0966955424244,171.0907186316152,171.03391725680208,171.0197900533471,170.9861274327152,171.20100545820168,171.24964824120602,171.27241636969768,171.2206216394951,171.372280651203,171.52544668587896,171.34250482583766,171.46211312700106,171.6240993717217,171.84793836742938,171.67957107030642,171.68656544079442,171.66165478629765,171.43818796405975,171.22519271299478,171.24707310727604,171.157068970499,171.2654716052243,171.1081955843255,171.12006131775323,171.19184381778743,171.1385798098321,171.2238391436424,171.08825484924697,171.25514010583848,171.4446664928896,171.37133012913313,171.34416975451597,171.42840616594847,171.53280300838878,171.6772560252293,171.794187460198,171.99765482498046,171.9672676757445,172.1438340287436,172.20201990887193,172.45734176109056,172.12497457503994,172.16092388146427,172.05675510737845,172.08851591133865,171.97381284916202,172.1904831326355,171.9568282451643,171.88276506305465,171.74700660008176,171.38902022589966,171.52713019568841,171.4368943408379,171.53582518015116,171.77278189758772,171.7973345049795,171.75155443453778,171.83623396824464,171.89110537432526,172.05672571311067,172.0228839665542,172.02796505833382,171.8680338179797,171.81695331695332,171.74953145132952,171.61624952542275,171.64526672113925,171.642411884649,171.86592406835015,171.71923188827466,172.01701086481606,171.8449677681631,171.99692673451045,172.27771176862666,172.41982389062682,172.6206706822657,172.8531440162272,172.92222833482933,172.60587014185217,172.86870581445677,172.9009209272785,172.69174925097948,172.80588489831243,172.68830008072888,172.6216029080838,172.59055754357612,172.59320026575003,172.27055871239435,172.3005918868197,172.21474321984996,172.1163784392413,171.99581807169844,172.02234266439876,171.82571288809598,171.75831275483833,171.7474225323799,171.76038614032063,171.84040600986353,171.96559139784947,171.90603334670257,172.16228473019518,171.93102460542522,171.89221419561977,171.7034745495689,171.7227305320522,171.160651887495,170.9731518624642,170.71400298301972,170.44498033474005,170.04767648917226,169.94610022661428,170.08410088663166,169.99111136598233,170.23417521478032,170.23932090431185,170.33869027157098,170.67026980531583,170.7935849380526,170.84494838285337,170.98799348217605,171.00137029318566,171.04958323818224,171.21860518336288,170.95817729624653,171.2233557816306,171.12935808775,170.55145608870853,170.15983220614675,169.79641265851708,169.39821821193,169.2536695413787,168.97031312382364,169.00770635917343,169.18223351703264,169.26135098884166,169.41445431943532,169.19756570320962,169.31661772671552,169.2887697484743,169.4405797928496,169.42744605548577,169.6661713861188,169.5620181600137,169.66143331045527,169.6212012922039,169.61902173913043,169.53024839743588,169.7103708144215,169.69798312115577,169.71740436611256,169.45377983327623,169.519827191577,169.28019654896582,169.24655029568893,169.12137142857142,169.23573981415296,169.18900765976906,169.20406529632064,169.39040526994128,169.34542956900006,169.64326680431293,169.56391882595736,169.48457417857858,169.55120119259217,169.74402318973682,169.66520354591617,169.64739154153148,169.81583565900394,169.88998012730048,169.75459098497495,169.60251839926403,169.89014530283413,169.98883324699247,169.87691511684727,170.0998905466905,170.00766658980862,169.97047119211027,170.07495308214234,170.11323588884395,170.0749747292419,170.00656069364163,170.1010842850947,170.24474270342193,170.33350715568687,170.4403435468895,170.32606053591064,170.45862178837297,170.29499566097772,170.4889634622617,170.50137501809235,170.5272890640851,170.63087131639188,170.51013435255965,170.31071728491588,170.4237573226611,170.59702837869273,170.43698455105124,170.55976049296592,170.41691851679647,170.50994012672209,170.58198748726903,170.64491742265642,170.57877429868466,170.4854044310054,170.68561941102794,170.76291722490825,170.80313492410338,171.10836762688615,170.87168425348335,170.8320093457944,170.6430965635839,170.6811911219996,170.6335443591913,170.62873553164815,170.7099372537575,170.599941682461,170.7994328811974,170.6995621716287,170.7020717829005,170.87088762928767,170.78467600700526,170.87644719915798,170.85358946661606,170.88636164303463,170.9235985269188,170.82967338226263,170.95437106457754,170.91118526975205,170.90820392616467,170.88120842734492,170.89412178191722,170.88921111989922,170.87223068807876,170.9519721033816,171.12295130118076,171.0936453867387,171.27025995006608,171.33178408589498,171.1032246706376,171.23146351502322,171.22973330588962,171.20209356346848,171.41056970410716,171.31633133309802,171.25932462642663,171.441519434629,171.42361336360688,171.43804357439782,171.5838274773579,171.46682952672475,171.36205982805322,171.243422214374,171.41189978508552,171.1278038755138,171.26106376726418,170.78976175144882,170.75190303314204,170.81962888048545,170.69419623238508,170.63278803663925,170.79006091132717,170.78396651641984,170.87758211491692,170.8344208093162,170.69026781794233,170.98111603084772,170.96041636123735,170.94986807387863,170.8584695611414,171.26513791174827,171.2704860088365,171.2375025745138,171.4562297496318,171.45818117563906,171.32663847780128,171.41777176629716,171.46438754813485,171.45599248186545,171.23412861246263,171.26249596904225,171.26022337525285,171.1882504539331,171.09738682585666,170.86524553831796,171.08329682525775,171.02593988256945,170.98041847841947,170.7295318652472,170.72974390350493,170.89388504942698,170.94957125357288,170.82455219090963,170.88072324292796,170.93993221923571,171.1021285304953,171.11024726720055,170.90855190139612,170.96071678729862,170.94297376093294,170.9035218037228,170.8601897113594,170.79737630530266,170.8268123946282,170.9236392229956,170.90635831415838,170.780575120787,170.91687276324595,170.95684333139195,170.96314854196405,170.90603909704444,170.92601327742838,170.92046412888592,171.07097337407245,171.07993251694347,171.00320065176908,171.18883195528124,171.09760503467163,171.04408683505994,171.17335431418832,171.02584377452834,170.90051183621242,171.25744104014225,171.19383709404698,171.21380736081994,170.7549897164045,170.81470741750275,170.76833618514544,170.8594022054556,170.81568650184053,170.67749036873968,170.84524257784216,170.7670772351833,171.06649260226283,170.8859348696813,170.98711549622752,170.92274217412748,170.99782267897578,171.07837719936018,171.10683312961993,171.05803805201606,171.19648734453733,170.88897928349363,171.03686689538873,170.69018129079043,170.77621605924205,170.68496129425068,170.60872967568037,170.72343577528613,170.6730222299611,170.8053853080431,170.64555932990737,170.6815462360595,170.4654892407633,170.61503357265354,170.70584132519616,170.6630504333663,170.79244404342637,171.11029626599662,171.15550295166287,171.13522518046585,171.06244515940332,171.2842197802198,171.22344290150582,171.3818421824582,171.10050883144228,171.08571762916154,170.9714928293951,171.0783918128655,171.09765431016856,170.9089025706866,170.979344750124,170.89475373482728,170.90538531066858,170.93496360989812,170.86286612705993,170.91017650142715,170.87538922678462,171.02839437930933,171.196297051032,171.1555788370875,171.07242922746033,171.21060747119748,171.30937053974543,171.16766676376346,171.2233006878862,171.31416987516042,171.26474446809132,171.13622850480908,171.1868673609288,171.24808057217925,171.12784935579782,171.05918313877325,171.08443486868921,171.22072505614372,171.0800524170064,171.12364557846908,171.02868363636364,171.37281660980375,171.07714235848508,171.21397163740136,171.3395264859198,171.27967583955223,171.30209729099911,171.37428962783784,171.33990320135285,171.4853618708812,171.61225384210834,171.6881261866511,171.57329911638624,171.7300350262697,171.6837641710139,171.1074267478967,171.25942041597773,171.25531914893617,171.10646068229906,171.07266666666666,171.02259494220908,171.09222737819024,171.22312155497534,171.13169202183255,171.17866774932577,171.28823887873247,171.19911889165846,171.23545802856148,171.36684672126387,171.1629659690417,171.39191390343223,171.3774878693669,171.4858921403223,171.3832044648567,171.60577175338872,171.47231612075998,171.39638119618337,171.16703040884622,171.12406550891583,171.13593504452592,170.9816908366997,171.0500101764894,171.15934642045787,171.11789032239275,170.9515119764836,171.12706121855462,171.1559870738595,171.146818353749,171.18658671479304,171.16803123452115,171.09955172614542,171.297601352336,171.2274090684062,171.25850161727425,171.37020072353835,171.1724881917313,171.32118344577822,171.31974875839907,171.3580427347929,171.4042870075636,171.11240050150158,171.27497812773404,171.1586574911063,171.2772707391748,171.28934794009672,171.18084114871556,171.18821646784986,171.0740622273917,171.16413391557495,171.19079502780122,171.3251755382688,171.41019664967226,171.33354705213767,171.37086614173228,171.34118711862428,171.31106703226183,171.34480947657116,171.41446233887703,171.42278799216626,171.4569596533349,171.42191476292157,171.5295098756401,171.4380441473925,171.4484537593434,171.25425908068146,171.32859524436256,171.27211800169744,171.17210838619158,171.2517981404596,171.3022569139917,171.22855053385987,171.35802685859738,171.09758663004735,171.27899282681892,171.1627464747528,171.16980413970782,171.397713950762,171.3314479969522,171.60213724278017,171.80718559344513,171.91423857643696,171.8995633187773,171.83797087779286,171.7326648238546,171.88893797490724,171.84374908096345,171.5000146778218,171.6521037023988,171.54908047323417,171.63162987070103,171.8226521445557,171.73949629108395,171.30836618484452,171.41813498799976,171.28416561961254,171.2937379519832,171.43582543582545,171.34288638689867,171.5398947060544,171.48125950181264,171.46016274440933,171.596787407104,171.4170007315289,171.67884260209317,171.4553268623553,171.55833308911878,171.4497803806735,171.42617577336182,171.49496280677093,171.24817902588856,171.3760536174198,171.36844570659017,171.27070110269386,171.21097404115997,171.2888018015383,171.04241964207515,171.22127075052606,171.2876788321168,171.14480468408635,171.3498556725078,171.51735300979934,171.48962703962704,171.59841371668514,171.57827010975575,171.51161367411768,171.63250955562688,171.5631747884447,171.4816740165299,171.54602339181287,171.35382098621173,171.1741476361303,171.23325554259043,171.10968005128504,170.92375886524823,170.88174388505948,170.9859818520242,170.95684519485047,170.86601259760238,171.01072643237114,171.0571968595522,170.94825081357507,170.94099360836722,170.84949327757934,170.9169113585487,170.85573627650305,171.03321978629864,170.98142865459627,171.18314879196004,171.0144881063433,171.2264161967922,171.28659534666198,170.99667240725066,170.90796114239038,170.94556333917103,170.81138126056788,170.80801213783445,170.65147711349837,170.5438514539297,170.62220015769645,170.59264237501097,171.05302236198463,170.9094006639874,171.0364272184176,170.9855338223309,170.99539868367407,170.8900194784429,171.01541818181818,171.08483932825848,171.1141901715615,171.0686565427358,171.18442026877653,171.27083697361525,171.26996972519794,171.19660730912477,171.2480572775692,171.00892545644842,170.93957001743172,171.10736597413919,171.00278802311735,170.99526396838772,170.92974306866017,171.036434423848,171.0933987744315,171.17988203504083,171.10089132770085,171.173807035876,171.01780329389933,171.2205147571462,171.24918032786886,171.17798554048954,171.4600284991421,171.2282876970876,171.2165032205652,171.3960223307746,171.24459553695957,171.2583972570897,171.26016897482796,170.94090553576083,171.070534368842,171.09980271556225,171.15811010825087,171.1363056586271,171.10600173963468,171.08200382897255,171.08809385863267,171.04701522783859,171.09478288577967,171.06585768484462,171.05697576792798,171.28241197285226,171.07765304941557,171.40824437224413,171.2214111922141,171.22914975060897,171.42203325884435,171.39109097772746,171.28108139467426,171.5426379119921,171.40187594377977,171.32566582440242,171.25316125290024,171.3175340318695,171.32862283094423,171.3230456852792,171.0213190627712,171.14234792940562,170.9609137496743,171.05517861285085,171.09667796217454,171.14224063024966,171.00911537459848,171.0075201018106,171.01857101533122,170.98221103783408,171.0537027386949,171.12273700040487,171.12387511212708,171.29229075528002,171.24340125028942,171.3118774611999,171.420344877554,171.4415862808146,171.64864473531796,171.79596094225366,171.75031839759177,171.52427886004972,171.29149446547788,171.18105865687608,171.21904210678628,171.28840025493946,171.10524030110017,171.0993088290581,171.14872804098053,171.18668327876452,171.19989570658788,171.14923210663576,170.96498842592592,171.24465275560843,171.36860762436075,171.18975117452584,171.28815231903408,171.27919872260125,171.3603433226651,171.42555979384446,171.43371460170553,171.37963583394028,171.24694049591582,171.13439562676282,171.1534659223075,171.32268296231632,171.09960506446743,171.00292931929582,171.04550599297676,171.0226250906454,170.90059751711334,171.20179241714436,171.09037545042426,170.92400951331282,171.00171014492753,171.13283854695155,171.15472463768117,171.08436803565743,171.24656581464095,171.33259822413092,171.42336530078467,171.24811375507835,171.4082166308327,171.3358574868715,171.31397174254317,171.24100238385952,171.1059448784596,171.06787041337668,170.95413935139524,170.93393654660403,170.87757646035658,171.21163898246022,171.07817759721416,171.1037951929489,171.07893441436224,171.09600069502767,170.96973463606406,171.03850159097485,170.9318890814558,171.09581236624445,171.29094752693155,171.17155416738967,171.40530193166657,171.1511284722222,171.1613621896881,171.22833642261352,171.2626895092327,171.2978636944154,171.01048667439164,171.06596910234487,170.97768580689976,170.97716485297522,170.80354406960947,170.85608973432394,171.0083600914114,170.74739244748778,170.65505085529358,170.8710870884759,170.86104526796555,170.74818751624736,170.85795240986496,170.9816041419605,171.08102709587772,171.00373393539422,170.92408944947493,171.1011554834786,171.03489820151177,171.0348173681314,171.19054794123613,171.2069915070002,171.08156706045864,171.26019254190106,171.08243063198748,170.98355434593782,171.00315658393907,170.94533873769544,170.79437035322707,170.91320700130188,170.73837074751216,170.80209478618136,170.79863965267728,170.78922405066953,170.80633772247143,170.75372723851433,170.90471361937597,170.8105214422131,170.93816612604263,170.9595067874613,171.0493014897687,170.81900269151737,171.1266653121644,171.01751283017774,171.19075984309168,171.17936867806068,171.32792557057712,171.17350469599606,171.02957480772022,171.12049837360595,171.04564447797574,171.04553887181865,170.8539420289855,170.86563097791432,170.91782689407123,171.07766877575898,171.02412293418382,171.14750529707138,171.0304505287556,170.99802921400416,171.19087245208618,171.07904794996526,171.2395966152776,171.29405794159442,171.35588848962558,171.37595292617178,171.37644636487545,171.30061420790358,171.48985633434916,171.39979147358665,171.355889579419,171.57452221933096,171.79367927531618,171.54698558511714,171.58964719491036,171.33478675175422,171.37405417894067,171.33756674844855,171.26298776264142,171.43403088468756,171.2991452991453,171.31782520911452,171.3745346454648,171.51896721216679,171.54214116422915,171.47780889954086,171.44107958157545,171.5114680224161,171.73990732696205,171.5982163539495,171.63343083026845,171.7566171348967,171.74404364607216,171.4570021723389,171.45727944372013,171.59366295264624,171.48769957404886,171.35512531110726,171.23051563087424,171.41472946762008,171.45535170854708,171.4077304204213,171.28375405280224,171.22181723509502,171.28994562073353,171.46717252164848,171.33757168510687,171.36453059453203,171.36484139847187,171.53627220821377,171.36796899852513,171.5528627337295,171.34013093100052,171.30594136921158,171.26743746913402,171.358664380576,171.10582501740544,171.17162770437056,171.2550421389131,171.19427824571594,171.0680591818973,171.05404542949145,171.12975060244463,170.98673002259952,171.14237199582027,171.03074335102525,171.1000347947112,171.09336081516534,171.23743390086582,171.23388453727878,171.1493225797093,171.27747460087082,171.25030493117268,171.40080806906374,171.1522867666251,171.5872206520789,171.62259370358507,171.36542599592906,171.47355391157453,171.31424747606994,171.3241874945445,171.33178290066573,171.25757575757575,171.3690386071158,171.17222432188854,171.2065603352931,171.2552324396705,171.28186474217205,171.28354474572328,171.23111628583902,171.39341062689348,171.4063110049241,171.3504422718808,171.43317516229513,171.4015215553677,171.48589414782,171.4886386838958,171.6656833250577,171.64834200830458,171.5452792708577,171.4829105980561,171.52563353964732,171.21038824763903,171.33840769903762,171.28060110085332,171.40519980180127,171.37233111655584,171.29360846375798,171.1800861015766,171.2385993485342,171.48875243721446,171.66811564606004,171.5522722641125,171.5091639029499,171.49650675360968,171.47490167516386,171.40869362545158,171.50763303073646,171.4543597525388,171.3185760593406,171.23225712198686,171.3107139723303,171.16620393371716,171.1458735450664,171.37665237060102,171.370969161703,171.3767370802362,171.3856954031429,171.31396339492935,171.32436243976966,171.1545883802094,171.2707458214611,171.13457192333655,171.30700723061548,171.4312514702423,171.43540192076125,171.3150142308031,171.53261859303862,171.53001614560398,171.4505355832722,171.61644278533848,171.60002351074147,171.7569338347632,171.71699611719026,171.7394718268439,171.78857025085384,171.895923473142,171.73599223506574,171.81525773195875,171.78011658031087,171.53526714865103,171.5924662569471,171.57101670981407,171.47251066333286,171.6698274338889,171.48953334314737,171.5014435540891,171.62574859132076,171.54166053073365,172.07632151467044,171.97905405405405,172.1586241393515,172.2755462630308,172.2107107107107,172.06457401741585,172.1953948530711,172.29239783299965,172.39509014192558,172.41564986737401,172.28770192194315,172.54003779378763,172.41450670130484,172.32239422084623,172.24441760443057,172.14442547680716,172.35028431690287,172.10901171346165,172.23355340721528,172.22447958072019,172.17130898694256,172.1755098437362,172.20357500441722,172.25695773818288,172.2938817632316,172.3355817378498,172.40917398738281,172.31639117239754,172.23951213763846,172.28165739678056,172.400460163417,172.52446478665289,172.4162194043055,172.49961602079395,172.53087914034361,172.59628208911184,172.39549270879363,172.3415409990575,172.2619215824797,172.5141677723721,172.30062452129854,172.33762597984324,172.2718698420184,172.27199858548948,172.24128994257106,172.3503256033238,172.28998320219256,172.32067585070058,172.25472642676246,172.345905648702,172.20999028640392,172.3426870247008,172.38245603699667,172.39346820979475,172.25676391012823,172.47934030334267,172.47139406080603,172.39610255806423,172.5886010668081,172.6827413411938,172.61775196769153,172.38106303497366,172.51482495657038,172.3695543609177,172.3198883666275,172.16068546612283,172.2009625542904,172.21871145827217,172.0882974352955,172.1292764509125,172.1438370218379,172.13959554513482,172.0612712013616,172.24029802587194,172.179213994306,172.09607038123167,172.1780725437258,172.15848436858468,172.4691982130261,172.1722782731112,172.2915344847844,172.11511150234742,172.2355879414703,172.30554494431547,172.25385405960947,172.2241338813858,172.17101440769974,172.09442047489068,171.97281843771992,172.06155966800597,172.08120472741138,171.76731934322592,171.7122782364307,171.76513707667496,171.71780974423578,171.73801149020989,171.9143561306223,171.96718520692693,171.93035688059922,171.81399302400564,171.97000909704494,172.03359469062931,171.86350174471454,172.05726277479383,171.97032318666157,172.0608950843727,172.11488112709128,172.014153159502,172.03335584461345,171.98101692926093,171.88582827304995,171.9547162059048,171.8999120492524,171.84245711772468,171.90767878077375,171.76630180285647,171.51771515434987,171.5840671718206,171.47527472527472,171.48775563942772,171.66354264292409,171.56834869094632,171.7005041918274,171.6191311978938,171.65694135549572,171.66498843778356,171.57501023930723,171.6390937829294,171.7392411733708,171.83794234825405,171.73346605381033,171.8662915091298,171.77262473266342,171.80572735000146,171.8890127622121,171.79237424842353,171.6551319991796,171.65873388042203,171.67368266978923,171.59744782977728,171.60697143526107,171.58903307068164,171.60622656982193,171.4945418361673,171.51477681311937,171.51911545324245,171.5169104739614,171.6467435867401,171.41595999766068,171.75295324637256,171.5482000058584,171.6368223421732,171.64710191642735,171.65444320777928,171.65079830946232,171.78507471449961,171.72453173624567,171.66051411467808,171.56589783417837,171.6217222971784,171.6244243010942,171.37412536229763,171.50691068814055,171.4657393850659,171.27599824484423,171.47678299566695,171.50800198952572,171.36782415526716,171.5045479804627,171.59207056203482,171.4794268167861,171.48581041544762,171.52714176963167,171.63723507167356,171.6132865086333,171.81059983566146,171.66294440048068,171.7456279342723,171.76305209097578,171.88323933732818,171.75239213384208,171.72679535320347,171.76428676147194,171.67719164640755,171.66573995493255,171.72292228343687,171.60236624007965,171.5969943754394,171.36167412476968,171.68537414965985,171.69237081977784,171.69689422795196,171.71841186992347,171.61416354264293,171.6994228121063,171.6352379837246,171.74022934706295,171.60253483198687,171.8471281555106,171.8589374816554,171.8754036756503,172.12717647058824,172.07917793719864,172.12152144496088,172.18992179690716,171.89430870433455,172.00758422011876,172.00361562656164,171.82997211213856,171.83843896713614,171.8548178613396,171.89866055692633,171.77814627846914,171.7676050136496,171.89723773141347,171.8669607410675,171.78058897943572,171.78045629386028,171.97589015318573,171.86196661572822,171.89439186408794,172.0819194918992,172.11633656081696,172.01828551269992,172.10703255978117,172.10551093064996,172.16271405873007,172.20066544962017,172.18110328984184,172.15536498393894,172.4259182709342,172.4785216260931,172.32978221094257,172.20320524172126,172.13523142150513,172.32391747099973,172.03897136797454,172.0318619511764,172.1096378797254,172.2139233038348,172.1466238510488,172.1651286889354,172.07483715035224,172.11401054398726,172.0633079120167,172.20372337286835,172.2837415166716,172.36924167257266,172.43507260063748,172.41644013709964,172.37471896816945,172.27958387516256,172.41434156744268,172.41995731056562,172.41330011271282,172.4202902852394,172.1996919613767,172.2958581635981,172.26278800818432,172.26435758169353,172.2572436905009,172.15838822621802,172.23377355690755,172.18134299545602,172.17574948055804,172.15212873344814,172.30037457637195,172.3158567774936,172.16854833917643,172.41236499955372,172.39425851554367,172.38122303228687,172.32186812533445,172.46047148470055,172.414546320269,172.4200886087241,172.46368233194528,172.38440476190476,172.54079718989075,172.2846032829707,172.5240956687292,172.6287074222817,172.29042120573482,172.5527942925089,172.3607827997862,172.38016921478402,172.37849245036261,172.4933250081765,172.5202198781756,172.38378955485038,172.40580656652617,172.51619703672912,172.57624350408315,172.5552354932589,172.5114408665974,172.60777206690634,172.5511294487815,172.70307623718236,172.6117164998961,172.5994836642037,172.48680969761713,172.68382287428352,172.52913427876342,172.37511482502148,172.4735000148293,172.25692717584369,172.3518233026979,172.44904071405273,172.37869051496935,172.4632150164576,172.51249184024687,172.30586319218241,172.28474195075756,172.4229833926453,172.36851615961135,172.42678084627238,172.65269993772796,172.41097026418672,172.48861480075902,172.72260823089258,172.49451786878444,172.63715107828304,172.49004562422232,172.47976398730987,172.41703716877112,172.438303303749,172.29513539136101,172.28908170215286,172.1278629342487,172.14053333333334,172.0061229922797,172.2113330374316,172.1564684279114,172.03825588608905,172.38975527476106,172.23834733230805,172.1058743573075,172.1269475240207,172.13810129202022,172.19302655704738,172.27766760396625,172.22669428825097,172.27338960462018,172.33379768220755,172.3669058349146,172.57488568204764,172.40843816757655,172.37236061684462,172.20889731362735,172.26565554831447,172.1075332348597,171.95608417200367,172.05431668488052,171.92452106148716,171.99433544770616,172.09470110701108,172.0682409268235,172.09568019869312,172.0387638125628,172.02028145695365,171.9927249068433,172.05187549880287,171.90475627769572,171.9333609271523,171.9665354913158,172.20636142865604,172.25485666903577,172.17054240601948,172.3252690563017,172.39111097933406,172.30811354823433,172.24653879220895,172.37462916815,172.23760850887328,172.0980461811723,172.10978605036547,172.1704330336015,171.9078772484272,171.94495982037344,171.990093739835,171.96657603877298,171.66224911452184,172.03420850334103,171.95127431849093,171.99618309317395,172.0338350319981,172.14270895080023,172.078280730897,172.00948429164197,172.05341791664196,172.2465671996671,172.09223920462978,172.04321500652975,172.3025185097083,172.19118696479543,172.05068782125562,172.23009376395296,172.09217835605858,172.0854954580538,172.09738562091502,171.90147023950675,172.05404843879853,171.86112181101663,172.11124959197602,171.95759549896357,171.88090653236557,172.0608520471648,171.9574934138472,172.0485488595012,172.01682784727768,172.06706143597336,172.11679350883946,172.14569458011425,172.31064334420398,172.33872592592593,172.21855835036885,172.34804909867174,172.17695863458576,172.0850673918184,171.9661137230551,172.1611089741693,171.89933540097473,172.02133317574754,172.07667514341475,171.9433694720983,171.93124021620343,171.96146344346593,172.02679864086275,171.95563825388388,171.97922384535931,172.04018332347724,171.97674693106705,172.22484332505616,172.164113785558,172.1802905912232,172.17567128467198,172.25379975161158,172.25838042545638,172.36582188536238,172.32114302635475,172.18457169900614,172.2290317812269,172.0345927742164,171.97984001889077,172.03083687440983,171.95488366599741,172.09165017573915,171.9795761761407,171.99606997222386,171.89201961131786,171.99379854118064,171.98609019225657,172.1115967279922,171.91687315634218,172.25573547260294,172.07496673074078,172.1734847812583,172.2353358771852,172.1504050617941,